Data from Location2.07152019.Energy5.Lamp.07192019.3%Agarose_HRD10591_14-58-51-359.txt Node
Date: Fri Jul 19 14:58:51 EDT 2019
User: cochatt
Spectrometer: HR+D1059
Trigger mode: 1
Integration Time (sec): 1.000000E-1
Scans to average: 1
Electric dark correction enabled: true
Nonlinearity correction enabled: false
Boxcar width: 0
XAxis mode: Wavelengths
Number of Pixels in Spectrum: 2048
>>>>>Begin Spectral Data<<<<<
223.165	-26.94
223.4	-26.94
223.635	-26.94
223.869	-12.94
224.104	-15.94
224.338	-16.94
224.573	-20.94
224.808	-1.94
225.042	1.06
225.277	-4.94
225.511	1.06
225.746	3.06
225.98	6.06
226.215	24.06
226.449	11.06
226.683	18.06
226.918	16.06
227.152	20.06
227.387	40.06
227.621	41.06
227.856	32.06
228.09	37.06
228.324	50.06
228.559	54.06
228.793	58.06
229.027	62.06
229.262	56.06
229.496	58.06
229.73	68.06
229.964	83.06
230.199	60.06
230.433	75.06
230.667	66.06
230.901	82.06
231.136	86.06
231.37	86.06
231.604	87.06
231.838	78.06
232.072	89.06
232.306	79.06
232.541	81.06
232.775	89.06
233.009	90.06
233.243	91.06
233.477	76.06
233.711	75.06
233.945	87.06
234.179	90.06
234.413	84.06
234.647	88.06
234.881	91.06
235.115	75.06
235.349	78.06
235.583	71.06
235.817	91.06
236.051	76.06
236.285	85.06
236.519	95.06
236.753	82.06
236.987	76.06
237.221	75.06
237.455	72.06
237.689	78.06
237.922	78.06
238.156	90.06
238.39	80.06
238.624	70.06
238.858	91.06
239.091	77.06
239.325	83.06
239.559	78.06
239.793	81.06
240.027	75.06
240.26	70.06
240.494	82.06
240.728	84.06
240.961	71.06
241.195	76.06
241.429	85.06
241.662	77.06
241.896	72.06
242.13	72.06
242.363	87.06
242.597	73.06
242.83	89.06
243.064	90.06
243.298	84.06
243.531	81.06
243.765	74.06
243.998	83.06
244.232	96.06
244.465	82.06
244.699	78.06
244.932	72.06
245.166	80.06
245.399	80.06
245.633	83.06
245.866	79.06
246.099	80.06
246.333	82.06
246.566	78.06
246.8	69.06
247.033	91.06
247.266	82.06
247.5	67.06
247.733	76.06
247.966	75.06
248.2	91.06
248.433	94.06
248.666	90.06
248.899	89.06
249.133	57.06
249.366	94.06
249.599	68.06
249.832	72.06
250.066	88.06
250.299	80.06
250.532	78.06
250.765	74.06
250.998	87.06
251.231	75.06
251.465	77.06
251.698	77.06
251.931	84.06
252.164	97.06
252.397	79.06
252.63	82.06
252.863	83.06
253.096	67.06
253.329	82.06
253.562	79.06
253.795	73.06
254.028	81.06
254.261	80.06
254.494	85.06
254.727	95.06
254.96	70.06
255.193	75.06
255.426	72.06
255.659	84.06
255.892	82.06
256.124	73.06
256.357	74.06
256.59	83.06
256.823	80.06
257.056	61.06
257.289	73.06
257.521	78.06
257.754	65.06
257.987	84.06
258.22	79.06
258.452	73.06
258.685	72.06
258.918	74.06
259.151	66.06
259.383	89.06
259.616	82.06
259.849	78.06
260.081	67.06
260.314	72.06
260.547	84.06
260.779	81.06
261.012	76.06
261.244	91.06
261.477	88.06
261.71	72.06
261.942	81.06
262.175	80.06
262.407	88.06
262.64	85.06
262.872	91.06
263.105	73.06
263.337	87.06
263.57	84.06
263.802	92.06
264.035	83.06
264.267	75.06
264.499	67.06
264.732	80.06
264.964	85.06
265.197	82.06
265.429	73.06
265.661	80.06
265.894	88.06
266.126	85.06
266.358	80.06
266.591	72.06
266.823	84.06
267.055	83.06
267.287	71.06
267.52	76.06
267.752	85.06
267.984	92.06
268.216	85.06
268.448	100.06
268.681	80.06
268.913	68.06
269.145	78.06
269.377	70.06
269.609	95.06
269.841	72.06
270.073	85.06
270.306	82.06
270.538	95.06
270.77	79.06
271.002	89.06
271.234	77.06
271.466	83.06
271.698	80.06
271.93	89.06
272.162	89.06
272.394	86.06
272.626	88.06
272.858	93.06
273.09	76.06
273.322	84.06
273.553	57.06
273.785	83.06
274.017	78.06
274.249	90.06
274.481	86.06
274.713	81.06
274.945	90.06
275.176	81.06
275.408	74.06
275.64	78.06
275.872	79.06
276.104	74.06
276.335	97.06
276.567	91.06
276.799	78.06
277.031	79.06
277.262	88.06
277.494	84.06
277.726	64.06
277.957	81.06
278.189	87.06
278.421	86.06
278.652	73.06
278.884	87.06
279.115	87.06
279.347	91.06
279.579	80.06
279.81	105.06
280.042	89.06
280.273	80.06
280.505	86.06
280.736	88.06
280.968	89.06
281.199	84.06
281.431	84.06
281.662	103.06
281.894	96.06
282.125	71.06
282.356	73.06
282.588	88.06
282.819	74.06
283.051	93.06
283.282	82.06
283.513	84.06
283.745	80.06
283.976	98.06
284.207	98.06
284.439	95.06
284.67	94.06
284.901	80.06
285.132	76.06
285.364	87.06
285.595	102.06
285.826	87.06
286.057	91.06
286.288	83.06
286.52	86.06
286.751	76.06
286.982	80.06
287.213	89.06
287.444	76.06
287.675	87.06
287.906	89.06
288.138	79.06
288.369	82.06
288.6	91.06
288.831	90.06
289.062	82.06
289.293	76.06
289.524	90.06
289.755	85.06
289.986	73.06
290.217	80.06
290.448	89.06
290.679	88.06
290.91	89.06
291.141	97.06
291.371	79.06
291.602	76.06
291.833	68.06
292.064	87.06
292.295	96.06
292.526	86.06
292.757	82.06
292.987	74.06
293.218	84.06
293.449	90.06
293.68	85.06
293.91	96.06
294.141	76.06
294.372	65.06
294.603	83.06
294.833	86.06
295.064	84.06
295.295	73.06
295.525	82.06
295.756	92.06
295.987	78.06
296.217	78.06
296.448	80.06
296.679	84.06
296.909	86.06
297.14	91.06
297.37	83.06
297.601	88.06
297.831	90.06
298.062	75.06
298.292	91.06
298.523	89.06
298.753	78.06
298.984	94.06
299.214	94.06
299.445	75.06
299.675	102.06
299.905	98.06
300.136	87.06
300.366	85.06
300.597	77.06
300.827	105.06
301.057	81.06
301.288	81.06
301.518	95.06
301.748	73.06
301.979	83.06
302.209	78.06
302.439	86.06
302.669	85.06
302.9	86.06
303.13	85.06
303.36	75.06
303.59	83.06
303.82	84.06
304.051	90.06
304.281	93.06
304.511	86.06
304.741	71.06
304.971	88.06
305.201	74.06
305.431	84.06
305.661	75.06
305.891	96.06
306.121	84.06
306.352	96.06
306.582	87.06
306.812	79.06
307.042	91.06
307.272	82.06
307.502	86.06
307.731	98.06
307.961	79.06
308.191	90.06
308.421	86.06
308.651	80.06
308.881	92.06
309.111	89.06
309.341	82.06
309.571	82.06
309.8	78.06
310.03	77.06
310.26	99.06
310.49	77.06
310.72	87.06
310.949	83.06
311.179	74.06
311.409	100.06
311.639	79.06
311.868	94.06
312.098	85.06
312.328	94.06
312.557	76.06
312.787	84.06
313.017	75.06
313.246	77.06
313.476	88.06
313.706	89.06
313.935	83.06
314.165	82.06
314.394	92.06
314.624	82.06
314.853	85.06
315.083	81.06
315.312	74.06
315.542	102.06
315.771	84.06
316.001	95.06
316.23	83.06
316.46	87.06
316.689	93.06
316.919	83.06
317.148	91.06
317.377	81.06
317.607	87.06
317.836	75.06
318.065	79.06
318.295	92.06
318.524	83.06
318.753	100.06
318.983	79.06
319.212	77.06
319.441	83.06
319.67	96.06
319.9	86.06
320.129	92.06
320.358	88.06
320.587	97.06
320.816	85.06
321.046	89.06
321.275	81.06
321.504	84.06
321.733	85.06
321.962	78.06
322.191	92.06
322.42	86.06
322.649	84.06
322.878	92.06
323.108	94.06
323.337	82.06
323.566	95.06
323.795	85.06
324.024	77.06
324.253	84.06
324.482	83.06
324.71	94.06
324.939	84.06
325.168	87.06
325.397	103.06
325.626	86.06
325.855	97.06
326.084	79.06
326.313	79.06
326.542	89.06
326.77	87.06
326.999	74.06
327.228	81.06
327.457	88.06
327.686	75.06
327.914	91.06
328.143	92.06
328.372	80.06
328.6	89.06
328.829	92.06
329.058	67.06
329.287	68.06
329.515	94.06
329.744	91.06
329.972	91.06
330.201	72.06
330.43	87.06
330.658	76.06
330.887	84.06
331.115	94.06
331.344	84.06
331.572	91.06
331.801	93.06
332.03	80.06
332.258	93.06
332.486	82.06
332.715	90.06
332.943	84.06
333.172	87.06
333.4	85.06
333.629	86.06
333.857	83.06
334.085	62.06
334.314	90.06
334.542	77.06
334.771	88.06
334.999	76.06
335.227	75.06
335.455	77.06
335.684	91.06
335.912	83.06
336.14	86.06
336.369	82.06
336.597	85.06
336.825	83.06
337.053	95.06
337.281	95.06
337.51	86.06
337.738	91.06
337.966	79.06
338.194	81.06
338.422	74.06
338.65	83.06
338.878	86.06
339.106	74.06
339.334	93.06
339.562	76.06
339.79	91.06
340.018	86.06
340.246	82.06
340.474	87.06
340.702	87.06
340.93	85.06
341.158	100.06
341.386	74.06
341.614	82.06
341.842	86.06
342.07	84.06
342.298	95.06
342.526	99.06
342.754	80.06
342.981	82.06
343.209	85.06
343.437	90.06
343.665	88.06
343.893	97.06
344.12	69.06
344.348	82.06
344.576	95.06
344.804	84.06
345.031	88.06
345.259	96.06
345.487	80.06
345.714	92.06
345.942	85.06
346.17	81.06
346.397	78.06
346.625	82.06
346.853	86.06
347.08	72.06
347.308	92.06
347.535	92.06
347.763	78.06
347.99	75.06
348.218	91.06
348.445	83.06
348.673	86.06
348.9	91.06
349.128	74.06
349.355	86.06
349.583	90.06
349.81	83.06
350.037	77.06
350.265	86.06
350.492	78.06
350.72	73.06
350.947	94.06
351.174	81.06
351.402	88.06
351.629	100.06
351.856	97.06
352.083	83.06
352.311	82.06
352.538	94.06
352.765	102.06
352.992	76.06
353.22	73.06
353.447	97.06
353.674	86.06
353.901	89.06
354.128	86.06
354.355	81.06
354.583	80.06
354.81	90.06
355.037	89.06
355.264	81.06
355.491	88.06
355.718	89.06
355.945	102.06
356.172	97.06
356.399	89.06
356.626	73.06
356.853	73.06
357.08	81.06
357.307	80.06
357.534	92.06
357.761	90.06
357.988	100.06
358.215	86.06
358.441	87.06
358.668	99.06
358.895	100.06
359.122	83.06
359.349	85.06
359.576	103.06
359.802	81.06
360.029	81.06
360.256	81.06
360.483	74.06
360.709	86.06
360.936	90.06
361.163	90.06
361.39	87.06
361.616	94.06
361.843	76.06
362.07	84.06
362.296	73.06
362.523	81.06
362.749	69.06
362.976	80.06
363.203	91.06
363.429	85.06
363.656	84.06
363.882	78.06
364.109	86.06
364.335	83.06
364.562	85.06
364.788	80.06
365.015	81.06
365.241	86.06
365.468	86.06
365.694	94.06
365.92	92.06
366.147	90.06
366.373	97.06
366.599	82.06
366.826	91.06
367.052	89.06
367.278	85.06
367.505	95.06
367.731	83.06
367.957	87.06
368.184	85.06
368.41	103.06
368.636	111.06
368.862	80.06
369.089	92.06
369.315	83.06
369.541	96.06
369.767	88.06
369.993	76.06
370.219	94.06
370.445	86.06
370.672	96.06
370.898	99.06
371.124	89.06
371.35	93.06
371.576	99.06
371.802	91.06
372.028	99.06
372.254	100.06
372.48	95.06
372.706	91.06
372.932	76.06
373.158	102.06
373.384	92.06
373.61	98.06
373.835	100.06
374.061	97.06
374.287	102.06
374.513	94.06
374.739	96.06
374.965	90.06
375.191	84.06
375.416	89.06
375.642	96.06
375.868	105.06
376.094	92.06
376.319	87.06
376.545	88.06
376.771	98.06
376.997	85.06
377.222	99.06
377.448	92.06
377.674	109.06
377.899	97.06
378.125	76.06
378.35	74.06
378.576	105.06
378.802	98.06
379.027	107.06
379.253	79.06
379.478	96.06
379.704	94.06
379.929	95.06
380.155	86.06
380.38	102.06
380.606	92.06
380.831	93.06
381.057	114.06
381.282	97.06
381.507	88.06
381.733	110.06
381.958	98.06
382.184	91.06
382.409	98.06
382.634	105.06
382.86	107.06
383.085	97.06
383.31	93.06
383.535	107.06
383.761	98.06
383.986	95.06
384.211	94.06
384.436	93.06
384.662	81.06
384.887	86.06
385.112	91.06
385.337	106.06
385.562	101.06
385.787	100.06
386.013	108.06
386.238	114.06
386.463	105.06
386.688	97.06
386.913	108.06
387.138	101.06
387.363	105.06
387.588	99.06
387.813	96.06
388.038	94.06
388.263	97.06
388.488	97.06
388.713	88.06
388.938	114.06
389.163	104.06
389.387	90.06
389.612	111.06
389.837	118.06
390.062	113.06
390.287	114.06
390.512	107.06
390.736	108.06
390.961	89.06
391.186	104.06
391.411	102.06
391.636	99.06
391.86	87.06
392.085	92.06
392.31	121.06
392.534	107.06
392.759	101.06
392.984	109.06
393.208	97.06
393.433	95.06
393.658	105.06
393.882	110.06
394.107	105.06
394.331	117.06
394.556	100.06
394.78	104.06
395.005	104.06
395.229	113.06
395.454	103.06
395.678	107.06
395.903	110.06
396.127	106.06
396.352	97.06
396.576	105.06
396.801	104.06
397.025	92.06
397.249	96.06
397.474	116.06
397.698	106.06
397.922	107.06
398.147	124.06
398.371	117.06
398.595	74.06
398.82	121.06
399.044	120.06
399.268	105.06
399.492	115.06
399.717	102.06
399.941	100.06
400.165	104.06
400.389	120.06
400.613	131.06
400.837	112.06
401.062	112.06
401.286	103.06
401.51	105.06
401.734	122.06
401.958	115.06
402.182	110.06
402.406	106.06
402.63	119.06
402.854	104.06
403.078	106.06
403.302	108.06
403.526	127.06
403.75	107.06
403.974	120.06
404.198	113.06
404.422	105.06
404.645	124.06
404.869	130.06
405.093	122.06
405.317	125.06
405.541	112.06
405.765	111.06
405.988	118.06
406.212	125.06
406.436	110.06
406.66	120.06
406.883	116.06
407.107	114.06
407.331	130.06
407.555	128.06
407.778	113.06
408.002	118.06
408.226	131.06
408.449	118.06
408.673	119.06
408.896	103.06
409.12	124.06
409.344	119.06
409.567	116.06
409.791	110.06
410.014	122.06
410.238	121.06
410.461	137.06
410.685	114.06
410.908	126.06
411.132	126.06
411.355	123.06
411.578	130.06
411.802	130.06
412.025	128.06
412.249	113.06
412.472	126.06
412.695	116.06
412.919	122.06
413.142	125.06
413.365	120.06
413.589	118.06
413.812	121.06
414.035	110.06
414.258	128.06
414.482	135.06
414.705	124.06
414.928	128.06
415.151	118.06
415.374	118.06
415.597	127.06
415.821	114.06
416.044	130.06
416.267	124.06
416.49	105.06
416.713	131.06
416.936	129.06
417.159	124.06
417.382	120.06
417.605	131.06
417.828	119.06
418.051	124.06
418.274	117.06
418.497	121.06
418.72	138.06
418.943	141.06
419.166	128.06
419.389	129.06
419.611	132.06
419.834	124.06
420.057	138.06
420.28	136.06
420.503	127.06
420.726	132.06
420.948	121.06
421.171	123.06
421.394	128.06
421.617	146.06
421.839	131.06
422.062	129.06
422.285	123.06
422.507	140.06
422.73	127.06
422.953	125.06
423.175	123.06
423.398	132.06
423.621	138.06
423.843	138.06
424.066	137.06
424.288	119.06
424.511	132.06
424.733	148.06
424.956	145.06
425.178	140.06
425.401	130.06
425.623	133.06
425.846	124.06
426.068	136.06
426.291	129.06
426.513	125.06
426.735	124.06
426.958	137.06
427.18	136.06
427.402	128.06
427.625	141.06
427.847	128.06
428.069	137.06
428.292	132.06
428.514	128.06
428.736	116.06
428.958	139.06
429.181	132.06
429.403	116.06
429.625	147.06
429.847	126.06
430.069	122.06
430.292	131.06
430.514	137.06
430.736	124.06
430.958	132.06
431.18	115.06
431.402	128.06
431.624	131.06
431.846	123.06
432.068	112.06
432.29	105.06
432.512	106.06
432.734	124.06
432.956	121.06
433.178	107.06
433.4	116.06
433.622	123.06
433.844	122.06
434.066	126.06
434.287	115.06
434.509	88.06
434.731	95.06
434.953	114.06
435.175	118.06
435.397	120.06
435.618	113.06
435.84	105.06
436.062	117.06
436.284	113.06
436.505	134.06
436.727	127.06
436.949	125.06
437.17	135.06
437.392	122.06
437.614	116.06
437.835	117.06
438.057	103.06
438.278	103.06
438.5	118.06
438.721	124.06
438.943	143.06
439.165	143.06
439.386	132.06
439.608	130.06
439.829	137.06
440.05	137.06
440.272	143.06
440.493	142.06
440.715	137.06
440.936	141.06
441.158	144.06
441.379	168.06
441.6	144.06
441.822	150.06
442.043	149.06
442.264	149.06
442.486	138.06
442.707	146.06
442.928	154.06
443.149	130.06
443.371	133.06
443.592	134.06
443.813	139.06
444.034	141.06
444.255	135.06
444.476	142.06
444.698	138.06
444.919	132.06
445.14	247.06
445.361	207.06
445.582	126.06
445.803	147.06
446.024	149.06
446.245	134.06
446.466	128.06
446.687	135.06
446.908	163.06
447.129	166.06
447.35	144.06
447.571	157.06
447.792	135.06
448.013	139.06
448.234	135.06
448.455	143.06
448.675	144.06
448.896	134.06
449.117	146.06
449.338	132.06
449.559	143.06
449.779	128.06
450	139.06
450.221	135.06
450.442	164.06
450.662	133.06
450.883	126.06
451.104	122.06
451.324	128.06
451.545	95.06
451.766	129.06
451.986	128.06
452.207	112.06
452.428	123.06
452.648	128.06
452.869	120.06
453.089	122.06
453.31	113.06
453.53	99.06
453.751	116.06
453.971	93.06
454.192	94.06
454.412	104.06
454.633	123.06
454.853	114.06
455.073	106.06
455.294	120.06
455.514	128.06
455.734	124.06
455.955	104.06
456.175	116.06
456.395	122.06
456.616	115.06
456.836	112.06
457.056	106.06
457.276	96.06
457.497	100.06
457.717	96.06
457.937	114.06
458.157	96.06
458.377	112.06
458.598	93.06
458.818	93.06
459.038	77.06
459.258	76.06
459.478	82.06
459.698	83.06
459.918	103.06
460.138	115.06
460.358	106.06
460.578	119.06
460.798	114.06
461.018	124.06
461.238	123.06
461.458	116.06
461.678	106.06
461.898	109.06
462.118	113.06
462.338	121.06
462.558	111.06
462.777	118.06
462.997	126.06
463.217	111.06
463.437	107.06
463.657	102.06
463.876	115.06
464.096	114.06
464.316	122.06
464.536	106.06
464.755	106.06
464.975	117.06
465.195	120.06
465.414	118.06
465.634	128.06
465.854	132.06
466.073	113.06
466.293	119.06
466.512	114.06
466.732	134.06
466.951	130.06
467.171	141.06
467.391	140.06
467.61	130.06
467.829	131.06
468.049	130.06
468.268	129.06
468.488	135.06
468.707	141.06
468.927	132.06
469.146	135.06
469.365	150.06
469.585	146.06
469.804	128.06
470.023	130.06
470.243	143.06
470.462	144.06
470.681	142.06
470.901	135.06
471.12	147.06
471.339	127.06
471.558	148.06
471.777	153.06
471.997	128.06
472.216	122.06
472.435	103.06
472.654	105.06
472.873	96.06
473.092	122.06
473.311	121.06
473.53	132.06
473.749	135.06
473.968	122.06
474.187	116.06
474.406	118.06
474.625	122.06
474.844	128.06
475.063	144.06
475.282	126.06
475.501	123.06
475.72	126.06
475.939	130.06
476.158	138.06
476.377	127.06
476.596	121.06
476.814	107.06
477.033	104.06
477.252	102.06
477.471	128.06
477.69	134.06
477.908	148.06
478.127	140.06
478.346	135.06
478.564	129.06
478.783	144.06
479.002	142.06
479.22	149.06
479.439	140.06
479.658	113.06
479.876	117.06
480.095	108.06
480.313	114.06
480.532	116.06
480.751	119.06
480.969	83.06
481.188	90.06
481.406	86.06
481.624	92.06
481.843	80.06
482.061	104.06
482.28	110.06
482.498	106.06
482.717	114.06
482.935	100.06
483.153	120.06
483.372	153.06
483.59	147.06
483.808	140.06
484.027	115.06
484.245	131.06
484.463	139.06
484.681	154.06
484.9	140.06
485.118	135.06
485.336	122.06
485.554	122.06
485.772	104.06
485.99	88.06
486.209	108.06
486.427	104.06
486.645	129.06
486.863	142.06
487.081	134.06
487.299	124.06
487.517	135.06
487.735	167.06
487.953	182.06
488.171	178.06
488.389	167.06
488.607	159.06
488.825	128.06
489.043	127.06
489.261	143.06
489.479	137.06
489.696	144.06
489.914	140.06
490.132	130.06
490.35	129.06
490.568	145.06
490.786	166.06
491.003	171.06
491.221	174.06
491.439	187.06
491.657	195.06
491.874	197.06
492.092	206.06
492.31	242.06
492.527	209.06
492.745	207.06
492.963	196.06
493.18	182.06
493.398	180.06
493.615	168.06
493.833	194.06
494.05	163.06
494.268	160.06
494.485	170.06
494.703	156.06
494.92	171.06
495.138	177.06
495.355	172.06
495.573	168.06
495.79	181.06
496.008	164.06
496.225	146.06
496.442	176.06
496.66	166.06
496.877	156.06
497.094	169.06
497.312	158.06
497.529	153.06
497.746	144.06
497.963	146.06
498.181	120.06
498.398	122.06
498.615	114.06
498.832	110.06
499.049	130.06
499.267	133.06
499.484	113.06
499.701	143.06
499.918	141.06
500.135	138.06
500.352	138.06
500.569	134.06
500.786	138.06
501.003	138.06
501.22	138.06
501.437	148.06
501.654	126.06
501.871	136.06
502.088	131.06
502.305	141.06
502.522	114.06
502.739	126.06
502.956	132.06
503.172	117.06
503.389	118.06
503.606	118.06
503.823	125.06
504.04	130.06
504.256	129.06
504.473	107.06
504.69	110.06
504.907	107.06
505.123	122.06
505.34	115.06
505.557	103.06
505.773	142.06
505.99	119.06
506.207	113.06
506.423	128.06
506.64	119.06
506.856	112.06
507.073	111.06
507.289	115.06
507.506	115.06
507.722	107.06
507.939	110.06
508.155	117.06
508.372	111.06
508.588	114.06
508.805	100.06
509.021	106.06
509.238	100.06
509.454	109.06
509.67	90.06
509.887	84.06
510.103	89.06
510.319	100.06
510.536	94.06
510.752	84.06
510.968	83.06
511.184	73.06
511.401	86.06
511.617	92.06
511.833	98.06
512.049	87.06
512.265	92.06
512.481	99.06
512.698	97.06
512.914	92.06
513.13	96.06
513.346	79.06
513.562	93.06
513.778	84.06
513.994	82.06
514.21	88.06
514.426	98.06
514.642	84.06
514.858	102.06
515.074	85.06
515.29	97.06
515.506	87.06
515.721	88.06
515.937	80.06
516.153	89.06
516.369	93.06
516.585	83.06
516.801	84.06
517.016	113.06
517.232	98.06
517.448	83.06
517.664	90.06
517.879	82.06
518.095	92.06
518.311	84.06
518.527	94.06
518.742	101.06
518.958	99.06
519.173	97.06
519.389	111.06
519.605	100.06
519.82	102.06
520.036	107.06
520.251	94.06
520.467	101.06
520.682	90.06
520.898	102.06
521.113	81.06
521.329	98.06
521.544	94.06
521.76	103.06
521.975	101.06
522.19	96.06
522.406	97.06
522.621	104.06
522.836	83.06
523.052	89.06
523.267	117.06
523.482	119.06
523.698	103.06
523.913	100.06
524.128	116.06
524.343	122.06
524.559	120.06
524.774	106.06
524.989	106.06
525.204	139.06
525.419	118.06
525.634	120.06
525.849	111.06
526.064	115.06
526.28	104.06
526.495	94.06
526.71	96.06
526.925	83.06
527.14	77.06
527.355	77.06
527.57	78.06
527.785	92.06
527.999	90.06
528.214	95.06
528.429	106.06
528.644	122.06
528.859	130.06
529.074	138.06
529.289	161.06
529.503	135.06
529.718	129.06
529.933	119.06
530.148	107.06
530.363	109.06
530.577	88.06
530.792	87.06
531.007	87.06
531.221	93.06
531.436	80.06
531.651	100.06
531.865	89.06
532.08	79.06
532.295	92.06
532.509	91.06
532.724	85.06
532.938	88.06
533.153	95.06
533.367	92.06
533.582	117.06
533.796	115.06
534.011	124.06
534.225	96.06
534.44	90.06
534.654	94.06
534.868	91.06
535.083	88.06
535.297	84.06
535.511	99.06
535.726	110.06
535.94	97.06
536.154	99.06
536.369	87.06
536.583	76.06
536.797	90.06
537.011	92.06
537.225	79.06
537.44	84.06
537.654	103.06
537.868	89.06
538.082	88.06
538.296	86.06
538.51	99.06
538.724	115.06
538.938	110.06
539.153	122.06
539.367	123.06
539.581	121.06
539.795	110.06
540.009	105.06
540.222	118.06
540.436	110.06
540.65	104.06
540.864	128.06
541.078	145.06
541.292	148.06
541.506	156.06
541.72	156.06
541.934	179.06
542.147	180.06
542.361	174.06
542.575	159.06
542.789	148.06
543.002	132.06
543.216	108.06
543.43	133.06
543.644	124.06
543.857	132.06
544.071	154.06
544.285	144.06
544.498	158.06
544.712	169.06
544.925	168.06
545.139	162.06
545.352	147.06
545.566	154.06
545.779	170.06
545.993	160.06
546.206	162.06
546.42	162.06
546.633	169.06
546.847	156.06
547.06	159.06
547.274	165.06
547.487	181.06
547.7	183.06
547.914	180.06
548.127	166.06
548.34	163.06
548.554	160.06
548.767	158.06
548.98	159.06
549.193	139.06
549.407	135.06
549.62	151.06
549.833	153.06
550.046	146.06
550.259	160.06
550.473	139.06
550.686	137.06
550.899	154.06
551.112	134.06
551.325	135.06
551.538	148.06
551.751	115.06
551.964	115.06
552.177	138.06
552.39	158.06
552.603	153.06
552.816	144.06
553.029	152.06
553.242	167.06
553.455	162.06
553.667	166.06
553.88	147.06
554.093	150.06
554.306	146.06
554.519	136.06
554.732	147.06
554.944	121.06
555.157	144.06
555.37	147.06
555.583	144.06
555.795	138.06
556.008	138.06
556.221	140.06
556.433	129.06
556.646	141.06
556.859	130.06
557.071	137.06
557.284	147.06
557.496	152.06
557.709	145.06
557.921	126.06
558.134	126.06
558.346	143.06
558.559	149.06
558.771	151.06
558.984	139.06
559.196	124.06
559.409	137.06
559.621	121.06
559.833	130.06
560.046	124.06
560.258	122.06
560.47	137.06
560.683	144.06
560.895	132.06
561.107	151.06
561.32	138.06
561.532	129.06
561.744	135.06
561.956	125.06
562.168	137.06
562.381	129.06
562.593	115.06
562.805	134.06
563.017	140.06
563.229	134.06
563.441	114.06
563.653	127.06
563.865	137.06
564.077	130.06
564.289	135.06
564.501	133.06
564.713	131.06
564.925	130.06
565.137	103.06
565.349	109.06
565.561	119.06
565.773	134.06
565.985	126.06
566.197	116.06
566.408	108.06
566.62	112.06
566.832	125.06
567.044	122.06
567.255	114.06
567.467	124.06
567.679	100.06
567.891	107.06
568.102	97.06
568.314	107.06
568.526	105.06
568.737	96.06
568.949	79.06
569.161	72.06
569.372	83.06
569.584	95.06
569.795	77.06
570.007	106.06
570.218	98.06
570.43	91.06
570.641	92.06
570.853	106.06
571.064	94.06
571.276	108.06
571.487	104.06
571.698	100.06
571.91	109.06
572.121	112.06
572.333	99.06
572.544	84.06
572.755	95.06
572.966	82.06
573.178	74.06
573.389	91.06
573.6	89.06
573.811	76.06
574.023	97.06
574.234	86.06
574.445	96.06
574.656	103.06
574.867	88.06
575.078	94.06
575.289	96.06
575.501	101.06
575.712	86.06
575.923	92.06
576.134	101.06
576.345	90.06
576.556	117.06
576.767	95.06
576.978	107.06
577.188	113.06
577.399	102.06
577.61	95.06
577.821	101.06
578.032	103.06
578.243	103.06
578.454	103.06
578.665	87.06
578.875	90.06
579.086	82.06
579.297	83.06
579.508	86.06
579.718	79.06
579.929	60.06
580.14	87.06
580.35	84.06
580.561	92.06
580.772	97.06
580.982	91.06
581.193	86.06
581.403	87.06
581.614	94.06
581.825	98.06
582.035	96.06
582.246	84.06
582.456	100.06
582.667	102.06
582.877	90.06
583.087	88.06
583.298	94.06
583.508	97.06
583.719	93.06
583.929	87.06
584.139	99.06
584.35	85.06
584.56	91.06
584.77	91.06
584.981	104.06
585.191	80.06
585.401	86.06
585.611	85.06
585.821	74.06
586.032	80.06
586.242	85.06
586.452	100.06
586.662	88.06
586.872	86.06
587.082	81.06
587.292	83.06
587.502	82.06
587.713	82.06
587.923	86.06
588.133	85.06
588.343	81.06
588.553	91.06
588.762	98.06
588.972	70.06
589.182	85.06
589.392	86.06
589.602	82.06
589.812	91.06
590.022	84.06
590.232	95.06
590.441	99.06
590.651	81.06
590.861	76.06
591.071	97.06
591.281	83.06
591.49	79.06
591.7	89.06
591.91	90.06
592.119	89.06
592.329	86.06
592.539	74.06
592.748	93.06
592.958	84.06
593.167	79.06
593.377	93.06
593.587	92.06
593.796	85.06
594.006	94.06
594.215	81.06
594.424	99.06
594.634	95.06
594.843	94.06
595.053	94.06
595.262	86.06
595.472	86.06
595.681	95.06
595.89	87.06
596.1	92.06
596.309	112.06
596.518	91.06
596.727	98.06
596.937	95.06
597.146	97.06
597.355	96.06
597.564	99.06
597.774	99.06
597.983	88.06
598.192	88.06
598.401	83.06
598.61	87.06
598.819	98.06
599.028	71.06
599.237	91.06
599.446	79.06
599.655	95.06
599.864	102.06
600.073	83.06
600.282	105.06
600.491	97.06
600.7	91.06
600.909	98.06
601.118	91.06
601.327	100.06
601.536	104.06
601.745	121.06
601.953	118.06
602.162	105.06
602.371	106.06
602.58	114.06
602.789	114.06
602.997	103.06
603.206	116.06
603.415	112.06
603.623	107.06
603.832	116.06
604.041	118.06
604.249	103.06
604.458	104.06
604.666	106.06
604.875	120.06
605.084	86.06
605.292	100.06
605.501	114.06
605.709	124.06
605.918	111.06
606.126	126.06
606.334	127.06
606.543	120.06
606.751	115.06
606.96	99.06
607.168	100.06
607.376	113.06
607.585	110.06
607.793	116.06
608.001	110.06
608.21	131.06
608.418	112.06
608.626	106.06
608.834	108.06
609.043	120.06
609.251	114.06
609.459	112.06
609.667	119.06
609.875	102.06
610.083	115.06
610.291	107.06
610.499	101.06
610.707	100.06
610.916	123.06
611.124	117.06
611.332	112.06
611.54	130.06
611.748	99.06
611.955	119.06
612.163	102.06
612.371	106.06
612.579	117.06
612.787	112.06
612.995	97.06
613.203	114.06
613.411	115.06
613.618	119.06
613.826	88.06
614.034	122.06
614.242	116.06
614.449	111.06
614.657	123.06
614.865	111.06
615.072	122.06
615.28	120.06
615.488	114.06
615.695	107.06
615.903	110.06
616.111	122.06
616.318	112.06
616.526	100.06
616.733	112.06
616.941	91.06
617.148	95.06
617.356	120.06
617.563	120.06
617.771	115.06
617.978	108.06
618.185	112.06
618.393	108.06
618.6	101.06
618.807	107.06
619.015	107.06
619.222	99.06
619.429	110.06
619.637	106.06
619.844	104.06
620.051	116.06
620.258	99.06
620.466	115.06
620.673	110.06
620.88	111.06
621.087	117.06
621.294	105.06
621.501	104.06
621.708	112.06
621.915	102.06
622.122	111.06
622.329	124.06
622.536	116.06
622.743	118.06
622.95	112.06
623.157	110.06
623.364	110.06
623.571	109.06
623.778	108.06
623.985	120.06
624.192	114.06
624.399	91.06
624.606	108.06
624.812	100.06
625.019	111.06
625.226	92.06
625.433	103.06
625.639	99.06
625.846	108.06
626.053	102.06
626.259	97.06
626.466	94.06
626.673	97.06
626.879	85.06
627.086	92.06
627.293	100.06
627.499	113.06
627.706	115.06
627.912	110.06
628.119	116.06
628.325	115.06
628.532	100.06
628.738	95.06
628.945	97.06
629.151	89.06
629.357	111.06
629.564	103.06
629.77	113.06
629.976	113.06
630.183	107.06
630.389	103.06
630.595	94.06
630.802	100.06
631.008	102.06
631.214	107.06
631.42	94.06
631.627	102.06
631.833	107.06
632.039	104.06
632.245	99.06
632.451	102.06
632.657	98.06
632.863	84.06
633.069	102.06
633.275	110.06
633.481	87.06
633.688	97.06
633.893	104.06
634.099	105.06
634.305	98.06
634.511	100.06
634.717	81.06
634.923	85.06
635.129	93.06
635.335	98.06
635.541	103.06
635.747	103.06
635.952	93.06
636.158	101.06
636.364	109.06
636.57	110.06
636.775	95.06
636.981	89.06
637.187	89.06
637.392	98.06
637.598	96.06
637.804	104.06
638.009	96.06
638.215	93.06
638.421	98.06
638.626	102.06
638.832	103.06
639.037	105.06
639.243	95.06
639.448	98.06
639.654	114.06
639.859	93.06
640.065	108.06
640.27	115.06
640.475	92.06
640.681	104.06
640.886	103.06
641.091	99.06
641.297	107.06
641.502	103.06
641.707	122.06
641.913	105.06
642.118	100.06
642.323	103.06
642.528	100.06
642.733	103.06
642.939	97.06
643.144	88.06
643.349	99.06
643.554	94.06
643.759	102.06
643.964	98.06
644.169	106.06
644.374	104.06
644.579	104.06
644.784	103.06
644.989	100.06
645.194	99.06
645.399	100.06
645.604	93.06
645.809	109.06
646.014	107.06
646.219	104.06
646.423	98.06
646.628	95.06
646.833	95.06
647.038	98.06
647.243	113.06
647.447	105.06
647.652	92.06
647.857	92.06
648.062	90.06
648.266	96.06
648.471	99.06
648.676	106.06
648.88	85.06
649.085	96.06
649.289	87.06
649.494	87.06
649.698	99.06
649.903	95.06
650.107	92.06
650.312	111.06
650.516	91.06
650.721	87.06
650.925	87.06
651.13	89.06
651.334	107.06
651.539	86.06
651.743	85.06
651.947	87.06
652.152	94.06
652.356	92.06
652.56	96.06
652.764	88.06
652.969	82.06
653.173	97.06
653.377	76.06
653.581	74.06
653.785	95.06
653.99	88.06
654.194	97.06
654.398	104.06
654.602	93.06
654.806	87.06
655.01	88.06
655.214	84.06
655.418	91.06
655.622	87.06
655.826	87.06
656.03	88.06
656.234	99.06
656.438	103.06
656.642	83.06
656.846	82.06
657.049	79.06
657.253	101.06
657.457	85.06
657.661	97.06
657.865	91.06
658.068	83.06
658.272	101.06
658.476	85.06
658.68	87.06
658.883	89.06
659.087	86.06
659.291	92.06
659.494	94.06
659.698	91.06
659.901	74.06
660.105	91.06
660.309	85.06
660.512	80.06
660.716	70.06
660.919	84.06
661.123	88.06
661.326	84.06
661.53	79.06
661.733	81.06
661.936	104.06
662.14	82.06
662.343	100.06
662.546	91.06
662.75	72.06
662.953	79.06
663.156	82.06
663.36	74.06
663.563	80.06
663.766	82.06
663.969	75.06
664.173	91.06
664.376	86.06
664.579	95.06
664.782	87.06
664.985	84.06
665.188	87.06
665.391	94.06
665.594	82.06
665.797	76.06
666	84.06
666.203	89.06
666.406	77.06
666.609	87.06
666.812	84.06
667.015	84.06
667.218	93.06
667.421	80.06
667.624	90.06
667.827	71.06
668.03	75.06
668.232	96.06
668.435	80.06
668.638	95.06
668.841	59.06
669.043	76.06
669.246	100.06
669.449	75.06
669.651	89.06
669.854	78.06
670.057	73.06
670.259	70.06
670.462	90.06
670.665	86.06
670.867	81.06
671.07	79.06
671.272	74.06
671.475	78.06
671.677	97.06
671.88	82.06
672.082	93.06
672.284	92.06
672.487	90.06
672.689	83.06
672.892	86.06
