Data from Location2.07152019.Energy5.Lamp.07192019.3%Agarose_HRD10591_14-58-42-360.txt Node
Date: Fri Jul 19 14:58:42 EDT 2019
User: cochatt
Spectrometer: HR+D1059
Trigger mode: 1
Integration Time (sec): 1.000000E-1
Scans to average: 1
Electric dark correction enabled: true
Nonlinearity correction enabled: false
Boxcar width: 0
XAxis mode: Wavelengths
Number of Pixels in Spectrum: 2048
>>>>>Begin Spectral Data<<<<<
223.165	-9.62
223.4	-9.62
223.635	-9.62
223.869	-15.62
224.104	-21.62
224.338	-2.62
224.573	-23.62
224.808	-14.62
225.042	-21.62
225.277	4.38
225.511	6.38
225.746	1.38
225.98	2.38
226.215	7.38
226.449	16.38
226.683	22.38
226.918	19.38
227.152	29.38
227.387	36.38
227.621	40.38
227.856	53.38
228.09	57.38
228.324	46.38
228.559	38.38
228.793	64.38
229.027	65.38
229.262	52.38
229.496	69.38
229.73	72.38
229.964	69.38
230.199	68.38
230.433	66.38
230.667	75.38
230.901	77.38
231.136	89.38
231.37	89.38
231.604	80.38
231.838	85.38
232.072	84.38
232.306	87.38
232.541	87.38
232.775	79.38
233.009	90.38
233.243	83.38
233.477	77.38
233.711	76.38
233.945	72.38
234.179	89.38
234.413	79.38
234.647	78.38
234.881	76.38
235.115	71.38
235.349	97.38
235.583	87.38
235.817	91.38
236.051	76.38
236.285	78.38
236.519	82.38
236.753	81.38
236.987	94.38
237.221	75.38
237.455	67.38
237.689	65.38
237.922	64.38
238.156	88.38
238.39	77.38
238.624	78.38
238.858	56.38
239.091	73.38
239.325	76.38
239.559	75.38
239.793	78.38
240.027	73.38
240.26	74.38
240.494	85.38
240.728	70.38
240.961	61.38
241.195	77.38
241.429	70.38
241.662	75.38
241.896	83.38
242.13	72.38
242.363	85.38
242.597	72.38
242.83	71.38
243.064	86.38
243.298	82.38
243.531	74.38
243.765	84.38
243.998	73.38
244.232	76.38
244.465	69.38
244.699	61.38
244.932	80.38
245.166	72.38
245.399	77.38
245.633	84.38
245.866	76.38
246.099	85.38
246.333	73.38
246.566	84.38
246.8	88.38
247.033	59.38
247.266	74.38
247.5	74.38
247.733	68.38
247.966	84.38
248.2	72.38
248.433	74.38
248.666	66.38
248.899	87.38
249.133	84.38
249.366	76.38
249.599	77.38
249.832	91.38
250.066	80.38
250.299	78.38
250.532	84.38
250.765	81.38
250.998	88.38
251.231	78.38
251.465	82.38
251.698	81.38
251.931	81.38
252.164	88.38
252.397	69.38
252.63	75.38
252.863	92.38
253.096	87.38
253.329	78.38
253.562	60.38
253.795	79.38
254.028	89.38
254.261	78.38
254.494	89.38
254.727	80.38
254.96	66.38
255.193	67.38
255.426	67.38
255.659	81.38
255.892	77.38
256.124	67.38
256.357	81.38
256.59	78.38
256.823	83.38
257.056	75.38
257.289	93.38
257.521	75.38
257.754	92.38
257.987	75.38
258.22	90.38
258.452	85.38
258.685	81.38
258.918	78.38
259.151	82.38
259.383	88.38
259.616	69.38
259.849	99.38
260.081	80.38
260.314	87.38
260.547	76.38
260.779	91.38
261.012	85.38
261.244	93.38
261.477	89.38
261.71	68.38
261.942	80.38
262.175	93.38
262.407	80.38
262.64	62.38
262.872	74.38
263.105	84.38
263.337	64.38
263.57	91.38
263.802	78.38
264.035	89.38
264.267	78.38
264.499	94.38
264.732	78.38
264.964	93.38
265.197	79.38
265.429	76.38
265.661	81.38
265.894	79.38
266.126	81.38
266.358	71.38
266.591	81.38
266.823	83.38
267.055	63.38
267.287	83.38
267.52	74.38
267.752	88.38
267.984	86.38
268.216	90.38
268.448	76.38
268.681	85.38
268.913	79.38
269.145	90.38
269.377	84.38
269.609	90.38
269.841	83.38
270.073	85.38
270.306	86.38
270.538	78.38
270.77	86.38
271.002	75.38
271.234	84.38
271.466	82.38
271.698	91.38
271.93	97.38
272.162	82.38
272.394	89.38
272.626	88.38
272.858	78.38
273.09	82.38
273.322	86.38
273.553	83.38
273.785	87.38
274.017	82.38
274.249	84.38
274.481	87.38
274.713	91.38
274.945	88.38
275.176	92.38
275.408	92.38
275.64	83.38
275.872	78.38
276.104	90.38
276.335	91.38
276.567	89.38
276.799	68.38
277.031	80.38
277.262	75.38
277.494	79.38
277.726	69.38
277.957	77.38
278.189	81.38
278.421	83.38
278.652	87.38
278.884	84.38
279.115	64.38
279.347	76.38
279.579	87.38
279.81	72.38
280.042	81.38
280.273	102.38
280.505	83.38
280.736	92.38
280.968	75.38
281.199	82.38
281.431	102.38
281.662	92.38
281.894	84.38
282.125	92.38
282.356	75.38
282.588	81.38
282.819	84.38
283.051	89.38
283.282	98.38
283.513	94.38
283.745	82.38
283.976	90.38
284.207	93.38
284.439	78.38
284.67	83.38
284.901	92.38
285.132	78.38
285.364	100.38
285.595	85.38
285.826	74.38
286.057	90.38
286.288	75.38
286.52	85.38
286.751	70.38
286.982	85.38
287.213	97.38
287.444	91.38
287.675	91.38
287.906	90.38
288.138	79.38
288.369	72.38
288.6	94.38
288.831	97.38
289.062	85.38
289.293	97.38
289.524	90.38
289.755	97.38
289.986	91.38
290.217	81.38
290.448	87.38
290.679	101.38
290.91	88.38
291.141	81.38
291.371	88.38
291.602	87.38
291.833	97.38
292.064	84.38
292.295	92.38
292.526	95.38
292.757	86.38
292.987	86.38
293.218	80.38
293.449	76.38
293.68	84.38
293.91	89.38
294.141	89.38
294.372	87.38
294.603	74.38
294.833	74.38
295.064	88.38
295.295	90.38
295.525	96.38
295.756	78.38
295.987	72.38
296.217	100.38
296.448	88.38
296.679	78.38
296.909	80.38
297.14	80.38
297.37	91.38
297.601	87.38
297.831	85.38
298.062	89.38
298.292	76.38
298.523	79.38
298.753	92.38
298.984	82.38
299.214	83.38
299.445	94.38
299.675	93.38
299.905	69.38
300.136	79.38
300.366	74.38
300.597	95.38
300.827	88.38
301.057	89.38
301.288	88.38
301.518	81.38
301.748	82.38
301.979	85.38
302.209	85.38
302.439	78.38
302.669	82.38
302.9	85.38
303.13	73.38
303.36	85.38
303.59	99.38
303.82	86.38
304.051	89.38
304.281	79.38
304.511	82.38
304.741	73.38
304.971	92.38
305.201	86.38
305.431	89.38
305.661	79.38
305.891	77.38
306.121	84.38
306.352	88.38
306.582	81.38
306.812	86.38
307.042	77.38
307.272	84.38
307.502	93.38
307.731	97.38
307.961	89.38
308.191	75.38
308.421	69.38
308.651	92.38
308.881	86.38
309.111	99.38
309.341	92.38
309.571	71.38
309.8	87.38
310.03	90.38
310.26	92.38
310.49	83.38
310.72	89.38
310.949	82.38
311.179	91.38
311.409	82.38
311.639	85.38
311.868	81.38
312.098	78.38
312.328	88.38
312.557	84.38
312.787	100.38
313.017	81.38
313.246	74.38
313.476	67.38
313.706	98.38
313.935	85.38
314.165	80.38
314.394	79.38
314.624	92.38
314.853	91.38
315.083	102.38
315.312	74.38
315.542	85.38
315.771	88.38
316.001	97.38
316.23	89.38
316.46	95.38
316.689	82.38
316.919	83.38
317.148	93.38
317.377	88.38
317.607	93.38
317.836	89.38
318.065	83.38
318.295	79.38
318.524	95.38
318.753	72.38
318.983	86.38
319.212	88.38
319.441	78.38
319.67	82.38
319.9	98.38
320.129	91.38
320.358	97.38
320.587	85.38
320.816	95.38
321.046	94.38
321.275	90.38
321.504	91.38
321.733	90.38
321.962	74.38
322.191	93.38
322.42	88.38
322.649	95.38
322.878	82.38
323.108	83.38
323.337	77.38
323.566	94.38
323.795	82.38
324.024	95.38
324.253	75.38
324.482	98.38
324.71	84.38
324.939	78.38
325.168	84.38
325.397	93.38
325.626	96.38
325.855	77.38
326.084	85.38
326.313	77.38
326.542	92.38
326.77	77.38
326.999	75.38
327.228	74.38
327.457	86.38
327.686	94.38
327.914	82.38
328.143	75.38
328.372	93.38
328.6	91.38
328.829	79.38
329.058	94.38
329.287	76.38
329.515	85.38
329.744	98.38
329.972	93.38
330.201	86.38
330.43	92.38
330.658	97.38
330.887	96.38
331.115	72.38
331.344	78.38
331.572	75.38
331.801	92.38
332.03	83.38
332.258	92.38
332.486	99.38
332.715	72.38
332.943	75.38
333.172	79.38
333.4	78.38
333.629	82.38
333.857	88.38
334.085	85.38
334.314	90.38
334.542	71.38
334.771	87.38
334.999	89.38
335.227	89.38
335.455	90.38
335.684	90.38
335.912	90.38
336.14	92.38
336.369	84.38
336.597	86.38
336.825	89.38
337.053	89.38
337.281	90.38
337.51	84.38
337.738	84.38
337.966	93.38
338.194	97.38
338.422	88.38
338.65	104.38
338.878	81.38
339.106	76.38
339.334	89.38
339.562	88.38
339.79	89.38
340.018	77.38
340.246	88.38
340.474	75.38
340.702	93.38
340.93	97.38
341.158	82.38
341.386	87.38
341.614	88.38
341.842	88.38
342.07	86.38
342.298	100.38
342.526	101.38
342.754	101.38
342.981	91.38
343.209	93.38
343.437	87.38
343.665	70.38
343.893	82.38
344.12	79.38
344.348	86.38
344.576	89.38
344.804	78.38
345.031	81.38
345.259	91.38
345.487	92.38
345.714	90.38
345.942	102.38
346.17	88.38
346.397	92.38
346.625	86.38
346.853	90.38
347.08	94.38
347.308	92.38
347.535	84.38
347.763	78.38
347.99	79.38
348.218	74.38
348.445	83.38
348.673	80.38
348.9	83.38
349.128	78.38
349.355	78.38
349.583	91.38
349.81	80.38
350.037	75.38
350.265	105.38
350.492	97.38
350.72	79.38
350.947	91.38
351.174	81.38
351.402	77.38
351.629	81.38
351.856	87.38
352.083	76.38
352.311	86.38
352.538	71.38
352.765	73.38
352.992	87.38
353.22	87.38
353.447	82.38
353.674	85.38
353.901	96.38
354.128	83.38
354.355	81.38
354.583	90.38
354.81	85.38
355.037	86.38
355.264	74.38
355.491	85.38
355.718	88.38
355.945	85.38
356.172	100.38
356.399	84.38
356.626	83.38
356.853	79.38
357.08	86.38
357.307	94.38
357.534	92.38
357.761	82.38
357.988	84.38
358.215	85.38
358.441	80.38
358.668	77.38
358.895	82.38
359.122	92.38
359.349	69.38
359.576	85.38
359.802	88.38
360.029	82.38
360.256	99.38
360.483	80.38
360.709	72.38
360.936	92.38
361.163	99.38
361.39	92.38
361.616	89.38
361.843	84.38
362.07	96.38
362.296	83.38
362.523	84.38
362.749	85.38
362.976	84.38
363.203	90.38
363.429	79.38
363.656	99.38
363.882	88.38
364.109	81.38
364.335	90.38
364.562	90.38
364.788	92.38
365.015	99.38
365.241	91.38
365.468	90.38
365.694	92.38
365.92	96.38
366.147	85.38
366.373	94.38
366.599	98.38
366.826	100.38
367.052	100.38
367.278	80.38
367.505	85.38
367.731	92.38
367.957	80.38
368.184	96.38
368.41	89.38
368.636	99.38
368.862	85.38
369.089	74.38
369.315	102.38
369.541	77.38
369.767	90.38
369.993	86.38
370.219	93.38
370.445	99.38
370.672	82.38
370.898	86.38
371.124	93.38
371.35	75.38
371.576	84.38
371.802	95.38
372.028	97.38
372.254	81.38
372.48	88.38
372.706	97.38
372.932	105.38
373.158	90.38
373.384	107.38
373.61	113.38
373.835	108.38
374.061	116.38
374.287	98.38
374.513	106.38
374.739	97.38
374.965	73.38
375.191	94.38
375.416	88.38
375.642	96.38
375.868	100.38
376.094	89.38
376.319	91.38
376.545	93.38
376.771	94.38
376.997	91.38
377.222	109.38
377.448	93.38
377.674	95.38
377.899	101.38
378.125	105.38
378.35	100.38
378.576	112.38
378.802	100.38
379.027	106.38
379.253	102.38
379.478	85.38
379.704	90.38
379.929	108.38
380.155	99.38
380.38	105.38
380.606	90.38
380.831	93.38
381.057	97.38
381.282	92.38
381.507	106.38
381.733	99.38
381.958	92.38
382.184	92.38
382.409	91.38
382.634	84.38
382.86	97.38
383.085	107.38
383.31	100.38
383.535	98.38
383.761	98.38
383.986	103.38
384.211	99.38
384.436	105.38
384.662	105.38
384.887	100.38
385.112	96.38
385.337	100.38
385.562	106.38
385.787	122.38
386.013	118.38
386.238	97.38
386.463	103.38
386.688	136.38
386.913	116.38
387.138	94.38
387.363	90.38
387.588	101.38
387.813	112.38
388.038	90.38
388.263	101.38
388.488	94.38
388.713	109.38
388.938	93.38
389.163	96.38
389.387	103.38
389.612	93.38
389.837	98.38
390.062	107.38
390.287	98.38
390.512	89.38
390.736	95.38
390.961	107.38
391.186	107.38
391.411	113.38
391.636	112.38
391.86	118.38
392.085	103.38
392.31	91.38
392.534	93.38
392.759	106.38
392.984	99.38
393.208	101.38
393.433	104.38
393.658	98.38
393.882	109.38
394.107	123.38
394.331	110.38
394.556	108.38
394.78	121.38
395.005	120.38
395.229	115.38
395.454	117.38
395.678	104.38
395.903	105.38
396.127	109.38
396.352	110.38
396.576	118.38
396.801	88.38
397.025	107.38
397.249	107.38
397.474	107.38
397.698	117.38
397.922	116.38
398.147	120.38
398.371	104.38
398.595	106.38
398.82	119.38
399.044	106.38
399.268	114.38
399.492	94.38
399.717	109.38
399.941	120.38
400.165	113.38
400.389	126.38
400.613	117.38
400.837	123.38
401.062	124.38
401.286	121.38
401.51	102.38
401.734	96.38
401.958	121.38
402.182	114.38
402.406	121.38
402.63	121.38
402.854	99.38
403.078	116.38
403.302	113.38
403.526	130.38
403.75	118.38
403.974	113.38
404.198	123.38
404.422	125.38
404.645	132.38
404.869	120.38
405.093	112.38
405.317	120.38
405.541	138.38
405.765	121.38
405.988	114.38
406.212	120.38
406.436	125.38
406.66	122.38
406.883	126.38
407.107	117.38
407.331	120.38
407.555	128.38
407.778	113.38
408.002	120.38
408.226	122.38
408.449	128.38
408.673	132.38
408.896	122.38
409.12	124.38
409.344	117.38
409.567	124.38
409.791	127.38
410.014	130.38
410.238	121.38
410.461	107.38
410.685	125.38
410.908	124.38
411.132	112.38
411.355	131.38
411.578	121.38
411.802	140.38
412.025	128.38
412.249	117.38
412.472	114.38
412.695	125.38
412.919	120.38
413.142	115.38
413.365	122.38
413.589	123.38
413.812	122.38
414.035	137.38
414.258	127.38
414.482	123.38
414.705	124.38
414.928	112.38
415.151	117.38
415.374	115.38
415.597	122.38
415.821	128.38
416.044	133.38
416.267	131.38
416.49	139.38
416.713	128.38
416.936	116.38
417.159	108.38
417.382	126.38
417.605	124.38
417.828	123.38
418.051	125.38
418.274	131.38
418.497	127.38
418.72	139.38
418.943	133.38
419.166	139.38
419.389	134.38
419.611	137.38
419.834	132.38
420.057	139.38
420.28	138.38
420.503	136.38
420.726	132.38
420.948	139.38
421.171	137.38
421.394	127.38
421.617	141.38
421.839	154.38
422.062	139.38
422.285	125.38
422.507	122.38
422.73	134.38
422.953	143.38
423.175	139.38
423.398	138.38
423.621	130.38
423.843	124.38
424.066	144.38
424.288	156.38
424.511	154.38
424.733	139.38
424.956	127.38
425.178	130.38
425.401	140.38
425.623	144.38
425.846	137.38
426.068	123.38
426.291	132.38
426.513	124.38
426.735	133.38
426.958	129.38
427.18	126.38
427.402	128.38
427.625	133.38
427.847	138.38
428.069	128.38
428.292	130.38
428.514	116.38
428.736	121.38
428.958	125.38
429.181	125.38
429.403	157.38
429.625	133.38
429.847	148.38
430.069	119.38
430.292	124.38
430.514	134.38
430.736	148.38
430.958	139.38
431.18	126.38
431.402	137.38
431.624	117.38
431.846	120.38
432.068	92.38
432.29	94.38
432.512	130.38
432.734	119.38
432.956	123.38
433.178	141.38
433.4	129.38
433.622	134.38
433.844	140.38
434.066	121.38
434.287	94.38
434.509	105.38
434.731	106.38
434.953	122.38
435.175	115.38
435.397	120.38
435.618	122.38
435.84	113.38
436.062	118.38
436.284	130.38
436.505	125.38
436.727	118.38
436.949	126.38
437.17	138.38
437.392	119.38
437.614	118.38
437.835	91.38
438.057	111.38
438.278	112.38
438.5	143.38
438.721	140.38
438.943	141.38
439.165	134.38
439.386	136.38
439.608	140.38
439.829	146.38
440.05	160.38
440.272	154.38
440.493	136.38
440.715	148.38
440.936	146.38
441.158	150.38
441.379	149.38
441.6	169.38
441.822	151.38
442.043	164.38
442.264	144.38
442.486	148.38
442.707	145.38
442.928	137.38
443.149	141.38
443.371	154.38
443.592	139.38
443.813	117.38
444.034	139.38
444.255	142.38
444.476	137.38
444.698	135.38
444.919	154.38
445.14	280.38
445.361	203.38
445.582	151.38
445.803	151.38
446.024	142.38
446.245	154.38
446.466	155.38
446.687	145.38
446.908	161.38
447.129	152.38
447.35	175.38
447.571	138.38
447.792	140.38
448.013	141.38
448.234	148.38
448.455	140.38
448.675	149.38
448.896	132.38
449.117	145.38
449.338	140.38
449.559	151.38
449.779	148.38
450	137.38
450.221	144.38
450.442	125.38
450.662	139.38
450.883	135.38
451.104	138.38
451.324	128.38
451.545	139.38
451.766	146.38
451.986	136.38
452.207	125.38
452.428	128.38
452.648	148.38
452.869	122.38
453.089	122.38
453.31	105.38
453.53	117.38
453.751	98.38
453.971	96.38
454.192	105.38
454.412	108.38
454.633	113.38
454.853	124.38
455.073	134.38
455.294	114.38
455.514	119.38
455.734	112.38
455.955	118.38
456.175	112.38
456.395	101.38
456.616	105.38
456.836	93.38
457.056	98.38
457.276	112.38
457.497	105.38
457.717	112.38
457.937	113.38
458.157	104.38
458.377	124.38
458.598	113.38
458.818	98.38
459.038	94.38
459.258	85.38
459.478	92.38
459.698	93.38
459.918	108.38
460.138	111.38
460.358	110.38
460.578	117.38
460.798	125.38
461.018	110.38
461.238	118.38
461.458	118.38
461.678	98.38
461.898	113.38
462.118	111.38
462.338	114.38
462.558	104.38
462.777	102.38
462.997	119.38
463.217	100.38
463.437	117.38
463.657	116.38
463.876	97.38
464.096	101.38
464.316	108.38
464.536	112.38
464.755	106.38
464.975	118.38
465.195	114.38
465.414	116.38
465.634	117.38
465.854	116.38
466.073	120.38
466.293	115.38
466.512	119.38
466.732	129.38
466.951	123.38
467.171	139.38
467.391	136.38
467.61	135.38
467.829	136.38
468.049	135.38
468.268	117.38
468.488	141.38
468.707	153.38
468.927	143.38
469.146	145.38
469.365	142.38
469.585	120.38
469.804	128.38
470.023	131.38
470.243	138.38
470.462	157.38
470.681	139.38
470.901	146.38
471.12	137.38
471.339	142.38
471.558	133.38
471.777	147.38
471.997	129.38
472.216	117.38
472.435	119.38
472.654	111.38
472.873	108.38
473.092	120.38
473.311	125.38
473.53	128.38
473.749	143.38
473.968	118.38
474.187	116.38
474.406	129.38
474.625	126.38
474.844	136.38
475.063	123.38
475.282	121.38
475.501	129.38
475.72	124.38
475.939	121.38
476.158	125.38
476.377	121.38
476.596	123.38
476.814	120.38
477.033	109.38
477.252	98.38
477.471	126.38
477.69	130.38
477.908	132.38
478.127	156.38
478.346	125.38
478.564	137.38
478.783	138.38
479.002	150.38
479.22	139.38
479.439	138.38
479.658	121.38
479.876	109.38
480.095	110.38
480.313	124.38
480.532	114.38
480.751	110.38
480.969	107.38
481.188	101.38
481.406	103.38
481.624	99.38
481.843	87.38
482.061	88.38
482.28	101.38
482.498	122.38
482.717	112.38
482.935	108.38
483.153	140.38
483.372	141.38
483.59	164.38
483.808	138.38
484.027	137.38
484.245	138.38
484.463	127.38
484.681	154.38
484.9	143.38
485.118	141.38
485.336	120.38
485.554	113.38
485.772	89.38
485.99	101.38
486.209	108.38
486.427	121.38
486.645	114.38
486.863	138.38
487.081	139.38
487.299	140.38
487.517	135.38
487.735	139.38
487.953	173.38
488.171	193.38
488.389	175.38
488.607	150.38
488.825	143.38
489.043	145.38
489.261	128.38
489.479	135.38
489.696	131.38
489.914	155.38
490.132	144.38
490.35	141.38
490.568	151.38
490.786	164.38
491.003	170.38
491.221	172.38
491.439	190.38
491.657	177.38
491.874	204.38
492.092	213.38
492.31	242.38
492.527	235.38
492.745	190.38
492.963	197.38
493.18	189.38
493.398	184.38
493.615	188.38
493.833	169.38
494.05	167.38
494.268	177.38
494.485	164.38
494.703	174.38
494.92	197.38
495.138	165.38
495.355	162.38
495.573	177.38
495.79	165.38
496.008	165.38
496.225	149.38
496.442	166.38
496.66	169.38
496.877	155.38
497.094	168.38
497.312	162.38
497.529	158.38
497.746	133.38
497.963	140.38
498.181	126.38
498.398	107.38
498.615	123.38
498.832	102.38
499.049	120.38
499.267	120.38
499.484	118.38
499.701	138.38
499.918	139.38
500.135	131.38
500.352	131.38
500.569	149.38
500.786	150.38
501.003	156.38
501.22	128.38
501.437	130.38
501.654	131.38
501.871	137.38
502.088	118.38
502.305	138.38
502.522	117.38
502.739	138.38
502.956	133.38
503.172	128.38
503.389	116.38
503.606	127.38
503.823	126.38
504.04	121.38
504.256	120.38
504.473	121.38
504.69	120.38
504.907	118.38
505.123	118.38
505.34	118.38
505.557	108.38
505.773	135.38
505.99	123.38
506.207	124.38
506.423	141.38
506.64	122.38
506.856	109.38
507.073	123.38
507.289	125.38
507.506	124.38
507.722	117.38
507.939	135.38
508.155	118.38
508.372	124.38
508.588	116.38
508.805	103.38
509.021	108.38
509.238	98.38
509.454	114.38
509.67	114.38
509.887	96.38
510.103	99.38
510.319	99.38
510.536	83.38
510.752	77.38
510.968	79.38
511.184	83.38
511.401	93.38
511.617	88.38
511.833	82.38
512.049	88.38
512.265	104.38
512.481	112.38
512.698	106.38
512.914	97.38
513.13	97.38
513.346	100.38
513.562	96.38
513.778	98.38
513.994	99.38
514.21	100.38
514.426	88.38
514.642	83.38
514.858	92.38
515.074	87.38
515.29	88.38
515.506	96.38
515.721	93.38
515.937	94.38
516.153	81.38
516.369	85.38
516.585	92.38
516.801	103.38
517.016	96.38
517.232	85.38
517.448	109.38
517.664	109.38
517.879	86.38
518.095	101.38
518.311	98.38
518.527	97.38
518.742	89.38
518.958	90.38
519.173	92.38
519.389	103.38
519.605	109.38
519.82	100.38
520.036	112.38
520.251	103.38
520.467	104.38
520.682	93.38
520.898	100.38
521.113	85.38
521.329	92.38
521.544	88.38
521.76	99.38
521.975	91.38
522.19	95.38
522.406	100.38
522.621	105.38
522.836	104.38
523.052	101.38
523.267	99.38
523.482	90.38
523.698	117.38
523.913	114.38
524.128	118.38
524.343	121.38
524.559	115.38
524.774	123.38
524.989	114.38
525.204	113.38
525.419	107.38
525.634	116.38
525.849	123.38
526.064	109.38
526.28	106.38
526.495	99.38
526.71	82.38
526.925	77.38
527.14	90.38
527.355	74.38
527.57	85.38
527.785	85.38
527.999	96.38
528.214	112.38
528.429	103.38
528.644	132.38
528.859	122.38
529.074	143.38
529.289	137.38
529.503	156.38
529.718	145.38
529.933	119.38
530.148	105.38
530.363	98.38
530.577	84.38
530.792	93.38
531.007	93.38
531.221	80.38
531.436	80.38
531.651	88.38
531.865	77.38
532.08	76.38
532.295	100.38
532.509	96.38
532.724	87.38
532.938	91.38
533.153	92.38
533.367	99.38
533.582	128.38
533.796	116.38
534.011	109.38
534.225	109.38
534.44	84.38
534.654	86.38
534.868	97.38
535.083	90.38
535.297	96.38
535.511	95.38
535.726	111.38
535.94	102.38
536.154	95.38
536.369	96.38
536.583	67.38
536.797	80.38
537.011	84.38
537.225	84.38
537.44	85.38
537.654	92.38
537.868	83.38
538.082	91.38
538.296	90.38
538.51	94.38
538.724	110.38
538.938	123.38
539.153	124.38
539.367	122.38
539.581	113.38
539.795	98.38
540.009	101.38
540.222	91.38
540.436	112.38
540.65	119.38
540.864	116.38
541.078	127.38
541.292	146.38
541.506	157.38
541.72	155.38
541.934	187.38
542.147	179.38
542.361	177.38
542.575	147.38
542.789	141.38
543.002	130.38
543.216	120.38
543.43	142.38
543.644	143.38
543.857	148.38
544.071	156.38
544.285	160.38
544.498	160.38
544.712	161.38
544.925	149.38
545.139	153.38
545.352	155.38
545.566	183.38
545.779	163.38
545.993	152.38
546.206	173.38
546.42	169.38
546.633	164.38
546.847	149.38
547.06	176.38
547.274	155.38
547.487	170.38
547.7	182.38
547.914	162.38
548.127	158.38
548.34	152.38
548.554	161.38
548.767	142.38
548.98	156.38
549.193	154.38
549.407	148.38
549.62	156.38
549.833	166.38
550.046	149.38
550.259	153.38
550.473	146.38
550.686	127.38
550.899	146.38
551.112	140.38
551.325	141.38
551.538	135.38
551.751	127.38
551.964	122.38
552.177	130.38
552.39	132.38
552.603	145.38
552.816	149.38
553.029	145.38
553.242	143.38
553.455	160.38
553.667	158.38
553.88	154.38
554.093	143.38
554.306	146.38
554.519	148.38
554.732	162.38
554.944	151.38
555.157	151.38
555.37	149.38
555.583	149.38
555.795	142.38
556.008	122.38
556.221	132.38
556.433	130.38
556.646	142.38
556.859	130.38
557.071	138.38
557.284	140.38
557.496	125.38
557.709	148.38
557.921	139.38
558.134	129.38
558.346	130.38
558.559	139.38
558.771	135.38
558.984	141.38
559.196	131.38
559.409	123.38
559.621	148.38
559.833	123.38
560.046	123.38
560.258	127.38
560.47	130.38
560.683	127.38
560.895	133.38
561.107	113.38
561.32	124.38
561.532	124.38
561.744	119.38
561.956	141.38
562.168	132.38
562.381	133.38
562.593	117.38
562.805	141.38
563.017	127.38
563.229	131.38
563.441	128.38
563.653	132.38
563.865	119.38
564.077	117.38
564.289	128.38
564.501	122.38
564.713	118.38
564.925	130.38
565.137	108.38
565.349	123.38
565.561	119.38
565.773	116.38
565.985	115.38
566.197	127.38
566.408	129.38
566.62	129.38
566.832	132.38
567.044	114.38
567.255	121.38
567.467	118.38
567.679	105.38
567.891	90.38
568.102	95.38
568.314	92.38
568.526	82.38
568.737	88.38
568.949	98.38
569.161	87.38
569.372	88.38
569.584	85.38
569.795	89.38
570.007	98.38
570.218	101.38
570.43	100.38
570.641	99.38
570.853	97.38
571.064	100.38
571.276	89.38
571.487	107.38
571.698	103.38
571.91	98.38
572.121	104.38
572.333	85.38
572.544	101.38
572.755	104.38
572.966	83.38
573.178	91.38
573.389	90.38
573.6	76.38
573.811	86.38
574.023	84.38
574.234	82.38
574.445	90.38
574.656	96.38
574.867	100.38
575.078	78.38
575.289	100.38
575.501	90.38
575.712	86.38
575.923	92.38
576.134	101.38
576.345	85.38
576.556	99.38
576.767	86.38
576.978	102.38
577.188	115.38
577.399	88.38
577.61	105.38
577.821	101.38
578.032	89.38
578.243	96.38
578.454	102.38
578.665	97.38
578.875	88.38
579.086	94.38
579.297	87.38
579.508	85.38
579.718	91.38
579.929	86.38
580.14	80.38
580.35	82.38
580.561	84.38
580.772	94.38
580.982	95.38
581.193	87.38
581.403	92.38
581.614	99.38
581.825	90.38
582.035	95.38
582.246	93.38
582.456	94.38
582.667	105.38
582.877	107.38
583.087	101.38
583.298	100.38
583.508	91.38
583.719	88.38
583.929	83.38
584.139	83.38
584.35	77.38
584.56	78.38
584.77	93.38
584.981	88.38
585.191	80.38
585.401	89.38
585.611	86.38
585.821	100.38
586.032	84.38
586.242	110.38
586.452	92.38
586.662	80.38
586.872	96.38
587.082	85.38
587.292	89.38
587.502	88.38
587.713	85.38
587.923	90.38
588.133	75.38
588.343	97.38
588.553	84.38
588.762	91.38
588.972	96.38
589.182	99.38
589.392	87.38
589.602	88.38
589.812	78.38
590.022	90.38
590.232	86.38
590.441	94.38
590.651	79.38
590.861	76.38
591.071	89.38
591.281	84.38
591.49	78.38
591.7	86.38
591.91	78.38
592.119	74.38
592.329	102.38
592.539	83.38
592.748	93.38
592.958	81.38
593.167	79.38
593.377	88.38
593.587	101.38
593.796	100.38
594.006	74.38
594.215	82.38
594.424	92.38
594.634	90.38
594.843	107.38
595.053	73.38
595.262	83.38
595.472	92.38
595.681	91.38
595.89	96.38
596.1	93.38
596.309	103.38
596.518	100.38
596.727	97.38
596.937	102.38
597.146	103.38
597.355	92.38
597.564	98.38
597.774	93.38
597.983	88.38
598.192	85.38
598.401	80.38
598.61	91.38
598.819	99.38
599.028	91.38
599.237	96.38
599.446	92.38
599.655	96.38
599.864	95.38
600.073	97.38
600.282	107.38
600.491	103.38
600.7	100.38
600.909	95.38
601.118	89.38
601.327	105.38
601.536	112.38
601.745	114.38
601.953	107.38
602.162	86.38
602.371	105.38
602.58	105.38
602.789	96.38
602.997	114.38
603.206	116.38
603.415	113.38
603.623	119.38
603.832	103.38
604.041	106.38
604.249	113.38
604.458	98.38
604.666	99.38
604.875	96.38
605.084	107.38
605.292	97.38
605.501	117.38
605.709	116.38
605.918	115.38
606.126	110.38
606.334	108.38
606.543	88.38
606.751	135.38
606.96	109.38
607.168	109.38
607.376	105.38
607.585	130.38
607.793	120.38
608.001	105.38
608.21	106.38
608.418	109.38
608.626	120.38
608.834	96.38
609.043	116.38
609.251	113.38
609.459	120.38
609.667	109.38
609.875	120.38
610.083	130.38
610.291	114.38
610.499	121.38
610.707	102.38
610.916	109.38
611.124	132.38
611.332	121.38
611.54	111.38
611.748	115.38
611.955	122.38
612.163	114.38
612.371	111.38
612.579	108.38
612.787	136.38
612.995	110.38
613.203	122.38
613.411	123.38
613.618	113.38
613.826	117.38
614.034	125.38
614.242	122.38
614.449	110.38
614.657	106.38
614.865	100.38
615.072	119.38
615.28	116.38
615.488	102.38
615.695	116.38
615.903	106.38
616.111	121.38
616.318	116.38
616.526	125.38
616.733	115.38
616.941	114.38
617.148	114.38
617.356	101.38
617.563	104.38
617.771	86.38
617.978	105.38
618.185	112.38
618.393	110.38
618.6	120.38
618.807	113.38
619.015	105.38
619.222	106.38
619.429	104.38
619.637	114.38
619.844	106.38
620.051	107.38
620.258	103.38
620.466	114.38
620.673	113.38
620.88	102.38
621.087	124.38
621.294	121.38
621.501	109.38
621.708	121.38
621.915	109.38
622.122	99.38
622.329	114.38
622.536	111.38
622.743	115.38
622.95	121.38
623.157	113.38
623.364	118.38
623.571	103.38
623.778	99.38
623.985	112.38
624.192	109.38
624.399	102.38
624.606	109.38
624.812	115.38
625.019	105.38
625.226	106.38
625.433	102.38
625.639	103.38
625.846	98.38
626.053	98.38
626.259	93.38
626.466	93.38
626.673	98.38
626.879	102.38
627.086	104.38
627.293	100.38
627.499	116.38
627.706	120.38
627.912	115.38
628.119	109.38
628.325	114.38
628.532	101.38
628.738	108.38
628.945	109.38
629.151	119.38
629.357	101.38
629.564	104.38
629.77	99.38
629.976	116.38
630.183	113.38
630.389	109.38
630.595	118.38
630.802	103.38
631.008	116.38
631.214	101.38
631.42	105.38
631.627	101.38
631.833	96.38
632.039	89.38
632.245	102.38
632.451	91.38
632.657	103.38
632.863	115.38
633.069	112.38
633.275	108.38
633.481	87.38
633.688	103.38
633.893	98.38
634.099	106.38
634.305	107.38
634.511	100.38
634.717	94.38
634.923	110.38
635.129	104.38
635.335	106.38
635.541	104.38
635.747	103.38
635.952	117.38
636.158	100.38
636.364	107.38
636.57	118.38
636.775	104.38
636.981	105.38
637.187	98.38
637.392	104.38
637.598	108.38
637.804	88.38
638.009	96.38
638.215	103.38
638.421	100.38
638.626	107.38
638.832	113.38
639.037	119.38
639.243	90.38
639.448	97.38
639.654	94.38
639.859	105.38
640.065	97.38
640.27	105.38
640.475	99.38
640.681	85.38
640.886	97.38
641.091	107.38
641.297	107.38
641.502	102.38
641.707	108.38
641.913	113.38
642.118	99.38
642.323	102.38
642.528	108.38
642.733	98.38
642.939	100.38
643.144	103.38
643.349	102.38
643.554	104.38
643.759	113.38
643.964	85.38
644.169	98.38
644.374	96.38
644.579	105.38
644.784	102.38
644.989	111.38
645.194	98.38
645.399	99.38
645.604	105.38
645.809	100.38
646.014	100.38
646.219	93.38
646.423	97.38
646.628	100.38
646.833	104.38
647.038	92.38
647.243	109.38
647.447	99.38
647.652	99.38
647.857	101.38
648.062	101.38
648.266	106.38
648.471	94.38
648.676	115.38
648.88	106.38
649.085	106.38
649.289	88.38
649.494	105.38
649.698	82.38
649.903	102.38
650.107	107.38
650.312	93.38
650.516	96.38
650.721	104.38
650.925	88.38
651.13	108.38
651.334	101.38
651.539	85.38
651.743	95.38
651.947	103.38
652.152	94.38
652.356	101.38
652.56	101.38
652.764	93.38
652.969	114.38
653.173	97.38
653.377	99.38
653.581	92.38
653.785	99.38
653.99	96.38
654.194	114.38
654.398	76.38
654.602	97.38
654.806	86.38
655.01	105.38
655.214	88.38
655.418	97.38
655.622	83.38
655.826	81.38
656.03	78.38
656.234	99.38
656.438	101.38
656.642	101.38
656.846	89.38
657.049	94.38
657.253	95.38
657.457	84.38
657.661	99.38
657.865	103.38
658.068	105.38
658.272	94.38
658.476	99.38
658.68	88.38
658.883	85.38
659.087	86.38
659.291	89.38
659.494	86.38
659.698	74.38
659.901	93.38
660.105	85.38
660.309	77.38
660.512	91.38
660.716	77.38
660.919	79.38
661.123	100.38
661.326	89.38
661.53	92.38
661.733	90.38
661.936	93.38
662.14	69.38
662.343	85.38
662.546	73.38
662.75	84.38
662.953	86.38
663.156	89.38
663.36	90.38
663.563	77.38
663.766	74.38
663.969	96.38
664.173	86.38
664.376	91.38
664.579	85.38
664.782	97.38
664.985	82.38
665.188	79.38
665.391	86.38
665.594	79.38
665.797	83.38
666	72.38
666.203	89.38
666.406	84.38
666.609	76.38
666.812	91.38
667.015	87.38
667.218	92.38
667.421	101.38
667.624	101.38
667.827	89.38
668.03	89.38
668.232	76.38
668.435	88.38
668.638	86.38
668.841	74.38
669.043	85.38
669.246	82.38
669.449	97.38
669.651	80.38
669.854	92.38
670.057	92.38
670.259	74.38
670.462	85.38
670.665	86.38
670.867	87.38
671.07	77.38
671.272	88.38
671.475	81.38
671.677	87.38
671.88	79.38
672.082	87.38
672.284	79.38
672.487	93.38
672.689	82.38
672.892	85.38
