Data from Location2.07152019.Energy5.Lamp.07192019.3%Agarose_HRD10591_14-55-42-358.txt Node
Date: Fri Jul 19 14:55:42 EDT 2019
User: cochatt
Spectrometer: HR+D1059
Trigger mode: 1
Integration Time (sec): 1.000000E-1
Scans to average: 1
Electric dark correction enabled: true
Nonlinearity correction enabled: false
Boxcar width: 0
XAxis mode: Wavelengths
Number of Pixels in Spectrum: 2048
>>>>>Begin Spectral Data<<<<<
223.165	-19.31
223.4	-19.31
223.635	-19.31
223.869	-13.31
224.104	-28.31
224.338	-9.31
224.573	-0.31
224.808	-15.31
225.042	1.69
225.277	-11.31
225.511	-5.31
225.746	11.69
225.98	8.69
226.215	5.69
226.449	26.69
226.683	13.69
226.918	12.69
227.152	21.69
227.387	18.69
227.621	36.69
227.856	43.69
228.09	52.69
228.324	59.69
228.559	42.69
228.793	61.69
229.027	50.69
229.262	65.69
229.496	53.69
229.73	68.69
229.964	85.69
230.199	81.69
230.433	74.69
230.667	66.69
230.901	79.69
231.136	68.69
231.37	75.69
231.604	67.69
231.838	83.69
232.072	68.69
232.306	80.69
232.541	81.69
232.775	83.69
233.009	76.69
233.243	83.69
233.477	81.69
233.711	73.69
233.945	79.69
234.179	77.69
234.413	89.69
234.647	85.69
234.881	75.69
235.115	74.69
235.349	83.69
235.583	89.69
235.817	82.69
236.051	78.69
236.285	76.69
236.519	82.69
236.753	79.69
236.987	87.69
237.221	78.69
237.455	86.69
237.689	82.69
237.922	71.69
238.156	67.69
238.39	78.69
238.624	69.69
238.858	88.69
239.091	60.69
239.325	74.69
239.559	80.69
239.793	71.69
240.027	85.69
240.26	72.69
240.494	68.69
240.728	78.69
240.961	69.69
241.195	83.69
241.429	63.69
241.662	86.69
241.896	80.69
242.13	68.69
242.363	74.69
242.597	77.69
242.83	69.69
243.064	73.69
243.298	63.69
243.531	59.69
243.765	79.69
243.998	74.69
244.232	72.69
244.465	80.69
244.699	77.69
244.932	86.69
245.166	84.69
245.399	89.69
245.633	80.69
245.866	83.69
246.099	69.69
246.333	76.69
246.566	72.69
246.8	78.69
247.033	74.69
247.266	77.69
247.5	84.69
247.733	86.69
247.966	87.69
248.2	80.69
248.433	71.69
248.666	60.69
248.899	78.69
249.133	79.69
249.366	86.69
249.599	67.69
249.832	87.69
250.066	85.69
250.299	86.69
250.532	69.69
250.765	79.69
250.998	82.69
251.231	95.69
251.465	74.69
251.698	80.69
251.931	72.69
252.164	77.69
252.397	84.69
252.63	84.69
252.863	84.69
253.096	81.69
253.329	70.69
253.562	83.69
253.795	77.69
254.028	68.69
254.261	86.69
254.494	84.69
254.727	73.69
254.96	81.69
255.193	78.69
255.426	85.69
255.659	86.69
255.892	82.69
256.124	89.69
256.357	81.69
256.59	88.69
256.823	90.69
257.056	81.69
257.289	79.69
257.521	70.69
257.754	78.69
257.987	77.69
258.22	87.69
258.452	90.69
258.685	86.69
258.918	84.69
259.151	67.69
259.383	85.69
259.616	70.69
259.849	77.69
260.081	80.69
260.314	82.69
260.547	94.69
260.779	90.69
261.012	76.69
261.244	67.69
261.477	81.69
261.71	85.69
261.942	88.69
262.175	89.69
262.407	77.69
262.64	77.69
262.872	80.69
263.105	81.69
263.337	100.69
263.57	80.69
263.802	82.69
264.035	77.69
264.267	68.69
264.499	82.69
264.732	86.69
264.964	91.69
265.197	91.69
265.429	78.69
265.661	83.69
265.894	81.69
266.126	89.69
266.358	68.69
266.591	82.69
266.823	80.69
267.055	83.69
267.287	85.69
267.52	78.69
267.752	94.69
267.984	62.69
268.216	81.69
268.448	92.69
268.681	60.69
268.913	89.69
269.145	73.69
269.377	68.69
269.609	86.69
269.841	85.69
270.073	91.69
270.306	91.69
270.538	82.69
270.77	82.69
271.002	75.69
271.234	84.69
271.466	87.69
271.698	85.69
271.93	92.69
272.162	81.69
272.394	75.69
272.626	95.69
272.858	84.69
273.09	95.69
273.322	81.69
273.553	94.69
273.785	78.69
274.017	85.69
274.249	81.69
274.481	81.69
274.713	83.69
274.945	79.69
275.176	78.69
275.408	81.69
275.64	85.69
275.872	89.69
276.104	91.69
276.335	82.69
276.567	91.69
276.799	84.69
277.031	83.69
277.262	96.69
277.494	78.69
277.726	83.69
277.957	71.69
278.189	64.69
278.421	97.69
278.652	82.69
278.884	78.69
279.115	91.69
279.347	81.69
279.579	87.69
279.81	84.69
280.042	92.69
280.273	74.69
280.505	80.69
280.736	85.69
280.968	92.69
281.199	93.69
281.431	71.69
281.662	89.69
281.894	96.69
282.125	78.69
282.356	75.69
282.588	93.69
282.819	77.69
283.051	76.69
283.282	90.69
283.513	84.69
283.745	87.69
283.976	92.69
284.207	75.69
284.439	88.69
284.67	81.69
284.901	84.69
285.132	78.69
285.364	88.69
285.595	98.69
285.826	83.69
286.057	86.69
286.288	96.69
286.52	82.69
286.751	73.69
286.982	80.69
287.213	83.69
287.444	82.69
287.675	82.69
287.906	84.69
288.138	71.69
288.369	87.69
288.6	93.69
288.831	84.69
289.062	96.69
289.293	86.69
289.524	74.69
289.755	86.69
289.986	73.69
290.217	96.69
290.448	84.69
290.679	99.69
290.91	90.69
291.141	95.69
291.371	86.69
291.602	90.69
291.833	76.69
292.064	82.69
292.295	88.69
292.526	84.69
292.757	86.69
292.987	85.69
293.218	83.69
293.449	77.69
293.68	84.69
293.91	66.69
294.141	73.69
294.372	86.69
294.603	97.69
294.833	83.69
295.064	78.69
295.295	95.69
295.525	80.69
295.756	91.69
295.987	76.69
296.217	82.69
296.448	85.69
296.679	83.69
296.909	84.69
297.14	76.69
297.37	89.69
297.601	80.69
297.831	88.69
298.062	83.69
298.292	81.69
298.523	83.69
298.753	78.69
298.984	83.69
299.214	76.69
299.445	79.69
299.675	78.69
299.905	78.69
300.136	89.69
300.366	93.69
300.597	83.69
300.827	68.69
301.057	81.69
301.288	77.69
301.518	78.69
301.748	88.69
301.979	96.69
302.209	98.69
302.439	94.69
302.669	77.69
302.9	72.69
303.13	75.69
303.36	85.69
303.59	82.69
303.82	78.69
304.051	75.69
304.281	86.69
304.511	90.69
304.741	73.69
304.971	91.69
305.201	82.69
305.431	92.69
305.661	88.69
305.891	74.69
306.121	85.69
306.352	86.69
306.582	86.69
306.812	79.69
307.042	90.69
307.272	61.69
307.502	93.69
307.731	85.69
307.961	79.69
308.191	90.69
308.421	81.69
308.651	93.69
308.881	83.69
309.111	88.69
309.341	89.69
309.571	90.69
309.8	84.69
310.03	84.69
310.26	72.69
310.49	84.69
310.72	73.69
310.949	84.69
311.179	73.69
311.409	75.69
311.639	73.69
311.868	81.69
312.098	85.69
312.328	73.69
312.557	90.69
312.787	84.69
313.017	75.69
313.246	80.69
313.476	86.69
313.706	96.69
313.935	83.69
314.165	84.69
314.394	89.69
314.624	85.69
314.853	80.69
315.083	72.69
315.312	76.69
315.542	90.69
315.771	95.69
316.001	81.69
316.23	83.69
316.46	95.69
316.689	88.69
316.919	78.69
317.148	78.69
317.377	90.69
317.607	86.69
317.836	79.69
318.065	87.69
318.295	106.69
318.524	90.69
318.753	99.69
318.983	87.69
319.212	76.69
319.441	92.69
319.67	86.69
319.9	81.69
320.129	88.69
320.358	80.69
320.587	90.69
320.816	92.69
321.046	92.69
321.275	78.69
321.504	84.69
321.733	87.69
321.962	77.69
322.191	91.69
322.42	92.69
322.649	80.69
322.878	85.69
323.108	92.69
323.337	79.69
323.566	86.69
323.795	88.69
324.024	92.69
324.253	76.69
324.482	89.69
324.71	82.69
324.939	96.69
325.168	90.69
325.397	78.69
325.626	72.69
325.855	78.69
326.084	91.69
326.313	102.69
326.542	84.69
326.77	86.69
326.999	89.69
327.228	81.69
327.457	99.69
327.686	91.69
327.914	76.69
328.143	76.69
328.372	83.69
328.6	72.69
328.829	81.69
329.058	86.69
329.287	73.69
329.515	93.69
329.744	76.69
329.972	78.69
330.201	100.69
330.43	86.69
330.658	88.69
330.887	94.69
331.115	82.69
331.344	83.69
331.572	93.69
331.801	103.69
332.03	89.69
332.258	88.69
332.486	85.69
332.715	80.69
332.943	79.69
333.172	77.69
333.4	88.69
333.629	93.69
333.857	82.69
334.085	90.69
334.314	92.69
334.542	83.69
334.771	81.69
334.999	80.69
335.227	85.69
335.455	76.69
335.684	93.69
335.912	90.69
336.14	89.69
336.369	96.69
336.597	70.69
336.825	87.69
337.053	74.69
337.281	77.69
337.51	86.69
337.738	94.69
337.966	73.69
338.194	75.69
338.422	83.69
338.65	86.69
338.878	71.69
339.106	98.69
339.334	89.69
339.562	88.69
339.79	93.69
340.018	73.69
340.246	97.69
340.474	90.69
340.702	75.69
340.93	88.69
341.158	79.69
341.386	92.69
341.614	90.69
341.842	91.69
342.07	80.69
342.298	86.69
342.526	90.69
342.754	91.69
342.981	93.69
343.209	93.69
343.437	87.69
343.665	84.69
343.893	85.69
344.12	79.69
344.348	76.69
344.576	80.69
344.804	76.69
345.031	76.69
345.259	91.69
345.487	82.69
345.714	85.69
345.942	88.69
346.17	75.69
346.397	86.69
346.625	89.69
346.853	86.69
347.08	100.69
347.308	88.69
347.535	80.69
347.763	91.69
347.99	90.69
348.218	86.69
348.445	88.69
348.673	85.69
348.9	91.69
349.128	104.69
349.355	80.69
349.583	101.69
349.81	92.69
350.037	82.69
350.265	104.69
350.492	88.69
350.72	78.69
350.947	85.69
351.174	86.69
351.402	75.69
351.629	91.69
351.856	76.69
352.083	70.69
352.311	87.69
352.538	69.69
352.765	73.69
352.992	83.69
353.22	80.69
353.447	89.69
353.674	86.69
353.901	85.69
354.128	86.69
354.355	85.69
354.583	85.69
354.81	82.69
355.037	83.69
355.264	87.69
355.491	81.69
355.718	88.69
355.945	96.69
356.172	78.69
356.399	71.69
356.626	76.69
356.853	65.69
357.08	75.69
357.307	70.69
357.534	82.69
357.761	81.69
357.988	88.69
358.215	92.69
358.441	90.69
358.668	85.69
358.895	88.69
359.122	66.69
359.349	71.69
359.576	71.69
359.802	80.69
360.029	90.69
360.256	100.69
360.483	75.69
360.709	74.69
360.936	96.69
361.163	82.69
361.39	85.69
361.616	82.69
361.843	78.69
362.07	73.69
362.296	84.69
362.523	81.69
362.749	85.69
362.976	75.69
363.203	80.69
363.429	85.69
363.656	87.69
363.882	84.69
364.109	86.69
364.335	88.69
364.562	86.69
364.788	88.69
365.015	87.69
365.241	84.69
365.468	93.69
365.694	84.69
365.92	92.69
366.147	74.69
366.373	106.69
366.599	96.69
366.826	87.69
367.052	86.69
367.278	88.69
367.505	94.69
367.731	91.69
367.957	91.69
368.184	91.69
368.41	96.69
368.636	80.69
368.862	94.69
369.089	91.69
369.315	81.69
369.541	89.69
369.767	89.69
369.993	80.69
370.219	80.69
370.445	91.69
370.672	92.69
370.898	85.69
371.124	88.69
371.35	104.69
371.576	89.69
371.802	86.69
372.028	88.69
372.254	93.69
372.48	90.69
372.706	86.69
372.932	78.69
373.158	79.69
373.384	96.69
373.61	105.69
373.835	94.69
374.061	105.69
374.287	99.69
374.513	89.69
374.739	92.69
374.965	94.69
375.191	94.69
375.416	97.69
375.642	114.69
375.868	102.69
376.094	104.69
376.319	92.69
376.545	96.69
376.771	89.69
376.997	100.69
377.222	106.69
377.448	81.69
377.674	80.69
377.899	83.69
378.125	98.69
378.35	101.69
378.576	96.69
378.802	96.69
379.027	108.69
379.253	101.69
379.478	93.69
379.704	95.69
379.929	100.69
380.155	106.69
380.38	100.69
380.606	103.69
380.831	98.69
381.057	100.69
381.282	99.69
381.507	86.69
381.733	98.69
381.958	100.69
382.184	96.69
382.409	89.69
382.634	78.69
382.86	100.69
383.085	106.69
383.31	103.69
383.535	113.69
383.761	91.69
383.986	107.69
384.211	100.69
384.436	96.69
384.662	102.69
384.887	93.69
385.112	102.69
385.337	105.69
385.562	86.69
385.787	98.69
386.013	109.69
386.238	120.69
386.463	82.69
386.688	94.69
386.913	107.69
387.138	114.69
387.363	114.69
387.588	102.69
387.813	89.69
388.038	94.69
388.263	110.69
388.488	88.69
388.713	113.69
388.938	106.69
389.163	100.69
389.387	108.69
389.612	103.69
389.837	108.69
390.062	107.69
390.287	96.69
390.512	99.69
390.736	92.69
390.961	100.69
391.186	105.69
391.411	105.69
391.636	108.69
391.86	109.69
392.085	112.69
392.31	108.69
392.534	114.69
392.759	107.69
392.984	86.69
393.208	94.69
393.433	116.69
393.658	105.69
393.882	100.69
394.107	115.69
394.331	104.69
394.556	106.69
394.78	106.69
395.005	103.69
395.229	99.69
395.454	96.69
395.678	98.69
395.903	104.69
396.127	109.69
396.352	118.69
396.576	108.69
396.801	109.69
397.025	102.69
397.249	117.69
397.474	110.69
397.698	106.69
397.922	113.69
398.147	98.69
398.371	120.69
398.595	110.69
398.82	118.69
399.044	107.69
399.268	109.69
399.492	103.69
399.717	118.69
399.941	106.69
400.165	117.69
400.389	107.69
400.613	125.69
400.837	108.69
401.062	117.69
401.286	110.69
401.51	131.69
401.734	118.69
401.958	112.69
402.182	121.69
402.406	123.69
402.63	108.69
402.854	118.69
403.078	131.69
403.302	114.69
403.526	122.69
403.75	113.69
403.974	98.69
404.198	123.69
404.422	122.69
404.645	121.69
404.869	132.69
405.093	111.69
405.317	122.69
405.541	119.69
405.765	104.69
405.988	114.69
406.212	128.69
406.436	120.69
406.66	129.69
406.883	127.69
407.107	128.69
407.331	124.69
407.555	115.69
407.778	126.69
408.002	128.69
408.226	111.69
408.449	94.69
408.673	111.69
408.896	117.69
409.12	114.69
409.344	122.69
409.567	124.69
409.791	116.69
410.014	121.69
410.238	109.69
410.461	117.69
410.685	130.69
410.908	107.69
411.132	124.69
411.355	114.69
411.578	117.69
411.802	119.69
412.025	122.69
412.249	120.69
412.472	112.69
412.695	123.69
412.919	124.69
413.142	134.69
413.365	129.69
413.589	129.69
413.812	121.69
414.035	120.69
414.258	123.69
414.482	119.69
414.705	113.69
414.928	121.69
415.151	122.69
415.374	124.69
415.597	137.69
415.821	122.69
416.044	118.69
416.267	114.69
416.49	125.69
416.713	146.69
416.936	124.69
417.159	118.69
417.382	114.69
417.605	130.69
417.828	119.69
418.051	130.69
418.274	136.69
418.497	130.69
418.72	133.69
418.943	142.69
419.166	133.69
419.389	134.69
419.611	146.69
419.834	132.69
420.057	124.69
420.28	129.69
420.503	118.69
420.726	122.69
420.948	140.69
421.171	123.69
421.394	134.69
421.617	117.69
421.839	123.69
422.062	143.69
422.285	129.69
422.507	130.69
422.73	135.69
422.953	127.69
423.175	125.69
423.398	117.69
423.621	130.69
423.843	135.69
424.066	126.69
424.288	144.69
424.511	114.69
424.733	132.69
424.956	141.69
425.178	132.69
425.401	139.69
425.623	132.69
425.846	139.69
426.068	133.69
426.291	130.69
426.513	138.69
426.735	130.69
426.958	133.69
427.18	140.69
427.402	128.69
427.625	140.69
427.847	127.69
428.069	116.69
428.292	129.69
428.514	111.69
428.736	118.69
428.958	124.69
429.181	132.69
429.403	135.69
429.625	116.69
429.847	117.69
430.069	137.69
430.292	149.69
430.514	118.69
430.736	133.69
430.958	126.69
431.18	132.69
431.402	136.69
431.624	110.69
431.846	118.69
432.068	115.69
432.29	107.69
432.512	121.69
432.734	128.69
432.956	139.69
433.178	146.69
433.4	144.69
433.622	143.69
433.844	133.69
434.066	113.69
434.287	109.69
434.509	101.69
434.731	97.69
434.953	102.69
435.175	125.69
435.397	125.69
435.618	129.69
435.84	117.69
436.062	109.69
436.284	118.69
436.505	124.69
436.727	114.69
436.949	117.69
437.17	130.69
437.392	128.69
437.614	121.69
437.835	119.69
438.057	115.69
438.278	121.69
438.5	146.69
438.721	144.69
438.943	141.69
439.165	132.69
439.386	146.69
439.608	139.69
439.829	144.69
440.05	149.69
440.272	142.69
440.493	135.69
440.715	140.69
440.936	133.69
441.158	137.69
441.379	142.69
441.6	142.69
441.822	140.69
442.043	132.69
442.264	148.69
442.486	140.69
442.707	148.69
442.928	134.69
443.149	139.69
443.371	141.69
443.592	138.69
443.813	128.69
444.034	134.69
444.255	153.69
444.476	128.69
444.698	130.69
444.919	146.69
445.14	255.69
445.361	188.69
445.582	158.69
445.803	134.69
446.024	140.69
446.245	149.69
446.466	140.69
446.687	151.69
446.908	167.69
447.129	149.69
447.35	142.69
447.571	143.69
447.792	158.69
448.013	129.69
448.234	155.69
448.455	128.69
448.675	128.69
448.896	129.69
449.117	136.69
449.338	137.69
449.559	135.69
449.779	135.69
450	129.69
450.221	142.69
450.442	121.69
450.662	136.69
450.883	130.69
451.104	141.69
451.324	125.69
451.545	130.69
451.766	132.69
451.986	122.69
452.207	128.69
452.428	113.69
452.648	124.69
452.869	131.69
453.089	129.69
453.31	110.69
453.53	103.69
453.751	112.69
453.971	111.69
454.192	106.69
454.412	104.69
454.633	117.69
454.853	116.69
455.073	122.69
455.294	125.69
455.514	136.69
455.734	114.69
455.955	115.69
456.175	105.69
456.395	113.69
456.616	118.69
456.836	102.69
457.056	104.69
457.276	109.69
457.497	112.69
457.717	114.69
457.937	118.69
458.157	104.69
458.377	102.69
458.598	98.69
458.818	89.69
459.038	95.69
459.258	111.69
459.478	83.69
459.698	96.69
459.918	91.69
460.138	94.69
460.358	116.69
460.578	92.69
460.798	117.69
461.018	104.69
461.238	116.69
461.458	110.69
461.678	108.69
461.898	120.69
462.118	113.69
462.338	110.69
462.558	121.69
462.777	110.69
462.997	110.69
463.217	101.69
463.437	108.69
463.657	104.69
463.876	124.69
464.096	107.69
464.316	100.69
464.536	98.69
464.755	125.69
464.975	107.69
465.195	118.69
465.414	104.69
465.634	105.69
465.854	117.69
466.073	116.69
466.293	120.69
466.512	136.69
466.732	125.69
466.951	116.69
467.171	128.69
467.391	119.69
467.61	130.69
467.829	139.69
468.049	140.69
468.268	141.69
468.488	138.69
468.707	154.69
468.927	136.69
469.146	117.69
469.365	142.69
469.585	128.69
469.804	160.69
470.023	141.69
470.243	154.69
470.462	149.69
470.681	148.69
470.901	146.69
471.12	131.69
471.339	140.69
471.558	135.69
471.777	148.69
471.997	133.69
472.216	120.69
472.435	109.69
472.654	114.69
472.873	106.69
473.092	115.69
473.311	112.69
473.53	125.69
473.749	127.69
473.968	127.69
474.187	114.69
474.406	117.69
474.625	120.69
474.844	135.69
475.063	128.69
475.282	123.69
475.501	113.69
475.72	107.69
475.939	129.69
476.158	115.69
476.377	124.69
476.596	119.69
476.814	114.69
477.033	97.69
477.252	116.69
477.471	104.69
477.69	132.69
477.908	135.69
478.127	138.69
478.346	129.69
478.564	130.69
478.783	151.69
479.002	131.69
479.22	144.69
479.439	130.69
479.658	115.69
479.876	117.69
480.095	97.69
480.313	103.69
480.532	116.69
480.751	116.69
480.969	106.69
481.188	93.69
481.406	85.69
481.624	91.69
481.843	93.69
482.061	91.69
482.28	116.69
482.498	128.69
482.717	100.69
482.935	128.69
483.153	141.69
483.372	137.69
483.59	146.69
483.808	130.69
484.027	132.69
484.245	144.69
484.463	146.69
484.681	156.69
484.9	148.69
485.118	129.69
485.336	116.69
485.554	115.69
485.772	117.69
485.99	107.69
486.209	112.69
486.427	107.69
486.645	104.69
486.863	126.69
487.081	144.69
487.299	140.69
487.517	130.69
487.735	160.69
487.953	188.69
488.171	187.69
488.389	146.69
488.607	164.69
488.825	144.69
489.043	134.69
489.261	136.69
489.479	140.69
489.696	152.69
489.914	144.69
490.132	149.69
490.35	154.69
490.568	157.69
490.786	172.69
491.003	176.69
491.221	191.69
491.439	192.69
491.657	188.69
491.874	210.69
492.092	199.69
492.31	231.69
492.527	210.69
492.745	207.69
492.963	194.69
493.18	188.69
493.398	198.69
493.615	176.69
493.833	195.69
494.05	172.69
494.268	171.69
494.485	163.69
494.703	174.69
494.92	184.69
495.138	169.69
495.355	159.69
495.573	165.69
495.79	164.69
496.008	168.69
496.225	163.69
496.442	174.69
496.66	162.69
496.877	149.69
497.094	152.69
497.312	170.69
497.529	146.69
497.746	152.69
497.963	136.69
498.181	122.69
498.398	113.69
498.615	127.69
498.832	127.69
499.049	115.69
499.267	126.69
499.484	121.69
499.701	130.69
499.918	126.69
500.135	133.69
500.352	155.69
500.569	153.69
500.786	161.69
501.003	135.69
501.22	140.69
501.437	130.69
501.654	136.69
501.871	132.69
502.088	139.69
502.305	120.69
502.522	120.69
502.739	127.69
502.956	120.69
503.172	131.69
503.389	128.69
503.606	114.69
503.823	119.69
504.04	127.69
504.256	125.69
504.473	114.69
504.69	117.69
504.907	124.69
505.123	113.69
505.34	132.69
505.557	113.69
505.773	115.69
505.99	120.69
506.207	127.69
506.423	126.69
506.64	122.69
506.856	119.69
507.073	105.69
507.289	121.69
507.506	128.69
507.722	121.69
507.939	124.69
508.155	127.69
508.372	121.69
508.588	108.69
508.805	109.69
509.021	109.69
509.238	92.69
509.454	91.69
509.67	101.69
509.887	99.69
510.103	100.69
510.319	94.69
510.536	83.69
510.752	79.69
510.968	85.69
511.184	87.69
511.401	77.69
511.617	92.69
511.833	99.69
512.049	107.69
512.265	84.69
512.481	101.69
512.698	101.69
512.914	97.69
513.13	116.69
513.346	90.69
513.562	90.69
513.778	101.69
513.994	96.69
514.21	87.69
514.426	94.69
514.642	89.69
514.858	89.69
515.074	84.69
515.29	84.69
515.506	93.69
515.721	104.69
515.937	93.69
516.153	103.69
516.369	84.69
516.585	87.69
516.801	100.69
517.016	84.69
517.232	87.69
517.448	100.69
517.664	101.69
517.879	96.69
518.095	101.69
518.311	103.69
518.527	105.69
518.742	98.69
518.958	101.69
519.173	105.69
519.389	99.69
519.605	113.69
519.82	100.69
520.036	99.69
520.251	109.69
520.467	99.69
520.682	87.69
520.898	96.69
521.113	91.69
521.329	94.69
521.544	76.69
521.76	94.69
521.975	92.69
522.19	102.69
522.406	103.69
522.621	103.69
522.836	110.69
523.052	98.69
523.267	123.69
523.482	105.69
523.698	105.69
523.913	123.69
524.128	118.69
524.343	106.69
524.559	112.69
524.774	104.69
524.989	125.69
525.204	112.69
525.419	130.69
525.634	96.69
525.849	104.69
526.064	110.69
526.28	113.69
526.495	93.69
526.71	93.69
526.925	69.69
527.14	76.69
527.355	85.69
527.57	85.69
527.785	90.69
527.999	94.69
528.214	84.69
528.429	127.69
528.644	129.69
528.859	132.69
529.074	146.69
529.289	158.69
529.503	150.69
529.718	148.69
529.933	115.69
530.148	116.69
530.363	100.69
530.577	92.69
530.792	83.69
531.007	90.69
531.221	86.69
531.436	93.69
531.651	89.69
531.865	75.69
532.08	80.69
532.295	85.69
532.509	79.69
532.724	86.69
532.938	82.69
533.153	105.69
533.367	112.69
533.582	120.69
533.796	122.69
534.011	117.69
534.225	93.69
534.44	96.69
534.654	91.69
534.868	94.69
535.083	101.69
535.297	98.69
535.511	85.69
535.726	103.69
535.94	107.69
536.154	98.69
536.369	95.69
536.583	105.69
536.797	100.69
537.011	79.69
537.225	98.69
537.44	91.69
537.654	104.69
537.868	81.69
538.082	96.69
538.296	104.69
538.51	101.69
538.724	114.69
538.938	113.69
539.153	113.69
539.367	114.69
539.581	115.69
539.795	111.69
540.009	97.69
540.222	98.69
540.436	90.69
540.65	121.69
540.864	115.69
541.078	128.69
541.292	142.69
541.506	155.69
541.72	146.69
541.934	193.69
542.147	190.69
542.361	184.69
542.575	169.69
542.789	160.69
543.002	136.69
543.216	112.69
543.43	118.69
543.644	130.69
543.857	144.69
544.071	144.69
544.285	155.69
544.498	156.69
544.712	163.69
544.925	156.69
545.139	160.69
545.352	148.69
545.566	165.69
545.779	160.69
545.993	155.69
546.206	164.69
546.42	173.69
546.633	156.69
546.847	166.69
547.06	171.69
547.274	156.69
547.487	165.69
547.7	185.69
547.914	180.69
548.127	168.69
548.34	163.69
548.554	146.69
548.767	144.69
548.98	149.69
549.193	146.69
549.407	162.69
549.62	144.69
549.833	161.69
550.046	150.69
550.259	136.69
550.473	149.69
550.686	142.69
550.899	157.69
551.112	154.69
551.325	146.69
551.538	125.69
551.751	135.69
551.964	113.69
552.177	121.69
552.39	143.69
552.603	151.69
552.816	147.69
553.029	155.69
553.242	153.69
553.455	165.69
553.667	149.69
553.88	155.69
554.093	155.69
554.306	166.69
554.519	149.69
554.732	144.69
554.944	169.69
555.157	134.69
555.37	146.69
555.583	133.69
555.795	145.69
556.008	128.69
556.221	133.69
556.433	128.69
556.646	129.69
556.859	137.69
557.071	132.69
557.284	135.69
557.496	144.69
557.709	133.69
557.921	140.69
558.134	136.69
558.346	139.69
558.559	137.69
558.771	125.69
558.984	138.69
559.196	138.69
559.409	126.69
559.621	134.69
559.833	127.69
560.046	125.69
560.258	129.69
560.47	157.69
560.683	140.69
560.895	134.69
561.107	121.69
561.32	132.69
561.532	142.69
561.744	128.69
561.956	148.69
562.168	144.69
562.381	131.69
562.593	132.69
562.805	111.69
563.017	130.69
563.229	123.69
563.441	120.69
563.653	122.69
563.865	125.69
564.077	119.69
564.289	120.69
564.501	109.69
564.713	109.69
564.925	122.69
565.137	135.69
565.349	116.69
565.561	126.69
565.773	125.69
565.985	122.69
566.197	123.69
566.408	136.69
566.62	128.69
566.832	127.69
567.044	149.69
567.255	118.69
567.467	90.69
567.679	117.69
567.891	109.69
568.102	111.69
568.314	104.69
568.526	105.69
568.737	86.69
568.949	89.69
569.161	91.69
569.372	90.69
569.584	72.69
569.795	79.69
570.007	75.69
570.218	86.69
570.43	92.69
570.641	86.69
570.853	96.69
571.064	107.69
571.276	109.69
571.487	115.69
571.698	104.69
571.91	104.69
572.121	109.69
572.333	106.69
572.544	95.69
572.755	100.69
572.966	93.69
573.178	82.69
573.389	90.69
573.6	76.69
573.811	101.69
574.023	93.69
574.234	87.69
574.445	87.69
574.656	85.69
574.867	105.69
575.078	84.69
575.289	95.69
575.501	101.69
575.712	95.69
575.923	92.69
576.134	106.69
576.345	99.69
576.556	102.69
576.767	115.69
576.978	84.69
577.188	84.69
577.399	100.69
577.61	90.69
577.821	90.69
578.032	91.69
578.243	104.69
578.454	92.69
578.665	91.69
578.875	96.69
579.086	89.69
579.297	97.69
579.508	76.69
579.718	76.69
579.929	87.69
580.14	94.69
580.35	93.69
580.561	90.69
580.772	73.69
580.982	98.69
581.193	111.69
581.403	99.69
581.614	101.69
581.825	78.69
582.035	101.69
582.246	100.69
582.456	85.69
582.667	81.69
582.877	83.69
583.087	95.69
583.298	93.69
583.508	91.69
583.719	95.69
583.929	87.69
584.139	92.69
584.35	65.69
584.56	80.69
584.77	80.69
584.981	84.69
585.191	98.69
585.401	84.69
585.611	94.69
585.821	80.69
586.032	88.69
586.242	75.69
586.452	78.69
586.662	86.69
586.872	70.69
587.082	76.69
587.292	98.69
587.502	84.69
587.713	76.69
587.923	73.69
588.133	89.69
588.343	78.69
588.553	85.69
588.762	97.69
588.972	78.69
589.182	83.69
589.392	93.69
589.602	82.69
589.812	85.69
590.022	77.69
590.232	89.69
590.441	74.69
590.651	82.69
590.861	75.69
591.071	83.69
591.281	69.69
591.49	82.69
591.7	87.69
591.91	81.69
592.119	80.69
592.329	84.69
592.539	96.69
592.748	84.69
592.958	74.69
593.167	76.69
593.377	73.69
593.587	98.69
593.796	89.69
594.006	87.69
594.215	96.69
594.424	77.69
594.634	102.69
594.843	91.69
595.053	93.69
595.262	90.69
595.472	89.69
595.681	87.69
595.89	81.69
596.1	93.69
596.309	97.69
596.518	101.69
596.727	98.69
596.937	104.69
597.146	88.69
597.355	113.69
597.564	74.69
597.774	92.69
597.983	86.69
598.192	92.69
598.401	81.69
598.61	106.69
598.819	85.69
599.028	73.69
599.237	74.69
599.446	90.69
599.655	98.69
599.864	108.69
600.073	98.69
600.282	109.69
600.491	98.69
600.7	94.69
600.909	103.69
601.118	86.69
601.327	88.69
601.536	98.69
601.745	107.69
601.953	104.69
602.162	104.69
602.371	102.69
602.58	95.69
602.789	104.69
602.997	107.69
603.206	125.69
603.415	115.69
603.623	105.69
603.832	90.69
604.041	114.69
604.249	119.69
604.458	106.69
604.666	113.69
604.875	99.69
605.084	95.69
605.292	103.69
605.501	102.69
605.709	105.69
605.918	106.69
606.126	114.69
606.334	118.69
606.543	108.69
606.751	108.69
606.96	116.69
607.168	104.69
607.376	117.69
607.585	107.69
607.793	132.69
608.001	107.69
608.21	116.69
608.418	107.69
608.626	104.69
608.834	108.69
609.043	99.69
609.251	115.69
609.459	100.69
609.667	114.69
609.875	116.69
610.083	112.69
610.291	122.69
610.499	115.69
610.707	120.69
610.916	110.69
611.124	126.69
611.332	114.69
611.54	117.69
611.748	116.69
611.955	116.69
612.163	120.69
612.371	125.69
612.579	116.69
612.787	103.69
612.995	112.69
613.203	107.69
613.411	98.69
613.618	122.69
613.826	104.69
614.034	106.69
614.242	116.69
614.449	101.69
614.657	125.69
614.865	116.69
615.072	108.69
615.28	112.69
615.488	113.69
615.695	105.69
615.903	107.69
616.111	104.69
616.318	105.69
616.526	116.69
616.733	113.69
616.941	100.69
617.148	113.69
617.356	116.69
617.563	104.69
617.771	98.69
617.978	113.69
618.185	116.69
618.393	114.69
618.6	99.69
618.807	125.69
619.015	101.69
619.222	100.69
619.429	108.69
619.637	97.69
619.844	111.69
620.051	113.69
620.258	128.69
620.466	102.69
620.673	97.69
620.88	112.69
621.087	101.69
621.294	113.69
621.501	96.69
621.708	98.69
621.915	108.69
622.122	107.69
622.329	109.69
622.536	108.69
622.743	94.69
622.95	103.69
623.157	104.69
623.364	104.69
623.571	113.69
623.778	105.69
623.985	117.69
624.192	102.69
624.399	124.69
624.606	108.69
624.812	105.69
625.019	102.69
625.226	104.69
625.433	112.69
625.639	87.69
625.846	97.69
626.053	86.69
626.259	89.69
626.466	88.69
626.673	97.69
626.879	89.69
627.086	104.69
627.293	107.69
627.499	100.69
627.706	96.69
627.912	122.69
628.119	120.69
628.325	102.69
628.532	116.69
628.738	93.69
628.945	97.69
629.151	101.69
629.357	113.69
629.564	103.69
629.77	88.69
629.976	107.69
630.183	108.69
630.389	109.69
630.595	99.69
630.802	110.69
631.008	108.69
631.214	99.69
631.42	103.69
631.627	103.69
631.833	98.69
632.039	92.69
632.245	103.69
632.451	93.69
632.657	94.69
632.863	91.69
633.069	96.69
633.275	108.69
633.481	100.69
633.688	87.69
633.893	103.69
634.099	106.69
634.305	95.69
634.511	97.69
634.717	101.69
634.923	92.69
635.129	95.69
635.335	108.69
635.541	88.69
635.747	105.69
635.952	102.69
636.158	84.69
636.364	109.69
636.57	106.69
636.775	111.69
636.981	109.69
637.187	118.69
637.392	100.69
637.598	112.69
637.804	102.69
638.009	89.69
638.215	88.69
638.421	105.69
638.626	100.69
638.832	113.69
639.037	107.69
639.243	91.69
639.448	99.69
639.654	99.69
639.859	110.69
640.065	97.69
640.27	101.69
640.475	98.69
640.681	98.69
640.886	103.69
641.091	104.69
641.297	100.69
641.502	104.69
641.707	83.69
641.913	99.69
642.118	84.69
642.323	96.69
642.528	110.69
642.733	107.69
642.939	115.69
643.144	98.69
643.349	99.69
643.554	97.69
643.759	109.69
643.964	101.69
644.169	109.69
644.374	101.69
644.579	106.69
644.784	102.69
644.989	91.69
645.194	92.69
645.399	108.69
645.604	98.69
645.809	102.69
646.014	93.69
646.219	107.69
646.423	106.69
646.628	103.69
646.833	102.69
647.038	89.69
647.243	97.69
647.447	107.69
647.652	104.69
647.857	112.69
648.062	99.69
648.266	99.69
648.471	79.69
648.676	91.69
648.88	88.69
649.085	91.69
649.289	97.69
649.494	108.69
649.698	93.69
649.903	88.69
650.107	88.69
650.312	96.69
650.516	107.69
650.721	88.69
650.925	96.69
651.13	101.69
651.334	106.69
651.539	104.69
651.743	94.69
651.947	90.69
652.152	92.69
652.356	105.69
652.56	101.69
652.764	97.69
652.969	93.69
653.173	94.69
653.377	87.69
653.581	97.69
653.785	88.69
653.99	83.69
654.194	89.69
654.398	101.69
654.602	85.69
654.806	91.69
655.01	76.69
655.214	78.69
655.418	97.69
655.622	79.69
655.826	88.69
656.03	88.69
656.234	85.69
656.438	104.69
656.642	73.69
656.846	87.69
657.049	98.69
657.253	90.69
657.457	89.69
657.661	97.69
657.865	109.69
658.068	78.69
658.272	88.69
658.476	77.69
658.68	86.69
658.883	77.69
659.087	90.69
659.291	88.69
659.494	88.69
659.698	69.69
659.901	89.69
660.105	89.69
660.309	83.69
660.512	81.69
660.716	89.69
660.919	76.69
661.123	89.69
661.326	86.69
661.53	76.69
661.733	84.69
661.936	82.69
662.14	73.69
662.343	101.69
662.546	92.69
662.75	84.69
662.953	81.69
663.156	80.69
663.36	84.69
663.563	85.69
663.766	81.69
663.969	68.69
664.173	80.69
664.376	92.69
664.579	73.69
664.782	84.69
664.985	67.69
665.188	68.69
665.391	79.69
665.594	70.69
665.797	89.69
666	90.69
666.203	76.69
666.406	78.69
666.609	83.69
666.812	83.69
667.015	84.69
667.218	81.69
667.421	77.69
667.624	83.69
667.827	77.69
668.03	89.69
668.232	73.69
668.435	68.69
668.638	87.69
668.841	85.69
669.043	100.69
669.246	97.69
669.449	94.69
669.651	79.69
669.854	64.69
670.057	85.69
670.259	92.69
670.462	84.69
670.665	96.69
670.867	91.69
671.07	82.69
671.272	86.69
671.475	80.69
671.677	86.69
671.88	83.69
672.082	71.69
672.284	75.69
672.487	89.69
672.689	92.69
672.892	77.69
