Data from Location2.07152019.Energy5.Lamp.07192019.3%Agarose_HRD10591_14-58-56-359.txt Node
Date: Fri Jul 19 14:58:56 EDT 2019
User: cochatt
Spectrometer: HR+D1059
Trigger mode: 1
Integration Time (sec): 1.000000E-1
Scans to average: 1
Electric dark correction enabled: true
Nonlinearity correction enabled: false
Boxcar width: 0
XAxis mode: Wavelengths
Number of Pixels in Spectrum: 2048
>>>>>Begin Spectral Data<<<<<
223.165	-21.12
223.4	-21.12
223.635	-21.12
223.869	-14.12
224.104	-11.12
224.338	-12.12
224.573	-16.12
224.808	-13.12
225.042	2.88
225.277	-7.12
225.511	-5.12
225.746	-2.12
225.98	1.88
226.215	15.88
226.449	9.88
226.683	6.88
226.918	38.88
227.152	25.88
227.387	35.88
227.621	40.88
227.856	44.88
228.09	43.88
228.324	35.88
228.559	52.88
228.793	51.88
229.027	63.88
229.262	73.88
229.496	68.88
229.73	62.88
229.964	79.88
230.199	79.88
230.433	67.88
230.667	69.88
230.901	68.88
231.136	80.88
231.37	88.88
231.604	78.88
231.838	92.88
232.072	91.88
232.306	79.88
232.541	83.88
232.775	83.88
233.009	84.88
233.243	83.88
233.477	85.88
233.711	88.88
233.945	75.88
234.179	92.88
234.413	92.88
234.647	94.88
234.881	92.88
235.115	71.88
235.349	81.88
235.583	87.88
235.817	73.88
236.051	86.88
236.285	83.88
236.519	75.88
236.753	84.88
236.987	81.88
237.221	62.88
237.455	74.88
237.689	85.88
237.922	91.88
238.156	71.88
238.39	70.88
238.624	72.88
238.858	80.88
239.091	71.88
239.325	74.88
239.559	71.88
239.793	75.88
240.027	69.88
240.26	70.88
240.494	85.88
240.728	79.88
240.961	89.88
241.195	80.88
241.429	88.88
241.662	81.88
241.896	63.88
242.13	89.88
242.363	70.88
242.597	90.88
242.83	78.88
243.064	83.88
243.298	76.88
243.531	78.88
243.765	76.88
243.998	79.88
244.232	82.88
244.465	73.88
244.699	74.88
244.932	67.88
245.166	83.88
245.399	81.88
245.633	75.88
245.866	77.88
246.099	65.88
246.333	83.88
246.566	74.88
246.8	82.88
247.033	90.88
247.266	76.88
247.5	85.88
247.733	87.88
247.966	93.88
248.2	88.88
248.433	81.88
248.666	71.88
248.899	73.88
249.133	72.88
249.366	95.88
249.599	88.88
249.832	90.88
250.066	80.88
250.299	90.88
250.532	73.88
250.765	67.88
250.998	75.88
251.231	70.88
251.465	80.88
251.698	68.88
251.931	77.88
252.164	86.88
252.397	74.88
252.63	71.88
252.863	81.88
253.096	90.88
253.329	92.88
253.562	81.88
253.795	89.88
254.028	75.88
254.261	85.88
254.494	84.88
254.727	85.88
254.96	89.88
255.193	82.88
255.426	73.88
255.659	81.88
255.892	87.88
256.124	76.88
256.357	90.88
256.59	82.88
256.823	77.88
257.056	80.88
257.289	76.88
257.521	82.88
257.754	89.88
257.987	75.88
258.22	86.88
258.452	75.88
258.685	82.88
258.918	104.88
259.151	80.88
259.383	88.88
259.616	86.88
259.849	84.88
260.081	74.88
260.314	88.88
260.547	69.88
260.779	78.88
261.012	80.88
261.244	77.88
261.477	106.88
261.71	82.88
261.942	78.88
262.175	80.88
262.407	75.88
262.64	92.88
262.872	73.88
263.105	85.88
263.337	75.88
263.57	79.88
263.802	85.88
264.035	90.88
264.267	83.88
264.499	81.88
264.732	95.88
264.964	79.88
265.197	69.88
265.429	85.88
265.661	80.88
265.894	86.88
266.126	76.88
266.358	84.88
266.591	87.88
266.823	68.88
267.055	90.88
267.287	76.88
267.52	67.88
267.752	92.88
267.984	83.88
268.216	84.88
268.448	83.88
268.681	72.88
268.913	80.88
269.145	75.88
269.377	92.88
269.609	92.88
269.841	90.88
270.073	87.88
270.306	81.88
270.538	92.88
270.77	79.88
271.002	90.88
271.234	78.88
271.466	83.88
271.698	88.88
271.93	75.88
272.162	80.88
272.394	84.88
272.626	84.88
272.858	76.88
273.09	90.88
273.322	90.88
273.553	82.88
273.785	79.88
274.017	77.88
274.249	88.88
274.481	83.88
274.713	100.88
274.945	88.88
275.176	97.88
275.408	72.88
275.64	100.88
275.872	93.88
276.104	81.88
276.335	82.88
276.567	80.88
276.799	90.88
277.031	75.88
277.262	77.88
277.494	96.88
277.726	89.88
277.957	89.88
278.189	81.88
278.421	81.88
278.652	83.88
278.884	84.88
279.115	93.88
279.347	87.88
279.579	86.88
279.81	73.88
280.042	79.88
280.273	88.88
280.505	84.88
280.736	79.88
280.968	73.88
281.199	81.88
281.431	89.88
281.662	75.88
281.894	99.88
282.125	89.88
282.356	108.88
282.588	102.88
282.819	85.88
283.051	75.88
283.282	79.88
283.513	90.88
283.745	82.88
283.976	76.88
284.207	81.88
284.439	90.88
284.67	79.88
284.901	96.88
285.132	72.88
285.364	94.88
285.595	89.88
285.826	99.88
286.057	83.88
286.288	90.88
286.52	76.88
286.751	78.88
286.982	100.88
287.213	89.88
287.444	91.88
287.675	90.88
287.906	85.88
288.138	85.88
288.369	95.88
288.6	82.88
288.831	97.88
289.062	94.88
289.293	84.88
289.524	77.88
289.755	83.88
289.986	65.88
290.217	78.88
290.448	101.88
290.679	88.88
290.91	84.88
291.141	85.88
291.371	85.88
291.602	90.88
291.833	87.88
292.064	88.88
292.295	77.88
292.526	78.88
292.757	97.88
292.987	91.88
293.218	81.88
293.449	95.88
293.68	74.88
293.91	88.88
294.141	88.88
294.372	84.88
294.603	98.88
294.833	88.88
295.064	83.88
295.295	90.88
295.525	83.88
295.756	90.88
295.987	80.88
296.217	88.88
296.448	101.88
296.679	75.88
296.909	88.88
297.14	83.88
297.37	98.88
297.601	89.88
297.831	87.88
298.062	86.88
298.292	78.88
298.523	80.88
298.753	81.88
298.984	87.88
299.214	74.88
299.445	95.88
299.675	104.88
299.905	82.88
300.136	83.88
300.366	82.88
300.597	82.88
300.827	89.88
301.057	77.88
301.288	79.88
301.518	86.88
301.748	74.88
301.979	95.88
302.209	94.88
302.439	94.88
302.669	77.88
302.9	72.88
303.13	90.88
303.36	95.88
303.59	72.88
303.82	76.88
304.051	91.88
304.281	99.88
304.511	78.88
304.741	101.88
304.971	79.88
305.201	76.88
305.431	91.88
305.661	87.88
305.891	83.88
306.121	82.88
306.352	81.88
306.582	78.88
306.812	93.88
307.042	79.88
307.272	83.88
307.502	94.88
307.731	79.88
307.961	81.88
308.191	85.88
308.421	67.88
308.651	77.88
308.881	77.88
309.111	90.88
309.341	96.88
309.571	95.88
309.8	87.88
310.03	98.88
310.26	93.88
310.49	81.88
310.72	83.88
310.949	89.88
311.179	81.88
311.409	93.88
311.639	101.88
311.868	89.88
312.098	87.88
312.328	92.88
312.557	77.88
312.787	81.88
313.017	86.88
313.246	83.88
313.476	76.88
313.706	84.88
313.935	82.88
314.165	85.88
314.394	81.88
314.624	90.88
314.853	88.88
315.083	79.88
315.312	79.88
315.542	80.88
315.771	91.88
316.001	90.88
316.23	73.88
316.46	83.88
316.689	79.88
316.919	91.88
317.148	80.88
317.377	86.88
317.607	74.88
317.836	87.88
318.065	99.88
318.295	87.88
318.524	90.88
318.753	87.88
318.983	82.88
319.212	85.88
319.441	71.88
319.67	84.88
319.9	77.88
320.129	96.88
320.358	89.88
320.587	79.88
320.816	85.88
321.046	83.88
321.275	103.88
321.504	81.88
321.733	82.88
321.962	84.88
322.191	76.88
322.42	88.88
322.649	93.88
322.878	85.88
323.108	84.88
323.337	89.88
323.566	88.88
323.795	90.88
324.024	83.88
324.253	77.88
324.482	88.88
324.71	75.88
324.939	78.88
325.168	95.88
325.397	98.88
325.626	79.88
325.855	81.88
326.084	83.88
326.313	82.88
326.542	77.88
326.77	81.88
326.999	91.88
327.228	100.88
327.457	77.88
327.686	81.88
327.914	97.88
328.143	75.88
328.372	88.88
328.6	88.88
328.829	96.88
329.058	74.88
329.287	91.88
329.515	72.88
329.744	99.88
329.972	86.88
330.201	75.88
330.43	73.88
330.658	86.88
330.887	75.88
331.115	85.88
331.344	82.88
331.572	91.88
331.801	78.88
332.03	93.88
332.258	93.88
332.486	97.88
332.715	93.88
332.943	98.88
333.172	77.88
333.4	69.88
333.629	77.88
333.857	75.88
334.085	76.88
334.314	85.88
334.542	84.88
334.771	85.88
334.999	76.88
335.227	72.88
335.455	98.88
335.684	81.88
335.912	70.88
336.14	83.88
336.369	85.88
336.597	77.88
336.825	85.88
337.053	84.88
337.281	72.88
337.51	91.88
337.738	89.88
337.966	90.88
338.194	96.88
338.422	84.88
338.65	100.88
338.878	97.88
339.106	96.88
339.334	102.88
339.562	99.88
339.79	91.88
340.018	82.88
340.246	93.88
340.474	76.88
340.702	82.88
340.93	95.88
341.158	93.88
341.386	90.88
341.614	66.88
341.842	78.88
342.07	89.88
342.298	95.88
342.526	73.88
342.754	93.88
342.981	84.88
343.209	86.88
343.437	93.88
343.665	97.88
343.893	79.88
344.12	83.88
344.348	77.88
344.576	84.88
344.804	91.88
345.031	63.88
345.259	83.88
345.487	94.88
345.714	85.88
345.942	67.88
346.17	80.88
346.397	87.88
346.625	87.88
346.853	81.88
347.08	69.88
347.308	79.88
347.535	78.88
347.763	84.88
347.99	90.88
348.218	87.88
348.445	86.88
348.673	102.88
348.9	83.88
349.128	84.88
349.355	82.88
349.583	69.88
349.81	86.88
350.037	88.88
350.265	84.88
350.492	86.88
350.72	78.88
350.947	91.88
351.174	98.88
351.402	89.88
351.629	88.88
351.856	77.88
352.083	72.88
352.311	88.88
352.538	90.88
352.765	94.88
352.992	84.88
353.22	90.88
353.447	85.88
353.674	83.88
353.901	86.88
354.128	80.88
354.355	89.88
354.583	95.88
354.81	85.88
355.037	85.88
355.264	81.88
355.491	96.88
355.718	82.88
355.945	84.88
356.172	83.88
356.399	84.88
356.626	83.88
356.853	71.88
357.08	92.88
357.307	92.88
357.534	86.88
357.761	82.88
357.988	96.88
358.215	78.88
358.441	77.88
358.668	77.88
358.895	83.88
359.122	99.88
359.349	88.88
359.576	92.88
359.802	82.88
360.029	79.88
360.256	84.88
360.483	79.88
360.709	90.88
360.936	89.88
361.163	88.88
361.39	75.88
361.616	82.88
361.843	85.88
362.07	72.88
362.296	68.88
362.523	85.88
362.749	84.88
362.976	76.88
363.203	93.88
363.429	90.88
363.656	91.88
363.882	90.88
364.109	89.88
364.335	89.88
364.562	79.88
364.788	81.88
365.015	81.88
365.241	80.88
365.468	88.88
365.694	90.88
365.92	78.88
366.147	79.88
366.373	87.88
366.599	98.88
366.826	73.88
367.052	72.88
367.278	85.88
367.505	96.88
367.731	95.88
367.957	98.88
368.184	90.88
368.41	85.88
368.636	80.88
368.862	84.88
369.089	90.88
369.315	85.88
369.541	90.88
369.767	77.88
369.993	84.88
370.219	98.88
370.445	91.88
370.672	87.88
370.898	91.88
371.124	77.88
371.35	96.88
371.576	96.88
371.802	96.88
372.028	83.88
372.254	90.88
372.48	84.88
372.706	84.88
372.932	100.88
373.158	87.88
373.384	97.88
373.61	97.88
373.835	99.88
374.061	93.88
374.287	103.88
374.513	89.88
374.739	87.88
374.965	90.88
375.191	100.88
375.416	89.88
375.642	76.88
375.868	97.88
376.094	91.88
376.319	102.88
376.545	97.88
376.771	94.88
376.997	101.88
377.222	76.88
377.448	87.88
377.674	88.88
377.899	92.88
378.125	92.88
378.35	96.88
378.576	88.88
378.802	85.88
379.027	83.88
379.253	111.88
379.478	99.88
379.704	91.88
379.929	90.88
380.155	85.88
380.38	101.88
380.606	85.88
380.831	101.88
381.057	108.88
381.282	109.88
381.507	106.88
381.733	104.88
381.958	98.88
382.184	105.88
382.409	85.88
382.634	85.88
382.86	87.88
383.085	118.88
383.31	80.88
383.535	92.88
383.761	92.88
383.986	105.88
384.211	104.88
384.436	104.88
384.662	111.88
384.887	83.88
385.112	96.88
385.337	99.88
385.562	102.88
385.787	104.88
386.013	97.88
386.238	102.88
386.463	91.88
386.688	101.88
386.913	89.88
387.138	107.88
387.363	104.88
387.588	105.88
387.813	104.88
388.038	91.88
388.263	95.88
388.488	88.88
388.713	113.88
388.938	102.88
389.163	88.88
389.387	93.88
389.612	104.88
389.837	105.88
390.062	90.88
390.287	93.88
390.512	95.88
390.736	95.88
390.961	94.88
391.186	98.88
391.411	98.88
391.636	106.88
391.86	84.88
392.085	96.88
392.31	110.88
392.534	122.88
392.759	121.88
392.984	103.88
393.208	108.88
393.433	124.88
393.658	103.88
393.882	97.88
394.107	102.88
394.331	102.88
394.556	109.88
394.78	111.88
395.005	104.88
395.229	105.88
395.454	106.88
395.678	99.88
395.903	101.88
396.127	101.88
396.352	94.88
396.576	115.88
396.801	95.88
397.025	122.88
397.249	105.88
397.474	108.88
397.698	122.88
397.922	119.88
398.147	114.88
398.371	111.88
398.595	105.88
398.82	90.88
399.044	102.88
399.268	120.88
399.492	101.88
399.717	120.88
399.941	127.88
400.165	119.88
400.389	116.88
400.613	109.88
400.837	107.88
401.062	114.88
401.286	123.88
401.51	125.88
401.734	112.88
401.958	111.88
402.182	111.88
402.406	113.88
402.63	129.88
402.854	114.88
403.078	95.88
403.302	112.88
403.526	98.88
403.75	123.88
403.974	117.88
404.198	103.88
404.422	114.88
404.645	115.88
404.869	108.88
405.093	115.88
405.317	116.88
405.541	105.88
405.765	131.88
405.988	120.88
406.212	131.88
406.436	119.88
406.66	131.88
406.883	117.88
407.107	117.88
407.331	96.88
407.555	102.88
407.778	124.88
408.002	107.88
408.226	125.88
408.449	116.88
408.673	120.88
408.896	129.88
409.12	121.88
409.344	112.88
409.567	111.88
409.791	124.88
410.014	114.88
410.238	109.88
410.461	117.88
410.685	119.88
410.908	117.88
411.132	112.88
411.355	114.88
411.578	117.88
411.802	121.88
412.025	122.88
412.249	137.88
412.472	120.88
412.695	124.88
412.919	121.88
413.142	124.88
413.365	125.88
413.589	129.88
413.812	120.88
414.035	129.88
414.258	117.88
414.482	124.88
414.705	132.88
414.928	131.88
415.151	122.88
415.374	132.88
415.597	132.88
415.821	123.88
416.044	118.88
416.267	110.88
416.49	128.88
416.713	128.88
416.936	124.88
417.159	125.88
417.382	126.88
417.605	127.88
417.828	119.88
418.051	125.88
418.274	125.88
418.497	137.88
418.72	123.88
418.943	134.88
419.166	125.88
419.389	150.88
419.611	150.88
419.834	133.88
420.057	135.88
420.28	124.88
420.503	115.88
420.726	117.88
420.948	129.88
421.171	149.88
421.394	131.88
421.617	135.88
421.839	136.88
422.062	138.88
422.285	123.88
422.507	140.88
422.73	103.88
422.953	119.88
423.175	127.88
423.398	133.88
423.621	129.88
423.843	131.88
424.066	152.88
424.288	140.88
424.511	134.88
424.733	133.88
424.956	149.88
425.178	135.88
425.401	129.88
425.623	121.88
425.846	129.88
426.068	152.88
426.291	131.88
426.513	119.88
426.735	117.88
426.958	142.88
427.18	132.88
427.402	123.88
427.625	131.88
427.847	134.88
428.069	133.88
428.292	131.88
428.514	143.88
428.736	123.88
428.958	126.88
429.181	125.88
429.403	135.88
429.625	133.88
429.847	134.88
430.069	125.88
430.292	131.88
430.514	128.88
430.736	138.88
430.958	143.88
431.18	122.88
431.402	131.88
431.624	115.88
431.846	108.88
432.068	93.88
432.29	103.88
432.512	107.88
432.734	116.88
432.956	131.88
433.178	134.88
433.4	141.88
433.622	135.88
433.844	127.88
434.066	123.88
434.287	102.88
434.509	94.88
434.731	106.88
434.953	124.88
435.175	125.88
435.397	129.88
435.618	113.88
435.84	100.88
436.062	112.88
436.284	132.88
436.505	129.88
436.727	121.88
436.949	109.88
437.17	124.88
437.392	121.88
437.614	116.88
437.835	113.88
438.057	114.88
438.278	104.88
438.5	117.88
438.721	121.88
438.943	145.88
439.165	151.88
439.386	141.88
439.608	145.88
439.829	133.88
440.05	125.88
440.272	146.88
440.493	139.88
440.715	165.88
440.936	151.88
441.158	158.88
441.379	139.88
441.6	159.88
441.822	135.88
442.043	131.88
442.264	136.88
442.486	129.88
442.707	133.88
442.928	139.88
443.149	130.88
443.371	140.88
443.592	137.88
443.813	138.88
444.034	156.88
444.255	143.88
444.476	131.88
444.698	145.88
444.919	147.88
445.14	273.88
445.361	215.88
445.582	175.88
445.803	137.88
446.024	141.88
446.245	157.88
446.466	161.88
446.687	148.88
446.908	139.88
447.129	155.88
447.35	148.88
447.571	148.88
447.792	152.88
448.013	153.88
448.234	139.88
448.455	128.88
448.675	122.88
448.896	139.88
449.117	139.88
449.338	145.88
449.559	146.88
449.779	150.88
450	133.88
450.221	134.88
450.442	134.88
450.662	133.88
450.883	128.88
451.104	142.88
451.324	125.88
451.545	130.88
451.766	127.88
451.986	126.88
452.207	122.88
452.428	139.88
452.648	119.88
452.869	118.88
453.089	113.88
453.31	90.88
453.53	108.88
453.751	94.88
453.971	101.88
454.192	118.88
454.412	108.88
454.633	118.88
454.853	111.88
455.073	111.88
455.294	121.88
455.514	111.88
455.734	114.88
455.955	124.88
456.175	105.88
456.395	107.88
456.616	104.88
456.836	112.88
457.056	95.88
457.276	123.88
457.497	117.88
457.717	117.88
457.937	108.88
458.157	105.88
458.377	99.88
458.598	102.88
458.818	104.88
459.038	92.88
459.258	84.88
459.478	98.88
459.698	94.88
459.918	78.88
460.138	92.88
460.358	101.88
460.578	131.88
460.798	106.88
461.018	103.88
461.238	115.88
461.458	114.88
461.678	106.88
461.898	117.88
462.118	114.88
462.338	118.88
462.558	116.88
462.777	126.88
462.997	115.88
463.217	115.88
463.437	116.88
463.657	120.88
463.876	112.88
464.096	106.88
464.316	107.88
464.536	114.88
464.755	127.88
464.975	96.88
465.195	106.88
465.414	133.88
465.634	103.88
465.854	119.88
466.073	115.88
466.293	136.88
466.512	117.88
466.732	125.88
466.951	115.88
467.171	125.88
467.391	126.88
467.61	122.88
467.829	142.88
468.049	141.88
468.268	147.88
468.488	147.88
468.707	137.88
468.927	145.88
469.146	158.88
469.365	144.88
469.585	154.88
469.804	125.88
470.023	155.88
470.243	133.88
470.462	137.88
470.681	140.88
470.901	149.88
471.12	148.88
471.339	157.88
471.558	136.88
471.777	137.88
471.997	127.88
472.216	112.88
472.435	127.88
472.654	106.88
472.873	108.88
473.092	139.88
473.311	119.88
473.53	129.88
473.749	113.88
473.968	123.88
474.187	124.88
474.406	119.88
474.625	123.88
474.844	129.88
475.063	136.88
475.282	111.88
475.501	109.88
475.72	119.88
475.939	123.88
476.158	145.88
476.377	136.88
476.596	122.88
476.814	115.88
477.033	119.88
477.252	102.88
477.471	128.88
477.69	123.88
477.908	146.88
478.127	121.88
478.346	135.88
478.564	127.88
478.783	133.88
479.002	135.88
479.22	136.88
479.439	141.88
479.658	133.88
479.876	119.88
480.095	107.88
480.313	121.88
480.532	122.88
480.751	117.88
480.969	88.88
481.188	94.88
481.406	78.88
481.624	93.88
481.843	81.88
482.061	96.88
482.28	107.88
482.498	106.88
482.717	122.88
482.935	125.88
483.153	145.88
483.372	138.88
483.59	158.88
483.808	129.88
484.027	127.88
484.245	137.88
484.463	154.88
484.681	157.88
484.9	135.88
485.118	135.88
485.336	142.88
485.554	122.88
485.772	103.88
485.99	99.88
486.209	104.88
486.427	113.88
486.645	111.88
486.863	127.88
487.081	132.88
487.299	132.88
487.517	142.88
487.735	167.88
487.953	168.88
488.171	189.88
488.389	180.88
488.607	160.88
488.825	152.88
489.043	136.88
489.261	136.88
489.479	139.88
489.696	146.88
489.914	141.88
490.132	149.88
490.35	138.88
490.568	163.88
490.786	161.88
491.003	171.88
491.221	179.88
491.439	208.88
491.657	186.88
491.874	213.88
492.092	213.88
492.31	230.88
492.527	203.88
492.745	205.88
492.963	166.88
493.18	184.88
493.398	192.88
493.615	183.88
493.833	177.88
494.05	183.88
494.268	172.88
494.485	167.88
494.703	177.88
494.92	175.88
495.138	163.88
495.355	162.88
495.573	171.88
495.79	183.88
496.008	175.88
496.225	168.88
496.442	165.88
496.66	173.88
496.877	172.88
497.094	160.88
497.312	154.88
497.529	159.88
497.746	155.88
497.963	143.88
498.181	122.88
498.398	129.88
498.615	127.88
498.832	121.88
499.049	120.88
499.267	116.88
499.484	121.88
499.701	136.88
499.918	144.88
500.135	130.88
500.352	143.88
500.569	135.88
500.786	159.88
501.003	149.88
501.22	141.88
501.437	125.88
501.654	130.88
501.871	147.88
502.088	129.88
502.305	152.88
502.522	151.88
502.739	131.88
502.956	135.88
503.172	120.88
503.389	107.88
503.606	123.88
503.823	116.88
504.04	107.88
504.256	131.88
504.473	116.88
504.69	129.88
504.907	125.88
505.123	122.88
505.34	137.88
505.557	125.88
505.773	132.88
505.99	106.88
506.207	130.88
506.423	125.88
506.64	123.88
506.856	123.88
507.073	120.88
507.289	111.88
507.506	133.88
507.722	128.88
507.939	112.88
508.155	126.88
508.372	110.88
508.588	111.88
508.805	121.88
509.021	127.88
509.238	108.88
509.454	108.88
509.67	88.88
509.887	102.88
510.103	105.88
510.319	76.88
510.536	87.88
510.752	94.88
510.968	76.88
511.184	97.88
511.401	113.88
511.617	85.88
511.833	101.88
512.049	87.88
512.265	108.88
512.481	93.88
512.698	108.88
512.914	85.88
513.13	105.88
513.346	95.88
513.562	101.88
513.778	98.88
513.994	76.88
514.21	101.88
514.426	90.88
514.642	92.88
514.858	100.88
515.074	90.88
515.29	84.88
515.506	106.88
515.721	89.88
515.937	85.88
516.153	86.88
516.369	99.88
516.585	94.88
516.801	92.88
517.016	99.88
517.232	95.88
517.448	106.88
517.664	103.88
517.879	114.88
518.095	96.88
518.311	89.88
518.527	96.88
518.742	104.88
518.958	100.88
519.173	119.88
519.389	101.88
519.605	113.88
519.82	114.88
520.036	104.88
520.251	105.88
520.467	103.88
520.682	94.88
520.898	112.88
521.113	86.88
521.329	91.88
521.544	106.88
521.76	112.88
521.975	97.88
522.19	111.88
522.406	105.88
522.621	97.88
522.836	78.88
523.052	100.88
523.267	90.88
523.482	107.88
523.698	122.88
523.913	117.88
524.128	109.88
524.343	122.88
524.559	119.88
524.774	109.88
524.989	124.88
525.204	125.88
525.419	120.88
525.634	111.88
525.849	120.88
526.064	105.88
526.28	94.88
526.495	99.88
526.71	87.88
526.925	72.88
527.14	63.88
527.355	86.88
527.57	101.88
527.785	95.88
527.999	108.88
528.214	98.88
528.429	121.88
528.644	112.88
528.859	137.88
529.074	158.88
529.289	141.88
529.503	151.88
529.718	130.88
529.933	103.88
530.148	117.88
530.363	100.88
530.577	83.88
530.792	84.88
531.007	86.88
531.221	95.88
531.436	69.88
531.651	73.88
531.865	90.88
532.08	89.88
532.295	89.88
532.509	91.88
532.724	91.88
532.938	89.88
533.153	94.88
533.367	109.88
533.582	125.88
533.796	107.88
534.011	109.88
534.225	100.88
534.44	91.88
534.654	105.88
534.868	109.88
535.083	96.88
535.297	99.88
535.511	102.88
535.726	103.88
535.94	96.88
536.154	89.88
536.369	85.88
536.583	83.88
536.797	84.88
537.011	84.88
537.225	80.88
537.44	82.88
537.654	89.88
537.868	99.88
538.082	96.88
538.296	106.88
538.51	116.88
538.724	102.88
538.938	132.88
539.153	126.88
539.367	122.88
539.581	108.88
539.795	97.88
540.009	102.88
540.222	91.88
540.436	113.88
540.65	119.88
540.864	122.88
541.078	147.88
541.292	155.88
541.506	153.88
541.72	160.88
541.934	194.88
542.147	181.88
542.361	179.88
542.575	172.88
542.789	159.88
543.002	125.88
543.216	131.88
543.43	119.88
543.644	107.88
543.857	145.88
544.071	153.88
544.285	150.88
544.498	152.88
544.712	155.88
544.925	159.88
545.139	167.88
545.352	155.88
545.566	160.88
545.779	165.88
545.993	144.88
546.206	169.88
546.42	162.88
546.633	157.88
546.847	167.88
547.06	165.88
547.274	156.88
547.487	169.88
547.7	183.88
547.914	150.88
548.127	161.88
548.34	149.88
548.554	147.88
548.767	156.88
548.98	175.88
549.193	165.88
549.407	153.88
549.62	150.88
549.833	153.88
550.046	164.88
550.259	154.88
550.473	144.88
550.686	131.88
550.899	149.88
551.112	150.88
551.325	141.88
551.538	145.88
551.751	125.88
551.964	128.88
552.177	133.88
552.39	139.88
552.603	150.88
552.816	147.88
553.029	162.88
553.242	146.88
553.455	144.88
553.667	146.88
553.88	161.88
554.093	143.88
554.306	136.88
554.519	138.88
554.732	146.88
554.944	150.88
555.157	140.88
555.37	147.88
555.583	141.88
555.795	152.88
556.008	139.88
556.221	137.88
556.433	147.88
556.646	138.88
556.859	124.88
557.071	151.88
557.284	141.88
557.496	151.88
557.709	155.88
557.921	149.88
558.134	124.88
558.346	147.88
558.559	131.88
558.771	137.88
558.984	127.88
559.196	140.88
559.409	127.88
559.621	131.88
559.833	145.88
560.046	123.88
560.258	115.88
560.47	129.88
560.683	135.88
560.895	136.88
561.107	136.88
561.32	126.88
561.532	140.88
561.744	125.88
561.956	135.88
562.168	131.88
562.381	120.88
562.593	121.88
562.805	134.88
563.017	120.88
563.229	128.88
563.441	130.88
563.653	127.88
563.865	122.88
564.077	119.88
564.289	116.88
564.501	122.88
564.713	120.88
564.925	124.88
565.137	118.88
565.349	128.88
565.561	127.88
565.773	115.88
565.985	123.88
566.197	108.88
566.408	121.88
566.62	118.88
566.832	113.88
567.044	117.88
567.255	119.88
567.467	116.88
567.679	114.88
567.891	90.88
568.102	109.88
568.314	98.88
568.526	94.88
568.737	101.88
568.949	81.88
569.161	86.88
569.372	88.88
569.584	95.88
569.795	81.88
570.007	87.88
570.218	92.88
570.43	85.88
570.641	97.88
570.853	82.88
571.064	100.88
571.276	109.88
571.487	96.88
571.698	106.88
571.91	107.88
572.121	100.88
572.333	97.88
572.544	113.88
572.755	103.88
572.966	87.88
573.178	81.88
573.389	86.88
573.6	78.88
573.811	85.88
574.023	89.88
574.234	90.88
574.445	95.88
574.656	88.88
574.867	92.88
575.078	96.88
575.289	117.88
575.501	102.88
575.712	83.88
575.923	85.88
576.134	92.88
576.345	97.88
576.556	104.88
576.767	88.88
576.978	99.88
577.188	105.88
577.399	85.88
577.61	88.88
577.821	98.88
578.032	91.88
578.243	95.88
578.454	77.88
578.665	92.88
578.875	87.88
579.086	80.88
579.297	79.88
579.508	73.88
579.718	86.88
579.929	79.88
580.14	85.88
580.35	86.88
580.561	86.88
580.772	94.88
580.982	87.88
581.193	93.88
581.403	102.88
581.614	79.88
581.825	89.88
582.035	91.88
582.246	97.88
582.456	100.88
582.667	92.88
582.877	105.88
583.087	95.88
583.298	101.88
583.508	89.88
583.719	79.88
583.929	90.88
584.139	85.88
584.35	85.88
584.56	106.88
584.77	95.88
584.981	92.88
585.191	92.88
585.401	93.88
585.611	88.88
585.821	99.88
586.032	73.88
586.242	80.88
586.452	102.88
586.662	91.88
586.872	67.88
587.082	73.88
587.292	76.88
587.502	80.88
587.713	80.88
587.923	83.88
588.133	77.88
588.343	80.88
588.553	81.88
588.762	85.88
588.972	88.88
589.182	88.88
589.392	77.88
589.602	98.88
589.812	87.88
590.022	83.88
590.232	80.88
590.441	88.88
590.651	83.88
590.861	84.88
591.071	95.88
591.281	76.88
591.49	84.88
591.7	79.88
591.91	92.88
592.119	97.88
592.329	87.88
592.539	80.88
592.748	91.88
592.958	84.88
593.167	76.88
593.377	74.88
593.587	103.88
593.796	85.88
594.006	85.88
594.215	93.88
594.424	81.88
594.634	98.88
594.843	104.88
595.053	100.88
595.262	88.88
595.472	94.88
595.681	77.88
595.89	90.88
596.1	91.88
596.309	87.88
596.518	92.88
596.727	93.88
596.937	95.88
597.146	104.88
597.355	92.88
597.564	112.88
597.774	93.88
597.983	75.88
598.192	91.88
598.401	95.88
598.61	88.88
598.819	92.88
599.028	104.88
599.237	104.88
599.446	84.88
599.655	92.88
599.864	86.88
600.073	96.88
600.282	101.88
600.491	95.88
600.7	93.88
600.909	103.88
601.118	99.88
601.327	77.88
601.536	93.88
601.745	114.88
601.953	111.88
602.162	123.88
602.371	99.88
602.58	99.88
602.789	106.88
602.997	111.88
603.206	97.88
603.415	112.88
603.623	123.88
603.832	120.88
604.041	108.88
604.249	114.88
604.458	121.88
604.666	92.88
604.875	100.88
605.084	92.88
605.292	106.88
605.501	113.88
605.709	107.88
605.918	105.88
606.126	100.88
606.334	122.88
606.543	127.88
606.751	107.88
606.96	111.88
607.168	118.88
607.376	117.88
607.585	114.88
607.793	124.88
608.001	115.88
608.21	113.88
608.418	113.88
608.626	105.88
608.834	104.88
609.043	100.88
609.251	113.88
609.459	135.88
609.667	116.88
609.875	91.88
610.083	111.88
610.291	115.88
610.499	114.88
610.707	120.88
610.916	115.88
611.124	119.88
611.332	123.88
611.54	104.88
611.748	114.88
611.955	119.88
612.163	116.88
612.371	111.88
612.579	105.88
612.787	119.88
612.995	117.88
613.203	118.88
613.411	115.88
613.618	109.88
613.826	111.88
614.034	105.88
614.242	104.88
614.449	120.88
614.657	121.88
614.865	115.88
615.072	118.88
615.28	104.88
615.488	114.88
615.695	133.88
615.903	118.88
616.111	123.88
616.318	118.88
616.526	105.88
616.733	103.88
616.941	109.88
617.148	124.88
617.356	104.88
617.563	113.88
617.771	124.88
617.978	102.88
618.185	104.88
618.393	125.88
618.6	115.88
618.807	100.88
619.015	101.88
619.222	114.88
619.429	116.88
619.637	98.88
619.844	119.88
620.051	84.88
620.258	110.88
620.466	121.88
620.673	114.88
620.88	120.88
621.087	106.88
621.294	115.88
621.501	113.88
621.708	104.88
621.915	96.88
622.122	115.88
622.329	123.88
622.536	102.88
622.743	109.88
622.95	102.88
623.157	92.88
623.364	104.88
623.571	117.88
623.778	115.88
623.985	95.88
624.192	101.88
624.399	101.88
624.606	108.88
624.812	117.88
625.019	97.88
625.226	99.88
625.433	110.88
625.639	109.88
625.846	98.88
626.053	90.88
626.259	95.88
626.466	100.88
626.673	115.88
626.879	84.88
627.086	112.88
627.293	108.88
627.499	104.88
627.706	98.88
627.912	111.88
628.119	98.88
628.325	105.88
628.532	93.88
628.738	106.88
628.945	109.88
629.151	98.88
629.357	101.88
629.564	100.88
629.77	121.88
629.976	103.88
630.183	109.88
630.389	105.88
630.595	108.88
630.802	97.88
631.008	100.88
631.214	98.88
631.42	96.88
631.627	104.88
631.833	101.88
632.039	99.88
632.245	98.88
632.451	109.88
632.657	102.88
632.863	116.88
633.069	89.88
633.275	103.88
633.481	111.88
633.688	115.88
633.893	103.88
634.099	104.88
634.305	92.88
634.511	98.88
634.717	97.88
634.923	87.88
635.129	97.88
635.335	81.88
635.541	97.88
635.747	85.88
635.952	102.88
636.158	107.88
636.364	92.88
636.57	96.88
636.775	100.88
636.981	99.88
637.187	115.88
637.392	120.88
637.598	113.88
637.804	107.88
638.009	116.88
638.215	102.88
638.421	92.88
638.626	101.88
638.832	106.88
639.037	95.88
639.243	97.88
639.448	93.88
639.654	105.88
639.859	85.88
640.065	102.88
640.27	98.88
640.475	102.88
640.681	101.88
640.886	88.88
641.091	101.88
641.297	95.88
641.502	102.88
641.707	113.88
641.913	99.88
642.118	96.88
642.323	88.88
642.528	107.88
642.733	107.88
642.939	106.88
643.144	103.88
643.349	88.88
643.554	104.88
643.759	119.88
643.964	103.88
644.169	96.88
644.374	112.88
644.579	98.88
644.784	102.88
644.989	99.88
645.194	92.88
645.399	106.88
645.604	96.88
645.809	106.88
646.014	103.88
646.219	103.88
646.423	89.88
646.628	104.88
646.833	83.88
647.038	99.88
647.243	106.88
647.447	82.88
647.652	95.88
647.857	85.88
648.062	105.88
648.266	90.88
648.471	90.88
648.676	96.88
648.88	104.88
649.085	95.88
649.289	98.88
649.494	100.88
649.698	85.88
649.903	87.88
650.107	104.88
650.312	105.88
650.516	82.88
650.721	91.88
650.925	88.88
651.13	92.88
651.334	99.88
651.539	90.88
651.743	81.88
651.947	97.88
652.152	96.88
652.356	104.88
652.56	77.88
652.764	110.88
652.969	99.88
653.173	83.88
653.377	89.88
653.581	91.88
653.785	86.88
653.99	101.88
654.194	96.88
654.398	90.88
654.602	84.88
654.806	95.88
655.01	92.88
655.214	93.88
655.418	86.88
655.622	72.88
655.826	90.88
656.03	96.88
656.234	91.88
656.438	82.88
656.642	81.88
656.846	95.88
657.049	94.88
657.253	78.88
657.457	83.88
657.661	113.88
657.865	100.88
658.068	84.88
658.272	89.88
658.476	73.88
658.68	83.88
658.883	99.88
659.087	85.88
659.291	81.88
659.494	82.88
659.698	80.88
659.901	86.88
660.105	92.88
660.309	79.88
660.512	75.88
660.716	74.88
660.919	68.88
661.123	88.88
661.326	85.88
661.53	76.88
661.733	78.88
661.936	77.88
662.14	86.88
662.343	80.88
662.546	81.88
662.75	76.88
662.953	80.88
663.156	89.88
663.36	77.88
663.563	84.88
663.766	87.88
663.969	78.88
664.173	81.88
664.376	95.88
664.579	82.88
664.782	99.88
664.985	81.88
665.188	86.88
665.391	66.88
665.594	83.88
665.797	85.88
666	88.88
666.203	89.88
666.406	85.88
666.609	95.88
666.812	91.88
667.015	83.88
667.218	85.88
667.421	76.88
667.624	83.88
667.827	70.88
668.03	78.88
668.232	81.88
668.435	76.88
668.638	88.88
668.841	85.88
669.043	82.88
669.246	83.88
669.449	83.88
669.651	73.88
669.854	76.88
670.057	89.88
670.259	83.88
670.462	93.88
670.665	98.88
670.867	81.88
671.07	99.88
671.272	82.88
671.475	88.88
671.677	85.88
671.88	75.88
672.082	80.88
672.284	74.88
672.487	83.88
672.689	74.88
672.892	73.88
