Data from Location2.07152019.Energy5.Lamp.07192019.3%Agarose_HRD10591_14-57-35-359.txt Node
Date: Fri Jul 19 14:57:35 EDT 2019
User: cochatt
Spectrometer: HR+D1059
Trigger mode: 1
Integration Time (sec): 1.000000E-1
Scans to average: 1
Electric dark correction enabled: true
Nonlinearity correction enabled: false
Boxcar width: 0
XAxis mode: Wavelengths
Number of Pixels in Spectrum: 2048
>>>>>Begin Spectral Data<<<<<
223.165	-20.62
223.4	-20.62
223.635	-20.62
223.869	-19.62
224.104	-5.62
224.338	-10.62
224.573	-12.62
224.808	1.38
225.042	-12.62
225.277	5.38
225.511	4.38
225.746	-5.62
225.98	-1.62
226.215	3.38
226.449	16.38
226.683	12.38
226.918	17.38
227.152	28.38
227.387	28.38
227.621	45.38
227.856	44.38
228.09	43.38
228.324	29.38
228.559	68.38
228.793	55.38
229.027	69.38
229.262	58.38
229.496	61.38
229.73	65.38
229.964	74.38
230.199	65.38
230.433	74.38
230.667	76.38
230.901	76.38
231.136	70.38
231.37	78.38
231.604	82.38
231.838	86.38
232.072	80.38
232.306	79.38
232.541	77.38
232.775	98.38
233.009	78.38
233.243	83.38
233.477	87.38
233.711	77.38
233.945	83.38
234.179	91.38
234.413	79.38
234.647	77.38
234.881	83.38
235.115	89.38
235.349	77.38
235.583	76.38
235.817	85.38
236.051	82.38
236.285	86.38
236.519	77.38
236.753	74.38
236.987	77.38
237.221	65.38
237.455	85.38
237.689	78.38
237.922	71.38
238.156	67.38
238.39	75.38
238.624	78.38
238.858	91.38
239.091	73.38
239.325	79.38
239.559	81.38
239.793	87.38
240.027	70.38
240.26	79.38
240.494	67.38
240.728	75.38
240.961	76.38
241.195	77.38
241.429	75.38
241.662	82.38
241.896	82.38
242.13	70.38
242.363	84.38
242.597	87.38
242.83	82.38
243.064	83.38
243.298	84.38
243.531	77.38
243.765	81.38
243.998	82.38
244.232	79.38
244.465	75.38
244.699	88.38
244.932	89.38
245.166	78.38
245.399	87.38
245.633	92.38
245.866	78.38
246.099	68.38
246.333	84.38
246.566	72.38
246.8	79.38
247.033	69.38
247.266	83.38
247.5	74.38
247.733	82.38
247.966	75.38
248.2	83.38
248.433	71.38
248.666	79.38
248.899	76.38
249.133	83.38
249.366	80.38
249.599	75.38
249.832	76.38
250.066	84.38
250.299	69.38
250.532	80.38
250.765	66.38
250.998	87.38
251.231	88.38
251.465	83.38
251.698	77.38
251.931	87.38
252.164	95.38
252.397	95.38
252.63	82.38
252.863	79.38
253.096	87.38
253.329	70.38
253.562	83.38
253.795	78.38
254.028	75.38
254.261	79.38
254.494	103.38
254.727	92.38
254.96	86.38
255.193	81.38
255.426	84.38
255.659	85.38
255.892	79.38
256.124	81.38
256.357	78.38
256.59	82.38
256.823	88.38
257.056	76.38
257.289	92.38
257.521	91.38
257.754	85.38
257.987	83.38
258.22	78.38
258.452	86.38
258.685	85.38
258.918	84.38
259.151	79.38
259.383	92.38
259.616	79.38
259.849	83.38
260.081	85.38
260.314	77.38
260.547	81.38
260.779	75.38
261.012	83.38
261.244	71.38
261.477	82.38
261.71	84.38
261.942	84.38
262.175	77.38
262.407	73.38
262.64	88.38
262.872	90.38
263.105	87.38
263.337	92.38
263.57	83.38
263.802	88.38
264.035	96.38
264.267	72.38
264.499	79.38
264.732	79.38
264.964	96.38
265.197	81.38
265.429	76.38
265.661	69.38
265.894	82.38
266.126	84.38
266.358	88.38
266.591	95.38
266.823	85.38
267.055	73.38
267.287	77.38
267.52	97.38
267.752	89.38
267.984	82.38
268.216	63.38
268.448	80.38
268.681	79.38
268.913	70.38
269.145	89.38
269.377	78.38
269.609	81.38
269.841	77.38
270.073	88.38
270.306	94.38
270.538	79.38
270.77	89.38
271.002	83.38
271.234	97.38
271.466	74.38
271.698	86.38
271.93	90.38
272.162	78.38
272.394	87.38
272.626	80.38
272.858	83.38
273.09	89.38
273.322	92.38
273.553	92.38
273.785	87.38
274.017	85.38
274.249	78.38
274.481	85.38
274.713	76.38
274.945	81.38
275.176	86.38
275.408	95.38
275.64	70.38
275.872	77.38
276.104	92.38
276.335	84.38
276.567	84.38
276.799	88.38
277.031	82.38
277.262	77.38
277.494	84.38
277.726	74.38
277.957	84.38
278.189	95.38
278.421	98.38
278.652	83.38
278.884	90.38
279.115	84.38
279.347	82.38
279.579	85.38
279.81	86.38
280.042	93.38
280.273	81.38
280.505	89.38
280.736	81.38
280.968	71.38
281.199	84.38
281.431	93.38
281.662	89.38
281.894	94.38
282.125	86.38
282.356	87.38
282.588	71.38
282.819	82.38
283.051	86.38
283.282	77.38
283.513	100.38
283.745	89.38
283.976	80.38
284.207	81.38
284.439	95.38
284.67	93.38
284.901	91.38
285.132	77.38
285.364	77.38
285.595	86.38
285.826	98.38
286.057	95.38
286.288	94.38
286.52	100.38
286.751	87.38
286.982	80.38
287.213	82.38
287.444	89.38
287.675	85.38
287.906	78.38
288.138	94.38
288.369	84.38
288.6	73.38
288.831	78.38
289.062	88.38
289.293	70.38
289.524	93.38
289.755	89.38
289.986	77.38
290.217	81.38
290.448	71.38
290.679	107.38
290.91	82.38
291.141	79.38
291.371	94.38
291.602	96.38
291.833	81.38
292.064	89.38
292.295	82.38
292.526	94.38
292.757	86.38
292.987	75.38
293.218	83.38
293.449	83.38
293.68	83.38
293.91	87.38
294.141	92.38
294.372	83.38
294.603	83.38
294.833	83.38
295.064	78.38
295.295	86.38
295.525	77.38
295.756	87.38
295.987	82.38
296.217	87.38
296.448	94.38
296.679	92.38
296.909	88.38
297.14	95.38
297.37	91.38
297.601	90.38
297.831	67.38
298.062	90.38
298.292	85.38
298.523	82.38
298.753	85.38
298.984	85.38
299.214	77.38
299.445	92.38
299.675	80.38
299.905	96.38
300.136	94.38
300.366	76.38
300.597	97.38
300.827	86.38
301.057	75.38
301.288	92.38
301.518	95.38
301.748	92.38
301.979	100.38
302.209	88.38
302.439	81.38
302.669	81.38
302.9	92.38
303.13	95.38
303.36	85.38
303.59	76.38
303.82	89.38
304.051	85.38
304.281	101.38
304.511	78.38
304.741	88.38
304.971	86.38
305.201	85.38
305.431	93.38
305.661	84.38
305.891	92.38
306.121	75.38
306.352	84.38
306.582	97.38
306.812	93.38
307.042	99.38
307.272	93.38
307.502	85.38
307.731	98.38
307.961	86.38
308.191	89.38
308.421	85.38
308.651	82.38
308.881	83.38
309.111	90.38
309.341	92.38
309.571	91.38
309.8	73.38
310.03	88.38
310.26	86.38
310.49	86.38
310.72	83.38
310.949	75.38
311.179	92.38
311.409	75.38
311.639	81.38
311.868	87.38
312.098	83.38
312.328	82.38
312.557	87.38
312.787	81.38
313.017	89.38
313.246	89.38
313.476	87.38
313.706	92.38
313.935	80.38
314.165	88.38
314.394	88.38
314.624	82.38
314.853	77.38
315.083	89.38
315.312	80.38
315.542	89.38
315.771	84.38
316.001	91.38
316.23	87.38
316.46	89.38
316.689	89.38
316.919	86.38
317.148	96.38
317.377	89.38
317.607	71.38
317.836	81.38
318.065	90.38
318.295	84.38
318.524	84.38
318.753	92.38
318.983	87.38
319.212	87.38
319.441	78.38
319.67	92.38
319.9	81.38
320.129	79.38
320.358	86.38
320.587	88.38
320.816	85.38
321.046	77.38
321.275	102.38
321.504	72.38
321.733	107.38
321.962	73.38
322.191	99.38
322.42	91.38
322.649	84.38
322.878	87.38
323.108	97.38
323.337	90.38
323.566	85.38
323.795	77.38
324.024	88.38
324.253	104.38
324.482	104.38
324.71	92.38
324.939	90.38
325.168	85.38
325.397	84.38
325.626	89.38
325.855	88.38
326.084	74.38
326.313	81.38
326.542	78.38
326.77	90.38
326.999	89.38
327.228	82.38
327.457	91.38
327.686	84.38
327.914	78.38
328.143	82.38
328.372	107.38
328.6	91.38
328.829	98.38
329.058	98.38
329.287	100.38
329.515	75.38
329.744	98.38
329.972	89.38
330.201	93.38
330.43	86.38
330.658	77.38
330.887	86.38
331.115	87.38
331.344	88.38
331.572	94.38
331.801	84.38
332.03	76.38
332.258	78.38
332.486	89.38
332.715	90.38
332.943	75.38
333.172	101.38
333.4	79.38
333.629	100.38
333.857	80.38
334.085	90.38
334.314	82.38
334.542	80.38
334.771	75.38
334.999	81.38
335.227	82.38
335.455	85.38
335.684	91.38
335.912	86.38
336.14	92.38
336.369	76.38
336.597	93.38
336.825	95.38
337.053	92.38
337.281	80.38
337.51	83.38
337.738	90.38
337.966	90.38
338.194	81.38
338.422	90.38
338.65	84.38
338.878	85.38
339.106	93.38
339.334	95.38
339.562	89.38
339.79	84.38
340.018	78.38
340.246	90.38
340.474	102.38
340.702	86.38
340.93	87.38
341.158	82.38
341.386	82.38
341.614	87.38
341.842	78.38
342.07	85.38
342.298	93.38
342.526	87.38
342.754	89.38
342.981	84.38
343.209	91.38
343.437	88.38
343.665	83.38
343.893	84.38
344.12	76.38
344.348	98.38
344.576	91.38
344.804	77.38
345.031	86.38
345.259	91.38
345.487	93.38
345.714	87.38
345.942	82.38
346.17	92.38
346.397	71.38
346.625	80.38
346.853	87.38
347.08	73.38
347.308	83.38
347.535	84.38
347.763	75.38
347.99	74.38
348.218	93.38
348.445	81.38
348.673	89.38
348.9	76.38
349.128	86.38
349.355	85.38
349.583	95.38
349.81	88.38
350.037	69.38
350.265	77.38
350.492	85.38
350.72	82.38
350.947	76.38
351.174	83.38
351.402	93.38
351.629	84.38
351.856	97.38
352.083	91.38
352.311	89.38
352.538	83.38
352.765	74.38
352.992	86.38
353.22	96.38
353.447	89.38
353.674	83.38
353.901	87.38
354.128	87.38
354.355	86.38
354.583	77.38
354.81	91.38
355.037	80.38
355.264	101.38
355.491	91.38
355.718	77.38
355.945	83.38
356.172	87.38
356.399	74.38
356.626	90.38
356.853	80.38
357.08	76.38
357.307	88.38
357.534	85.38
357.761	97.38
357.988	95.38
358.215	84.38
358.441	89.38
358.668	86.38
358.895	99.38
359.122	90.38
359.349	83.38
359.576	85.38
359.802	94.38
360.029	82.38
360.256	91.38
360.483	88.38
360.709	86.38
360.936	95.38
361.163	100.38
361.39	85.38
361.616	102.38
361.843	94.38
362.07	88.38
362.296	78.38
362.523	77.38
362.749	88.38
362.976	83.38
363.203	86.38
363.429	76.38
363.656	81.38
363.882	83.38
364.109	83.38
364.335	90.38
364.562	78.38
364.788	96.38
365.015	93.38
365.241	89.38
365.468	97.38
365.694	80.38
365.92	68.38
366.147	93.38
366.373	89.38
366.599	87.38
366.826	83.38
367.052	93.38
367.278	83.38
367.505	105.38
367.731	97.38
367.957	92.38
368.184	98.38
368.41	82.38
368.636	83.38
368.862	106.38
369.089	86.38
369.315	94.38
369.541	99.38
369.767	95.38
369.993	87.38
370.219	88.38
370.445	85.38
370.672	79.38
370.898	95.38
371.124	86.38
371.35	77.38
371.576	83.38
371.802	94.38
372.028	89.38
372.254	94.38
372.48	93.38
372.706	79.38
372.932	82.38
373.158	92.38
373.384	102.38
373.61	102.38
373.835	94.38
374.061	98.38
374.287	96.38
374.513	88.38
374.739	101.38
374.965	91.38
375.191	91.38
375.416	88.38
375.642	94.38
375.868	98.38
376.094	95.38
376.319	94.38
376.545	94.38
376.771	98.38
376.997	93.38
377.222	93.38
377.448	81.38
377.674	96.38
377.899	105.38
378.125	102.38
378.35	88.38
378.576	94.38
378.802	95.38
379.027	97.38
379.253	91.38
379.478	107.38
379.704	108.38
379.929	103.38
380.155	91.38
380.38	82.38
380.606	93.38
380.831	106.38
381.057	107.38
381.282	96.38
381.507	103.38
381.733	88.38
381.958	90.38
382.184	89.38
382.409	100.38
382.634	101.38
382.86	97.38
383.085	105.38
383.31	98.38
383.535	111.38
383.761	101.38
383.986	106.38
384.211	92.38
384.436	106.38
384.662	111.38
384.887	102.38
385.112	101.38
385.337	95.38
385.562	114.38
385.787	109.38
386.013	100.38
386.238	91.38
386.463	97.38
386.688	79.38
386.913	101.38
387.138	103.38
387.363	92.38
387.588	84.38
387.813	98.38
388.038	98.38
388.263	103.38
388.488	106.38
388.713	106.38
388.938	101.38
389.163	108.38
389.387	99.38
389.612	95.38
389.837	103.38
390.062	109.38
390.287	102.38
390.512	119.38
390.736	97.38
390.961	105.38
391.186	105.38
391.411	101.38
391.636	99.38
391.86	103.38
392.085	102.38
392.31	117.38
392.534	89.38
392.759	88.38
392.984	103.38
393.208	102.38
393.433	96.38
393.658	99.38
393.882	113.38
394.107	108.38
394.331	118.38
394.556	96.38
394.78	99.38
395.005	117.38
395.229	100.38
395.454	113.38
395.678	103.38
395.903	103.38
396.127	117.38
396.352	116.38
396.576	129.38
396.801	113.38
397.025	81.38
397.249	116.38
397.474	116.38
397.698	116.38
397.922	107.38
398.147	123.38
398.371	110.38
398.595	120.38
398.82	129.38
399.044	117.38
399.268	109.38
399.492	104.38
399.717	116.38
399.941	117.38
400.165	116.38
400.389	121.38
400.613	103.38
400.837	133.38
401.062	117.38
401.286	98.38
401.51	114.38
401.734	119.38
401.958	119.38
402.182	102.38
402.406	93.38
402.63	102.38
402.854	125.38
403.078	122.38
403.302	123.38
403.526	112.38
403.75	120.38
403.974	130.38
404.198	105.38
404.422	115.38
404.645	124.38
404.869	105.38
405.093	117.38
405.317	116.38
405.541	120.38
405.765	123.38
405.988	119.38
406.212	118.38
406.436	113.38
406.66	126.38
406.883	126.38
407.107	147.38
407.331	118.38
407.555	101.38
407.778	123.38
408.002	119.38
408.226	125.38
408.449	122.38
408.673	123.38
408.896	125.38
409.12	121.38
409.344	111.38
409.567	120.38
409.791	121.38
410.014	119.38
410.238	130.38
410.461	125.38
410.685	123.38
410.908	119.38
411.132	118.38
411.355	122.38
411.578	118.38
411.802	113.38
412.025	134.38
412.249	120.38
412.472	117.38
412.695	128.38
412.919	138.38
413.142	113.38
413.365	117.38
413.589	131.38
413.812	121.38
414.035	134.38
414.258	120.38
414.482	119.38
414.705	129.38
414.928	134.38
415.151	139.38
415.374	129.38
415.597	120.38
415.821	130.38
416.044	138.38
416.267	117.38
416.49	126.38
416.713	122.38
416.936	124.38
417.159	128.38
417.382	126.38
417.605	118.38
417.828	124.38
418.051	135.38
418.274	123.38
418.497	133.38
418.72	142.38
418.943	132.38
419.166	134.38
419.389	129.38
419.611	136.38
419.834	126.38
420.057	139.38
420.28	132.38
420.503	135.38
420.726	124.38
420.948	149.38
421.171	130.38
421.394	137.38
421.617	126.38
421.839	132.38
422.062	136.38
422.285	128.38
422.507	121.38
422.73	115.38
422.953	135.38
423.175	141.38
423.398	140.38
423.621	130.38
423.843	135.38
424.066	141.38
424.288	126.38
424.511	136.38
424.733	138.38
424.956	147.38
425.178	145.38
425.401	133.38
425.623	143.38
425.846	134.38
426.068	130.38
426.291	141.38
426.513	129.38
426.735	141.38
426.958	120.38
427.18	139.38
427.402	128.38
427.625	121.38
427.847	111.38
428.069	133.38
428.292	146.38
428.514	139.38
428.736	142.38
428.958	140.38
429.181	126.38
429.403	137.38
429.625	131.38
429.847	129.38
430.069	129.38
430.292	141.38
430.514	140.38
430.736	133.38
430.958	117.38
431.18	135.38
431.402	124.38
431.624	114.38
431.846	99.38
432.068	103.38
432.29	110.38
432.512	120.38
432.734	139.38
432.956	140.38
433.178	140.38
433.4	144.38
433.622	125.38
433.844	118.38
434.066	144.38
434.287	103.38
434.509	92.38
434.731	95.38
434.953	120.38
435.175	122.38
435.397	120.38
435.618	117.38
435.84	103.38
436.062	117.38
436.284	111.38
436.505	133.38
436.727	139.38
436.949	136.38
437.17	127.38
437.392	131.38
437.614	125.38
437.835	115.38
438.057	117.38
438.278	120.38
438.5	122.38
438.721	130.38
438.943	136.38
439.165	143.38
439.386	146.38
439.608	137.38
439.829	144.38
440.05	167.38
440.272	149.38
440.493	161.38
440.715	153.38
440.936	150.38
441.158	134.38
441.379	146.38
441.6	144.38
441.822	153.38
442.043	146.38
442.264	140.38
442.486	140.38
442.707	142.38
442.928	152.38
443.149	168.38
443.371	160.38
443.592	151.38
443.813	141.38
444.034	133.38
444.255	147.38
444.476	149.38
444.698	149.38
444.919	153.38
445.14	209.38
445.361	179.38
445.582	143.38
445.803	141.38
446.024	144.38
446.245	145.38
446.466	154.38
446.687	158.38
446.908	162.38
447.129	157.38
447.35	169.38
447.571	144.38
447.792	156.38
448.013	150.38
448.234	155.38
448.455	131.38
448.675	139.38
448.896	146.38
449.117	135.38
449.338	131.38
449.559	142.38
449.779	144.38
450	153.38
450.221	130.38
450.442	136.38
450.662	134.38
450.883	133.38
451.104	132.38
451.324	130.38
451.545	134.38
451.766	127.38
451.986	129.38
452.207	133.38
452.428	129.38
452.648	140.38
452.869	114.38
453.089	108.38
453.31	100.38
453.53	110.38
453.751	105.38
453.971	94.38
454.192	117.38
454.412	119.38
454.633	124.38
454.853	123.38
455.073	119.38
455.294	128.38
455.514	125.38
455.734	113.38
455.955	118.38
456.175	121.38
456.395	119.38
456.616	106.38
456.836	109.38
457.056	98.38
457.276	105.38
457.497	102.38
457.717	105.38
457.937	109.38
458.157	104.38
458.377	108.38
458.598	105.38
458.818	88.38
459.038	86.38
459.258	72.38
459.478	87.38
459.698	97.38
459.918	100.38
460.138	109.38
460.358	117.38
460.578	109.38
460.798	121.38
461.018	114.38
461.238	107.38
461.458	116.38
461.678	114.38
461.898	114.38
462.118	109.38
462.338	125.38
462.558	116.38
462.777	125.38
462.997	119.38
463.217	117.38
463.437	105.38
463.657	103.38
463.876	112.38
464.096	103.38
464.316	117.38
464.536	129.38
464.755	116.38
464.975	127.38
465.195	124.38
465.414	122.38
465.634	115.38
465.854	105.38
466.073	123.38
466.293	124.38
466.512	116.38
466.732	136.38
466.951	143.38
467.171	141.38
467.391	136.38
467.61	135.38
467.829	133.38
468.049	131.38
468.268	141.38
468.488	134.38
468.707	133.38
468.927	140.38
469.146	141.38
469.365	135.38
469.585	135.38
469.804	141.38
470.023	140.38
470.243	149.38
470.462	126.38
470.681	141.38
470.901	153.38
471.12	129.38
471.339	140.38
471.558	148.38
471.777	128.38
471.997	140.38
472.216	135.38
472.435	117.38
472.654	112.38
472.873	127.38
473.092	124.38
473.311	123.38
473.53	123.38
473.749	140.38
473.968	139.38
474.187	107.38
474.406	131.38
474.625	110.38
474.844	125.38
475.063	135.38
475.282	133.38
475.501	119.38
475.72	131.38
475.939	126.38
476.158	123.38
476.377	127.38
476.596	127.38
476.814	106.38
477.033	116.38
477.252	122.38
477.471	131.38
477.69	116.38
477.908	147.38
478.127	128.38
478.346	133.38
478.564	127.38
478.783	129.38
479.002	144.38
479.22	136.38
479.439	149.38
479.658	127.38
479.876	121.38
480.095	113.38
480.313	114.38
480.532	116.38
480.751	116.38
480.969	100.38
481.188	104.38
481.406	80.38
481.624	105.38
481.843	99.38
482.061	98.38
482.28	125.38
482.498	117.38
482.717	98.38
482.935	121.38
483.153	144.38
483.372	143.38
483.59	135.38
483.808	149.38
484.027	143.38
484.245	135.38
484.463	140.38
484.681	161.38
484.9	154.38
485.118	127.38
485.336	136.38
485.554	118.38
485.772	107.38
485.99	127.38
486.209	111.38
486.427	117.38
486.645	125.38
486.863	134.38
487.081	141.38
487.299	131.38
487.517	140.38
487.735	166.38
487.953	193.38
488.171	170.38
488.389	163.38
488.607	179.38
488.825	133.38
489.043	122.38
489.261	124.38
489.479	144.38
489.696	155.38
489.914	151.38
490.132	142.38
490.35	149.38
490.568	155.38
490.786	168.38
491.003	157.38
491.221	194.38
491.439	189.38
491.657	191.38
491.874	192.38
492.092	214.38
492.31	233.38
492.527	242.38
492.745	197.38
492.963	192.38
493.18	182.38
493.398	190.38
493.615	164.38
493.833	176.38
494.05	173.38
494.268	166.38
494.485	174.38
494.703	169.38
494.92	166.38
495.138	173.38
495.355	180.38
495.573	179.38
495.79	166.38
496.008	171.38
496.225	183.38
496.442	163.38
496.66	168.38
496.877	168.38
497.094	161.38
497.312	158.38
497.529	164.38
497.746	165.38
497.963	132.38
498.181	130.38
498.398	126.38
498.615	139.38
498.832	126.38
499.049	124.38
499.267	129.38
499.484	137.38
499.701	133.38
499.918	142.38
500.135	147.38
500.352	144.38
500.569	134.38
500.786	150.38
501.003	135.38
501.22	136.38
501.437	142.38
501.654	129.38
501.871	123.38
502.088	137.38
502.305	119.38
502.522	133.38
502.739	133.38
502.956	147.38
503.172	137.38
503.389	126.38
503.606	102.38
503.823	127.38
504.04	130.38
504.256	121.38
504.473	120.38
504.69	118.38
504.907	116.38
505.123	128.38
505.34	123.38
505.557	125.38
505.773	123.38
505.99	126.38
506.207	134.38
506.423	150.38
506.64	126.38
506.856	120.38
507.073	120.38
507.289	113.38
507.506	127.38
507.722	107.38
507.939	117.38
508.155	119.38
508.372	116.38
508.588	109.38
508.805	113.38
509.021	108.38
509.238	106.38
509.454	113.38
509.67	106.38
509.887	97.38
510.103	103.38
510.319	99.38
510.536	101.38
510.752	84.38
510.968	83.38
511.184	88.38
511.401	97.38
511.617	94.38
511.833	95.38
512.049	97.38
512.265	91.38
512.481	95.38
512.698	104.38
512.914	93.38
513.13	101.38
513.346	106.38
513.562	93.38
513.778	129.38
513.994	98.38
514.21	95.38
514.426	87.38
514.642	87.38
514.858	98.38
515.074	107.38
515.29	103.38
515.506	93.38
515.721	91.38
515.937	98.38
516.153	83.38
516.369	84.38
516.585	78.38
516.801	76.38
517.016	86.38
517.232	88.38
517.448	88.38
517.664	89.38
517.879	96.38
518.095	96.38
518.311	94.38
518.527	85.38
518.742	82.38
518.958	110.38
519.173	96.38
519.389	106.38
519.605	128.38
519.82	121.38
520.036	114.38
520.251	109.38
520.467	107.38
520.682	94.38
520.898	113.38
521.113	81.38
521.329	95.38
521.544	98.38
521.76	93.38
521.975	107.38
522.19	109.38
522.406	121.38
522.621	124.38
522.836	101.38
523.052	104.38
523.267	105.38
523.482	112.38
523.698	127.38
523.913	117.38
524.128	121.38
524.343	113.38
524.559	122.38
524.774	119.38
524.989	131.38
525.204	126.38
525.419	122.38
525.634	119.38
525.849	95.38
526.064	107.38
526.28	106.38
526.495	105.38
526.71	101.38
526.925	81.38
527.14	106.38
527.355	84.38
527.57	71.38
527.785	88.38
527.999	88.38
528.214	95.38
528.429	114.38
528.644	123.38
528.859	140.38
529.074	154.38
529.289	155.38
529.503	166.38
529.718	123.38
529.933	109.38
530.148	93.38
530.363	103.38
530.577	102.38
530.792	92.38
531.007	90.38
531.221	101.38
531.436	100.38
531.651	92.38
531.865	82.38
532.08	74.38
532.295	93.38
532.509	88.38
532.724	88.38
532.938	103.38
533.153	100.38
533.367	107.38
533.582	117.38
533.796	125.38
534.011	102.38
534.225	100.38
534.44	81.38
534.654	85.38
534.868	95.38
535.083	98.38
535.297	114.38
535.511	119.38
535.726	106.38
535.94	101.38
536.154	98.38
536.369	96.38
536.583	97.38
536.797	86.38
537.011	83.38
537.225	93.38
537.44	100.38
537.654	101.38
537.868	92.38
538.082	95.38
538.296	104.38
538.51	105.38
538.724	122.38
538.938	125.38
539.153	111.38
539.367	125.38
539.581	107.38
539.795	105.38
540.009	95.38
540.222	98.38
540.436	106.38
540.65	108.38
540.864	130.38
541.078	119.38
541.292	152.38
541.506	164.38
541.72	158.38
541.934	185.38
542.147	206.38
542.361	169.38
542.575	175.38
542.789	158.38
543.002	141.38
543.216	129.38
543.43	139.38
543.644	138.38
543.857	156.38
544.071	158.38
544.285	160.38
544.498	162.38
544.712	163.38
544.925	162.38
545.139	157.38
545.352	149.38
545.566	160.38
545.779	169.38
545.993	164.38
546.206	187.38
546.42	164.38
546.633	169.38
546.847	186.38
547.06	168.38
547.274	171.38
547.487	174.38
547.7	184.38
547.914	174.38
548.127	153.38
548.34	162.38
548.554	169.38
548.767	147.38
548.98	157.38
549.193	141.38
549.407	150.38
549.62	151.38
549.833	151.38
550.046	161.38
550.259	164.38
550.473	144.38
550.686	141.38
550.899	155.38
551.112	158.38
551.325	134.38
551.538	129.38
551.751	143.38
551.964	126.38
552.177	124.38
552.39	144.38
552.603	133.38
552.816	161.38
553.029	157.38
553.242	166.38
553.455	149.38
553.667	151.38
553.88	155.38
554.093	152.38
554.306	161.38
554.519	147.38
554.732	140.38
554.944	139.38
555.157	146.38
555.37	137.38
555.583	134.38
555.795	132.38
556.008	143.38
556.221	144.38
556.433	128.38
556.646	137.38
556.859	126.38
557.071	147.38
557.284	147.38
557.496	143.38
557.709	129.38
557.921	138.38
558.134	137.38
558.346	131.38
558.559	141.38
558.771	135.38
558.984	129.38
559.196	144.38
559.409	127.38
559.621	125.38
559.833	126.38
560.046	137.38
560.258	119.38
560.47	148.38
560.683	133.38
560.895	127.38
561.107	133.38
561.32	121.38
561.532	129.38
561.744	138.38
561.956	143.38
562.168	125.38
562.381	139.38
562.593	131.38
562.805	125.38
563.017	129.38
563.229	121.38
563.441	124.38
563.653	129.38
563.865	123.38
564.077	114.38
564.289	128.38
564.501	132.38
564.713	133.38
564.925	126.38
565.137	122.38
565.349	126.38
565.561	129.38
565.773	131.38
565.985	128.38
566.197	121.38
566.408	102.38
566.62	125.38
566.832	131.38
567.044	138.38
567.255	126.38
567.467	114.38
567.679	120.38
567.891	109.38
568.102	110.38
568.314	98.38
568.526	95.38
568.737	83.38
568.949	93.38
569.161	93.38
569.372	94.38
569.584	89.38
569.795	97.38
570.007	92.38
570.218	87.38
570.43	90.38
570.641	87.38
570.853	99.38
571.064	97.38
571.276	106.38
571.487	106.38
571.698	110.38
571.91	116.38
572.121	101.38
572.333	105.38
572.544	111.38
572.755	103.38
572.966	83.38
573.178	85.38
573.389	87.38
573.6	80.38
573.811	91.38
574.023	90.38
574.234	98.38
574.445	99.38
574.656	101.38
574.867	90.38
575.078	89.38
575.289	110.38
575.501	107.38
575.712	102.38
575.923	95.38
576.134	97.38
576.345	93.38
576.556	99.38
576.767	97.38
576.978	102.38
577.188	98.38
577.399	88.38
577.61	90.38
577.821	92.38
578.032	101.38
578.243	105.38
578.454	91.38
578.665	94.38
578.875	104.38
579.086	82.38
579.297	81.38
579.508	83.38
579.718	88.38
579.929	88.38
580.14	86.38
580.35	89.38
580.561	95.38
580.772	94.38
580.982	96.38
581.193	100.38
581.403	111.38
581.614	90.38
581.825	77.38
582.035	83.38
582.246	104.38
582.456	93.38
582.667	80.38
582.877	88.38
583.087	113.38
583.298	102.38
583.508	87.38
583.719	86.38
583.929	92.38
584.139	80.38
584.35	87.38
584.56	75.38
584.77	94.38
584.981	90.38
585.191	98.38
585.401	98.38
585.611	92.38
585.821	83.38
586.032	92.38
586.242	79.38
586.452	86.38
586.662	77.38
586.872	82.38
587.082	84.38
587.292	90.38
587.502	88.38
587.713	93.38
587.923	82.38
588.133	77.38
588.343	79.38
588.553	98.38
588.762	104.38
588.972	82.38
589.182	96.38
589.392	93.38
589.602	85.38
589.812	82.38
590.022	89.38
590.232	94.38
590.441	90.38
590.651	96.38
590.861	89.38
591.071	97.38
591.281	89.38
591.49	82.38
591.7	89.38
591.91	77.38
592.119	94.38
592.329	85.38
592.539	87.38
592.748	98.38
592.958	78.38
593.167	83.38
593.377	85.38
593.587	89.38
593.796	96.38
594.006	93.38
594.215	79.38
594.424	87.38
594.634	97.38
594.843	92.38
595.053	89.38
595.262	98.38
595.472	102.38
595.681	89.38
595.89	95.38
596.1	98.38
596.309	90.38
596.518	97.38
596.727	88.38
596.937	101.38
597.146	105.38
597.355	97.38
597.564	86.38
597.774	90.38
597.983	89.38
598.192	82.38
598.401	101.38
598.61	90.38
598.819	100.38
599.028	85.38
599.237	89.38
599.446	102.38
599.655	91.38
599.864	95.38
600.073	91.38
600.282	89.38
600.491	78.38
600.7	95.38
600.909	92.38
601.118	91.38
601.327	95.38
601.536	103.38
601.745	111.38
601.953	105.38
602.162	92.38
602.371	108.38
602.58	92.38
602.789	112.38
602.997	115.38
603.206	129.38
603.415	113.38
603.623	108.38
603.832	107.38
604.041	121.38
604.249	110.38
604.458	92.38
604.666	102.38
604.875	105.38
605.084	103.38
605.292	101.38
605.501	125.38
605.709	109.38
605.918	113.38
606.126	115.38
606.334	118.38
606.543	113.38
606.751	113.38
606.96	119.38
607.168	117.38
607.376	106.38
607.585	105.38
607.793	107.38
608.001	106.38
608.21	120.38
608.418	101.38
608.626	118.38
608.834	115.38
609.043	114.38
609.251	113.38
609.459	116.38
609.667	101.38
609.875	110.38
610.083	130.38
610.291	115.38
610.499	125.38
610.707	116.38
610.916	122.38
611.124	113.38
611.332	118.38
611.54	121.38
611.748	120.38
611.955	121.38
612.163	132.38
612.371	126.38
612.579	116.38
612.787	102.38
612.995	113.38
613.203	105.38
613.411	119.38
613.618	127.38
613.826	112.38
614.034	110.38
614.242	124.38
614.449	100.38
614.657	102.38
614.865	114.38
615.072	108.38
615.28	117.38
615.488	121.38
615.695	117.38
615.903	119.38
616.111	108.38
616.318	109.38
616.526	106.38
616.733	124.38
616.941	117.38
617.148	121.38
617.356	110.38
617.563	123.38
617.771	110.38
617.978	119.38
618.185	109.38
618.393	117.38
618.6	124.38
618.807	122.38
619.015	108.38
619.222	113.38
619.429	118.38
619.637	108.38
619.844	91.38
620.051	121.38
620.258	109.38
620.466	117.38
620.673	105.38
620.88	108.38
621.087	102.38
621.294	100.38
621.501	103.38
621.708	108.38
621.915	96.38
622.122	106.38
622.329	113.38
622.536	117.38
622.743	117.38
622.95	108.38
623.157	111.38
623.364	107.38
623.571	116.38
623.778	121.38
623.985	115.38
624.192	114.38
624.399	107.38
624.606	122.38
624.812	109.38
625.019	101.38
625.226	105.38
625.433	108.38
625.639	101.38
625.846	103.38
626.053	89.38
626.259	91.38
626.466	82.38
626.673	94.38
626.879	77.38
627.086	95.38
627.293	117.38
627.499	109.38
627.706	106.38
627.912	102.38
628.119	109.38
628.325	103.38
628.532	108.38
628.738	106.38
628.945	118.38
629.151	99.38
629.357	103.38
629.564	114.38
629.77	110.38
629.976	97.38
630.183	95.38
630.389	94.38
630.595	99.38
630.802	102.38
631.008	102.38
631.214	103.38
631.42	107.38
631.627	114.38
631.833	91.38
632.039	97.38
632.245	105.38
632.451	101.38
632.657	121.38
632.863	103.38
633.069	114.38
633.275	116.38
633.481	104.38
633.688	101.38
633.893	95.38
634.099	110.38
634.305	106.38
634.511	92.38
634.717	98.38
634.923	101.38
635.129	91.38
635.335	99.38
635.541	111.38
635.747	97.38
635.952	92.38
636.158	101.38
636.364	94.38
636.57	115.38
636.775	107.38
636.981	107.38
637.187	110.38
637.392	105.38
637.598	104.38
637.804	101.38
638.009	108.38
638.215	98.38
638.421	104.38
638.626	119.38
638.832	93.38
639.037	100.38
639.243	93.38
639.448	100.38
639.654	113.38
639.859	103.38
640.065	109.38
640.27	105.38
640.475	109.38
640.681	101.38
640.886	104.38
641.091	99.38
641.297	117.38
641.502	107.38
641.707	93.38
641.913	98.38
642.118	98.38
642.323	97.38
642.528	88.38
642.733	99.38
642.939	105.38
643.144	104.38
643.349	79.38
643.554	100.38
643.759	98.38
643.964	110.38
644.169	90.38
644.374	99.38
644.579	110.38
644.784	102.38
644.989	101.38
645.194	98.38
645.399	101.38
645.604	106.38
645.809	107.38
646.014	93.38
646.219	95.38
646.423	94.38
646.628	109.38
646.833	100.38
647.038	92.38
647.243	87.38
647.447	101.38
647.652	95.38
647.857	99.38
648.062	107.38
648.266	110.38
648.471	98.38
648.676	107.38
648.88	88.38
649.085	92.38
649.289	88.38
649.494	108.38
649.698	116.38
649.903	102.38
650.107	91.38
650.312	98.38
650.516	95.38
650.721	99.38
650.925	106.38
651.13	83.38
651.334	102.38
651.539	102.38
651.743	101.38
651.947	86.38
652.152	98.38
652.356	100.38
652.56	86.38
652.764	103.38
652.969	110.38
653.173	91.38
653.377	103.38
653.581	89.38
653.785	91.38
653.99	87.38
654.194	84.38
654.398	101.38
654.602	100.38
654.806	90.38
655.01	100.38
655.214	87.38
655.418	93.38
655.622	99.38
655.826	79.38
656.03	89.38
656.234	89.38
656.438	88.38
656.642	95.38
656.846	90.38
657.049	86.38
657.253	93.38
657.457	94.38
657.661	90.38
657.865	95.38
658.068	84.38
658.272	82.38
658.476	86.38
658.68	93.38
658.883	90.38
659.087	95.38
659.291	88.38
659.494	70.38
659.698	90.38
659.901	89.38
660.105	80.38
660.309	84.38
660.512	86.38
660.716	82.38
660.919	85.38
661.123	82.38
661.326	70.38
661.53	81.38
661.733	95.38
661.936	84.38
662.14	84.38
662.343	82.38
662.546	82.38
662.75	77.38
662.953	89.38
663.156	73.38
663.36	83.38
663.563	81.38
663.766	92.38
663.969	95.38
664.173	76.38
664.376	86.38
664.579	82.38
664.782	80.38
664.985	94.38
665.188	77.38
665.391	88.38
665.594	73.38
665.797	91.38
666	77.38
666.203	87.38
666.406	96.38
666.609	82.38
666.812	77.38
667.015	76.38
667.218	93.38
667.421	79.38
667.624	87.38
667.827	83.38
668.03	82.38
668.232	70.38
668.435	93.38
668.638	88.38
668.841	85.38
669.043	90.38
669.246	77.38
669.449	80.38
669.651	90.38
669.854	80.38
670.057	89.38
670.259	84.38
670.462	73.38
670.665	72.38
670.867	93.38
671.07	88.38
671.272	78.38
671.475	83.38
671.677	74.38
671.88	84.38
672.082	87.38
672.284	80.38
672.487	86.38
672.689	74.38
672.892	84.38
