Data from Location2.07152019.Energy5.Lamp.07192019.3%Agarose_HRD10591_14-58-13-358.txt Node
Date: Fri Jul 19 14:58:13 EDT 2019
User: cochatt
Spectrometer: HR+D1059
Trigger mode: 1
Integration Time (sec): 1.000000E-1
Scans to average: 1
Electric dark correction enabled: true
Nonlinearity correction enabled: false
Boxcar width: 0
XAxis mode: Wavelengths
Number of Pixels in Spectrum: 2048
>>>>>Begin Spectral Data<<<<<
223.165	-14.62
223.4	-14.62
223.635	-14.62
223.869	-18.62
224.104	-18.62
224.338	-28.62
224.573	-10.62
224.808	-0.62
225.042	-10.62
225.277	-1.62
225.511	-4.62
225.746	-3.62
225.98	5.38
226.215	12.38
226.449	21.38
226.683	21.38
226.918	20.38
227.152	31.38
227.387	41.38
227.621	53.38
227.856	47.38
228.09	42.38
228.324	45.38
228.559	61.38
228.793	50.38
229.027	56.38
229.262	63.38
229.496	64.38
229.73	69.38
229.964	75.38
230.199	68.38
230.433	67.38
230.667	78.38
230.901	60.38
231.136	78.38
231.37	92.38
231.604	65.38
231.838	70.38
232.072	83.38
232.306	71.38
232.541	88.38
232.775	79.38
233.009	88.38
233.243	87.38
233.477	78.38
233.711	74.38
233.945	68.38
234.179	86.38
234.413	94.38
234.647	90.38
234.881	75.38
235.115	74.38
235.349	84.38
235.583	70.38
235.817	90.38
236.051	72.38
236.285	81.38
236.519	69.38
236.753	84.38
236.987	90.38
237.221	75.38
237.455	93.38
237.689	80.38
237.922	83.38
238.156	78.38
238.39	68.38
238.624	77.38
238.858	81.38
239.091	81.38
239.325	73.38
239.559	86.38
239.793	77.38
240.027	86.38
240.26	74.38
240.494	68.38
240.728	78.38
240.961	70.38
241.195	75.38
241.429	82.38
241.662	77.38
241.896	67.38
242.13	81.38
242.363	86.38
242.597	81.38
242.83	72.38
243.064	70.38
243.298	77.38
243.531	65.38
243.765	81.38
243.998	81.38
244.232	71.38
244.465	82.38
244.699	91.38
244.932	74.38
245.166	76.38
245.399	87.38
245.633	88.38
245.866	76.38
246.099	79.38
246.333	84.38
246.566	90.38
246.8	69.38
247.033	80.38
247.266	75.38
247.5	71.38
247.733	82.38
247.966	79.38
248.2	78.38
248.433	74.38
248.666	75.38
248.899	86.38
249.133	73.38
249.366	81.38
249.599	67.38
249.832	67.38
250.066	74.38
250.299	72.38
250.532	80.38
250.765	76.38
250.998	71.38
251.231	66.38
251.465	79.38
251.698	69.38
251.931	75.38
252.164	81.38
252.397	93.38
252.63	82.38
252.863	78.38
253.096	79.38
253.329	79.38
253.562	69.38
253.795	71.38
254.028	63.38
254.261	96.38
254.494	81.38
254.727	80.38
254.96	74.38
255.193	86.38
255.426	90.38
255.659	83.38
255.892	88.38
256.124	85.38
256.357	89.38
256.59	86.38
256.823	76.38
257.056	80.38
257.289	88.38
257.521	64.38
257.754	66.38
257.987	77.38
258.22	83.38
258.452	80.38
258.685	77.38
258.918	79.38
259.151	74.38
259.383	79.38
259.616	85.38
259.849	89.38
260.081	73.38
260.314	86.38
260.547	89.38
260.779	83.38
261.012	81.38
261.244	87.38
261.477	78.38
261.71	77.38
261.942	78.38
262.175	80.38
262.407	84.38
262.64	76.38
262.872	91.38
263.105	90.38
263.337	86.38
263.57	88.38
263.802	77.38
264.035	75.38
264.267	84.38
264.499	68.38
264.732	74.38
264.964	92.38
265.197	79.38
265.429	82.38
265.661	89.38
265.894	62.38
266.126	86.38
266.358	93.38
266.591	79.38
266.823	65.38
267.055	71.38
267.287	78.38
267.52	74.38
267.752	77.38
267.984	86.38
268.216	86.38
268.448	71.38
268.681	83.38
268.913	91.38
269.145	85.38
269.377	69.38
269.609	73.38
269.841	87.38
270.073	74.38
270.306	86.38
270.538	72.38
270.77	89.38
271.002	81.38
271.234	86.38
271.466	75.38
271.698	82.38
271.93	78.38
272.162	97.38
272.394	78.38
272.626	75.38
272.858	86.38
273.09	82.38
273.322	89.38
273.553	84.38
273.785	78.38
274.017	81.38
274.249	87.38
274.481	84.38
274.713	75.38
274.945	86.38
275.176	67.38
275.408	85.38
275.64	76.38
275.872	86.38
276.104	100.38
276.335	91.38
276.567	70.38
276.799	85.38
277.031	75.38
277.262	82.38
277.494	92.38
277.726	88.38
277.957	78.38
278.189	84.38
278.421	79.38
278.652	76.38
278.884	86.38
279.115	98.38
279.347	63.38
279.579	74.38
279.81	68.38
280.042	76.38
280.273	93.38
280.505	94.38
280.736	87.38
280.968	94.38
281.199	90.38
281.431	60.38
281.662	83.38
281.894	86.38
282.125	87.38
282.356	94.38
282.588	84.38
282.819	85.38
283.051	71.38
283.282	84.38
283.513	99.38
283.745	82.38
283.976	85.38
284.207	82.38
284.439	92.38
284.67	83.38
284.901	96.38
285.132	73.38
285.364	96.38
285.595	90.38
285.826	83.38
286.057	89.38
286.288	85.38
286.52	72.38
286.751	72.38
286.982	87.38
287.213	91.38
287.444	89.38
287.675	77.38
287.906	79.38
288.138	81.38
288.369	78.38
288.6	69.38
288.831	77.38
289.062	98.38
289.293	83.38
289.524	80.38
289.755	82.38
289.986	79.38
290.217	96.38
290.448	90.38
290.679	78.38
290.91	85.38
291.141	71.38
291.371	88.38
291.602	91.38
291.833	85.38
292.064	83.38
292.295	86.38
292.526	88.38
292.757	78.38
292.987	90.38
293.218	86.38
293.449	86.38
293.68	87.38
293.91	85.38
294.141	72.38
294.372	74.38
294.603	88.38
294.833	79.38
295.064	89.38
295.295	76.38
295.525	89.38
295.756	78.38
295.987	81.38
296.217	73.38
296.448	86.38
296.679	91.38
296.909	81.38
297.14	83.38
297.37	85.38
297.601	69.38
297.831	87.38
298.062	79.38
298.292	89.38
298.523	93.38
298.753	92.38
298.984	72.38
299.214	83.38
299.445	78.38
299.675	91.38
299.905	87.38
300.136	89.38
300.366	93.38
300.597	82.38
300.827	83.38
301.057	88.38
301.288	84.38
301.518	79.38
301.748	85.38
301.979	79.38
302.209	87.38
302.439	79.38
302.669	80.38
302.9	83.38
303.13	78.38
303.36	82.38
303.59	82.38
303.82	93.38
304.051	93.38
304.281	82.38
304.511	90.38
304.741	84.38
304.971	95.38
305.201	86.38
305.431	84.38
305.661	92.38
305.891	92.38
306.121	96.38
306.352	82.38
306.582	71.38
306.812	87.38
307.042	69.38
307.272	75.38
307.502	88.38
307.731	94.38
307.961	101.38
308.191	86.38
308.421	79.38
308.651	72.38
308.881	85.38
309.111	79.38
309.341	84.38
309.571	77.38
309.8	86.38
310.03	72.38
310.26	85.38
310.49	96.38
310.72	81.38
310.949	79.38
311.179	85.38
311.409	84.38
311.639	73.38
311.868	77.38
312.098	109.38
312.328	84.38
312.557	96.38
312.787	94.38
313.017	74.38
313.246	89.38
313.476	82.38
313.706	71.38
313.935	91.38
314.165	84.38
314.394	98.38
314.624	83.38
314.853	85.38
315.083	82.38
315.312	94.38
315.542	84.38
315.771	93.38
316.001	76.38
316.23	73.38
316.46	82.38
316.689	85.38
316.919	85.38
317.148	84.38
317.377	80.38
317.607	79.38
317.836	68.38
318.065	85.38
318.295	74.38
318.524	86.38
318.753	82.38
318.983	77.38
319.212	86.38
319.441	99.38
319.67	91.38
319.9	85.38
320.129	79.38
320.358	87.38
320.587	92.38
320.816	80.38
321.046	75.38
321.275	90.38
321.504	82.38
321.733	74.38
321.962	102.38
322.191	87.38
322.42	85.38
322.649	84.38
322.878	88.38
323.108	78.38
323.337	93.38
323.566	93.38
323.795	92.38
324.024	93.38
324.253	89.38
324.482	84.38
324.71	86.38
324.939	101.38
325.168	99.38
325.397	77.38
325.626	71.38
325.855	71.38
326.084	75.38
326.313	86.38
326.542	89.38
326.77	93.38
326.999	97.38
327.228	89.38
327.457	79.38
327.686	79.38
327.914	96.38
328.143	71.38
328.372	81.38
328.6	72.38
328.829	81.38
329.058	78.38
329.287	79.38
329.515	70.38
329.744	86.38
329.972	103.38
330.201	90.38
330.43	82.38
330.658	88.38
330.887	77.38
331.115	86.38
331.344	85.38
331.572	76.38
331.801	85.38
332.03	84.38
332.258	89.38
332.486	75.38
332.715	98.38
332.943	87.38
333.172	85.38
333.4	83.38
333.629	92.38
333.857	81.38
334.085	91.38
334.314	77.38
334.542	80.38
334.771	87.38
334.999	64.38
335.227	68.38
335.455	71.38
335.684	97.38
335.912	84.38
336.14	78.38
336.369	90.38
336.597	86.38
336.825	77.38
337.053	81.38
337.281	80.38
337.51	70.38
337.738	95.38
337.966	90.38
338.194	84.38
338.422	86.38
338.65	79.38
338.878	85.38
339.106	86.38
339.334	94.38
339.562	87.38
339.79	88.38
340.018	89.38
340.246	81.38
340.474	91.38
340.702	76.38
340.93	89.38
341.158	86.38
341.386	80.38
341.614	83.38
341.842	93.38
342.07	76.38
342.298	91.38
342.526	97.38
342.754	84.38
342.981	74.38
343.209	90.38
343.437	87.38
343.665	65.38
343.893	81.38
344.12	80.38
344.348	64.38
344.576	80.38
344.804	87.38
345.031	97.38
345.259	87.38
345.487	78.38
345.714	90.38
345.942	83.38
346.17	75.38
346.397	84.38
346.625	73.38
346.853	80.38
347.08	78.38
347.308	83.38
347.535	79.38
347.763	70.38
347.99	87.38
348.218	76.38
348.445	91.38
348.673	90.38
348.9	78.38
349.128	89.38
349.355	89.38
349.583	96.38
349.81	84.38
350.037	84.38
350.265	80.38
350.492	95.38
350.72	59.38
350.947	88.38
351.174	96.38
351.402	81.38
351.629	79.38
351.856	101.38
352.083	77.38
352.311	76.38
352.538	90.38
352.765	85.38
352.992	83.38
353.22	90.38
353.447	81.38
353.674	77.38
353.901	83.38
354.128	84.38
354.355	75.38
354.583	91.38
354.81	94.38
355.037	82.38
355.264	85.38
355.491	88.38
355.718	84.38
355.945	97.38
356.172	72.38
356.399	89.38
356.626	75.38
356.853	62.38
357.08	88.38
357.307	95.38
357.534	77.38
357.761	71.38
357.988	75.38
358.215	72.38
358.441	86.38
358.668	80.38
358.895	83.38
359.122	89.38
359.349	75.38
359.576	71.38
359.802	100.38
360.029	79.38
360.256	95.38
360.483	74.38
360.709	74.38
360.936	85.38
361.163	81.38
361.39	83.38
361.616	90.38
361.843	94.38
362.07	87.38
362.296	80.38
362.523	82.38
362.749	89.38
362.976	84.38
363.203	89.38
363.429	89.38
363.656	79.38
363.882	87.38
364.109	84.38
364.335	89.38
364.562	87.38
364.788	81.38
365.015	80.38
365.241	102.38
365.468	73.38
365.694	74.38
365.92	89.38
366.147	86.38
366.373	90.38
366.599	80.38
366.826	92.38
367.052	79.38
367.278	81.38
367.505	84.38
367.731	98.38
367.957	69.38
368.184	90.38
368.41	71.38
368.636	82.38
368.862	91.38
369.089	85.38
369.315	104.38
369.541	101.38
369.767	87.38
369.993	80.38
370.219	83.38
370.445	92.38
370.672	91.38
370.898	99.38
371.124	95.38
371.35	90.38
371.576	87.38
371.802	83.38
372.028	101.38
372.254	97.38
372.48	88.38
372.706	84.38
372.932	88.38
373.158	79.38
373.384	106.38
373.61	101.38
373.835	91.38
374.061	84.38
374.287	89.38
374.513	87.38
374.739	90.38
374.965	78.38
375.191	90.38
375.416	87.38
375.642	81.38
375.868	89.38
376.094	72.38
376.319	85.38
376.545	89.38
376.771	93.38
376.997	92.38
377.222	106.38
377.448	91.38
377.674	91.38
377.899	92.38
378.125	93.38
378.35	99.38
378.576	103.38
378.802	92.38
379.027	99.38
379.253	94.38
379.478	103.38
379.704	96.38
379.929	91.38
380.155	93.38
380.38	94.38
380.606	90.38
380.831	92.38
381.057	118.38
381.282	98.38
381.507	87.38
381.733	110.38
381.958	95.38
382.184	101.38
382.409	88.38
382.634	90.38
382.86	94.38
383.085	96.38
383.31	88.38
383.535	99.38
383.761	97.38
383.986	96.38
384.211	90.38
384.436	102.38
384.662	105.38
384.887	97.38
385.112	94.38
385.337	99.38
385.562	83.38
385.787	104.38
386.013	109.38
386.238	100.38
386.463	103.38
386.688	100.38
386.913	111.38
387.138	96.38
387.363	102.38
387.588	115.38
387.813	109.38
388.038	87.38
388.263	102.38
388.488	96.38
388.713	112.38
388.938	95.38
389.163	87.38
389.387	94.38
389.612	98.38
389.837	89.38
390.062	113.38
390.287	114.38
390.512	103.38
390.736	101.38
390.961	100.38
391.186	99.38
391.411	96.38
391.636	100.38
391.86	110.38
392.085	104.38
392.31	89.38
392.534	92.38
392.759	96.38
392.984	100.38
393.208	88.38
393.433	113.38
393.658	109.38
393.882	109.38
394.107	100.38
394.331	109.38
394.556	93.38
394.78	106.38
395.005	114.38
395.229	104.38
395.454	104.38
395.678	106.38
395.903	103.38
396.127	106.38
396.352	112.38
396.576	96.38
396.801	118.38
397.025	101.38
397.249	104.38
397.474	113.38
397.698	119.38
397.922	114.38
398.147	103.38
398.371	109.38
398.595	117.38
398.82	118.38
399.044	97.38
399.268	95.38
399.492	116.38
399.717	120.38
399.941	112.38
400.165	112.38
400.389	105.38
400.613	96.38
400.837	102.38
401.062	105.38
401.286	122.38
401.51	116.38
401.734	114.38
401.958	122.38
402.182	121.38
402.406	116.38
402.63	102.38
402.854	110.38
403.078	101.38
403.302	109.38
403.526	122.38
403.75	106.38
403.974	111.38
404.198	113.38
404.422	116.38
404.645	115.38
404.869	103.38
405.093	118.38
405.317	123.38
405.541	109.38
405.765	126.38
405.988	99.38
406.212	113.38
406.436	114.38
406.66	122.38
406.883	115.38
407.107	113.38
407.331	117.38
407.555	113.38
407.778	128.38
408.002	105.38
408.226	113.38
408.449	101.38
408.673	101.38
408.896	100.38
409.12	112.38
409.344	127.38
409.567	129.38
409.791	115.38
410.014	127.38
410.238	134.38
410.461	137.38
410.685	123.38
410.908	111.38
411.132	125.38
411.355	126.38
411.578	111.38
411.802	129.38
412.025	118.38
412.249	117.38
412.472	116.38
412.695	106.38
412.919	114.38
413.142	121.38
413.365	106.38
413.589	122.38
413.812	113.38
414.035	125.38
414.258	125.38
414.482	127.38
414.705	114.38
414.928	116.38
415.151	118.38
415.374	109.38
415.597	137.38
415.821	133.38
416.044	122.38
416.267	127.38
416.49	133.38
416.713	117.38
416.936	124.38
417.159	120.38
417.382	134.38
417.605	132.38
417.828	128.38
418.051	120.38
418.274	117.38
418.497	137.38
418.72	127.38
418.943	141.38
419.166	129.38
419.389	137.38
419.611	133.38
419.834	121.38
420.057	129.38
420.28	115.38
420.503	145.38
420.726	130.38
420.948	119.38
421.171	119.38
421.394	134.38
421.617	134.38
421.839	135.38
422.062	131.38
422.285	128.38
422.507	124.38
422.73	132.38
422.953	123.38
423.175	131.38
423.398	123.38
423.621	135.38
423.843	126.38
424.066	137.38
424.288	137.38
424.511	136.38
424.733	156.38
424.956	143.38
425.178	127.38
425.401	149.38
425.623	130.38
425.846	133.38
426.068	120.38
426.291	137.38
426.513	126.38
426.735	130.38
426.958	125.38
427.18	126.38
427.402	127.38
427.625	123.38
427.847	103.38
428.069	122.38
428.292	125.38
428.514	129.38
428.736	127.38
428.958	133.38
429.181	116.38
429.403	133.38
429.625	133.38
429.847	121.38
430.069	118.38
430.292	118.38
430.514	143.38
430.736	126.38
430.958	126.38
431.18	131.38
431.402	107.38
431.624	114.38
431.846	94.38
432.068	83.38
432.29	90.38
432.512	104.38
432.734	115.38
432.956	126.38
433.178	109.38
433.4	139.38
433.622	129.38
433.844	142.38
434.066	121.38
434.287	85.38
434.509	86.38
434.731	86.38
434.953	101.38
435.175	139.38
435.397	113.38
435.618	111.38
435.84	110.38
436.062	129.38
436.284	135.38
436.505	121.38
436.727	119.38
436.949	129.38
437.17	126.38
437.392	125.38
437.614	126.38
437.835	113.38
438.057	105.38
438.278	116.38
438.5	119.38
438.721	127.38
438.943	132.38
439.165	120.38
439.386	130.38
439.608	143.38
439.829	143.38
440.05	132.38
440.272	139.38
440.493	135.38
440.715	138.38
440.936	129.38
441.158	144.38
441.379	144.38
441.6	143.38
441.822	145.38
442.043	153.38
442.264	141.38
442.486	151.38
442.707	145.38
442.928	139.38
443.149	128.38
443.371	157.38
443.592	133.38
443.813	145.38
444.034	146.38
444.255	134.38
444.476	138.38
444.698	148.38
444.919	143.38
445.14	249.38
445.361	197.38
445.582	139.38
445.803	138.38
446.024	142.38
446.245	139.38
446.466	152.38
446.687	151.38
446.908	161.38
447.129	144.38
447.35	139.38
447.571	143.38
447.792	134.38
448.013	132.38
448.234	143.38
448.455	121.38
448.675	135.38
448.896	137.38
449.117	140.38
449.338	139.38
449.559	113.38
449.779	135.38
450	136.38
450.221	137.38
450.442	130.38
450.662	123.38
450.883	129.38
451.104	145.38
451.324	118.38
451.545	121.38
451.766	143.38
451.986	130.38
452.207	131.38
452.428	117.38
452.648	132.38
452.869	123.38
453.089	114.38
453.31	120.38
453.53	100.38
453.751	98.38
453.971	110.38
454.192	105.38
454.412	115.38
454.633	119.38
454.853	111.38
455.073	112.38
455.294	119.38
455.514	117.38
455.734	120.38
455.955	117.38
456.175	113.38
456.395	121.38
456.616	110.38
456.836	115.38
457.056	114.38
457.276	115.38
457.497	107.38
457.717	118.38
457.937	107.38
458.157	100.38
458.377	105.38
458.598	98.38
458.818	84.38
459.038	83.38
459.258	91.38
459.478	80.38
459.698	91.38
459.918	94.38
460.138	121.38
460.358	121.38
460.578	107.38
460.798	109.38
461.018	106.38
461.238	130.38
461.458	115.38
461.678	111.38
461.898	103.38
462.118	122.38
462.338	105.38
462.558	105.38
462.777	110.38
462.997	114.38
463.217	119.38
463.437	109.38
463.657	107.38
463.876	107.38
464.096	118.38
464.316	105.38
464.536	106.38
464.755	113.38
464.975	106.38
465.195	120.38
465.414	117.38
465.634	121.38
465.854	106.38
466.073	131.38
466.293	131.38
466.512	128.38
466.732	143.38
466.951	121.38
467.171	127.38
467.391	138.38
467.61	145.38
467.829	139.38
468.049	132.38
468.268	145.38
468.488	128.38
468.707	138.38
468.927	136.38
469.146	130.38
469.365	153.38
469.585	137.38
469.804	133.38
470.023	142.38
470.243	138.38
470.462	142.38
470.681	138.38
470.901	135.38
471.12	145.38
471.339	129.38
471.558	137.38
471.777	134.38
471.997	119.38
472.216	141.38
472.435	120.38
472.654	113.38
472.873	107.38
473.092	117.38
473.311	121.38
473.53	128.38
473.749	127.38
473.968	119.38
474.187	107.38
474.406	122.38
474.625	117.38
474.844	120.38
475.063	140.38
475.282	136.38
475.501	117.38
475.72	121.38
475.939	121.38
476.158	142.38
476.377	143.38
476.596	133.38
476.814	116.38
477.033	106.38
477.252	117.38
477.471	122.38
477.69	127.38
477.908	141.38
478.127	125.38
478.346	130.38
478.564	117.38
478.783	127.38
479.002	121.38
479.22	134.38
479.439	138.38
479.658	130.38
479.876	126.38
480.095	111.38
480.313	109.38
480.532	125.38
480.751	106.38
480.969	100.38
481.188	97.38
481.406	84.38
481.624	79.38
481.843	89.38
482.061	86.38
482.28	94.38
482.498	102.38
482.717	98.38
482.935	114.38
483.153	135.38
483.372	148.38
483.59	145.38
483.808	132.38
484.027	141.38
484.245	133.38
484.463	141.38
484.681	143.38
484.9	143.38
485.118	130.38
485.336	129.38
485.554	110.38
485.772	89.38
485.99	98.38
486.209	104.38
486.427	103.38
486.645	122.38
486.863	139.38
487.081	141.38
487.299	140.38
487.517	127.38
487.735	167.38
487.953	172.38
488.171	183.38
488.389	177.38
488.607	159.38
488.825	132.38
489.043	128.38
489.261	142.38
489.479	133.38
489.696	145.38
489.914	136.38
490.132	130.38
490.35	140.38
490.568	148.38
490.786	176.38
491.003	168.38
491.221	188.38
491.439	186.38
491.657	184.38
491.874	208.38
492.092	210.38
492.31	247.38
492.527	226.38
492.745	196.38
492.963	194.38
493.18	178.38
493.398	185.38
493.615	175.38
493.833	174.38
494.05	169.38
494.268	178.38
494.485	173.38
494.703	158.38
494.92	176.38
495.138	166.38
495.355	159.38
495.573	162.38
495.79	157.38
496.008	159.38
496.225	180.38
496.442	176.38
496.66	167.38
496.877	167.38
497.094	166.38
497.312	174.38
497.529	146.38
497.746	149.38
497.963	144.38
498.181	128.38
498.398	130.38
498.615	119.38
498.832	125.38
499.049	121.38
499.267	110.38
499.484	117.38
499.701	103.38
499.918	137.38
500.135	139.38
500.352	148.38
500.569	139.38
500.786	140.38
501.003	141.38
501.22	144.38
501.437	140.38
501.654	143.38
501.871	132.38
502.088	107.38
502.305	125.38
502.522	126.38
502.739	129.38
502.956	132.38
503.172	120.38
503.389	111.38
503.606	123.38
503.823	106.38
504.04	120.38
504.256	111.38
504.473	128.38
504.69	115.38
504.907	135.38
505.123	121.38
505.34	109.38
505.557	128.38
505.773	116.38
505.99	114.38
506.207	125.38
506.423	119.38
506.64	107.38
506.856	137.38
507.073	123.38
507.289	114.38
507.506	121.38
507.722	111.38
507.939	129.38
508.155	117.38
508.372	110.38
508.588	114.38
508.805	103.38
509.021	113.38
509.238	121.38
509.454	121.38
509.67	109.38
509.887	87.38
510.103	96.38
510.319	109.38
510.536	93.38
510.752	83.38
510.968	86.38
511.184	89.38
511.401	88.38
511.617	99.38
511.833	85.38
512.049	90.38
512.265	98.38
512.481	94.38
512.698	85.38
512.914	90.38
513.13	85.38
513.346	79.38
513.562	101.38
513.778	90.38
513.994	88.38
514.21	87.38
514.426	98.38
514.642	97.38
514.858	89.38
515.074	94.38
515.29	102.38
515.506	90.38
515.721	80.38
515.937	96.38
516.153	91.38
516.369	78.38
516.585	87.38
516.801	97.38
517.016	82.38
517.232	89.38
517.448	77.38
517.664	101.38
517.879	84.38
518.095	87.38
518.311	90.38
518.527	101.38
518.742	95.38
518.958	107.38
519.173	113.38
519.389	97.38
519.605	105.38
519.82	127.38
520.036	100.38
520.251	97.38
520.467	110.38
520.682	89.38
520.898	86.38
521.113	96.38
521.329	88.38
521.544	85.38
521.76	96.38
521.975	95.38
522.19	88.38
522.406	101.38
522.621	106.38
522.836	90.38
523.052	93.38
523.267	98.38
523.482	106.38
523.698	114.38
523.913	117.38
524.128	112.38
524.343	120.38
524.559	129.38
524.774	104.38
524.989	123.38
525.204	113.38
525.419	128.38
525.634	116.38
525.849	98.38
526.064	107.38
526.28	101.38
526.495	93.38
526.71	94.38
526.925	77.38
527.14	65.38
527.355	80.38
527.57	87.38
527.785	79.38
527.999	86.38
528.214	110.38
528.429	105.38
528.644	111.38
528.859	145.38
529.074	140.38
529.289	150.38
529.503	161.38
529.718	129.38
529.933	99.38
530.148	97.38
530.363	93.38
530.577	94.38
530.792	96.38
531.007	94.38
531.221	86.38
531.436	86.38
531.651	83.38
531.865	87.38
532.08	85.38
532.295	79.38
532.509	79.38
532.724	84.38
532.938	82.38
533.153	101.38
533.367	115.38
533.582	112.38
533.796	112.38
534.011	116.38
534.225	87.38
534.44	92.38
534.654	113.38
534.868	92.38
535.083	87.38
535.297	101.38
535.511	116.38
535.726	119.38
535.94	102.38
536.154	94.38
536.369	86.38
536.583	103.38
536.797	78.38
537.011	100.38
537.225	90.38
537.44	88.38
537.654	89.38
537.868	99.38
538.082	84.38
538.296	88.38
538.51	103.38
538.724	111.38
538.938	120.38
539.153	126.38
539.367	124.38
539.581	125.38
539.795	112.38
540.009	97.38
540.222	100.38
540.436	111.38
540.65	122.38
540.864	131.38
541.078	141.38
541.292	137.38
541.506	149.38
541.72	175.38
541.934	196.38
542.147	176.38
542.361	171.38
542.575	152.38
542.789	146.38
543.002	127.38
543.216	139.38
543.43	116.38
543.644	133.38
543.857	138.38
544.071	155.38
544.285	170.38
544.498	156.38
544.712	157.38
544.925	148.38
545.139	147.38
545.352	149.38
545.566	149.38
545.779	148.38
545.993	165.38
546.206	158.38
546.42	156.38
546.633	143.38
546.847	153.38
547.06	158.38
547.274	161.38
547.487	177.38
547.7	173.38
547.914	178.38
548.127	169.38
548.34	156.38
548.554	152.38
548.767	147.38
548.98	161.38
549.193	139.38
549.407	161.38
549.62	150.38
549.833	157.38
550.046	166.38
550.259	141.38
550.473	147.38
550.686	153.38
550.899	145.38
551.112	136.38
551.325	136.38
551.538	132.38
551.751	143.38
551.964	118.38
552.177	126.38
552.39	133.38
552.603	137.38
552.816	154.38
553.029	144.38
553.242	153.38
553.455	143.38
553.667	152.38
553.88	151.38
554.093	145.38
554.306	148.38
554.519	145.38
554.732	144.38
554.944	169.38
555.157	139.38
555.37	140.38
555.583	141.38
555.795	123.38
556.008	129.38
556.221	137.38
556.433	132.38
556.646	142.38
556.859	145.38
557.071	135.38
557.284	139.38
557.496	148.38
557.709	128.38
557.921	143.38
558.134	138.38
558.346	129.38
558.559	133.38
558.771	135.38
558.984	136.38
559.196	130.38
559.409	139.38
559.621	130.38
559.833	119.38
560.046	104.38
560.258	125.38
560.47	131.38
560.683	125.38
560.895	130.38
561.107	137.38
561.32	136.38
561.532	127.38
561.744	135.38
561.956	118.38
562.168	121.38
562.381	121.38
562.593	118.38
562.805	143.38
563.017	114.38
563.229	147.38
563.441	116.38
563.653	125.38
563.865	120.38
564.077	105.38
564.289	108.38
564.501	121.38
564.713	131.38
564.925	126.38
565.137	115.38
565.349	108.38
565.561	100.38
565.773	114.38
565.985	121.38
566.197	120.38
566.408	119.38
566.62	109.38
566.832	119.38
567.044	123.38
567.255	110.38
567.467	113.38
567.679	97.38
567.891	92.38
568.102	90.38
568.314	103.38
568.526	88.38
568.737	83.38
568.949	93.38
569.161	91.38
569.372	74.38
569.584	86.38
569.795	61.38
570.007	89.38
570.218	87.38
570.43	93.38
570.641	86.38
570.853	94.38
571.064	87.38
571.276	85.38
571.487	106.38
571.698	101.38
571.91	109.38
572.121	97.38
572.333	113.38
572.544	91.38
572.755	93.38
572.966	91.38
573.178	96.38
573.389	88.38
573.6	73.38
573.811	95.38
574.023	81.38
574.234	80.38
574.445	75.38
574.656	94.38
574.867	99.38
575.078	74.38
575.289	103.38
575.501	112.38
575.712	101.38
575.923	94.38
576.134	94.38
576.345	94.38
576.556	98.38
576.767	94.38
576.978	101.38
577.188	82.38
577.399	90.38
577.61	94.38
577.821	90.38
578.032	94.38
578.243	90.38
578.454	90.38
578.665	79.38
578.875	82.38
579.086	81.38
579.297	88.38
579.508	80.38
579.718	93.38
579.929	92.38
580.14	89.38
580.35	85.38
580.561	82.38
580.772	96.38
580.982	96.38
581.193	103.38
581.403	90.38
581.614	98.38
581.825	93.38
582.035	109.38
582.246	95.38
582.456	88.38
582.667	100.38
582.877	109.38
583.087	93.38
583.298	81.38
583.508	83.38
583.719	89.38
583.929	81.38
584.139	97.38
584.35	83.38
584.56	80.38
584.77	100.38
584.981	82.38
585.191	94.38
585.401	90.38
585.611	69.38
585.821	75.38
586.032	77.38
586.242	72.38
586.452	84.38
586.662	88.38
586.872	92.38
587.082	73.38
587.292	75.38
587.502	74.38
587.713	88.38
587.923	85.38
588.133	85.38
588.343	95.38
588.553	81.38
588.762	91.38
588.972	73.38
589.182	84.38
589.392	88.38
589.602	81.38
589.812	69.38
590.022	93.38
590.232	86.38
590.441	88.38
590.651	75.38
590.861	84.38
591.071	87.38
591.281	79.38
591.49	90.38
591.7	81.38
591.91	87.38
592.119	99.38
592.329	95.38
592.539	79.38
592.748	76.38
592.958	77.38
593.167	82.38
593.377	78.38
593.587	87.38
593.796	85.38
594.006	77.38
594.215	75.38
594.424	80.38
594.634	80.38
594.843	85.38
595.053	91.38
595.262	77.38
595.472	92.38
595.681	84.38
595.89	97.38
596.1	97.38
596.309	86.38
596.518	100.38
596.727	88.38
596.937	103.38
597.146	97.38
597.355	85.38
597.564	82.38
597.774	88.38
597.983	92.38
598.192	81.38
598.401	97.38
598.61	89.38
598.819	92.38
599.028	94.38
599.237	96.38
599.446	92.38
599.655	95.38
599.864	79.38
600.073	88.38
600.282	100.38
600.491	88.38
600.7	74.38
600.909	98.38
601.118	86.38
601.327	105.38
601.536	110.38
601.745	97.38
601.953	116.38
602.162	120.38
602.371	99.38
602.58	111.38
602.789	113.38
602.997	113.38
603.206	96.38
603.415	102.38
603.623	100.38
603.832	109.38
604.041	120.38
604.249	100.38
604.458	88.38
604.666	87.38
604.875	85.38
605.084	96.38
605.292	100.38
605.501	96.38
605.709	119.38
605.918	112.38
606.126	106.38
606.334	107.38
606.543	106.38
606.751	119.38
606.96	101.38
607.168	113.38
607.376	124.38
607.585	102.38
607.793	113.38
608.001	109.38
608.21	123.38
608.418	110.38
608.626	106.38
608.834	114.38
609.043	103.38
609.251	120.38
609.459	121.38
609.667	114.38
609.875	111.38
610.083	105.38
610.291	97.38
610.499	102.38
610.707	98.38
610.916	114.38
611.124	118.38
611.332	105.38
611.54	109.38
611.748	125.38
611.955	115.38
612.163	117.38
612.371	123.38
612.579	112.38
612.787	120.38
612.995	124.38
613.203	95.38
613.411	95.38
613.618	113.38
613.826	104.38
614.034	117.38
614.242	111.38
614.449	109.38
614.657	101.38
614.865	113.38
615.072	114.38
615.28	111.38
615.488	100.38
615.695	113.38
615.903	103.38
616.111	113.38
616.318	111.38
616.526	112.38
616.733	113.38
616.941	105.38
617.148	113.38
617.356	113.38
617.563	114.38
617.771	101.38
617.978	107.38
618.185	111.38
618.393	115.38
618.6	116.38
618.807	121.38
619.015	123.38
619.222	117.38
619.429	103.38
619.637	93.38
619.844	102.38
620.051	103.38
620.258	96.38
620.466	99.38
620.673	103.38
620.88	117.38
621.087	112.38
621.294	89.38
621.501	93.38
621.708	99.38
621.915	107.38
622.122	115.38
622.329	115.38
622.536	94.38
622.743	89.38
622.95	109.38
623.157	97.38
623.364	114.38
623.571	110.38
623.778	112.38
623.985	92.38
624.192	118.38
624.399	107.38
624.606	116.38
624.812	110.38
625.019	91.38
625.226	113.38
625.433	95.38
625.639	88.38
625.846	90.38
626.053	93.38
626.259	89.38
626.466	119.38
626.673	97.38
626.879	93.38
627.086	99.38
627.293	101.38
627.499	120.38
627.706	97.38
627.912	101.38
628.119	101.38
628.325	109.38
628.532	102.38
628.738	106.38
628.945	97.38
629.151	117.38
629.357	100.38
629.564	101.38
629.77	114.38
629.976	112.38
630.183	85.38
630.389	91.38
630.595	102.38
630.802	112.38
631.008	93.38
631.214	91.38
631.42	102.38
631.627	110.38
631.833	93.38
632.039	93.38
632.245	109.38
632.451	96.38
632.657	100.38
632.863	99.38
633.069	101.38
633.275	108.38
633.481	92.38
633.688	95.38
633.893	97.38
634.099	96.38
634.305	93.38
634.511	100.38
634.717	113.38
634.923	93.38
635.129	87.38
635.335	82.38
635.541	95.38
635.747	89.38
635.952	93.38
636.158	97.38
636.364	87.38
636.57	93.38
636.775	104.38
636.981	110.38
637.187	111.38
637.392	103.38
637.598	94.38
637.804	113.38
638.009	95.38
638.215	111.38
638.421	111.38
638.626	102.38
638.832	105.38
639.037	101.38
639.243	101.38
639.448	109.38
639.654	111.38
639.859	89.38
640.065	117.38
640.27	104.38
640.475	103.38
640.681	102.38
640.886	100.38
641.091	105.38
641.297	102.38
641.502	90.38
641.707	86.38
641.913	94.38
642.118	98.38
642.323	88.38
642.528	99.38
642.733	84.38
642.939	102.38
643.144	94.38
643.349	96.38
643.554	91.38
643.759	84.38
643.964	86.38
644.169	94.38
644.374	87.38
644.579	112.38
644.784	99.38
644.989	98.38
645.194	96.38
645.399	109.38
645.604	96.38
645.809	93.38
646.014	110.38
646.219	103.38
646.423	95.38
646.628	82.38
646.833	102.38
647.038	104.38
647.243	95.38
647.447	96.38
647.652	97.38
647.857	96.38
648.062	95.38
648.266	96.38
648.471	94.38
648.676	87.38
648.88	104.38
649.085	73.38
649.289	95.38
649.494	109.38
649.698	101.38
649.903	93.38
650.107	100.38
650.312	99.38
650.516	104.38
650.721	106.38
650.925	102.38
651.13	91.38
651.334	90.38
651.539	107.38
651.743	103.38
651.947	103.38
652.152	82.38
652.356	85.38
652.56	97.38
652.764	94.38
652.969	103.38
653.173	102.38
653.377	95.38
653.581	78.38
653.785	89.38
653.99	87.38
654.194	100.38
654.398	85.38
654.602	84.38
654.806	79.38
655.01	90.38
655.214	87.38
655.418	94.38
655.622	95.38
655.826	98.38
656.03	92.38
656.234	78.38
656.438	80.38
656.642	80.38
656.846	93.38
657.049	90.38
657.253	89.38
657.457	88.38
657.661	96.38
657.865	84.38
658.068	91.38
658.272	82.38
658.476	82.38
658.68	79.38
658.883	92.38
659.087	82.38
659.291	84.38
659.494	86.38
659.698	97.38
659.901	89.38
660.105	84.38
660.309	74.38
660.512	86.38
660.716	98.38
660.919	90.38
661.123	93.38
661.326	80.38
661.53	75.38
661.733	89.38
661.936	93.38
662.14	86.38
662.343	96.38
662.546	83.38
662.75	90.38
662.953	78.38
663.156	90.38
663.36	77.38
663.563	79.38
663.766	83.38
663.969	80.38
664.173	72.38
664.376	71.38
664.579	69.38
664.782	77.38
664.985	88.38
665.188	70.38
665.391	80.38
665.594	86.38
665.797	99.38
666	65.38
666.203	80.38
666.406	69.38
666.609	81.38
666.812	76.38
667.015	77.38
667.218	93.38
667.421	79.38
667.624	79.38
667.827	72.38
668.03	82.38
668.232	69.38
668.435	84.38
668.638	77.38
668.841	96.38
669.043	82.38
669.246	86.38
669.449	81.38
669.651	74.38
669.854	82.38
670.057	64.38
670.259	81.38
670.462	85.38
670.665	73.38
670.867	83.38
671.07	93.38
671.272	87.38
671.475	79.38
671.677	79.38
671.88	87.38
672.082	87.38
672.284	82.38
672.487	90.38
672.689	80.38
672.892	65.38
