Data from Location2.07152019.Energy5.Lamp.07192019.3%Agarose_HRD10591_14-58-37-359.txt Node
Date: Fri Jul 19 14:58:37 EDT 2019
User: cochatt
Spectrometer: HR+D1059
Trigger mode: 1
Integration Time (sec): 1.000000E-1
Scans to average: 1
Electric dark correction enabled: true
Nonlinearity correction enabled: false
Boxcar width: 0
XAxis mode: Wavelengths
Number of Pixels in Spectrum: 2048
>>>>>Begin Spectral Data<<<<<
223.165	-13.94
223.4	-13.94
223.635	-13.94
223.869	-14.94
224.104	-12.94
224.338	-7.94
224.573	-16.94
224.808	-22.94
225.042	-3.94
225.277	-10.94
225.511	3.06
225.746	-3.94
225.98	9.06
226.215	9.06
226.449	12.06
226.683	14.06
226.918	37.06
227.152	24.06
227.387	30.06
227.621	38.06
227.856	55.06
228.09	34.06
228.324	50.06
228.559	56.06
228.793	76.06
229.027	70.06
229.262	63.06
229.496	71.06
229.73	64.06
229.964	65.06
230.199	68.06
230.433	68.06
230.667	73.06
230.901	71.06
231.136	96.06
231.37	74.06
231.604	94.06
231.838	94.06
232.072	83.06
232.306	72.06
232.541	90.06
232.775	75.06
233.009	88.06
233.243	77.06
233.477	77.06
233.711	74.06
233.945	78.06
234.179	83.06
234.413	78.06
234.647	84.06
234.881	83.06
235.115	79.06
235.349	82.06
235.583	91.06
235.817	85.06
236.051	79.06
236.285	85.06
236.519	65.06
236.753	98.06
236.987	83.06
237.221	78.06
237.455	82.06
237.689	80.06
237.922	88.06
238.156	66.06
238.39	87.06
238.624	85.06
238.858	79.06
239.091	72.06
239.325	87.06
239.559	68.06
239.793	79.06
240.027	76.06
240.26	78.06
240.494	96.06
240.728	71.06
240.961	85.06
241.195	86.06
241.429	73.06
241.662	71.06
241.896	72.06
242.13	81.06
242.363	84.06
242.597	78.06
242.83	74.06
243.064	85.06
243.298	78.06
243.531	64.06
243.765	72.06
243.998	59.06
244.232	88.06
244.465	58.06
244.699	73.06
244.932	67.06
245.166	70.06
245.399	71.06
245.633	90.06
245.866	76.06
246.099	81.06
246.333	79.06
246.566	74.06
246.8	80.06
247.033	82.06
247.266	87.06
247.5	72.06
247.733	82.06
247.966	88.06
248.2	83.06
248.433	75.06
248.666	80.06
248.899	84.06
249.133	65.06
249.366	75.06
249.599	85.06
249.832	86.06
250.066	86.06
250.299	93.06
250.532	82.06
250.765	99.06
250.998	83.06
251.231	89.06
251.465	78.06
251.698	81.06
251.931	79.06
252.164	83.06
252.397	79.06
252.63	81.06
252.863	81.06
253.096	83.06
253.329	99.06
253.562	80.06
253.795	88.06
254.028	92.06
254.261	76.06
254.494	82.06
254.727	82.06
254.96	97.06
255.193	89.06
255.426	73.06
255.659	84.06
255.892	79.06
256.124	75.06
256.357	86.06
256.59	79.06
256.823	80.06
257.056	74.06
257.289	85.06
257.521	79.06
257.754	71.06
257.987	69.06
258.22	93.06
258.452	80.06
258.685	78.06
258.918	77.06
259.151	85.06
259.383	76.06
259.616	81.06
259.849	90.06
260.081	81.06
260.314	84.06
260.547	89.06
260.779	74.06
261.012	89.06
261.244	89.06
261.477	95.06
261.71	90.06
261.942	88.06
262.175	84.06
262.407	76.06
262.64	91.06
262.872	84.06
263.105	92.06
263.337	78.06
263.57	78.06
263.802	89.06
264.035	86.06
264.267	78.06
264.499	80.06
264.732	78.06
264.964	77.06
265.197	96.06
265.429	78.06
265.661	92.06
265.894	96.06
266.126	86.06
266.358	86.06
266.591	99.06
266.823	96.06
267.055	76.06
267.287	79.06
267.52	75.06
267.752	89.06
267.984	92.06
268.216	76.06
268.448	93.06
268.681	79.06
268.913	79.06
269.145	83.06
269.377	92.06
269.609	77.06
269.841	85.06
270.073	66.06
270.306	77.06
270.538	90.06
270.77	85.06
271.002	94.06
271.234	81.06
271.466	81.06
271.698	94.06
271.93	79.06
272.162	75.06
272.394	87.06
272.626	78.06
272.858	87.06
273.09	96.06
273.322	99.06
273.553	85.06
273.785	79.06
274.017	75.06
274.249	80.06
274.481	90.06
274.713	94.06
274.945	91.06
275.176	72.06
275.408	99.06
275.64	90.06
275.872	89.06
276.104	81.06
276.335	89.06
276.567	84.06
276.799	85.06
277.031	85.06
277.262	71.06
277.494	87.06
277.726	84.06
277.957	94.06
278.189	83.06
278.421	78.06
278.652	80.06
278.884	76.06
279.115	74.06
279.347	86.06
279.579	92.06
279.81	91.06
280.042	77.06
280.273	93.06
280.505	92.06
280.736	82.06
280.968	83.06
281.199	88.06
281.431	80.06
281.662	82.06
281.894	70.06
282.125	75.06
282.356	84.06
282.588	84.06
282.819	87.06
283.051	84.06
283.282	74.06
283.513	88.06
283.745	96.06
283.976	92.06
284.207	85.06
284.439	76.06
284.67	90.06
284.901	88.06
285.132	80.06
285.364	80.06
285.595	89.06
285.826	101.06
286.057	92.06
286.288	73.06
286.52	97.06
286.751	92.06
286.982	83.06
287.213	84.06
287.444	90.06
287.675	81.06
287.906	79.06
288.138	81.06
288.369	91.06
288.6	72.06
288.831	74.06
289.062	87.06
289.293	78.06
289.524	87.06
289.755	86.06
289.986	87.06
290.217	90.06
290.448	87.06
290.679	79.06
290.91	100.06
291.141	82.06
291.371	69.06
291.602	84.06
291.833	77.06
292.064	86.06
292.295	83.06
292.526	92.06
292.757	89.06
292.987	97.06
293.218	92.06
293.449	79.06
293.68	88.06
293.91	84.06
294.141	83.06
294.372	84.06
294.603	91.06
294.833	89.06
295.064	92.06
295.295	92.06
295.525	72.06
295.756	92.06
295.987	82.06
296.217	89.06
296.448	90.06
296.679	75.06
296.909	93.06
297.14	97.06
297.37	100.06
297.601	85.06
297.831	98.06
298.062	82.06
298.292	99.06
298.523	81.06
298.753	89.06
298.984	90.06
299.214	95.06
299.445	87.06
299.675	85.06
299.905	84.06
300.136	89.06
300.366	85.06
300.597	74.06
300.827	84.06
301.057	83.06
301.288	81.06
301.518	75.06
301.748	72.06
301.979	77.06
302.209	83.06
302.439	84.06
302.669	89.06
302.9	96.06
303.13	96.06
303.36	77.06
303.59	77.06
303.82	86.06
304.051	86.06
304.281	83.06
304.511	78.06
304.741	92.06
304.971	91.06
305.201	68.06
305.431	86.06
305.661	87.06
305.891	78.06
306.121	95.06
306.352	92.06
306.582	91.06
306.812	97.06
307.042	75.06
307.272	78.06
307.502	68.06
307.731	79.06
307.961	84.06
308.191	82.06
308.421	92.06
308.651	89.06
308.881	102.06
309.111	80.06
309.341	90.06
309.571	83.06
309.8	94.06
310.03	77.06
310.26	83.06
310.49	72.06
310.72	83.06
310.949	90.06
311.179	95.06
311.409	90.06
311.639	88.06
311.868	92.06
312.098	87.06
312.328	87.06
312.557	97.06
312.787	87.06
313.017	71.06
313.246	92.06
313.476	90.06
313.706	106.06
313.935	81.06
314.165	86.06
314.394	85.06
314.624	90.06
314.853	94.06
315.083	90.06
315.312	84.06
315.542	89.06
315.771	91.06
316.001	77.06
316.23	97.06
316.46	81.06
316.689	90.06
316.919	78.06
317.148	95.06
317.377	86.06
317.607	95.06
317.836	86.06
318.065	93.06
318.295	93.06
318.524	83.06
318.753	84.06
318.983	93.06
319.212	83.06
319.441	88.06
319.67	94.06
319.9	95.06
320.129	92.06
320.358	88.06
320.587	98.06
320.816	92.06
321.046	95.06
321.275	85.06
321.504	89.06
321.733	72.06
321.962	82.06
322.191	79.06
322.42	79.06
322.649	98.06
322.878	81.06
323.108	88.06
323.337	76.06
323.566	81.06
323.795	98.06
324.024	101.06
324.253	93.06
324.482	92.06
324.71	88.06
324.939	89.06
325.168	83.06
325.397	93.06
325.626	87.06
325.855	84.06
326.084	85.06
326.313	86.06
326.542	83.06
326.77	83.06
326.999	90.06
327.228	89.06
327.457	81.06
327.686	101.06
327.914	102.06
328.143	90.06
328.372	91.06
328.6	76.06
328.829	97.06
329.058	77.06
329.287	81.06
329.515	79.06
329.744	95.06
329.972	74.06
330.201	94.06
330.43	87.06
330.658	89.06
330.887	79.06
331.115	83.06
331.344	83.06
331.572	86.06
331.801	88.06
332.03	81.06
332.258	82.06
332.486	92.06
332.715	85.06
332.943	88.06
333.172	89.06
333.4	90.06
333.629	88.06
333.857	84.06
334.085	83.06
334.314	82.06
334.542	90.06
334.771	90.06
334.999	83.06
335.227	81.06
335.455	86.06
335.684	86.06
335.912	91.06
336.14	95.06
336.369	85.06
336.597	74.06
336.825	98.06
337.053	92.06
337.281	92.06
337.51	97.06
337.738	97.06
337.966	85.06
338.194	73.06
338.422	91.06
338.65	72.06
338.878	76.06
339.106	84.06
339.334	96.06
339.562	77.06
339.79	79.06
340.018	79.06
340.246	80.06
340.474	84.06
340.702	87.06
340.93	88.06
341.158	86.06
341.386	78.06
341.614	98.06
341.842	99.06
342.07	78.06
342.298	86.06
342.526	82.06
342.754	89.06
342.981	83.06
343.209	84.06
343.437	91.06
343.665	87.06
343.893	58.06
344.12	73.06
344.348	76.06
344.576	82.06
344.804	81.06
345.031	85.06
345.259	85.06
345.487	71.06
345.714	90.06
345.942	79.06
346.17	88.06
346.397	80.06
346.625	84.06
346.853	78.06
347.08	82.06
347.308	91.06
347.535	101.06
347.763	77.06
347.99	91.06
348.218	93.06
348.445	81.06
348.673	76.06
348.9	101.06
349.128	80.06
349.355	64.06
349.583	86.06
349.81	82.06
350.037	77.06
350.265	84.06
350.492	84.06
350.72	91.06
350.947	77.06
351.174	91.06
351.402	69.06
351.629	91.06
351.856	83.06
352.083	93.06
352.311	96.06
352.538	83.06
352.765	82.06
352.992	64.06
353.22	83.06
353.447	83.06
353.674	77.06
353.901	88.06
354.128	89.06
354.355	80.06
354.583	93.06
354.81	76.06
355.037	91.06
355.264	87.06
355.491	80.06
355.718	65.06
355.945	68.06
356.172	81.06
356.399	80.06
356.626	98.06
356.853	75.06
357.08	78.06
357.307	71.06
357.534	79.06
357.761	95.06
357.988	90.06
358.215	78.06
358.441	87.06
358.668	94.06
358.895	93.06
359.122	94.06
359.349	93.06
359.576	97.06
359.802	85.06
360.029	78.06
360.256	84.06
360.483	75.06
360.709	84.06
360.936	89.06
361.163	83.06
361.39	88.06
361.616	93.06
361.843	105.06
362.07	105.06
362.296	85.06
362.523	84.06
362.749	74.06
362.976	80.06
363.203	78.06
363.429	69.06
363.656	77.06
363.882	78.06
364.109	90.06
364.335	88.06
364.562	84.06
364.788	73.06
365.015	84.06
365.241	99.06
365.468	89.06
365.694	78.06
365.92	90.06
366.147	82.06
366.373	96.06
366.599	88.06
366.826	105.06
367.052	96.06
367.278	88.06
367.505	82.06
367.731	85.06
367.957	83.06
368.184	74.06
368.41	93.06
368.636	72.06
368.862	90.06
369.089	94.06
369.315	79.06
369.541	93.06
369.767	85.06
369.993	94.06
370.219	81.06
370.445	79.06
370.672	98.06
370.898	85.06
371.124	88.06
371.35	93.06
371.576	108.06
371.802	86.06
372.028	78.06
372.254	97.06
372.48	93.06
372.706	75.06
372.932	86.06
373.158	83.06
373.384	90.06
373.61	94.06
373.835	88.06
374.061	84.06
374.287	97.06
374.513	93.06
374.739	103.06
374.965	90.06
375.191	86.06
375.416	92.06
375.642	96.06
375.868	96.06
376.094	97.06
376.319	102.06
376.545	89.06
376.771	105.06
376.997	102.06
377.222	110.06
377.448	88.06
377.674	103.06
377.899	105.06
378.125	94.06
378.35	78.06
378.576	107.06
378.802	112.06
379.027	91.06
379.253	96.06
379.478	98.06
379.704	89.06
379.929	92.06
380.155	77.06
380.38	77.06
380.606	105.06
380.831	99.06
381.057	109.06
381.282	98.06
381.507	98.06
381.733	97.06
381.958	102.06
382.184	99.06
382.409	96.06
382.634	105.06
382.86	87.06
383.085	96.06
383.31	92.06
383.535	100.06
383.761	101.06
383.986	123.06
384.211	96.06
384.436	104.06
384.662	90.06
384.887	93.06
385.112	97.06
385.337	90.06
385.562	97.06
385.787	109.06
386.013	117.06
386.238	116.06
386.463	90.06
386.688	104.06
386.913	94.06
387.138	105.06
387.363	90.06
387.588	108.06
387.813	109.06
388.038	105.06
388.263	116.06
388.488	104.06
388.713	100.06
388.938	93.06
389.163	107.06
389.387	93.06
389.612	100.06
389.837	100.06
390.062	103.06
390.287	98.06
390.512	103.06
390.736	100.06
390.961	106.06
391.186	98.06
391.411	105.06
391.636	112.06
391.86	97.06
392.085	104.06
392.31	119.06
392.534	117.06
392.759	100.06
392.984	104.06
393.208	109.06
393.433	98.06
393.658	102.06
393.882	97.06
394.107	94.06
394.331	92.06
394.556	97.06
394.78	100.06
395.005	104.06
395.229	101.06
395.454	114.06
395.678	108.06
395.903	102.06
396.127	115.06
396.352	118.06
396.576	122.06
396.801	109.06
397.025	101.06
397.249	107.06
397.474	116.06
397.698	122.06
397.922	118.06
398.147	110.06
398.371	103.06
398.595	109.06
398.82	105.06
399.044	117.06
399.268	118.06
399.492	113.06
399.717	104.06
399.941	102.06
400.165	122.06
400.389	109.06
400.613	115.06
400.837	125.06
401.062	103.06
401.286	121.06
401.51	126.06
401.734	109.06
401.958	124.06
402.182	107.06
402.406	124.06
402.63	104.06
402.854	118.06
403.078	115.06
403.302	114.06
403.526	112.06
403.75	132.06
403.974	105.06
404.198	111.06
404.422	120.06
404.645	126.06
404.869	100.06
405.093	128.06
405.317	118.06
405.541	130.06
405.765	125.06
405.988	124.06
406.212	113.06
406.436	110.06
406.66	138.06
406.883	118.06
407.107	118.06
407.331	114.06
407.555	112.06
407.778	114.06
408.002	113.06
408.226	113.06
408.449	117.06
408.673	108.06
408.896	118.06
409.12	119.06
409.344	138.06
409.567	130.06
409.791	133.06
410.014	123.06
410.238	133.06
410.461	127.06
410.685	130.06
410.908	123.06
411.132	129.06
411.355	115.06
411.578	120.06
411.802	136.06
412.025	115.06
412.249	114.06
412.472	124.06
412.695	125.06
412.919	120.06
413.142	117.06
413.365	122.06
413.589	137.06
413.812	119.06
414.035	135.06
414.258	128.06
414.482	126.06
414.705	123.06
414.928	119.06
415.151	125.06
415.374	118.06
415.597	125.06
415.821	123.06
416.044	127.06
416.267	141.06
416.49	128.06
416.713	122.06
416.936	128.06
417.159	126.06
417.382	128.06
417.605	119.06
417.828	122.06
418.051	119.06
418.274	136.06
418.497	139.06
418.72	133.06
418.943	136.06
419.166	152.06
419.389	125.06
419.611	130.06
419.834	137.06
420.057	129.06
420.28	124.06
420.503	126.06
420.726	120.06
420.948	124.06
421.171	140.06
421.394	143.06
421.617	144.06
421.839	143.06
422.062	146.06
422.285	141.06
422.507	146.06
422.73	128.06
422.953	131.06
423.175	124.06
423.398	117.06
423.621	131.06
423.843	138.06
424.066	132.06
424.288	140.06
424.511	147.06
424.733	154.06
424.956	124.06
425.178	132.06
425.401	128.06
425.623	134.06
425.846	135.06
426.068	134.06
426.291	137.06
426.513	133.06
426.735	126.06
426.958	123.06
427.18	139.06
427.402	127.06
427.625	120.06
427.847	121.06
428.069	113.06
428.292	132.06
428.514	128.06
428.736	122.06
428.958	117.06
429.181	122.06
429.403	132.06
429.625	131.06
429.847	123.06
430.069	150.06
430.292	140.06
430.514	121.06
430.736	122.06
430.958	135.06
431.18	128.06
431.402	125.06
431.624	128.06
431.846	112.06
432.068	98.06
432.29	105.06
432.512	122.06
432.734	136.06
432.956	137.06
433.178	135.06
433.4	146.06
433.622	127.06
433.844	141.06
434.066	140.06
434.287	106.06
434.509	108.06
434.731	101.06
434.953	121.06
435.175	105.06
435.397	120.06
435.618	112.06
435.84	128.06
436.062	96.06
436.284	127.06
436.505	148.06
436.727	132.06
436.949	125.06
437.17	130.06
437.392	134.06
437.614	127.06
437.835	116.06
438.057	120.06
438.278	122.06
438.5	124.06
438.721	125.06
438.943	133.06
439.165	134.06
439.386	139.06
439.608	140.06
439.829	135.06
440.05	148.06
440.272	157.06
440.493	157.06
440.715	131.06
440.936	135.06
441.158	156.06
441.379	152.06
441.6	147.06
441.822	157.06
442.043	146.06
442.264	136.06
442.486	142.06
442.707	129.06
442.928	151.06
443.149	124.06
443.371	145.06
443.592	133.06
443.813	134.06
444.034	130.06
444.255	141.06
444.476	140.06
444.698	141.06
444.919	134.06
445.14	238.06
445.361	183.06
445.582	160.06
445.803	143.06
446.024	149.06
446.245	144.06
446.466	152.06
446.687	147.06
446.908	150.06
447.129	160.06
447.35	136.06
447.571	150.06
447.792	136.06
448.013	138.06
448.234	149.06
448.455	139.06
448.675	136.06
448.896	132.06
449.117	136.06
449.338	156.06
449.559	125.06
449.779	115.06
450	139.06
450.221	139.06
450.442	132.06
450.662	121.06
450.883	134.06
451.104	140.06
451.324	147.06
451.545	130.06
451.766	129.06
451.986	115.06
452.207	136.06
452.428	142.06
452.648	138.06
452.869	126.06
453.089	122.06
453.31	113.06
453.53	132.06
453.751	103.06
453.971	107.06
454.192	124.06
454.412	133.06
454.633	129.06
454.853	121.06
455.073	117.06
455.294	137.06
455.514	118.06
455.734	134.06
455.955	113.06
456.175	114.06
456.395	117.06
456.616	121.06
456.836	118.06
457.056	130.06
457.276	117.06
457.497	112.06
457.717	106.06
457.937	110.06
458.157	106.06
458.377	109.06
458.598	106.06
458.818	107.06
459.038	90.06
459.258	89.06
459.478	88.06
459.698	85.06
459.918	88.06
460.138	105.06
460.358	108.06
460.578	120.06
460.798	122.06
461.018	121.06
461.238	108.06
461.458	128.06
461.678	110.06
461.898	105.06
462.118	129.06
462.338	124.06
462.558	119.06
462.777	112.06
462.997	116.06
463.217	104.06
463.437	119.06
463.657	99.06
463.876	101.06
464.096	122.06
464.316	109.06
464.536	107.06
464.755	120.06
464.975	117.06
465.195	118.06
465.414	123.06
465.634	121.06
465.854	117.06
466.073	113.06
466.293	130.06
466.512	130.06
466.732	122.06
466.951	133.06
467.171	137.06
467.391	134.06
467.61	132.06
467.829	140.06
468.049	132.06
468.268	144.06
468.488	128.06
468.707	124.06
468.927	137.06
469.146	138.06
469.365	138.06
469.585	133.06
469.804	136.06
470.023	141.06
470.243	146.06
470.462	150.06
470.681	149.06
470.901	132.06
471.12	124.06
471.339	144.06
471.558	125.06
471.777	138.06
471.997	131.06
472.216	128.06
472.435	120.06
472.654	112.06
472.873	109.06
473.092	112.06
473.311	130.06
473.53	140.06
473.749	133.06
473.968	118.06
474.187	124.06
474.406	130.06
474.625	113.06
474.844	142.06
475.063	137.06
475.282	122.06
475.501	128.06
475.72	131.06
475.939	121.06
476.158	114.06
476.377	126.06
476.596	117.06
476.814	117.06
477.033	114.06
477.252	104.06
477.471	123.06
477.69	125.06
477.908	146.06
478.127	145.06
478.346	140.06
478.564	126.06
478.783	142.06
479.002	141.06
479.22	133.06
479.439	150.06
479.658	144.06
479.876	123.06
480.095	110.06
480.313	110.06
480.532	113.06
480.751	98.06
480.969	92.06
481.188	97.06
481.406	94.06
481.624	90.06
481.843	78.06
482.061	89.06
482.28	104.06
482.498	114.06
482.717	116.06
482.935	132.06
483.153	158.06
483.372	141.06
483.59	132.06
483.808	132.06
484.027	138.06
484.245	132.06
484.463	138.06
484.681	160.06
484.9	143.06
485.118	146.06
485.336	125.06
485.554	119.06
485.772	101.06
485.99	96.06
486.209	119.06
486.427	121.06
486.645	116.06
486.863	145.06
487.081	130.06
487.299	128.06
487.517	141.06
487.735	150.06
487.953	182.06
488.171	192.06
488.389	185.06
488.607	150.06
488.825	152.06
489.043	132.06
489.261	133.06
489.479	131.06
489.696	137.06
489.914	140.06
490.132	136.06
490.35	160.06
490.568	157.06
490.786	166.06
491.003	169.06
491.221	185.06
491.439	188.06
491.657	197.06
491.874	198.06
492.092	214.06
492.31	210.06
492.527	226.06
492.745	199.06
492.963	197.06
493.18	193.06
493.398	174.06
493.615	164.06
493.833	156.06
494.05	179.06
494.268	171.06
494.485	171.06
494.703	177.06
494.92	174.06
495.138	185.06
495.355	166.06
495.573	173.06
495.79	154.06
496.008	169.06
496.225	169.06
496.442	177.06
496.66	165.06
496.877	167.06
497.094	180.06
497.312	184.06
497.529	143.06
497.746	156.06
497.963	152.06
498.181	142.06
498.398	118.06
498.615	112.06
498.832	114.06
499.049	117.06
499.267	124.06
499.484	107.06
499.701	136.06
499.918	128.06
500.135	133.06
500.352	139.06
500.569	151.06
500.786	149.06
501.003	126.06
501.22	149.06
501.437	141.06
501.654	139.06
501.871	134.06
502.088	137.06
502.305	135.06
502.522	125.06
502.739	136.06
502.956	139.06
503.172	126.06
503.389	120.06
503.606	122.06
503.823	127.06
504.04	128.06
504.256	134.06
504.473	122.06
504.69	118.06
504.907	115.06
505.123	135.06
505.34	119.06
505.557	123.06
505.773	115.06
505.99	121.06
506.207	115.06
506.423	108.06
506.64	115.06
506.856	128.06
507.073	132.06
507.289	121.06
507.506	114.06
507.722	127.06
507.939	130.06
508.155	124.06
508.372	105.06
508.588	106.06
508.805	122.06
509.021	112.06
509.238	100.06
509.454	114.06
509.67	103.06
509.887	97.06
510.103	97.06
510.319	94.06
510.536	86.06
510.752	87.06
510.968	83.06
511.184	93.06
511.401	85.06
511.617	72.06
511.833	94.06
512.049	95.06
512.265	84.06
512.481	95.06
512.698	99.06
512.914	98.06
513.13	102.06
513.346	90.06
513.562	102.06
513.778	107.06
513.994	90.06
514.21	100.06
514.426	98.06
514.642	98.06
514.858	84.06
515.074	88.06
515.29	78.06
515.506	93.06
515.721	97.06
515.937	82.06
516.153	74.06
516.369	89.06
516.585	92.06
516.801	83.06
517.016	104.06
517.232	105.06
517.448	85.06
517.664	79.06
517.879	105.06
518.095	88.06
518.311	98.06
518.527	86.06
518.742	99.06
518.958	99.06
519.173	108.06
519.389	124.06
519.605	107.06
519.82	120.06
520.036	122.06
520.251	103.06
520.467	96.06
520.682	98.06
520.898	111.06
521.113	114.06
521.329	110.06
521.544	85.06
521.76	94.06
521.975	96.06
522.19	100.06
522.406	99.06
522.621	103.06
522.836	117.06
523.052	101.06
523.267	108.06
523.482	104.06
523.698	116.06
523.913	112.06
524.128	118.06
524.343	120.06
524.559	122.06
524.774	134.06
524.989	120.06
525.204	122.06
525.419	119.06
525.634	121.06
525.849	103.06
526.064	113.06
526.28	100.06
526.495	96.06
526.71	97.06
526.925	80.06
527.14	83.06
527.355	89.06
527.57	93.06
527.785	93.06
527.999	87.06
528.214	98.06
528.429	112.06
528.644	120.06
528.859	142.06
529.074	146.06
529.289	150.06
529.503	160.06
529.718	133.06
529.933	121.06
530.148	102.06
530.363	94.06
530.577	93.06
530.792	77.06
531.007	89.06
531.221	96.06
531.436	83.06
531.651	90.06
531.865	81.06
532.08	85.06
532.295	104.06
532.509	89.06
532.724	89.06
532.938	88.06
533.153	97.06
533.367	119.06
533.582	126.06
533.796	124.06
534.011	123.06
534.225	95.06
534.44	93.06
534.654	104.06
534.868	87.06
535.083	102.06
535.297	101.06
535.511	102.06
535.726	92.06
535.94	92.06
536.154	113.06
536.369	90.06
536.583	98.06
536.797	91.06
537.011	84.06
537.225	91.06
537.44	88.06
537.654	93.06
537.868	96.06
538.082	104.06
538.296	93.06
538.51	110.06
538.724	120.06
538.938	121.06
539.153	129.06
539.367	109.06
539.581	120.06
539.795	105.06
540.009	95.06
540.222	110.06
540.436	91.06
540.65	115.06
540.864	127.06
541.078	127.06
541.292	140.06
541.506	173.06
541.72	155.06
541.934	185.06
542.147	194.06
542.361	188.06
542.575	168.06
542.789	135.06
543.002	127.06
543.216	139.06
543.43	133.06
543.644	130.06
543.857	154.06
544.071	153.06
544.285	153.06
544.498	172.06
544.712	160.06
544.925	161.06
545.139	154.06
545.352	161.06
545.566	162.06
545.779	167.06
545.993	159.06
546.206	150.06
546.42	158.06
546.633	172.06
546.847	157.06
547.06	176.06
547.274	168.06
547.487	170.06
547.7	169.06
547.914	174.06
548.127	162.06
548.34	159.06
548.554	161.06
548.767	164.06
548.98	161.06
549.193	150.06
549.407	158.06
549.62	162.06
549.833	137.06
550.046	151.06
550.259	165.06
550.473	140.06
550.686	162.06
550.899	156.06
551.112	152.06
551.325	146.06
551.538	128.06
551.751	129.06
551.964	125.06
552.177	117.06
552.39	140.06
552.603	136.06
552.816	151.06
553.029	146.06
553.242	157.06
553.455	157.06
553.667	140.06
553.88	149.06
554.093	149.06
554.306	138.06
554.519	144.06
554.732	134.06
554.944	150.06
555.157	152.06
555.37	143.06
555.583	154.06
555.795	146.06
556.008	129.06
556.221	129.06
556.433	133.06
556.646	144.06
556.859	133.06
557.071	148.06
557.284	141.06
557.496	157.06
557.709	139.06
557.921	148.06
558.134	149.06
558.346	128.06
558.559	129.06
558.771	147.06
558.984	148.06
559.196	129.06
559.409	129.06
559.621	135.06
559.833	117.06
560.046	117.06
560.258	134.06
560.47	125.06
560.683	126.06
560.895	128.06
561.107	123.06
561.32	132.06
561.532	130.06
561.744	154.06
561.956	136.06
562.168	140.06
562.381	124.06
562.593	121.06
562.805	121.06
563.017	124.06
563.229	130.06
563.441	130.06
563.653	132.06
563.865	128.06
564.077	132.06
564.289	117.06
564.501	114.06
564.713	121.06
564.925	122.06
565.137	105.06
565.349	116.06
565.561	125.06
565.773	116.06
565.985	114.06
566.197	106.06
566.408	110.06
566.62	129.06
566.832	117.06
567.044	125.06
567.255	127.06
567.467	123.06
567.679	126.06
567.891	116.06
568.102	96.06
568.314	109.06
568.526	98.06
568.737	102.06
568.949	88.06
569.161	80.06
569.372	83.06
569.584	87.06
569.795	76.06
570.007	83.06
570.218	98.06
570.43	87.06
570.641	97.06
570.853	107.06
571.064	107.06
571.276	101.06
571.487	116.06
571.698	104.06
571.91	114.06
572.121	98.06
572.333	106.06
572.544	97.06
572.755	107.06
572.966	99.06
573.178	86.06
573.389	83.06
573.6	94.06
573.811	105.06
574.023	76.06
574.234	93.06
574.445	101.06
574.656	88.06
574.867	89.06
575.078	93.06
575.289	100.06
575.501	105.06
575.712	90.06
575.923	93.06
576.134	96.06
576.345	93.06
576.556	106.06
576.767	99.06
576.978	93.06
577.188	94.06
577.399	97.06
577.61	81.06
577.821	96.06
578.032	86.06
578.243	88.06
578.454	90.06
578.665	92.06
578.875	88.06
579.086	82.06
579.297	86.06
579.508	94.06
579.718	85.06
579.929	83.06
580.14	90.06
580.35	90.06
580.561	96.06
580.772	95.06
580.982	95.06
581.193	103.06
581.403	89.06
581.614	101.06
581.825	83.06
582.035	88.06
582.246	90.06
582.456	105.06
582.667	105.06
582.877	106.06
583.087	96.06
583.298	86.06
583.508	95.06
583.719	99.06
583.929	90.06
584.139	90.06
584.35	80.06
584.56	78.06
584.77	85.06
584.981	91.06
585.191	91.06
585.401	82.06
585.611	89.06
585.821	77.06
586.032	91.06
586.242	84.06
586.452	86.06
586.662	69.06
586.872	77.06
587.082	85.06
587.292	81.06
587.502	94.06
587.713	92.06
587.923	92.06
588.133	106.06
588.343	85.06
588.553	92.06
588.762	105.06
588.972	96.06
589.182	107.06
589.392	96.06
589.602	83.06
589.812	89.06
590.022	93.06
590.232	68.06
590.441	81.06
590.651	89.06
590.861	86.06
591.071	86.06
591.281	91.06
591.49	86.06
591.7	67.06
591.91	73.06
592.119	93.06
592.329	91.06
592.539	87.06
592.748	93.06
592.958	77.06
593.167	97.06
593.377	93.06
593.587	95.06
593.796	87.06
594.006	78.06
594.215	95.06
594.424	94.06
594.634	84.06
594.843	78.06
595.053	98.06
595.262	92.06
595.472	97.06
595.681	96.06
595.89	73.06
596.1	99.06
596.309	89.06
596.518	91.06
596.727	104.06
596.937	92.06
597.146	86.06
597.355	92.06
597.564	100.06
597.774	87.06
597.983	99.06
598.192	83.06
598.401	88.06
598.61	89.06
598.819	102.06
599.028	89.06
599.237	90.06
599.446	102.06
599.655	94.06
599.864	102.06
600.073	83.06
600.282	82.06
600.491	75.06
600.7	96.06
600.909	95.06
601.118	97.06
601.327	103.06
601.536	108.06
601.745	119.06
601.953	110.06
602.162	106.06
602.371	111.06
602.58	110.06
602.789	131.06
602.997	106.06
603.206	119.06
603.415	104.06
603.623	99.06
603.832	102.06
604.041	101.06
604.249	96.06
604.458	93.06
604.666	95.06
604.875	92.06
605.084	101.06
605.292	121.06
605.501	123.06
605.709	114.06
605.918	128.06
606.126	114.06
606.334	94.06
606.543	124.06
606.751	112.06
606.96	115.06
607.168	115.06
607.376	124.06
607.585	118.06
607.793	116.06
608.001	116.06
608.21	113.06
608.418	105.06
608.626	120.06
608.834	120.06
609.043	117.06
609.251	108.06
609.459	105.06
609.667	105.06
609.875	123.06
610.083	124.06
610.291	116.06
610.499	113.06
610.707	122.06
610.916	110.06
611.124	113.06
611.332	110.06
611.54	110.06
611.748	108.06
611.955	120.06
612.163	122.06
612.371	116.06
612.579	121.06
612.787	115.06
612.995	120.06
613.203	114.06
613.411	99.06
613.618	114.06
613.826	132.06
614.034	114.06
614.242	120.06
614.449	99.06
614.657	117.06
614.865	114.06
615.072	120.06
615.28	121.06
615.488	113.06
615.695	99.06
615.903	113.06
616.111	113.06
616.318	133.06
616.526	102.06
616.733	128.06
616.941	103.06
617.148	114.06
617.356	114.06
617.563	117.06
617.771	105.06
617.978	103.06
618.185	102.06
618.393	122.06
618.6	110.06
618.807	118.06
619.015	101.06
619.222	111.06
619.429	104.06
619.637	108.06
619.844	107.06
620.051	104.06
620.258	100.06
620.466	116.06
620.673	114.06
620.88	108.06
621.087	116.06
621.294	120.06
621.501	117.06
621.708	108.06
621.915	114.06
622.122	99.06
622.329	99.06
622.536	97.06
622.743	103.06
622.95	119.06
623.157	104.06
623.364	106.06
623.571	104.06
623.778	101.06
623.985	104.06
624.192	115.06
624.399	109.06
624.606	108.06
624.812	109.06
625.019	100.06
625.226	126.06
625.433	101.06
625.639	97.06
625.846	103.06
626.053	101.06
626.259	104.06
626.466	101.06
626.673	94.06
626.879	76.06
627.086	94.06
627.293	117.06
627.499	97.06
627.706	100.06
627.912	103.06
628.119	104.06
628.325	105.06
628.532	102.06
628.738	106.06
628.945	105.06
629.151	113.06
629.357	115.06
629.564	98.06
629.77	101.06
629.976	97.06
630.183	93.06
630.389	108.06
630.595	88.06
630.802	102.06
631.008	103.06
631.214	102.06
631.42	102.06
631.627	109.06
631.833	97.06
632.039	102.06
632.245	96.06
632.451	98.06
632.657	88.06
632.863	116.06
633.069	116.06
633.275	101.06
633.481	99.06
633.688	101.06
633.893	105.06
634.099	104.06
634.305	89.06
634.511	100.06
634.717	97.06
634.923	104.06
635.129	104.06
635.335	102.06
635.541	93.06
635.747	85.06
635.952	95.06
636.158	99.06
636.364	106.06
636.57	96.06
636.775	114.06
636.981	91.06
637.187	103.06
637.392	103.06
637.598	92.06
637.804	118.06
638.009	91.06
638.215	99.06
638.421	117.06
638.626	96.06
638.832	97.06
639.037	97.06
639.243	120.06
639.448	97.06
639.654	121.06
639.859	101.06
640.065	108.06
640.27	102.06
640.475	109.06
640.681	98.06
640.886	101.06
641.091	90.06
641.297	104.06
641.502	91.06
641.707	121.06
641.913	92.06
642.118	92.06
642.323	101.06
642.528	109.06
642.733	112.06
642.939	88.06
643.144	106.06
643.349	104.06
643.554	96.06
643.759	99.06
643.964	97.06
644.169	95.06
644.374	101.06
644.579	94.06
644.784	100.06
644.989	113.06
645.194	94.06
645.399	87.06
645.604	95.06
645.809	110.06
646.014	98.06
646.219	105.06
646.423	84.06
646.628	106.06
646.833	91.06
647.038	88.06
647.243	102.06
647.447	93.06
647.652	85.06
647.857	103.06
648.062	95.06
648.266	101.06
648.471	92.06
648.676	94.06
648.88	91.06
649.085	101.06
649.289	106.06
649.494	93.06
649.698	99.06
649.903	93.06
650.107	95.06
650.312	109.06
650.516	102.06
650.721	97.06
650.925	89.06
651.13	95.06
651.334	100.06
651.539	103.06
651.743	110.06
651.947	104.06
652.152	102.06
652.356	102.06
652.56	94.06
652.764	101.06
652.969	84.06
653.173	99.06
653.377	78.06
653.581	90.06
653.785	108.06
653.99	92.06
654.194	90.06
654.398	94.06
654.602	104.06
654.806	102.06
655.01	93.06
655.214	99.06
655.418	91.06
655.622	99.06
655.826	94.06
656.03	97.06
656.234	93.06
656.438	82.06
656.642	86.06
656.846	75.06
657.049	87.06
657.253	90.06
657.457	100.06
657.661	94.06
657.865	94.06
658.068	88.06
658.272	69.06
658.476	84.06
658.68	101.06
658.883	81.06
659.087	91.06
659.291	72.06
659.494	104.06
659.698	93.06
659.901	91.06
660.105	81.06
660.309	83.06
660.512	73.06
660.716	93.06
660.919	83.06
661.123	79.06
661.326	98.06
661.53	91.06
661.733	96.06
661.936	89.06
662.14	100.06
662.343	82.06
662.546	85.06
662.75	81.06
662.953	89.06
663.156	85.06
663.36	80.06
663.563	87.06
663.766	93.06
663.969	88.06
664.173	90.06
664.376	71.06
664.579	94.06
664.782	77.06
664.985	82.06
665.188	73.06
665.391	77.06
665.594	99.06
665.797	82.06
666	89.06
666.203	83.06
666.406	86.06
666.609	69.06
666.812	74.06
667.015	90.06
667.218	96.06
667.421	85.06
667.624	84.06
667.827	98.06
668.03	62.06
668.232	79.06
668.435	81.06
668.638	89.06
668.841	81.06
669.043	76.06
669.246	70.06
669.449	78.06
669.651	89.06
669.854	78.06
670.057	82.06
670.259	90.06
670.462	72.06
670.665	86.06
670.867	80.06
671.07	84.06
671.272	101.06
671.475	78.06
671.677	80.06
671.88	87.06
672.082	77.06
672.284	84.06
672.487	88.06
672.689	90.06
672.892	97.06
