Data from Location2.07152019.Energy5.Lamp.07192019.3%Agarose_HRD10591_14-57-02-360.txt Node
Date: Fri Jul 19 14:57:02 EDT 2019
User: cochatt
Spectrometer: HR+D1059
Trigger mode: 1
Integration Time (sec): 1.000000E-1
Scans to average: 1
Electric dark correction enabled: true
Nonlinearity correction enabled: false
Boxcar width: 0
XAxis mode: Wavelengths
Number of Pixels in Spectrum: 2048
>>>>>Begin Spectral Data<<<<<
223.165	-4.94
223.4	-4.94
223.635	-4.94
223.869	-9.94
224.104	-15.94
224.338	-14.94
224.573	-28.94
224.808	-4.94
225.042	-2.94
225.277	-10.94
225.511	-2.94
225.746	-1.94
225.98	3.06
226.215	11.06
226.449	17.06
226.683	18.06
226.918	23.06
227.152	26.06
227.387	21.06
227.621	37.06
227.856	45.06
228.09	51.06
228.324	48.06
228.559	41.06
228.793	55.06
229.027	63.06
229.262	70.06
229.496	71.06
229.73	64.06
229.964	73.06
230.199	67.06
230.433	70.06
230.667	74.06
230.901	77.06
231.136	77.06
231.37	72.06
231.604	84.06
231.838	83.06
232.072	80.06
232.306	67.06
232.541	85.06
232.775	80.06
233.009	86.06
233.243	77.06
233.477	76.06
233.711	89.06
233.945	90.06
234.179	82.06
234.413	82.06
234.647	75.06
234.881	70.06
235.115	71.06
235.349	85.06
235.583	88.06
235.817	83.06
236.051	85.06
236.285	65.06
236.519	82.06
236.753	76.06
236.987	82.06
237.221	86.06
237.455	93.06
237.689	74.06
237.922	73.06
238.156	86.06
238.39	70.06
238.624	80.06
238.858	60.06
239.091	86.06
239.325	81.06
239.559	69.06
239.793	70.06
240.027	84.06
240.26	72.06
240.494	78.06
240.728	77.06
240.961	78.06
241.195	90.06
241.429	75.06
241.662	76.06
241.896	66.06
242.13	85.06
242.363	78.06
242.597	72.06
242.83	82.06
243.064	83.06
243.298	85.06
243.531	77.06
243.765	69.06
243.998	88.06
244.232	74.06
244.465	75.06
244.699	81.06
244.932	79.06
245.166	97.06
245.399	77.06
245.633	82.06
245.866	76.06
246.099	82.06
246.333	77.06
246.566	77.06
246.8	85.06
247.033	85.06
247.266	68.06
247.5	68.06
247.733	97.06
247.966	88.06
248.2	70.06
248.433	71.06
248.666	65.06
248.899	79.06
249.133	87.06
249.366	72.06
249.599	86.06
249.832	93.06
250.066	81.06
250.299	72.06
250.532	96.06
250.765	74.06
250.998	79.06
251.231	78.06
251.465	92.06
251.698	88.06
251.931	93.06
252.164	71.06
252.397	78.06
252.63	86.06
252.863	77.06
253.096	88.06
253.329	84.06
253.562	68.06
253.795	84.06
254.028	77.06
254.261	74.06
254.494	97.06
254.727	86.06
254.96	77.06
255.193	94.06
255.426	98.06
255.659	88.06
255.892	85.06
256.124	81.06
256.357	84.06
256.59	69.06
256.823	76.06
257.056	74.06
257.289	90.06
257.521	88.06
257.754	84.06
257.987	79.06
258.22	62.06
258.452	84.06
258.685	72.06
258.918	86.06
259.151	78.06
259.383	93.06
259.616	73.06
259.849	78.06
260.081	98.06
260.314	77.06
260.547	88.06
260.779	79.06
261.012	76.06
261.244	72.06
261.477	83.06
261.71	72.06
261.942	73.06
262.175	87.06
262.407	74.06
262.64	82.06
262.872	81.06
263.105	75.06
263.337	93.06
263.57	90.06
263.802	84.06
264.035	79.06
264.267	74.06
264.499	71.06
264.732	75.06
264.964	79.06
265.197	94.06
265.429	87.06
265.661	80.06
265.894	86.06
266.126	93.06
266.358	75.06
266.591	80.06
266.823	92.06
267.055	76.06
267.287	86.06
267.52	94.06
267.752	90.06
267.984	93.06
268.216	84.06
268.448	88.06
268.681	94.06
268.913	84.06
269.145	79.06
269.377	84.06
269.609	86.06
269.841	78.06
270.073	88.06
270.306	89.06
270.538	84.06
270.77	74.06
271.002	96.06
271.234	93.06
271.466	85.06
271.698	90.06
271.93	71.06
272.162	74.06
272.394	77.06
272.626	89.06
272.858	93.06
273.09	78.06
273.322	85.06
273.553	98.06
273.785	91.06
274.017	86.06
274.249	82.06
274.481	83.06
274.713	81.06
274.945	81.06
275.176	90.06
275.408	92.06
275.64	90.06
275.872	84.06
276.104	87.06
276.335	71.06
276.567	79.06
276.799	92.06
277.031	96.06
277.262	80.06
277.494	90.06
277.726	86.06
277.957	104.06
278.189	74.06
278.421	77.06
278.652	94.06
278.884	85.06
279.115	85.06
279.347	82.06
279.579	86.06
279.81	109.06
280.042	93.06
280.273	90.06
280.505	82.06
280.736	76.06
280.968	99.06
281.199	84.06
281.431	83.06
281.662	89.06
281.894	101.06
282.125	84.06
282.356	82.06
282.588	96.06
282.819	88.06
283.051	82.06
283.282	72.06
283.513	89.06
283.745	95.06
283.976	82.06
284.207	90.06
284.439	84.06
284.67	93.06
284.901	83.06
285.132	91.06
285.364	93.06
285.595	91.06
285.826	90.06
286.057	79.06
286.288	83.06
286.52	76.06
286.751	79.06
286.982	91.06
287.213	97.06
287.444	88.06
287.675	87.06
287.906	82.06
288.138	83.06
288.369	85.06
288.6	82.06
288.831	98.06
289.062	69.06
289.293	90.06
289.524	90.06
289.755	88.06
289.986	90.06
290.217	74.06
290.448	94.06
290.679	83.06
290.91	99.06
291.141	93.06
291.371	86.06
291.602	88.06
291.833	84.06
292.064	88.06
292.295	88.06
292.526	89.06
292.757	85.06
292.987	87.06
293.218	75.06
293.449	74.06
293.68	88.06
293.91	90.06
294.141	100.06
294.372	72.06
294.603	72.06
294.833	88.06
295.064	90.06
295.295	87.06
295.525	76.06
295.756	71.06
295.987	91.06
296.217	78.06
296.448	95.06
296.679	83.06
296.909	83.06
297.14	78.06
297.37	89.06
297.601	91.06
297.831	89.06
298.062	94.06
298.292	92.06
298.523	74.06
298.753	81.06
298.984	95.06
299.214	88.06
299.445	88.06
299.675	72.06
299.905	68.06
300.136	93.06
300.366	92.06
300.597	75.06
300.827	94.06
301.057	86.06
301.288	85.06
301.518	84.06
301.748	84.06
301.979	83.06
302.209	83.06
302.439	92.06
302.669	84.06
302.9	89.06
303.13	85.06
303.36	69.06
303.59	79.06
303.82	80.06
304.051	91.06
304.281	91.06
304.511	89.06
304.741	72.06
304.971	87.06
305.201	76.06
305.431	75.06
305.661	81.06
305.891	78.06
306.121	72.06
306.352	89.06
306.582	76.06
306.812	98.06
307.042	81.06
307.272	93.06
307.502	81.06
307.731	76.06
307.961	88.06
308.191	73.06
308.421	90.06
308.651	85.06
308.881	82.06
309.111	97.06
309.341	82.06
309.571	94.06
309.8	78.06
310.03	77.06
310.26	86.06
310.49	92.06
310.72	84.06
310.949	93.06
311.179	76.06
311.409	84.06
311.639	81.06
311.868	91.06
312.098	107.06
312.328	93.06
312.557	93.06
312.787	77.06
313.017	93.06
313.246	84.06
313.476	87.06
313.706	80.06
313.935	96.06
314.165	77.06
314.394	81.06
314.624	86.06
314.853	93.06
315.083	76.06
315.312	76.06
315.542	77.06
315.771	100.06
316.001	88.06
316.23	81.06
316.46	88.06
316.689	89.06
316.919	75.06
317.148	88.06
317.377	100.06
317.607	90.06
317.836	96.06
318.065	81.06
318.295	71.06
318.524	85.06
318.753	106.06
318.983	90.06
319.212	78.06
319.441	88.06
319.67	91.06
319.9	87.06
320.129	87.06
320.358	89.06
320.587	81.06
320.816	88.06
321.046	96.06
321.275	84.06
321.504	86.06
321.733	87.06
321.962	90.06
322.191	95.06
322.42	76.06
322.649	86.06
322.878	90.06
323.108	86.06
323.337	78.06
323.566	108.06
323.795	86.06
324.024	81.06
324.253	93.06
324.482	92.06
324.71	96.06
324.939	93.06
325.168	76.06
325.397	82.06
325.626	98.06
325.855	74.06
326.084	93.06
326.313	84.06
326.542	82.06
326.77	86.06
326.999	98.06
327.228	78.06
327.457	89.06
327.686	92.06
327.914	91.06
328.143	88.06
328.372	86.06
328.6	84.06
328.829	83.06
329.058	88.06
329.287	89.06
329.515	92.06
329.744	90.06
329.972	98.06
330.201	78.06
330.43	77.06
330.658	83.06
330.887	100.06
331.115	78.06
331.344	60.06
331.572	87.06
331.801	86.06
332.03	87.06
332.258	74.06
332.486	72.06
332.715	101.06
332.943	84.06
333.172	73.06
333.4	89.06
333.629	97.06
333.857	85.06
334.085	84.06
334.314	83.06
334.542	90.06
334.771	84.06
334.999	88.06
335.227	80.06
335.455	93.06
335.684	90.06
335.912	85.06
336.14	84.06
336.369	93.06
336.597	84.06
336.825	88.06
337.053	86.06
337.281	88.06
337.51	73.06
337.738	89.06
337.966	87.06
338.194	84.06
338.422	86.06
338.65	85.06
338.878	93.06
339.106	76.06
339.334	97.06
339.562	72.06
339.79	87.06
340.018	79.06
340.246	93.06
340.474	85.06
340.702	89.06
340.93	81.06
341.158	91.06
341.386	84.06
341.614	81.06
341.842	86.06
342.07	85.06
342.298	92.06
342.526	98.06
342.754	90.06
342.981	69.06
343.209	70.06
343.437	92.06
343.665	86.06
343.893	78.06
344.12	84.06
344.348	85.06
344.576	90.06
344.804	83.06
345.031	95.06
345.259	86.06
345.487	97.06
345.714	88.06
345.942	88.06
346.17	83.06
346.397	92.06
346.625	93.06
346.853	75.06
347.08	86.06
347.308	89.06
347.535	93.06
347.763	88.06
347.99	84.06
348.218	94.06
348.445	101.06
348.673	102.06
348.9	78.06
349.128	90.06
349.355	88.06
349.583	87.06
349.81	87.06
350.037	73.06
350.265	97.06
350.492	90.06
350.72	92.06
350.947	94.06
351.174	99.06
351.402	83.06
351.629	89.06
351.856	88.06
352.083	77.06
352.311	75.06
352.538	86.06
352.765	89.06
352.992	84.06
353.22	93.06
353.447	70.06
353.674	90.06
353.901	83.06
354.128	89.06
354.355	104.06
354.583	95.06
354.81	77.06
355.037	87.06
355.264	93.06
355.491	78.06
355.718	79.06
355.945	77.06
356.172	79.06
356.399	79.06
356.626	79.06
356.853	79.06
357.08	93.06
357.307	81.06
357.534	74.06
357.761	89.06
357.988	84.06
358.215	85.06
358.441	92.06
358.668	76.06
358.895	79.06
359.122	105.06
359.349	88.06
359.576	89.06
359.802	91.06
360.029	91.06
360.256	91.06
360.483	77.06
360.709	97.06
360.936	99.06
361.163	75.06
361.39	76.06
361.616	83.06
361.843	80.06
362.07	108.06
362.296	101.06
362.523	80.06
362.749	89.06
362.976	86.06
363.203	104.06
363.429	79.06
363.656	98.06
363.882	87.06
364.109	92.06
364.335	97.06
364.562	78.06
364.788	95.06
365.015	93.06
365.241	76.06
365.468	88.06
365.694	82.06
365.92	77.06
366.147	85.06
366.373	88.06
366.599	105.06
366.826	90.06
367.052	78.06
367.278	97.06
367.505	96.06
367.731	89.06
367.957	85.06
368.184	109.06
368.41	88.06
368.636	96.06
368.862	90.06
369.089	66.06
369.315	74.06
369.541	87.06
369.767	92.06
369.993	96.06
370.219	103.06
370.445	86.06
370.672	104.06
370.898	90.06
371.124	75.06
371.35	99.06
371.576	87.06
371.802	102.06
372.028	93.06
372.254	102.06
372.48	89.06
372.706	89.06
372.932	91.06
373.158	92.06
373.384	100.06
373.61	92.06
373.835	94.06
374.061	99.06
374.287	89.06
374.513	94.06
374.739	88.06
374.965	96.06
375.191	98.06
375.416	101.06
375.642	113.06
375.868	96.06
376.094	100.06
376.319	102.06
376.545	102.06
376.771	90.06
376.997	100.06
377.222	92.06
377.448	94.06
377.674	89.06
377.899	92.06
378.125	93.06
378.35	91.06
378.576	92.06
378.802	86.06
379.027	110.06
379.253	97.06
379.478	91.06
379.704	89.06
379.929	103.06
380.155	100.06
380.38	97.06
380.606	116.06
380.831	103.06
381.057	109.06
381.282	100.06
381.507	100.06
381.733	102.06
381.958	102.06
382.184	109.06
382.409	91.06
382.634	96.06
382.86	86.06
383.085	102.06
383.31	90.06
383.535	114.06
383.761	99.06
383.986	93.06
384.211	92.06
384.436	112.06
384.662	88.06
384.887	98.06
385.112	92.06
385.337	104.06
385.562	99.06
385.787	100.06
386.013	99.06
386.238	94.06
386.463	105.06
386.688	94.06
386.913	108.06
387.138	89.06
387.363	94.06
387.588	108.06
387.813	91.06
388.038	101.06
388.263	105.06
388.488	94.06
388.713	106.06
388.938	106.06
389.163	88.06
389.387	107.06
389.612	99.06
389.837	113.06
390.062	96.06
390.287	122.06
390.512	102.06
390.736	115.06
390.961	97.06
391.186	99.06
391.411	105.06
391.636	128.06
391.86	98.06
392.085	104.06
392.31	101.06
392.534	119.06
392.759	110.06
392.984	114.06
393.208	114.06
393.433	103.06
393.658	102.06
393.882	115.06
394.107	94.06
394.331	105.06
394.556	107.06
394.78	105.06
395.005	100.06
395.229	106.06
395.454	100.06
395.678	99.06
395.903	106.06
396.127	116.06
396.352	92.06
396.576	101.06
396.801	110.06
397.025	114.06
397.249	118.06
397.474	125.06
397.698	118.06
397.922	121.06
398.147	113.06
398.371	116.06
398.595	114.06
398.82	105.06
399.044	110.06
399.268	125.06
399.492	123.06
399.717	117.06
399.941	113.06
400.165	104.06
400.389	104.06
400.613	107.06
400.837	112.06
401.062	112.06
401.286	119.06
401.51	105.06
401.734	126.06
401.958	126.06
402.182	100.06
402.406	107.06
402.63	111.06
402.854	124.06
403.078	114.06
403.302	118.06
403.526	107.06
403.75	110.06
403.974	109.06
404.198	113.06
404.422	116.06
404.645	118.06
404.869	119.06
405.093	120.06
405.317	115.06
405.541	127.06
405.765	116.06
405.988	124.06
406.212	132.06
406.436	115.06
406.66	115.06
406.883	109.06
407.107	107.06
407.331	119.06
407.555	125.06
407.778	116.06
408.002	114.06
408.226	125.06
408.449	113.06
408.673	128.06
408.896	136.06
409.12	116.06
409.344	132.06
409.567	122.06
409.791	108.06
410.014	122.06
410.238	130.06
410.461	118.06
410.685	124.06
410.908	125.06
411.132	118.06
411.355	107.06
411.578	126.06
411.802	131.06
412.025	120.06
412.249	118.06
412.472	117.06
412.695	126.06
412.919	123.06
413.142	122.06
413.365	132.06
413.589	126.06
413.812	140.06
414.035	122.06
414.258	134.06
414.482	134.06
414.705	130.06
414.928	128.06
415.151	125.06
415.374	117.06
415.597	123.06
415.821	122.06
416.044	133.06
416.267	131.06
416.49	124.06
416.713	123.06
416.936	129.06
417.159	124.06
417.382	132.06
417.605	121.06
417.828	130.06
418.051	122.06
418.274	120.06
418.497	118.06
418.72	115.06
418.943	138.06
419.166	133.06
419.389	132.06
419.611	138.06
419.834	124.06
420.057	144.06
420.28	132.06
420.503	135.06
420.726	148.06
420.948	144.06
421.171	143.06
421.394	133.06
421.617	144.06
421.839	134.06
422.062	130.06
422.285	139.06
422.507	130.06
422.73	128.06
422.953	127.06
423.175	123.06
423.398	110.06
423.621	139.06
423.843	144.06
424.066	141.06
424.288	150.06
424.511	147.06
424.733	140.06
424.956	133.06
425.178	136.06
425.401	130.06
425.623	128.06
425.846	134.06
426.068	136.06
426.291	124.06
426.513	135.06
426.735	132.06
426.958	128.06
427.18	145.06
427.402	140.06
427.625	130.06
427.847	133.06
428.069	140.06
428.292	126.06
428.514	140.06
428.736	122.06
428.958	131.06
429.181	130.06
429.403	114.06
429.625	128.06
429.847	135.06
430.069	123.06
430.292	127.06
430.514	133.06
430.736	128.06
430.958	138.06
431.18	147.06
431.402	120.06
431.624	124.06
431.846	126.06
432.068	100.06
432.29	97.06
432.512	106.06
432.734	121.06
432.956	148.06
433.178	142.06
433.4	131.06
433.622	126.06
433.844	126.06
434.066	111.06
434.287	107.06
434.509	103.06
434.731	91.06
434.953	109.06
435.175	113.06
435.397	144.06
435.618	122.06
435.84	113.06
436.062	107.06
436.284	132.06
436.505	133.06
436.727	124.06
436.949	131.06
437.17	144.06
437.392	145.06
437.614	123.06
437.835	127.06
438.057	115.06
438.278	114.06
438.5	121.06
438.721	133.06
438.943	146.06
439.165	150.06
439.386	152.06
439.608	138.06
439.829	134.06
440.05	157.06
440.272	147.06
440.493	153.06
440.715	139.06
440.936	148.06
441.158	148.06
441.379	156.06
441.6	143.06
441.822	143.06
442.043	151.06
442.264	127.06
442.486	137.06
442.707	141.06
442.928	137.06
443.149	147.06
443.371	138.06
443.592	145.06
443.813	142.06
444.034	153.06
444.255	136.06
444.476	132.06
444.698	127.06
444.919	144.06
445.14	265.06
445.361	204.06
445.582	153.06
445.803	153.06
446.024	154.06
446.245	162.06
446.466	161.06
446.687	168.06
446.908	162.06
447.129	137.06
447.35	146.06
447.571	156.06
447.792	138.06
448.013	138.06
448.234	143.06
448.455	141.06
448.675	127.06
448.896	147.06
449.117	139.06
449.338	150.06
449.559	138.06
449.779	140.06
450	148.06
450.221	152.06
450.442	132.06
450.662	140.06
450.883	147.06
451.104	136.06
451.324	130.06
451.545	122.06
451.766	132.06
451.986	126.06
452.207	131.06
452.428	118.06
452.648	126.06
452.869	132.06
453.089	107.06
453.31	97.06
453.53	104.06
453.751	111.06
453.971	102.06
454.192	126.06
454.412	110.06
454.633	104.06
454.853	114.06
455.073	128.06
455.294	130.06
455.514	126.06
455.734	125.06
455.955	113.06
456.175	118.06
456.395	108.06
456.616	111.06
456.836	114.06
457.056	101.06
457.276	111.06
457.497	92.06
457.717	109.06
457.937	112.06
458.157	104.06
458.377	112.06
458.598	109.06
458.818	99.06
459.038	88.06
459.258	86.06
459.478	86.06
459.698	110.06
459.918	109.06
460.138	108.06
460.358	105.06
460.578	122.06
460.798	128.06
461.018	112.06
461.238	111.06
461.458	113.06
461.678	123.06
461.898	108.06
462.118	116.06
462.338	115.06
462.558	115.06
462.777	111.06
462.997	118.06
463.217	105.06
463.437	114.06
463.657	117.06
463.876	112.06
464.096	122.06
464.316	107.06
464.536	118.06
464.755	122.06
464.975	109.06
465.195	107.06
465.414	118.06
465.634	117.06
465.854	127.06
466.073	136.06
466.293	124.06
466.512	122.06
466.732	121.06
466.951	129.06
467.171	140.06
467.391	135.06
467.61	133.06
467.829	139.06
468.049	129.06
468.268	146.06
468.488	127.06
468.707	131.06
468.927	147.06
469.146	149.06
469.365	143.06
469.585	136.06
469.804	138.06
470.023	140.06
470.243	138.06
470.462	135.06
470.681	143.06
470.901	134.06
471.12	153.06
471.339	140.06
471.558	128.06
471.777	146.06
471.997	133.06
472.216	128.06
472.435	119.06
472.654	100.06
472.873	113.06
473.092	122.06
473.311	115.06
473.53	123.06
473.749	127.06
473.968	129.06
474.187	118.06
474.406	122.06
474.625	134.06
474.844	145.06
475.063	130.06
475.282	134.06
475.501	122.06
475.72	116.06
475.939	113.06
476.158	119.06
476.377	121.06
476.596	116.06
476.814	118.06
477.033	111.06
477.252	116.06
477.471	123.06
477.69	128.06
477.908	148.06
478.127	134.06
478.346	134.06
478.564	151.06
478.783	124.06
479.002	127.06
479.22	128.06
479.439	137.06
479.658	114.06
479.876	123.06
480.095	115.06
480.313	116.06
480.532	126.06
480.751	104.06
480.969	94.06
481.188	86.06
481.406	99.06
481.624	88.06
481.843	103.06
482.061	99.06
482.28	108.06
482.498	118.06
482.717	116.06
482.935	127.06
483.153	150.06
483.372	149.06
483.59	155.06
483.808	142.06
484.027	128.06
484.245	124.06
484.463	153.06
484.681	161.06
484.9	140.06
485.118	142.06
485.336	125.06
485.554	122.06
485.772	101.06
485.99	106.06
486.209	105.06
486.427	104.06
486.645	110.06
486.863	132.06
487.081	142.06
487.299	129.06
487.517	132.06
487.735	147.06
487.953	180.06
488.171	189.06
488.389	181.06
488.607	143.06
488.825	138.06
489.043	130.06
489.261	127.06
489.479	139.06
489.696	135.06
489.914	151.06
490.132	143.06
490.35	143.06
490.568	159.06
490.786	160.06
491.003	176.06
491.221	172.06
491.439	184.06
491.657	193.06
491.874	204.06
492.092	214.06
492.31	258.06
492.527	224.06
492.745	185.06
492.963	194.06
493.18	201.06
493.398	190.06
493.615	177.06
493.833	181.06
494.05	172.06
494.268	168.06
494.485	177.06
494.703	172.06
494.92	171.06
495.138	162.06
495.355	156.06
495.573	188.06
495.79	179.06
496.008	170.06
496.225	160.06
496.442	166.06
496.66	159.06
496.877	160.06
497.094	171.06
497.312	180.06
497.529	164.06
497.746	134.06
497.963	151.06
498.181	150.06
498.398	124.06
498.615	112.06
498.832	118.06
499.049	120.06
499.267	120.06
499.484	127.06
499.701	117.06
499.918	142.06
500.135	136.06
500.352	145.06
500.569	142.06
500.786	136.06
501.003	153.06
501.22	141.06
501.437	147.06
501.654	136.06
501.871	148.06
502.088	130.06
502.305	143.06
502.522	128.06
502.739	126.06
502.956	135.06
503.172	125.06
503.389	113.06
503.606	125.06
503.823	121.06
504.04	121.06
504.256	123.06
504.473	114.06
504.69	128.06
504.907	120.06
505.123	126.06
505.34	118.06
505.557	110.06
505.773	124.06
505.99	130.06
506.207	134.06
506.423	123.06
506.64	132.06
506.856	124.06
507.073	119.06
507.289	113.06
507.506	119.06
507.722	105.06
507.939	116.06
508.155	120.06
508.372	129.06
508.588	128.06
508.805	109.06
509.021	84.06
509.238	116.06
509.454	117.06
509.67	114.06
509.887	103.06
510.103	98.06
510.319	89.06
510.536	114.06
510.752	103.06
510.968	91.06
511.184	85.06
511.401	70.06
511.617	99.06
511.833	92.06
512.049	90.06
512.265	100.06
512.481	88.06
512.698	97.06
512.914	88.06
513.13	106.06
513.346	85.06
513.562	93.06
513.778	94.06
513.994	90.06
514.21	108.06
514.426	101.06
514.642	96.06
514.858	101.06
515.074	83.06
515.29	92.06
515.506	92.06
515.721	95.06
515.937	86.06
516.153	81.06
516.369	88.06
516.585	79.06
516.801	94.06
517.016	114.06
517.232	91.06
517.448	100.06
517.664	78.06
517.879	84.06
518.095	89.06
518.311	89.06
518.527	94.06
518.742	113.06
518.958	107.06
519.173	103.06
519.389	113.06
519.605	111.06
519.82	119.06
520.036	108.06
520.251	99.06
520.467	104.06
520.682	100.06
520.898	90.06
521.113	108.06
521.329	81.06
521.544	95.06
521.76	83.06
521.975	105.06
522.19	100.06
522.406	92.06
522.621	99.06
522.836	100.06
523.052	104.06
523.267	109.06
523.482	113.06
523.698	112.06
523.913	115.06
524.128	121.06
524.343	115.06
524.559	118.06
524.774	124.06
524.989	125.06
525.204	124.06
525.419	116.06
525.634	103.06
525.849	106.06
526.064	101.06
526.28	104.06
526.495	90.06
526.71	84.06
526.925	73.06
527.14	102.06
527.355	87.06
527.57	84.06
527.785	94.06
527.999	98.06
528.214	93.06
528.429	118.06
528.644	132.06
528.859	134.06
529.074	154.06
529.289	161.06
529.503	147.06
529.718	133.06
529.933	119.06
530.148	94.06
530.363	97.06
530.577	84.06
530.792	86.06
531.007	84.06
531.221	91.06
531.436	86.06
531.651	100.06
531.865	89.06
532.08	84.06
532.295	90.06
532.509	87.06
532.724	76.06
532.938	97.06
533.153	91.06
533.367	111.06
533.582	116.06
533.796	103.06
534.011	107.06
534.225	96.06
534.44	101.06
534.654	99.06
534.868	97.06
535.083	96.06
535.297	105.06
535.511	101.06
535.726	103.06
535.94	88.06
536.154	94.06
536.369	92.06
536.583	92.06
536.797	84.06
537.011	107.06
537.225	86.06
537.44	86.06
537.654	98.06
537.868	94.06
538.082	110.06
538.296	101.06
538.51	91.06
538.724	118.06
538.938	116.06
539.153	124.06
539.367	129.06
539.581	107.06
539.795	104.06
540.009	109.06
540.222	119.06
540.436	117.06
540.65	120.06
540.864	114.06
541.078	128.06
541.292	140.06
541.506	171.06
541.72	160.06
541.934	178.06
542.147	191.06
542.361	167.06
542.575	154.06
542.789	154.06
543.002	136.06
543.216	147.06
543.43	125.06
543.644	133.06
543.857	134.06
544.071	159.06
544.285	168.06
544.498	154.06
544.712	154.06
544.925	150.06
545.139	165.06
545.352	145.06
545.566	154.06
545.779	171.06
545.993	160.06
546.206	158.06
546.42	160.06
546.633	163.06
546.847	171.06
547.06	158.06
547.274	165.06
547.487	164.06
547.7	172.06
547.914	155.06
548.127	152.06
548.34	172.06
548.554	151.06
548.767	153.06
548.98	140.06
549.193	142.06
549.407	149.06
549.62	148.06
549.833	148.06
550.046	162.06
550.259	154.06
550.473	163.06
550.686	146.06
550.899	152.06
551.112	148.06
551.325	142.06
551.538	124.06
551.751	123.06
551.964	121.06
552.177	131.06
552.39	143.06
552.603	146.06
552.816	153.06
553.029	150.06
553.242	145.06
553.455	160.06
553.667	167.06
553.88	159.06
554.093	147.06
554.306	137.06
554.519	152.06
554.732	140.06
554.944	152.06
555.157	147.06
555.37	156.06
555.583	150.06
555.795	125.06
556.008	139.06
556.221	140.06
556.433	130.06
556.646	148.06
556.859	142.06
557.071	136.06
557.284	148.06
557.496	151.06
557.709	153.06
557.921	151.06
558.134	151.06
558.346	152.06
558.559	126.06
558.771	135.06
558.984	144.06
559.196	132.06
559.409	124.06
559.621	130.06
559.833	124.06
560.046	134.06
560.258	128.06
560.47	137.06
560.683	122.06
560.895	140.06
561.107	136.06
561.32	128.06
561.532	129.06
561.744	148.06
561.956	133.06
562.168	130.06
562.381	123.06
562.593	139.06
562.805	136.06
563.017	136.06
563.229	129.06
563.441	109.06
563.653	124.06
563.865	125.06
564.077	125.06
564.289	135.06
564.501	120.06
564.713	112.06
564.925	121.06
565.137	123.06
565.349	122.06
565.561	119.06
565.773	130.06
565.985	136.06
566.197	128.06
566.408	119.06
566.62	125.06
566.832	122.06
567.044	115.06
567.255	119.06
567.467	121.06
567.679	123.06
567.891	117.06
568.102	97.06
568.314	85.06
568.526	85.06
568.737	85.06
568.949	97.06
569.161	87.06
569.372	93.06
569.584	88.06
569.795	60.06
570.007	104.06
570.218	93.06
570.43	102.06
570.641	82.06
570.853	96.06
571.064	101.06
571.276	104.06
571.487	93.06
571.698	90.06
571.91	112.06
572.121	108.06
572.333	113.06
572.544	103.06
572.755	98.06
572.966	101.06
573.178	78.06
573.389	88.06
573.6	100.06
573.811	85.06
574.023	86.06
574.234	93.06
574.445	96.06
574.656	100.06
574.867	102.06
575.078	90.06
575.289	107.06
575.501	98.06
575.712	95.06
575.923	77.06
576.134	99.06
576.345	105.06
576.556	108.06
576.767	97.06
576.978	105.06
577.188	113.06
577.399	99.06
577.61	98.06
577.821	86.06
578.032	95.06
578.243	98.06
578.454	93.06
578.665	93.06
578.875	77.06
579.086	77.06
579.297	81.06
579.508	82.06
579.718	83.06
579.929	93.06
580.14	97.06
580.35	96.06
580.561	90.06
580.772	103.06
580.982	88.06
581.193	101.06
581.403	84.06
581.614	82.06
581.825	97.06
582.035	100.06
582.246	96.06
582.456	98.06
582.667	90.06
582.877	92.06
583.087	81.06
583.298	79.06
583.508	99.06
583.719	88.06
583.929	78.06
584.139	92.06
584.35	99.06
584.56	88.06
584.77	95.06
584.981	78.06
585.191	101.06
585.401	89.06
585.611	82.06
585.821	91.06
586.032	90.06
586.242	74.06
586.452	96.06
586.662	91.06
586.872	85.06
587.082	71.06
587.292	77.06
587.502	93.06
587.713	83.06
587.923	88.06
588.133	85.06
588.343	94.06
588.553	97.06
588.762	89.06
588.972	85.06
589.182	90.06
589.392	94.06
589.602	97.06
589.812	75.06
590.022	97.06
590.232	86.06
590.441	78.06
590.651	96.06
590.861	66.06
591.071	90.06
591.281	98.06
591.49	83.06
591.7	94.06
591.91	92.06
592.119	71.06
592.329	92.06
592.539	94.06
592.748	92.06
592.958	82.06
593.167	90.06
593.377	81.06
593.587	83.06
593.796	79.06
594.006	87.06
594.215	93.06
594.424	94.06
594.634	99.06
594.843	106.06
595.053	100.06
595.262	99.06
595.472	96.06
595.681	96.06
595.89	100.06
596.1	99.06
596.309	92.06
596.518	112.06
596.727	108.06
596.937	96.06
597.146	99.06
597.355	88.06
597.564	78.06
597.774	100.06
597.983	98.06
598.192	85.06
598.401	84.06
598.61	84.06
598.819	89.06
599.028	93.06
599.237	95.06
599.446	113.06
599.655	104.06
599.864	96.06
600.073	97.06
600.282	105.06
600.491	98.06
600.7	100.06
600.909	89.06
601.118	101.06
601.327	97.06
601.536	108.06
601.745	109.06
601.953	100.06
602.162	107.06
602.371	112.06
602.58	114.06
602.789	105.06
602.997	91.06
603.206	112.06
603.415	115.06
603.623	115.06
603.832	117.06
604.041	102.06
604.249	100.06
604.458	102.06
604.666	107.06
604.875	98.06
605.084	121.06
605.292	114.06
605.501	125.06
605.709	110.06
605.918	112.06
606.126	121.06
606.334	111.06
606.543	103.06
606.751	120.06
606.96	114.06
607.168	129.06
607.376	94.06
607.585	121.06
607.793	99.06
608.001	112.06
608.21	111.06
608.418	113.06
608.626	116.06
608.834	108.06
609.043	113.06
609.251	118.06
609.459	115.06
609.667	121.06
609.875	105.06
610.083	113.06
610.291	130.06
610.499	124.06
610.707	118.06
610.916	124.06
611.124	129.06
611.332	110.06
611.54	108.06
611.748	108.06
611.955	108.06
612.163	107.06
612.371	119.06
612.579	103.06
612.787	122.06
612.995	140.06
613.203	116.06
613.411	109.06
613.618	109.06
613.826	115.06
614.034	126.06
614.242	112.06
614.449	99.06
614.657	94.06
614.865	118.06
615.072	111.06
615.28	104.06
615.488	122.06
615.695	110.06
615.903	119.06
616.111	114.06
616.318	108.06
616.526	115.06
616.733	117.06
616.941	109.06
617.148	122.06
617.356	101.06
617.563	118.06
617.771	106.06
617.978	108.06
618.185	121.06
618.393	106.06
618.6	121.06
618.807	128.06
619.015	113.06
619.222	107.06
619.429	117.06
619.637	108.06
619.844	106.06
620.051	104.06
620.258	103.06
620.466	107.06
620.673	109.06
620.88	109.06
621.087	104.06
621.294	104.06
621.501	109.06
621.708	104.06
621.915	93.06
622.122	106.06
622.329	117.06
622.536	123.06
622.743	101.06
622.95	118.06
623.157	109.06
623.364	105.06
623.571	110.06
623.778	101.06
623.985	107.06
624.192	108.06
624.399	102.06
624.606	114.06
624.812	104.06
625.019	116.06
625.226	101.06
625.433	94.06
625.639	92.06
625.846	100.06
626.053	107.06
626.259	95.06
626.466	111.06
626.673	100.06
626.879	101.06
627.086	93.06
627.293	107.06
627.499	107.06
627.706	102.06
627.912	119.06
628.119	115.06
628.325	110.06
628.532	116.06
628.738	114.06
628.945	115.06
629.151	121.06
629.357	96.06
629.564	105.06
629.77	114.06
629.976	89.06
630.183	104.06
630.389	91.06
630.595	110.06
630.802	119.06
631.008	102.06
631.214	90.06
631.42	109.06
631.627	104.06
631.833	110.06
632.039	99.06
632.245	91.06
632.451	105.06
632.657	91.06
632.863	100.06
633.069	112.06
633.275	112.06
633.481	105.06
633.688	103.06
633.893	104.06
634.099	95.06
634.305	113.06
634.511	104.06
634.717	89.06
634.923	89.06
635.129	85.06
635.335	93.06
635.541	87.06
635.747	107.06
635.952	104.06
636.158	118.06
636.364	93.06
636.57	112.06
636.775	118.06
636.981	97.06
637.187	104.06
637.392	100.06
637.598	97.06
637.804	107.06
638.009	94.06
638.215	104.06
638.421	112.06
638.626	88.06
638.832	98.06
639.037	101.06
639.243	92.06
639.448	94.06
639.654	108.06
639.859	89.06
640.065	103.06
640.27	113.06
640.475	105.06
640.681	101.06
640.886	114.06
641.091	93.06
641.297	104.06
641.502	116.06
641.707	114.06
641.913	81.06
642.118	101.06
642.323	98.06
642.528	109.06
642.733	97.06
642.939	115.06
643.144	101.06
643.349	92.06
643.554	97.06
643.759	102.06
643.964	89.06
644.169	94.06
644.374	106.06
644.579	83.06
644.784	101.06
644.989	94.06
645.194	101.06
645.399	100.06
645.604	105.06
645.809	93.06
646.014	109.06
646.219	101.06
646.423	97.06
646.628	95.06
646.833	109.06
647.038	105.06
647.243	107.06
647.447	99.06
647.652	99.06
647.857	95.06
648.062	96.06
648.266	108.06
648.471	94.06
648.676	107.06
648.88	95.06
649.085	98.06
649.289	97.06
649.494	109.06
649.698	98.06
649.903	96.06
650.107	109.06
650.312	100.06
650.516	84.06
650.721	93.06
650.925	98.06
651.13	91.06
651.334	102.06
651.539	93.06
651.743	103.06
651.947	99.06
652.152	102.06
652.356	97.06
652.56	94.06
652.764	104.06
652.969	99.06
653.173	88.06
653.377	87.06
653.581	92.06
653.785	84.06
653.99	85.06
654.194	73.06
654.398	79.06
654.602	91.06
654.806	76.06
655.01	103.06
655.214	90.06
655.418	105.06
655.622	96.06
655.826	89.06
656.03	89.06
656.234	77.06
656.438	102.06
656.642	93.06
656.846	93.06
657.049	100.06
657.253	90.06
657.457	87.06
657.661	80.06
657.865	92.06
658.068	93.06
658.272	91.06
658.476	96.06
658.68	86.06
658.883	94.06
659.087	90.06
659.291	82.06
659.494	87.06
659.698	91.06
659.901	102.06
660.105	93.06
660.309	89.06
660.512	75.06
660.716	90.06
660.919	91.06
661.123	84.06
661.326	82.06
661.53	87.06
661.733	90.06
661.936	81.06
662.14	81.06
662.343	76.06
662.546	91.06
662.75	86.06
662.953	88.06
663.156	80.06
663.36	84.06
663.563	85.06
663.766	77.06
663.969	71.06
664.173	83.06
664.376	76.06
664.579	76.06
664.782	84.06
664.985	85.06
665.188	81.06
665.391	92.06
665.594	95.06
665.797	81.06
666	69.06
666.203	85.06
666.406	90.06
666.609	72.06
666.812	67.06
667.015	78.06
667.218	96.06
667.421	81.06
667.624	86.06
667.827	81.06
668.03	90.06
668.232	87.06
668.435	82.06
668.638	83.06
668.841	88.06
669.043	90.06
669.246	98.06
669.449	89.06
669.651	87.06
669.854	80.06
670.057	86.06
670.259	94.06
670.462	79.06
670.665	80.06
670.867	84.06
671.07	95.06
671.272	88.06
671.475	96.06
671.677	94.06
671.88	92.06
672.082	81.06
672.284	79.06
672.487	76.06
672.689	81.06
672.892	88.06
