Data from Location2.07152019.Energy5.Lamp.07192019.3%Agarose_HRD10591_14-57-41-359.txt Node
Date: Fri Jul 19 14:57:41 EDT 2019
User: cochatt
Spectrometer: HR+D1059
Trigger mode: 1
Integration Time (sec): 1.000000E-1
Scans to average: 1
Electric dark correction enabled: true
Nonlinearity correction enabled: false
Boxcar width: 0
XAxis mode: Wavelengths
Number of Pixels in Spectrum: 2048
>>>>>Begin Spectral Data<<<<<
223.165	-13.25
223.4	-13.25
223.635	-13.25
223.869	-21.25
224.104	-19.25
224.338	-6.25
224.573	-1.25
224.808	-17.25
225.042	-17.25
225.277	-3.25
225.511	-15.25
225.746	-7.25
225.98	15.75
226.215	12.75
226.449	17.75
226.683	21.75
226.918	21.75
227.152	31.75
227.387	19.75
227.621	40.75
227.856	28.75
228.09	19.75
228.324	46.75
228.559	51.75
228.793	56.75
229.027	58.75
229.262	71.75
229.496	80.75
229.73	56.75
229.964	66.75
230.199	64.75
230.433	81.75
230.667	69.75
230.901	71.75
231.136	72.75
231.37	81.75
231.604	82.75
231.838	69.75
232.072	84.75
232.306	59.75
232.541	87.75
232.775	84.75
233.009	70.75
233.243	85.75
233.477	80.75
233.711	79.75
233.945	83.75
234.179	74.75
234.413	72.75
234.647	72.75
234.881	75.75
235.115	54.75
235.349	84.75
235.583	66.75
235.817	81.75
236.051	80.75
236.285	58.75
236.519	75.75
236.753	74.75
236.987	78.75
237.221	68.75
237.455	70.75
237.689	73.75
237.922	73.75
238.156	62.75
238.39	70.75
238.624	70.75
238.858	76.75
239.091	70.75
239.325	87.75
239.559	74.75
239.793	80.75
240.027	84.75
240.26	69.75
240.494	58.75
240.728	92.75
240.961	73.75
241.195	80.75
241.429	81.75
241.662	81.75
241.896	77.75
242.13	69.75
242.363	79.75
242.597	72.75
242.83	72.75
243.064	58.75
243.298	67.75
243.531	68.75
243.765	64.75
243.998	62.75
244.232	74.75
244.465	81.75
244.699	66.75
244.932	74.75
245.166	72.75
245.399	66.75
245.633	60.75
245.866	71.75
246.099	79.75
246.333	71.75
246.566	80.75
246.8	63.75
247.033	82.75
247.266	73.75
247.5	54.75
247.733	71.75
247.966	60.75
248.2	74.75
248.433	67.75
248.666	75.75
248.899	82.75
249.133	70.75
249.366	87.75
249.599	87.75
249.832	67.75
250.066	75.75
250.299	82.75
250.532	69.75
250.765	76.75
250.998	79.75
251.231	62.75
251.465	73.75
251.698	82.75
251.931	65.75
252.164	58.75
252.397	67.75
252.63	62.75
252.863	74.75
253.096	76.75
253.329	80.75
253.562	76.75
253.795	78.75
254.028	73.75
254.261	78.75
254.494	74.75
254.727	95.75
254.96	64.75
255.193	78.75
255.426	71.75
255.659	63.75
255.892	70.75
256.124	70.75
256.357	69.75
256.59	66.75
256.823	73.75
257.056	78.75
257.289	79.75
257.521	72.75
257.754	69.75
257.987	74.75
258.22	77.75
258.452	74.75
258.685	76.75
258.918	87.75
259.151	84.75
259.383	73.75
259.616	79.75
259.849	73.75
260.081	87.75
260.314	83.75
260.547	76.75
260.779	83.75
261.012	81.75
261.244	72.75
261.477	83.75
261.71	89.75
261.942	69.75
262.175	67.75
262.407	79.75
262.64	72.75
262.872	92.75
263.105	90.75
263.337	73.75
263.57	68.75
263.802	79.75
264.035	77.75
264.267	69.75
264.499	65.75
264.732	78.75
264.964	69.75
265.197	82.75
265.429	64.75
265.661	77.75
265.894	67.75
266.126	65.75
266.358	92.75
266.591	76.75
266.823	80.75
267.055	77.75
267.287	63.75
267.52	77.75
267.752	81.75
267.984	86.75
268.216	78.75
268.448	78.75
268.681	81.75
268.913	86.75
269.145	100.75
269.377	88.75
269.609	80.75
269.841	68.75
270.073	81.75
270.306	88.75
270.538	85.75
270.77	89.75
271.002	81.75
271.234	75.75
271.466	78.75
271.698	90.75
271.93	62.75
272.162	75.75
272.394	75.75
272.626	76.75
272.858	84.75
273.09	72.75
273.322	70.75
273.553	69.75
273.785	85.75
274.017	83.75
274.249	80.75
274.481	70.75
274.713	79.75
274.945	91.75
275.176	78.75
275.408	92.75
275.64	78.75
275.872	60.75
276.104	81.75
276.335	73.75
276.567	56.75
276.799	81.75
277.031	86.75
277.262	76.75
277.494	82.75
277.726	83.75
277.957	77.75
278.189	79.75
278.421	74.75
278.652	68.75
278.884	81.75
279.115	73.75
279.347	95.75
279.579	71.75
279.81	75.75
280.042	78.75
280.273	78.75
280.505	56.75
280.736	59.75
280.968	78.75
281.199	78.75
281.431	69.75
281.662	67.75
281.894	78.75
282.125	82.75
282.356	87.75
282.588	75.75
282.819	80.75
283.051	81.75
283.282	82.75
283.513	78.75
283.745	68.75
283.976	74.75
284.207	86.75
284.439	72.75
284.67	75.75
284.901	78.75
285.132	77.75
285.364	67.75
285.595	88.75
285.826	64.75
286.057	84.75
286.288	91.75
286.52	80.75
286.751	84.75
286.982	71.75
287.213	86.75
287.444	72.75
287.675	76.75
287.906	83.75
288.138	90.75
288.369	84.75
288.6	84.75
288.831	68.75
289.062	83.75
289.293	78.75
289.524	68.75
289.755	62.75
289.986	88.75
290.217	78.75
290.448	71.75
290.679	83.75
290.91	91.75
291.141	67.75
291.371	76.75
291.602	80.75
291.833	74.75
292.064	69.75
292.295	72.75
292.526	63.75
292.757	82.75
292.987	79.75
293.218	75.75
293.449	67.75
293.68	67.75
293.91	82.75
294.141	68.75
294.372	76.75
294.603	80.75
294.833	79.75
295.064	92.75
295.295	74.75
295.525	82.75
295.756	85.75
295.987	94.75
296.217	72.75
296.448	77.75
296.679	79.75
296.909	83.75
297.14	83.75
297.37	90.75
297.601	84.75
297.831	86.75
298.062	72.75
298.292	68.75
298.523	78.75
298.753	76.75
298.984	70.75
299.214	80.75
299.445	72.75
299.675	71.75
299.905	75.75
300.136	80.75
300.366	72.75
300.597	76.75
300.827	67.75
301.057	81.75
301.288	88.75
301.518	83.75
301.748	80.75
301.979	90.75
302.209	83.75
302.439	79.75
302.669	68.75
302.9	82.75
303.13	87.75
303.36	76.75
303.59	79.75
303.82	92.75
304.051	88.75
304.281	80.75
304.511	71.75
304.741	92.75
304.971	81.75
305.201	82.75
305.431	84.75
305.661	62.75
305.891	88.75
306.121	83.75
306.352	77.75
306.582	76.75
306.812	76.75
307.042	70.75
307.272	76.75
307.502	55.75
307.731	85.75
307.961	80.75
308.191	83.75
308.421	72.75
308.651	82.75
308.881	88.75
309.111	79.75
309.341	71.75
309.571	78.75
309.8	98.75
310.03	82.75
310.26	80.75
310.49	71.75
310.72	82.75
310.949	83.75
311.179	74.75
311.409	78.75
311.639	80.75
311.868	88.75
312.098	87.75
312.328	79.75
312.557	85.75
312.787	72.75
313.017	90.75
313.246	76.75
313.476	80.75
313.706	78.75
313.935	84.75
314.165	81.75
314.394	84.75
314.624	74.75
314.853	88.75
315.083	81.75
315.312	84.75
315.542	87.75
315.771	84.75
316.001	74.75
316.23	70.75
316.46	83.75
316.689	85.75
316.919	81.75
317.148	77.75
317.377	93.75
317.607	86.75
317.836	85.75
318.065	74.75
318.295	74.75
318.524	82.75
318.753	80.75
318.983	84.75
319.212	87.75
319.441	84.75
319.67	81.75
319.9	78.75
320.129	65.75
320.358	86.75
320.587	66.75
320.816	85.75
321.046	80.75
321.275	68.75
321.504	80.75
321.733	84.75
321.962	67.75
322.191	90.75
322.42	84.75
322.649	84.75
322.878	83.75
323.108	84.75
323.337	90.75
323.566	75.75
323.795	79.75
324.024	82.75
324.253	76.75
324.482	61.75
324.71	79.75
324.939	69.75
325.168	82.75
325.397	79.75
325.626	71.75
325.855	74.75
326.084	75.75
326.313	78.75
326.542	90.75
326.77	78.75
326.999	100.75
327.228	79.75
327.457	74.75
327.686	80.75
327.914	63.75
328.143	86.75
328.372	76.75
328.6	81.75
328.829	88.75
329.058	87.75
329.287	71.75
329.515	69.75
329.744	82.75
329.972	74.75
330.201	64.75
330.43	75.75
330.658	76.75
330.887	74.75
331.115	74.75
331.344	84.75
331.572	74.75
331.801	85.75
332.03	88.75
332.258	84.75
332.486	72.75
332.715	78.75
332.943	70.75
333.172	78.75
333.4	86.75
333.629	78.75
333.857	78.75
334.085	65.75
334.314	85.75
334.542	80.75
334.771	80.75
334.999	82.75
335.227	70.75
335.455	81.75
335.684	86.75
335.912	77.75
336.14	86.75
336.369	79.75
336.597	86.75
336.825	72.75
337.053	74.75
337.281	72.75
337.51	80.75
337.738	74.75
337.966	77.75
338.194	87.75
338.422	78.75
338.65	82.75
338.878	93.75
339.106	70.75
339.334	70.75
339.562	77.75
339.79	97.75
340.018	78.75
340.246	84.75
340.474	82.75
340.702	73.75
340.93	85.75
341.158	86.75
341.386	82.75
341.614	66.75
341.842	85.75
342.07	69.75
342.298	84.75
342.526	86.75
342.754	79.75
342.981	76.75
343.209	77.75
343.437	80.75
343.665	71.75
343.893	89.75
344.12	90.75
344.348	87.75
344.576	85.75
344.804	75.75
345.031	83.75
345.259	73.75
345.487	76.75
345.714	62.75
345.942	74.75
346.17	79.75
346.397	63.75
346.625	64.75
346.853	70.75
347.08	76.75
347.308	101.75
347.535	81.75
347.763	86.75
347.99	79.75
348.218	87.75
348.445	69.75
348.673	91.75
348.9	69.75
349.128	73.75
349.355	82.75
349.583	76.75
349.81	71.75
350.037	81.75
350.265	86.75
350.492	82.75
350.72	77.75
350.947	82.75
351.174	85.75
351.402	82.75
351.629	87.75
351.856	81.75
352.083	70.75
352.311	91.75
352.538	85.75
352.765	88.75
352.992	77.75
353.22	62.75
353.447	79.75
353.674	76.75
353.901	82.75
354.128	70.75
354.355	70.75
354.583	72.75
354.81	78.75
355.037	85.75
355.264	79.75
355.491	86.75
355.718	75.75
355.945	79.75
356.172	82.75
356.399	67.75
356.626	64.75
356.853	69.75
357.08	77.75
357.307	80.75
357.534	66.75
357.761	80.75
357.988	89.75
358.215	72.75
358.441	83.75
358.668	96.75
358.895	76.75
359.122	80.75
359.349	79.75
359.576	79.75
359.802	76.75
360.029	85.75
360.256	74.75
360.483	71.75
360.709	84.75
360.936	90.75
361.163	81.75
361.39	76.75
361.616	85.75
361.843	77.75
362.07	63.75
362.296	78.75
362.523	66.75
362.749	60.75
362.976	77.75
363.203	89.75
363.429	80.75
363.656	91.75
363.882	75.75
364.109	83.75
364.335	82.75
364.562	74.75
364.788	83.75
365.015	68.75
365.241	73.75
365.468	68.75
365.694	83.75
365.92	88.75
366.147	76.75
366.373	70.75
366.599	62.75
366.826	75.75
367.052	90.75
367.278	75.75
367.505	87.75
367.731	82.75
367.957	90.75
368.184	79.75
368.41	85.75
368.636	99.75
368.862	91.75
369.089	84.75
369.315	79.75
369.541	88.75
369.767	85.75
369.993	78.75
370.219	85.75
370.445	76.75
370.672	82.75
370.898	98.75
371.124	68.75
371.35	87.75
371.576	70.75
371.802	86.75
372.028	88.75
372.254	90.75
372.48	83.75
372.706	79.75
372.932	89.75
373.158	77.75
373.384	100.75
373.61	94.75
373.835	91.75
374.061	92.75
374.287	88.75
374.513	80.75
374.739	92.75
374.965	75.75
375.191	99.75
375.416	78.75
375.642	77.75
375.868	88.75
376.094	90.75
376.319	91.75
376.545	82.75
376.771	97.75
376.997	103.75
377.222	92.75
377.448	91.75
377.674	86.75
377.899	81.75
378.125	98.75
378.35	88.75
378.576	91.75
378.802	83.75
379.027	85.75
379.253	77.75
379.478	88.75
379.704	88.75
379.929	94.75
380.155	86.75
380.38	85.75
380.606	79.75
380.831	99.75
381.057	90.75
381.282	91.75
381.507	75.75
381.733	82.75
381.958	86.75
382.184	77.75
382.409	92.75
382.634	79.75
382.86	83.75
383.085	93.75
383.31	102.75
383.535	98.75
383.761	88.75
383.986	88.75
384.211	94.75
384.436	94.75
384.662	86.75
384.887	89.75
385.112	91.75
385.337	94.75
385.562	78.75
385.787	99.75
386.013	90.75
386.238	101.75
386.463	109.75
386.688	76.75
386.913	83.75
387.138	85.75
387.363	96.75
387.588	100.75
387.813	86.75
388.038	101.75
388.263	83.75
388.488	85.75
388.713	88.75
388.938	86.75
389.163	82.75
389.387	95.75
389.612	79.75
389.837	90.75
390.062	90.75
390.287	95.75
390.512	88.75
390.736	94.75
390.961	83.75
391.186	93.75
391.411	99.75
391.636	110.75
391.86	97.75
392.085	100.75
392.31	105.75
392.534	89.75
392.759	106.75
392.984	106.75
393.208	93.75
393.433	84.75
393.658	90.75
393.882	90.75
394.107	95.75
394.331	99.75
394.556	102.75
394.78	97.75
395.005	108.75
395.229	101.75
395.454	94.75
395.678	97.75
395.903	97.75
396.127	90.75
396.352	106.75
396.576	110.75
396.801	87.75
397.025	103.75
397.249	92.75
397.474	84.75
397.698	106.75
397.922	114.75
398.147	116.75
398.371	112.75
398.595	103.75
398.82	112.75
399.044	106.75
399.268	98.75
399.492	111.75
399.717	98.75
399.941	103.75
400.165	102.75
400.389	110.75
400.613	122.75
400.837	103.75
401.062	109.75
401.286	108.75
401.51	103.75
401.734	106.75
401.958	97.75
402.182	96.75
402.406	115.75
402.63	106.75
402.854	125.75
403.078	117.75
403.302	98.75
403.526	106.75
403.75	100.75
403.974	96.75
404.198	125.75
404.422	111.75
404.645	113.75
404.869	98.75
405.093	108.75
405.317	103.75
405.541	118.75
405.765	114.75
405.988	112.75
406.212	103.75
406.436	104.75
406.66	113.75
406.883	120.75
407.107	107.75
407.331	115.75
407.555	103.75
407.778	108.75
408.002	113.75
408.226	115.75
408.449	118.75
408.673	112.75
408.896	112.75
409.12	106.75
409.344	108.75
409.567	108.75
409.791	106.75
410.014	94.75
410.238	100.75
410.461	100.75
410.685	129.75
410.908	114.75
411.132	104.75
411.355	118.75
411.578	97.75
411.802	97.75
412.025	128.75
412.249	109.75
412.472	113.75
412.695	106.75
412.919	100.75
413.142	112.75
413.365	122.75
413.589	132.75
413.812	133.75
414.035	124.75
414.258	113.75
414.482	123.75
414.705	116.75
414.928	100.75
415.151	114.75
415.374	112.75
415.597	116.75
415.821	122.75
416.044	117.75
416.267	128.75
416.49	125.75
416.713	117.75
416.936	131.75
417.159	118.75
417.382	110.75
417.605	110.75
417.828	110.75
418.051	116.75
418.274	127.75
418.497	118.75
418.72	121.75
418.943	126.75
419.166	139.75
419.389	144.75
419.611	125.75
419.834	136.75
420.057	107.75
420.28	129.75
420.503	130.75
420.726	124.75
420.948	116.75
421.171	115.75
421.394	125.75
421.617	121.75
421.839	133.75
422.062	135.75
422.285	123.75
422.507	123.75
422.73	115.75
422.953	125.75
423.175	137.75
423.398	112.75
423.621	132.75
423.843	120.75
424.066	131.75
424.288	128.75
424.511	123.75
424.733	138.75
424.956	137.75
425.178	133.75
425.401	119.75
425.623	116.75
425.846	126.75
426.068	131.75
426.291	120.75
426.513	137.75
426.735	122.75
426.958	126.75
427.18	119.75
427.402	130.75
427.625	130.75
427.847	136.75
428.069	115.75
428.292	133.75
428.514	120.75
428.736	122.75
428.958	140.75
429.181	119.75
429.403	142.75
429.625	115.75
429.847	136.75
430.069	135.75
430.292	118.75
430.514	129.75
430.736	124.75
430.958	132.75
431.18	113.75
431.402	124.75
431.624	119.75
431.846	104.75
432.068	99.75
432.29	110.75
432.512	101.75
432.734	122.75
432.956	119.75
433.178	140.75
433.4	135.75
433.622	128.75
433.844	118.75
434.066	125.75
434.287	95.75
434.509	88.75
434.731	86.75
434.953	96.75
435.175	112.75
435.397	126.75
435.618	115.75
435.84	113.75
436.062	116.75
436.284	129.75
436.505	128.75
436.727	114.75
436.949	130.75
437.17	118.75
437.392	128.75
437.614	132.75
437.835	100.75
438.057	96.75
438.278	118.75
438.5	118.75
438.721	126.75
438.943	141.75
439.165	134.75
439.386	140.75
439.608	142.75
439.829	155.75
440.05	140.75
440.272	124.75
440.493	136.75
440.715	130.75
440.936	149.75
441.158	133.75
441.379	123.75
441.6	128.75
441.822	131.75
442.043	148.75
442.264	142.75
442.486	129.75
442.707	132.75
442.928	146.75
443.149	126.75
443.371	132.75
443.592	136.75
443.813	135.75
444.034	131.75
444.255	135.75
444.476	132.75
444.698	142.75
444.919	131.75
445.14	230.75
445.361	188.75
445.582	146.75
445.803	131.75
446.024	140.75
446.245	145.75
446.466	153.75
446.687	166.75
446.908	157.75
447.129	152.75
447.35	154.75
447.571	130.75
447.792	144.75
448.013	142.75
448.234	124.75
448.455	133.75
448.675	137.75
448.896	130.75
449.117	144.75
449.338	151.75
449.559	134.75
449.779	124.75
450	124.75
450.221	126.75
450.442	148.75
450.662	132.75
450.883	132.75
451.104	126.75
451.324	126.75
451.545	128.75
451.766	109.75
451.986	129.75
452.207	132.75
452.428	123.75
452.648	111.75
452.869	122.75
453.089	110.75
453.31	108.75
453.53	108.75
453.751	88.75
453.971	98.75
454.192	108.75
454.412	109.75
454.633	101.75
454.853	103.75
455.073	119.75
455.294	123.75
455.514	124.75
455.734	108.75
455.955	118.75
456.175	118.75
456.395	99.75
456.616	95.75
456.836	115.75
457.056	110.75
457.276	91.75
457.497	115.75
457.717	98.75
457.937	108.75
458.157	106.75
458.377	94.75
458.598	91.75
458.818	94.75
459.038	82.75
459.258	91.75
459.478	77.75
459.698	90.75
459.918	99.75
460.138	115.75
460.358	110.75
460.578	104.75
460.798	98.75
461.018	103.75
461.238	111.75
461.458	112.75
461.678	115.75
461.898	118.75
462.118	104.75
462.338	119.75
462.558	122.75
462.777	104.75
462.997	111.75
463.217	108.75
463.437	110.75
463.657	109.75
463.876	113.75
464.096	94.75
464.316	103.75
464.536	95.75
464.755	114.75
464.975	124.75
465.195	110.75
465.414	126.75
465.634	124.75
465.854	113.75
466.073	113.75
466.293	111.75
466.512	129.75
466.732	122.75
466.951	129.75
467.171	132.75
467.391	117.75
467.61	120.75
467.829	132.75
468.049	135.75
468.268	126.75
468.488	130.75
468.707	126.75
468.927	137.75
469.146	127.75
469.365	132.75
469.585	136.75
469.804	146.75
470.023	137.75
470.243	138.75
470.462	152.75
470.681	146.75
470.901	122.75
471.12	131.75
471.339	133.75
471.558	128.75
471.777	142.75
471.997	130.75
472.216	135.75
472.435	120.75
472.654	112.75
472.873	99.75
473.092	108.75
473.311	116.75
473.53	119.75
473.749	131.75
473.968	126.75
474.187	110.75
474.406	128.75
474.625	125.75
474.844	132.75
475.063	139.75
475.282	125.75
475.501	124.75
475.72	118.75
475.939	114.75
476.158	135.75
476.377	121.75
476.596	126.75
476.814	113.75
477.033	101.75
477.252	101.75
477.471	125.75
477.69	116.75
477.908	134.75
478.127	136.75
478.346	137.75
478.564	125.75
478.783	135.75
479.002	128.75
479.22	147.75
479.439	122.75
479.658	122.75
479.876	102.75
480.095	102.75
480.313	110.75
480.532	127.75
480.751	100.75
480.969	89.75
481.188	90.75
481.406	91.75
481.624	86.75
481.843	95.75
482.061	90.75
482.28	106.75
482.498	117.75
482.717	109.75
482.935	110.75
483.153	151.75
483.372	147.75
483.59	141.75
483.808	150.75
484.027	140.75
484.245	124.75
484.463	136.75
484.681	154.75
484.9	130.75
485.118	129.75
485.336	123.75
485.554	120.75
485.772	97.75
485.99	82.75
486.209	95.75
486.427	110.75
486.645	115.75
486.863	136.75
487.081	136.75
487.299	123.75
487.517	127.75
487.735	144.75
487.953	178.75
488.171	184.75
488.389	171.75
488.607	152.75
488.825	138.75
489.043	136.75
489.261	127.75
489.479	147.75
489.696	139.75
489.914	125.75
490.132	147.75
490.35	136.75
490.568	149.75
490.786	175.75
491.003	176.75
491.221	192.75
491.439	182.75
491.657	185.75
491.874	188.75
492.092	214.75
492.31	214.75
492.527	223.75
492.745	193.75
492.963	195.75
493.18	185.75
493.398	177.75
493.615	168.75
493.833	172.75
494.05	172.75
494.268	162.75
494.485	174.75
494.703	201.75
494.92	165.75
495.138	168.75
495.355	178.75
495.573	170.75
495.79	160.75
496.008	158.75
496.225	170.75
496.442	163.75
496.66	151.75
496.877	176.75
497.094	152.75
497.312	144.75
497.529	141.75
497.746	147.75
497.963	146.75
498.181	144.75
498.398	130.75
498.615	128.75
498.832	112.75
499.049	119.75
499.267	125.75
499.484	136.75
499.701	138.75
499.918	127.75
500.135	133.75
500.352	136.75
500.569	161.75
500.786	126.75
501.003	129.75
501.22	146.75
501.437	133.75
501.654	122.75
501.871	121.75
502.088	126.75
502.305	118.75
502.522	119.75
502.739	127.75
502.956	133.75
503.172	114.75
503.389	108.75
503.606	118.75
503.823	124.75
504.04	126.75
504.256	122.75
504.473	119.75
504.69	124.75
504.907	126.75
505.123	113.75
505.34	122.75
505.557	118.75
505.773	118.75
505.99	116.75
506.207	122.75
506.423	110.75
506.64	103.75
506.856	128.75
507.073	135.75
507.289	118.75
507.506	127.75
507.722	110.75
507.939	108.75
508.155	117.75
508.372	98.75
508.588	108.75
508.805	106.75
509.021	99.75
509.238	108.75
509.454	101.75
509.67	85.75
509.887	98.75
510.103	90.75
510.319	83.75
510.536	84.75
510.752	89.75
510.968	79.75
511.184	80.75
511.401	83.75
511.617	92.75
511.833	95.75
512.049	89.75
512.265	70.75
512.481	100.75
512.698	102.75
512.914	87.75
513.13	93.75
513.346	82.75
513.562	92.75
513.778	99.75
513.994	95.75
514.21	91.75
514.426	109.75
514.642	97.75
514.858	88.75
515.074	79.75
515.29	92.75
515.506	82.75
515.721	86.75
515.937	81.75
516.153	71.75
516.369	79.75
516.585	83.75
516.801	87.75
517.016	88.75
517.232	85.75
517.448	88.75
517.664	88.75
517.879	84.75
518.095	97.75
518.311	92.75
518.527	93.75
518.742	95.75
518.958	95.75
519.173	99.75
519.389	106.75
519.605	100.75
519.82	112.75
520.036	103.75
520.251	106.75
520.467	99.75
520.682	105.75
520.898	101.75
521.113	78.75
521.329	94.75
521.544	81.75
521.76	79.75
521.975	85.75
522.19	79.75
522.406	101.75
522.621	92.75
522.836	103.75
523.052	107.75
523.267	102.75
523.482	106.75
523.698	102.75
523.913	103.75
524.128	111.75
524.343	104.75
524.559	120.75
524.774	117.75
524.989	115.75
525.204	108.75
525.419	122.75
525.634	102.75
525.849	116.75
526.064	99.75
526.28	97.75
526.495	96.75
526.71	79.75
526.925	88.75
527.14	86.75
527.355	71.75
527.57	90.75
527.785	86.75
527.999	88.75
528.214	104.75
528.429	100.75
528.644	99.75
528.859	129.75
529.074	135.75
529.289	155.75
529.503	133.75
529.718	145.75
529.933	128.75
530.148	100.75
530.363	95.75
530.577	91.75
530.792	90.75
531.007	78.75
531.221	93.75
531.436	79.75
531.651	83.75
531.865	74.75
532.08	76.75
532.295	67.75
532.509	75.75
532.724	74.75
532.938	76.75
533.153	103.75
533.367	113.75
533.582	110.75
533.796	126.75
534.011	114.75
534.225	100.75
534.44	83.75
534.654	88.75
534.868	89.75
535.083	88.75
535.297	92.75
535.511	109.75
535.726	107.75
535.94	102.75
536.154	94.75
536.369	91.75
536.583	87.75
536.797	96.75
537.011	96.75
537.225	79.75
537.44	89.75
537.654	89.75
537.868	100.75
538.082	77.75
538.296	79.75
538.51	98.75
538.724	106.75
538.938	114.75
539.153	123.75
539.367	113.75
539.581	96.75
539.795	106.75
540.009	98.75
540.222	90.75
540.436	100.75
540.65	105.75
540.864	117.75
541.078	127.75
541.292	143.75
541.506	134.75
541.72	170.75
541.934	180.75
542.147	193.75
542.361	178.75
542.575	150.75
542.789	139.75
543.002	149.75
543.216	128.75
543.43	136.75
543.644	123.75
543.857	136.75
544.071	153.75
544.285	152.75
544.498	146.75
544.712	157.75
544.925	152.75
545.139	160.75
545.352	151.75
545.566	156.75
545.779	146.75
545.993	155.75
546.206	158.75
546.42	182.75
546.633	161.75
546.847	146.75
547.06	152.75
547.274	153.75
547.487	164.75
547.7	160.75
547.914	150.75
548.127	148.75
548.34	164.75
548.554	141.75
548.767	158.75
548.98	147.75
549.193	146.75
549.407	142.75
549.62	146.75
549.833	145.75
550.046	149.75
550.259	141.75
550.473	142.75
550.686	147.75
550.899	140.75
551.112	139.75
551.325	127.75
551.538	140.75
551.751	116.75
551.964	129.75
552.177	134.75
552.39	138.75
552.603	146.75
552.816	135.75
553.029	152.75
553.242	143.75
553.455	155.75
553.667	149.75
553.88	149.75
554.093	144.75
554.306	147.75
554.519	147.75
554.732	144.75
554.944	141.75
555.157	135.75
555.37	133.75
555.583	135.75
555.795	126.75
556.008	120.75
556.221	127.75
556.433	110.75
556.646	128.75
556.859	127.75
557.071	130.75
557.284	134.75
557.496	131.75
557.709	136.75
557.921	127.75
558.134	136.75
558.346	130.75
558.559	147.75
558.771	148.75
558.984	137.75
559.196	114.75
559.409	126.75
559.621	116.75
559.833	126.75
560.046	106.75
560.258	118.75
560.47	125.75
560.683	136.75
560.895	126.75
561.107	138.75
561.32	114.75
561.532	131.75
561.744	125.75
561.956	133.75
562.168	124.75
562.381	127.75
562.593	131.75
562.805	126.75
563.017	128.75
563.229	124.75
563.441	124.75
563.653	115.75
563.865	113.75
564.077	114.75
564.289	115.75
564.501	119.75
564.713	106.75
564.925	110.75
565.137	107.75
565.349	119.75
565.561	107.75
565.773	106.75
565.985	102.75
566.197	119.75
566.408	100.75
566.62	116.75
566.832	118.75
567.044	118.75
567.255	94.75
567.467	124.75
567.679	110.75
567.891	95.75
568.102	96.75
568.314	94.75
568.526	82.75
568.737	85.75
568.949	80.75
569.161	92.75
569.372	84.75
569.584	58.75
569.795	83.75
570.007	76.75
570.218	81.75
570.43	75.75
570.641	78.75
570.853	107.75
571.064	98.75
571.276	94.75
571.487	112.75
571.698	102.75
571.91	99.75
572.121	99.75
572.333	102.75
572.544	108.75
572.755	85.75
572.966	92.75
573.178	86.75
573.389	70.75
573.6	69.75
573.811	74.75
574.023	92.75
574.234	73.75
574.445	73.75
574.656	99.75
574.867	102.75
575.078	88.75
575.289	91.75
575.501	97.75
575.712	98.75
575.923	84.75
576.134	85.75
576.345	99.75
576.556	96.75
576.767	107.75
576.978	96.75
577.188	86.75
577.399	87.75
577.61	90.75
577.821	94.75
578.032	100.75
578.243	108.75
578.454	103.75
578.665	94.75
578.875	93.75
579.086	102.75
579.297	77.75
579.508	73.75
579.718	85.75
579.929	77.75
580.14	78.75
580.35	95.75
580.561	84.75
580.772	81.75
580.982	91.75
581.193	81.75
581.403	81.75
581.614	77.75
581.825	82.75
582.035	85.75
582.246	94.75
582.456	87.75
582.667	92.75
582.877	90.75
583.087	97.75
583.298	100.75
583.508	88.75
583.719	79.75
583.929	96.75
584.139	68.75
584.35	70.75
584.56	62.75
584.77	77.75
584.981	76.75
585.191	81.75
585.401	79.75
585.611	82.75
585.821	96.75
586.032	82.75
586.242	83.75
586.452	79.75
586.662	82.75
586.872	81.75
587.082	83.75
587.292	72.75
587.502	78.75
587.713	90.75
587.923	77.75
588.133	70.75
588.343	84.75
588.553	71.75
588.762	76.75
588.972	71.75
589.182	58.75
589.392	82.75
589.602	68.75
589.812	86.75
590.022	77.75
590.232	83.75
590.441	69.75
590.651	77.75
590.861	84.75
591.071	81.75
591.281	91.75
591.49	80.75
591.7	68.75
591.91	88.75
592.119	76.75
592.329	77.75
592.539	88.75
592.748	81.75
592.958	74.75
593.167	68.75
593.377	72.75
593.587	82.75
593.796	80.75
594.006	84.75
594.215	72.75
594.424	86.75
594.634	85.75
594.843	95.75
595.053	98.75
595.262	99.75
595.472	80.75
595.681	74.75
595.89	86.75
596.1	67.75
596.309	87.75
596.518	85.75
596.727	75.75
596.937	91.75
597.146	82.75
597.355	87.75
597.564	81.75
597.774	89.75
597.983	89.75
598.192	88.75
598.401	86.75
598.61	85.75
598.819	92.75
599.028	88.75
599.237	87.75
599.446	83.75
599.655	86.75
599.864	83.75
600.073	79.75
600.282	91.75
600.491	95.75
600.7	82.75
600.909	90.75
601.118	101.75
601.327	99.75
601.536	100.75
601.745	99.75
601.953	99.75
602.162	103.75
602.371	97.75
602.58	98.75
602.789	106.75
602.997	101.75
603.206	109.75
603.415	108.75
603.623	103.75
603.832	102.75
604.041	96.75
604.249	97.75
604.458	94.75
604.666	95.75
604.875	78.75
605.084	98.75
605.292	106.75
605.501	94.75
605.709	112.75
605.918	102.75
606.126	102.75
606.334	104.75
606.543	124.75
606.751	96.75
606.96	116.75
607.168	101.75
607.376	110.75
607.585	96.75
607.793	92.75
608.001	108.75
608.21	110.75
608.418	109.75
608.626	114.75
608.834	118.75
609.043	115.75
609.251	107.75
609.459	101.75
609.667	114.75
609.875	114.75
610.083	90.75
610.291	107.75
610.499	124.75
610.707	102.75
610.916	102.75
611.124	112.75
611.332	112.75
611.54	113.75
611.748	98.75
611.955	112.75
612.163	103.75
612.371	112.75
612.579	106.75
612.787	112.75
612.995	102.75
613.203	103.75
613.411	101.75
613.618	85.75
613.826	113.75
614.034	120.75
614.242	107.75
614.449	108.75
614.657	114.75
614.865	99.75
615.072	106.75
615.28	105.75
615.488	116.75
615.695	104.75
615.903	109.75
616.111	104.75
616.318	116.75
616.526	113.75
616.733	116.75
616.941	104.75
617.148	104.75
617.356	107.75
617.563	95.75
617.771	112.75
617.978	98.75
618.185	99.75
618.393	113.75
618.6	114.75
618.807	102.75
619.015	106.75
619.222	106.75
619.429	96.75
619.637	106.75
619.844	95.75
620.051	97.75
620.258	99.75
620.466	111.75
620.673	102.75
620.88	104.75
621.087	90.75
621.294	100.75
621.501	94.75
621.708	91.75
621.915	116.75
622.122	92.75
622.329	114.75
622.536	108.75
622.743	110.75
622.95	96.75
623.157	111.75
623.364	98.75
623.571	112.75
623.778	109.75
623.985	99.75
624.192	100.75
624.399	91.75
624.606	93.75
624.812	102.75
625.019	106.75
625.226	100.75
625.433	95.75
625.639	96.75
625.846	80.75
626.053	95.75
626.259	82.75
626.466	101.75
626.673	94.75
626.879	91.75
627.086	99.75
627.293	101.75
627.499	100.75
627.706	83.75
627.912	88.75
628.119	111.75
628.325	105.75
628.532	91.75
628.738	100.75
628.945	95.75
629.151	109.75
629.357	106.75
629.564	94.75
629.77	105.75
629.976	94.75
630.183	72.75
630.389	88.75
630.595	108.75
630.802	95.75
631.008	84.75
631.214	106.75
631.42	106.75
631.627	102.75
631.833	100.75
632.039	88.75
632.245	100.75
632.451	99.75
632.657	111.75
632.863	94.75
633.069	101.75
633.275	102.75
633.481	103.75
633.688	90.75
633.893	94.75
634.099	100.75
634.305	84.75
634.511	90.75
634.717	81.75
634.923	95.75
635.129	87.75
635.335	102.75
635.541	79.75
635.747	80.75
635.952	84.75
636.158	90.75
636.364	86.75
636.57	81.75
636.775	97.75
636.981	102.75
637.187	101.75
637.392	92.75
637.598	87.75
637.804	92.75
638.009	80.75
638.215	88.75
638.421	90.75
638.626	86.75
638.832	93.75
639.037	91.75
639.243	98.75
639.448	112.75
639.654	103.75
639.859	101.75
640.065	98.75
640.27	98.75
640.475	79.75
640.681	94.75
640.886	88.75
641.091	86.75
641.297	95.75
641.502	97.75
641.707	96.75
641.913	77.75
642.118	90.75
642.323	99.75
642.528	99.75
642.733	103.75
642.939	110.75
643.144	96.75
643.349	99.75
643.554	110.75
643.759	92.75
643.964	91.75
644.169	83.75
644.374	81.75
644.579	87.75
644.784	88.75
644.989	94.75
645.194	96.75
645.399	84.75
645.604	75.75
645.809	84.75
646.014	85.75
646.219	103.75
646.423	99.75
646.628	101.75
646.833	97.75
647.038	94.75
647.243	97.75
647.447	89.75
647.652	102.75
647.857	88.75
648.062	94.75
648.266	81.75
648.471	96.75
648.676	94.75
648.88	95.75
649.085	106.75
649.289	99.75
649.494	116.75
649.698	94.75
649.903	106.75
650.107	86.75
650.312	103.75
650.516	92.75
650.721	99.75
650.925	91.75
651.13	93.75
651.334	87.75
651.539	84.75
651.743	93.75
651.947	90.75
652.152	82.75
652.356	100.75
652.56	96.75
652.764	85.75
652.969	106.75
653.173	90.75
653.377	101.75
653.581	78.75
653.785	78.75
653.99	82.75
654.194	72.75
654.398	98.75
654.602	87.75
654.806	86.75
655.01	83.75
655.214	91.75
655.418	96.75
655.622	85.75
655.826	88.75
656.03	69.75
656.234	91.75
656.438	92.75
656.642	92.75
656.846	85.75
657.049	100.75
657.253	91.75
657.457	83.75
657.661	92.75
657.865	66.75
658.068	87.75
658.272	79.75
658.476	83.75
658.68	81.75
658.883	74.75
659.087	86.75
659.291	71.75
659.494	78.75
659.698	91.75
659.901	98.75
660.105	82.75
660.309	86.75
660.512	86.75
660.716	70.75
660.919	83.75
661.123	79.75
661.326	85.75
661.53	88.75
661.733	76.75
661.936	69.75
662.14	80.75
662.343	84.75
662.546	67.75
662.75	66.75
662.953	64.75
663.156	81.75
663.36	76.75
663.563	76.75
663.766	71.75
663.969	81.75
664.173	78.75
664.376	89.75
664.579	72.75
664.782	81.75
664.985	71.75
665.188	89.75
665.391	84.75
665.594	60.75
665.797	70.75
666	84.75
666.203	78.75
666.406	74.75
666.609	68.75
666.812	78.75
667.015	96.75
667.218	90.75
667.421	69.75
667.624	80.75
667.827	71.75
668.03	78.75
668.232	77.75
668.435	83.75
668.638	69.75
668.841	75.75
669.043	84.75
669.246	77.75
669.449	78.75
669.651	86.75
669.854	68.75
670.057	70.75
670.259	71.75
670.462	76.75
670.665	73.75
670.867	84.75
671.07	77.75
671.272	71.75
671.475	88.75
671.677	72.75
671.88	92.75
672.082	81.75
672.284	82.75
672.487	82.75
672.689	73.75
672.892	72.75
