Data from Location2.07152019.Energy5.Lamp.07192019.3%Agarose_HRD10591_14-57-14-359.txt Node
Date: Fri Jul 19 14:57:14 EDT 2019
User: cochatt
Spectrometer: HR+D1059
Trigger mode: 1
Integration Time (sec): 1.000000E-1
Scans to average: 1
Electric dark correction enabled: true
Nonlinearity correction enabled: false
Boxcar width: 0
XAxis mode: Wavelengths
Number of Pixels in Spectrum: 2048
>>>>>Begin Spectral Data<<<<<
223.165	-10.94
223.4	-10.94
223.635	-10.94
223.869	-28.94
224.104	-14.94
224.338	-25.94
224.573	-12.94
224.808	0.06
225.042	5.06
225.277	-5.94
225.511	-0.94
225.746	11.06
225.98	5.06
226.215	21.06
226.449	-3.94
226.683	15.06
226.918	21.06
227.152	26.06
227.387	45.06
227.621	39.06
227.856	47.06
228.09	42.06
228.324	43.06
228.559	58.06
228.793	66.06
229.027	64.06
229.262	61.06
229.496	70.06
229.73	64.06
229.964	70.06
230.199	77.06
230.433	73.06
230.667	81.06
230.901	77.06
231.136	85.06
231.37	71.06
231.604	98.06
231.838	92.06
232.072	92.06
232.306	100.06
232.541	87.06
232.775	76.06
233.009	80.06
233.243	85.06
233.477	92.06
233.711	74.06
233.945	90.06
234.179	90.06
234.413	79.06
234.647	85.06
234.881	76.06
235.115	76.06
235.349	82.06
235.583	81.06
235.817	93.06
236.051	88.06
236.285	93.06
236.519	89.06
236.753	90.06
236.987	77.06
237.221	74.06
237.455	69.06
237.689	85.06
237.922	69.06
238.156	82.06
238.39	76.06
238.624	73.06
238.858	56.06
239.091	86.06
239.325	69.06
239.559	89.06
239.793	72.06
240.027	68.06
240.26	76.06
240.494	80.06
240.728	76.06
240.961	61.06
241.195	72.06
241.429	84.06
241.662	71.06
241.896	79.06
242.13	69.06
242.363	69.06
242.597	74.06
242.83	73.06
243.064	84.06
243.298	84.06
243.531	78.06
243.765	95.06
243.998	84.06
244.232	76.06
244.465	71.06
244.699	90.06
244.932	79.06
245.166	88.06
245.399	92.06
245.633	94.06
245.866	84.06
246.099	78.06
246.333	78.06
246.566	79.06
246.8	70.06
247.033	75.06
247.266	77.06
247.5	71.06
247.733	79.06
247.966	69.06
248.2	71.06
248.433	76.06
248.666	75.06
248.899	90.06
249.133	92.06
249.366	80.06
249.599	81.06
249.832	87.06
250.066	95.06
250.299	82.06
250.532	77.06
250.765	85.06
250.998	84.06
251.231	88.06
251.465	81.06
251.698	69.06
251.931	87.06
252.164	97.06
252.397	88.06
252.63	89.06
252.863	88.06
253.096	68.06
253.329	74.06
253.562	96.06
253.795	85.06
254.028	81.06
254.261	68.06
254.494	85.06
254.727	88.06
254.96	96.06
255.193	74.06
255.426	94.06
255.659	84.06
255.892	80.06
256.124	62.06
256.357	77.06
256.59	71.06
256.823	75.06
257.056	87.06
257.289	77.06
257.521	80.06
257.754	65.06
257.987	86.06
258.22	73.06
258.452	90.06
258.685	97.06
258.918	79.06
259.151	68.06
259.383	71.06
259.616	97.06
259.849	92.06
260.081	66.06
260.314	89.06
260.547	81.06
260.779	79.06
261.012	79.06
261.244	86.06
261.477	103.06
261.71	82.06
261.942	85.06
262.175	81.06
262.407	80.06
262.64	73.06
262.872	88.06
263.105	92.06
263.337	94.06
263.57	81.06
263.802	83.06
264.035	93.06
264.267	79.06
264.499	81.06
264.732	86.06
264.964	92.06
265.197	92.06
265.429	81.06
265.661	83.06
265.894	83.06
266.126	76.06
266.358	89.06
266.591	84.06
266.823	79.06
267.055	77.06
267.287	86.06
267.52	77.06
267.752	69.06
267.984	60.06
268.216	75.06
268.448	89.06
268.681	86.06
268.913	98.06
269.145	89.06
269.377	94.06
269.609	97.06
269.841	68.06
270.073	77.06
270.306	77.06
270.538	79.06
270.77	86.06
271.002	98.06
271.234	85.06
271.466	88.06
271.698	81.06
271.93	87.06
272.162	69.06
272.394	93.06
272.626	84.06
272.858	88.06
273.09	84.06
273.322	79.06
273.553	94.06
273.785	91.06
274.017	81.06
274.249	89.06
274.481	79.06
274.713	78.06
274.945	88.06
275.176	92.06
275.408	91.06
275.64	85.06
275.872	79.06
276.104	87.06
276.335	76.06
276.567	81.06
276.799	98.06
277.031	93.06
277.262	83.06
277.494	88.06
277.726	92.06
277.957	84.06
278.189	86.06
278.421	86.06
278.652	82.06
278.884	85.06
279.115	75.06
279.347	94.06
279.579	91.06
279.81	77.06
280.042	79.06
280.273	81.06
280.505	105.06
280.736	84.06
280.968	78.06
281.199	72.06
281.431	75.06
281.662	77.06
281.894	79.06
282.125	92.06
282.356	93.06
282.588	83.06
282.819	93.06
283.051	74.06
283.282	86.06
283.513	83.06
283.745	95.06
283.976	73.06
284.207	96.06
284.439	99.06
284.67	100.06
284.901	92.06
285.132	90.06
285.364	75.06
285.595	83.06
285.826	77.06
286.057	84.06
286.288	82.06
286.52	84.06
286.751	84.06
286.982	88.06
287.213	88.06
287.444	75.06
287.675	81.06
287.906	90.06
288.138	63.06
288.369	91.06
288.6	93.06
288.831	80.06
289.062	87.06
289.293	102.06
289.524	86.06
289.755	75.06
289.986	82.06
290.217	93.06
290.448	93.06
290.679	91.06
290.91	79.06
291.141	94.06
291.371	86.06
291.602	74.06
291.833	89.06
292.064	73.06
292.295	76.06
292.526	81.06
292.757	89.06
292.987	67.06
293.218	94.06
293.449	89.06
293.68	84.06
293.91	85.06
294.141	90.06
294.372	93.06
294.603	76.06
294.833	84.06
295.064	77.06
295.295	77.06
295.525	82.06
295.756	88.06
295.987	97.06
296.217	95.06
296.448	99.06
296.679	80.06
296.909	106.06
297.14	89.06
297.37	93.06
297.601	83.06
297.831	83.06
298.062	78.06
298.292	93.06
298.523	85.06
298.753	69.06
298.984	86.06
299.214	83.06
299.445	90.06
299.675	83.06
299.905	75.06
300.136	77.06
300.366	88.06
300.597	99.06
300.827	92.06
301.057	91.06
301.288	87.06
301.518	73.06
301.748	78.06
301.979	66.06
302.209	76.06
302.439	78.06
302.669	80.06
302.9	77.06
303.13	89.06
303.36	89.06
303.59	82.06
303.82	90.06
304.051	78.06
304.281	90.06
304.511	88.06
304.741	84.06
304.971	79.06
305.201	91.06
305.431	89.06
305.661	94.06
305.891	82.06
306.121	73.06
306.352	87.06
306.582	88.06
306.812	79.06
307.042	86.06
307.272	87.06
307.502	85.06
307.731	102.06
307.961	95.06
308.191	97.06
308.421	75.06
308.651	93.06
308.881	97.06
309.111	97.06
309.341	70.06
309.571	87.06
309.8	97.06
310.03	92.06
310.26	83.06
310.49	79.06
310.72	89.06
310.949	91.06
311.179	89.06
311.409	72.06
311.639	91.06
311.868	77.06
312.098	79.06
312.328	87.06
312.557	72.06
312.787	98.06
313.017	94.06
313.246	69.06
313.476	76.06
313.706	87.06
313.935	84.06
314.165	89.06
314.394	80.06
314.624	83.06
314.853	82.06
315.083	70.06
315.312	89.06
315.542	96.06
315.771	94.06
316.001	89.06
316.23	97.06
316.46	95.06
316.689	91.06
316.919	79.06
317.148	91.06
317.377	91.06
317.607	94.06
317.836	82.06
318.065	85.06
318.295	86.06
318.524	82.06
318.753	79.06
318.983	92.06
319.212	89.06
319.441	91.06
319.67	85.06
319.9	73.06
320.129	83.06
320.358	94.06
320.587	85.06
320.816	83.06
321.046	72.06
321.275	83.06
321.504	91.06
321.733	89.06
321.962	79.06
322.191	94.06
322.42	78.06
322.649	73.06
322.878	83.06
323.108	96.06
323.337	80.06
323.566	78.06
323.795	84.06
324.024	86.06
324.253	79.06
324.482	80.06
324.71	85.06
324.939	83.06
325.168	85.06
325.397	88.06
325.626	82.06
325.855	92.06
326.084	86.06
326.313	82.06
326.542	78.06
326.77	89.06
326.999	74.06
327.228	78.06
327.457	77.06
327.686	85.06
327.914	86.06
328.143	83.06
328.372	70.06
328.6	95.06
328.829	102.06
329.058	78.06
329.287	90.06
329.515	72.06
329.744	70.06
329.972	88.06
330.201	86.06
330.43	83.06
330.658	77.06
330.887	95.06
331.115	93.06
331.344	81.06
331.572	106.06
331.801	85.06
332.03	107.06
332.258	89.06
332.486	93.06
332.715	81.06
332.943	96.06
333.172	85.06
333.4	85.06
333.629	95.06
333.857	90.06
334.085	73.06
334.314	90.06
334.542	88.06
334.771	90.06
334.999	78.06
335.227	82.06
335.455	76.06
335.684	104.06
335.912	91.06
336.14	79.06
336.369	90.06
336.597	84.06
336.825	97.06
337.053	84.06
337.281	94.06
337.51	95.06
337.738	92.06
337.966	103.06
338.194	88.06
338.422	76.06
338.65	101.06
338.878	87.06
339.106	90.06
339.334	105.06
339.562	84.06
339.79	88.06
340.018	93.06
340.246	95.06
340.474	94.06
340.702	94.06
340.93	83.06
341.158	89.06
341.386	98.06
341.614	85.06
341.842	95.06
342.07	92.06
342.298	71.06
342.526	79.06
342.754	89.06
342.981	98.06
343.209	80.06
343.437	81.06
343.665	90.06
343.893	97.06
344.12	83.06
344.348	92.06
344.576	99.06
344.804	84.06
345.031	79.06
345.259	94.06
345.487	76.06
345.714	70.06
345.942	82.06
346.17	74.06
346.397	84.06
346.625	98.06
346.853	83.06
347.08	88.06
347.308	84.06
347.535	89.06
347.763	92.06
347.99	87.06
348.218	84.06
348.445	88.06
348.673	85.06
348.9	88.06
349.128	91.06
349.355	72.06
349.583	77.06
349.81	84.06
350.037	90.06
350.265	89.06
350.492	95.06
350.72	90.06
350.947	89.06
351.174	88.06
351.402	85.06
351.629	93.06
351.856	81.06
352.083	90.06
352.311	84.06
352.538	78.06
352.765	90.06
352.992	84.06
353.22	80.06
353.447	83.06
353.674	89.06
353.901	99.06
354.128	107.06
354.355	96.06
354.583	77.06
354.81	80.06
355.037	85.06
355.264	81.06
355.491	84.06
355.718	86.06
355.945	99.06
356.172	75.06
356.399	83.06
356.626	82.06
356.853	81.06
357.08	91.06
357.307	79.06
357.534	88.06
357.761	83.06
357.988	100.06
358.215	91.06
358.441	93.06
358.668	95.06
358.895	97.06
359.122	87.06
359.349	92.06
359.576	88.06
359.802	87.06
360.029	96.06
360.256	104.06
360.483	79.06
360.709	94.06
360.936	93.06
361.163	76.06
361.39	90.06
361.616	93.06
361.843	92.06
362.07	95.06
362.296	84.06
362.523	84.06
362.749	86.06
362.976	84.06
363.203	94.06
363.429	75.06
363.656	92.06
363.882	76.06
364.109	91.06
364.335	89.06
364.562	85.06
364.788	92.06
365.015	81.06
365.241	83.06
365.468	94.06
365.694	91.06
365.92	97.06
366.147	94.06
366.373	87.06
366.599	93.06
366.826	86.06
367.052	84.06
367.278	78.06
367.505	81.06
367.731	90.06
367.957	97.06
368.184	78.06
368.41	78.06
368.636	92.06
368.862	107.06
369.089	89.06
369.315	95.06
369.541	93.06
369.767	111.06
369.993	92.06
370.219	91.06
370.445	95.06
370.672	89.06
370.898	97.06
371.124	94.06
371.35	92.06
371.576	87.06
371.802	84.06
372.028	83.06
372.254	92.06
372.48	110.06
372.706	99.06
372.932	98.06
373.158	105.06
373.384	95.06
373.61	100.06
373.835	97.06
374.061	93.06
374.287	102.06
374.513	98.06
374.739	84.06
374.965	96.06
375.191	84.06
375.416	95.06
375.642	95.06
375.868	102.06
376.094	87.06
376.319	94.06
376.545	98.06
376.771	89.06
376.997	90.06
377.222	102.06
377.448	88.06
377.674	93.06
377.899	106.06
378.125	98.06
378.35	100.06
378.576	105.06
378.802	100.06
379.027	90.06
379.253	99.06
379.478	90.06
379.704	98.06
379.929	87.06
380.155	91.06
380.38	89.06
380.606	94.06
380.831	103.06
381.057	112.06
381.282	113.06
381.507	99.06
381.733	101.06
381.958	108.06
382.184	94.06
382.409	96.06
382.634	89.06
382.86	106.06
383.085	101.06
383.31	101.06
383.535	99.06
383.761	89.06
383.986	110.06
384.211	101.06
384.436	99.06
384.662	99.06
384.887	87.06
385.112	91.06
385.337	104.06
385.562	96.06
385.787	87.06
386.013	103.06
386.238	115.06
386.463	86.06
386.688	109.06
386.913	108.06
387.138	108.06
387.363	115.06
387.588	113.06
387.813	99.06
388.038	105.06
388.263	101.06
388.488	108.06
388.713	95.06
388.938	89.06
389.163	95.06
389.387	99.06
389.612	111.06
389.837	106.06
390.062	102.06
390.287	110.06
390.512	95.06
390.736	100.06
390.961	106.06
391.186	97.06
391.411	113.06
391.636	93.06
391.86	108.06
392.085	115.06
392.31	108.06
392.534	120.06
392.759	121.06
392.984	102.06
393.208	125.06
393.433	108.06
393.658	91.06
393.882	110.06
394.107	90.06
394.331	115.06
394.556	104.06
394.78	105.06
395.005	116.06
395.229	97.06
395.454	115.06
395.678	105.06
395.903	108.06
396.127	99.06
396.352	108.06
396.576	105.06
396.801	123.06
397.025	89.06
397.249	110.06
397.474	120.06
397.698	119.06
397.922	103.06
398.147	102.06
398.371	105.06
398.595	123.06
398.82	117.06
399.044	118.06
399.268	112.06
399.492	107.06
399.717	117.06
399.941	125.06
400.165	120.06
400.389	116.06
400.613	107.06
400.837	121.06
401.062	101.06
401.286	109.06
401.51	114.06
401.734	114.06
401.958	123.06
402.182	117.06
402.406	118.06
402.63	123.06
402.854	107.06
403.078	122.06
403.302	136.06
403.526	121.06
403.75	104.06
403.974	124.06
404.198	109.06
404.422	107.06
404.645	120.06
404.869	117.06
405.093	106.06
405.317	108.06
405.541	120.06
405.765	118.06
405.988	122.06
406.212	111.06
406.436	122.06
406.66	118.06
406.883	121.06
407.107	97.06
407.331	121.06
407.555	122.06
407.778	129.06
408.002	133.06
408.226	128.06
408.449	126.06
408.673	116.06
408.896	131.06
409.12	119.06
409.344	125.06
409.567	109.06
409.791	127.06
410.014	127.06
410.238	126.06
410.461	136.06
410.685	128.06
410.908	123.06
411.132	132.06
411.355	123.06
411.578	125.06
411.802	124.06
412.025	133.06
412.249	127.06
412.472	121.06
412.695	126.06
412.919	122.06
413.142	126.06
413.365	130.06
413.589	128.06
413.812	107.06
414.035	125.06
414.258	117.06
414.482	113.06
414.705	124.06
414.928	118.06
415.151	123.06
415.374	140.06
415.597	141.06
415.821	140.06
416.044	128.06
416.267	122.06
416.49	121.06
416.713	121.06
416.936	118.06
417.159	128.06
417.382	108.06
417.605	125.06
417.828	125.06
418.051	132.06
418.274	142.06
418.497	131.06
418.72	136.06
418.943	140.06
419.166	145.06
419.389	140.06
419.611	149.06
419.834	138.06
420.057	135.06
420.28	142.06
420.503	118.06
420.726	144.06
420.948	137.06
421.171	121.06
421.394	142.06
421.617	154.06
421.839	145.06
422.062	131.06
422.285	137.06
422.507	129.06
422.73	130.06
422.953	129.06
423.175	131.06
423.398	138.06
423.621	136.06
423.843	132.06
424.066	124.06
424.288	135.06
424.511	146.06
424.733	148.06
424.956	131.06
425.178	153.06
425.401	150.06
425.623	136.06
425.846	135.06
426.068	134.06
426.291	118.06
426.513	147.06
426.735	123.06
426.958	121.06
427.18	133.06
427.402	136.06
427.625	135.06
427.847	127.06
428.069	125.06
428.292	127.06
428.514	143.06
428.736	122.06
428.958	138.06
429.181	137.06
429.403	137.06
429.625	125.06
429.847	125.06
430.069	123.06
430.292	139.06
430.514	134.06
430.736	141.06
430.958	136.06
431.18	141.06
431.402	133.06
431.624	132.06
431.846	113.06
432.068	93.06
432.29	94.06
432.512	121.06
432.734	115.06
432.956	122.06
433.178	140.06
433.4	151.06
433.622	140.06
433.844	131.06
434.066	128.06
434.287	109.06
434.509	105.06
434.731	101.06
434.953	132.06
435.175	129.06
435.397	129.06
435.618	128.06
435.84	120.06
436.062	113.06
436.284	116.06
436.505	130.06
436.727	132.06
436.949	149.06
437.17	137.06
437.392	129.06
437.614	121.06
437.835	111.06
438.057	107.06
438.278	116.06
438.5	117.06
438.721	133.06
438.943	139.06
439.165	137.06
439.386	145.06
439.608	153.06
439.829	146.06
440.05	163.06
440.272	135.06
440.493	137.06
440.715	151.06
440.936	145.06
441.158	141.06
441.379	156.06
441.6	158.06
441.822	154.06
442.043	148.06
442.264	153.06
442.486	167.06
442.707	149.06
442.928	146.06
443.149	133.06
443.371	139.06
443.592	142.06
443.813	149.06
444.034	137.06
444.255	139.06
444.476	135.06
444.698	147.06
444.919	138.06
445.14	268.06
445.361	201.06
445.582	151.06
445.803	149.06
446.024	143.06
446.245	156.06
446.466	162.06
446.687	167.06
446.908	154.06
447.129	143.06
447.35	165.06
447.571	146.06
447.792	151.06
448.013	143.06
448.234	142.06
448.455	145.06
448.675	143.06
448.896	151.06
449.117	138.06
449.338	133.06
449.559	153.06
449.779	131.06
450	138.06
450.221	131.06
450.442	144.06
450.662	132.06
450.883	151.06
451.104	135.06
451.324	145.06
451.545	136.06
451.766	133.06
451.986	126.06
452.207	126.06
452.428	134.06
452.648	137.06
452.869	135.06
453.089	91.06
453.31	110.06
453.53	116.06
453.751	115.06
453.971	102.06
454.192	119.06
454.412	110.06
454.633	120.06
454.853	125.06
455.073	124.06
455.294	121.06
455.514	117.06
455.734	123.06
455.955	122.06
456.175	128.06
456.395	118.06
456.616	110.06
456.836	109.06
457.056	106.06
457.276	105.06
457.497	98.06
457.717	113.06
457.937	113.06
458.157	117.06
458.377	111.06
458.598	104.06
458.818	114.06
459.038	95.06
459.258	89.06
459.478	86.06
459.698	79.06
459.918	99.06
460.138	114.06
460.358	129.06
460.578	113.06
460.798	130.06
461.018	122.06
461.238	105.06
461.458	115.06
461.678	117.06
461.898	109.06
462.118	125.06
462.338	123.06
462.558	110.06
462.777	122.06
462.997	123.06
463.217	122.06
463.437	113.06
463.657	94.06
463.876	108.06
464.096	118.06
464.316	105.06
464.536	105.06
464.755	119.06
464.975	125.06
465.195	119.06
465.414	123.06
465.634	129.06
465.854	125.06
466.073	113.06
466.293	139.06
466.512	136.06
466.732	142.06
466.951	137.06
467.171	133.06
467.391	134.06
467.61	131.06
467.829	149.06
468.049	141.06
468.268	129.06
468.488	140.06
468.707	129.06
468.927	138.06
469.146	138.06
469.365	151.06
469.585	149.06
469.804	141.06
470.023	143.06
470.243	148.06
470.462	149.06
470.681	143.06
470.901	140.06
471.12	145.06
471.339	136.06
471.558	142.06
471.777	126.06
471.997	129.06
472.216	132.06
472.435	108.06
472.654	110.06
472.873	97.06
473.092	119.06
473.311	122.06
473.53	123.06
473.749	140.06
473.968	116.06
474.187	113.06
474.406	116.06
474.625	131.06
474.844	130.06
475.063	115.06
475.282	116.06
475.501	106.06
475.72	131.06
475.939	117.06
476.158	121.06
476.377	139.06
476.596	139.06
476.814	119.06
477.033	112.06
477.252	120.06
477.471	130.06
477.69	136.06
477.908	131.06
478.127	167.06
478.346	157.06
478.564	143.06
478.783	148.06
479.002	140.06
479.22	135.06
479.439	136.06
479.658	119.06
479.876	118.06
480.095	107.06
480.313	125.06
480.532	122.06
480.751	107.06
480.969	107.06
481.188	104.06
481.406	90.06
481.624	96.06
481.843	91.06
482.061	116.06
482.28	108.06
482.498	121.06
482.717	110.06
482.935	118.06
483.153	151.06
483.372	162.06
483.59	159.06
483.808	144.06
484.027	130.06
484.245	128.06
484.463	140.06
484.681	159.06
484.9	136.06
485.118	151.06
485.336	124.06
485.554	127.06
485.772	107.06
485.99	121.06
486.209	103.06
486.427	97.06
486.645	124.06
486.863	139.06
487.081	143.06
487.299	129.06
487.517	139.06
487.735	154.06
487.953	182.06
488.171	195.06
488.389	182.06
488.607	156.06
488.825	150.06
489.043	157.06
489.261	146.06
489.479	135.06
489.696	149.06
489.914	139.06
490.132	157.06
490.35	139.06
490.568	166.06
490.786	157.06
491.003	189.06
491.221	179.06
491.439	196.06
491.657	189.06
491.874	193.06
492.092	212.06
492.31	231.06
492.527	234.06
492.745	207.06
492.963	217.06
493.18	201.06
493.398	189.06
493.615	186.06
493.833	197.06
494.05	163.06
494.268	168.06
494.485	176.06
494.703	167.06
494.92	187.06
495.138	179.06
495.355	185.06
495.573	166.06
495.79	175.06
496.008	171.06
496.225	183.06
496.442	174.06
496.66	165.06
496.877	149.06
497.094	177.06
497.312	153.06
497.529	168.06
497.746	158.06
497.963	153.06
498.181	141.06
498.398	137.06
498.615	125.06
498.832	111.06
499.049	126.06
499.267	123.06
499.484	127.06
499.701	140.06
499.918	147.06
500.135	129.06
500.352	151.06
500.569	143.06
500.786	130.06
501.003	149.06
501.22	148.06
501.437	156.06
501.654	155.06
501.871	141.06
502.088	118.06
502.305	143.06
502.522	134.06
502.739	133.06
502.956	135.06
503.172	136.06
503.389	136.06
503.606	122.06
503.823	130.06
504.04	123.06
504.256	133.06
504.473	115.06
504.69	121.06
504.907	134.06
505.123	115.06
505.34	125.06
505.557	127.06
505.773	115.06
505.99	143.06
506.207	137.06
506.423	115.06
506.64	118.06
506.856	117.06
507.073	119.06
507.289	130.06
507.506	117.06
507.722	123.06
507.939	130.06
508.155	121.06
508.372	117.06
508.588	120.06
508.805	124.06
509.021	115.06
509.238	107.06
509.454	101.06
509.67	105.06
509.887	92.06
510.103	101.06
510.319	90.06
510.536	90.06
510.752	89.06
510.968	93.06
511.184	90.06
511.401	77.06
511.617	91.06
511.833	103.06
512.049	105.06
512.265	100.06
512.481	94.06
512.698	88.06
512.914	88.06
513.13	100.06
513.346	100.06
513.562	89.06
513.778	83.06
513.994	94.06
514.21	90.06
514.426	102.06
514.642	79.06
514.858	88.06
515.074	92.06
515.29	93.06
515.506	95.06
515.721	88.06
515.937	105.06
516.153	103.06
516.369	97.06
516.585	93.06
516.801	89.06
517.016	92.06
517.232	104.06
517.448	91.06
517.664	94.06
517.879	107.06
518.095	82.06
518.311	105.06
518.527	107.06
518.742	97.06
518.958	105.06
519.173	97.06
519.389	92.06
519.605	116.06
519.82	106.06
520.036	94.06
520.251	106.06
520.467	112.06
520.682	91.06
520.898	101.06
521.113	97.06
521.329	82.06
521.544	94.06
521.76	96.06
521.975	91.06
522.19	99.06
522.406	95.06
522.621	112.06
522.836	97.06
523.052	98.06
523.267	97.06
523.482	116.06
523.698	120.06
523.913	111.06
524.128	110.06
524.343	123.06
524.559	125.06
524.774	121.06
524.989	125.06
525.204	140.06
525.419	129.06
525.634	110.06
525.849	115.06
526.064	101.06
526.28	107.06
526.495	99.06
526.71	92.06
526.925	88.06
527.14	76.06
527.355	91.06
527.57	76.06
527.785	86.06
527.999	116.06
528.214	105.06
528.429	102.06
528.644	113.06
528.859	142.06
529.074	138.06
529.289	152.06
529.503	150.06
529.718	140.06
529.933	124.06
530.148	103.06
530.363	107.06
530.577	80.06
530.792	92.06
531.007	99.06
531.221	79.06
531.436	84.06
531.651	94.06
531.865	85.06
532.08	81.06
532.295	94.06
532.509	86.06
532.724	92.06
532.938	89.06
533.153	92.06
533.367	110.06
533.582	116.06
533.796	116.06
534.011	108.06
534.225	102.06
534.44	85.06
534.654	97.06
534.868	98.06
535.083	102.06
535.297	109.06
535.511	99.06
535.726	97.06
535.94	102.06
536.154	99.06
536.369	107.06
536.583	101.06
536.797	77.06
537.011	93.06
537.225	99.06
537.44	95.06
537.654	99.06
537.868	104.06
538.082	94.06
538.296	102.06
538.51	110.06
538.724	108.06
538.938	114.06
539.153	119.06
539.367	119.06
539.581	116.06
539.795	105.06
540.009	113.06
540.222	100.06
540.436	107.06
540.65	116.06
540.864	141.06
541.078	133.06
541.292	141.06
541.506	155.06
541.72	177.06
541.934	187.06
542.147	186.06
542.361	183.06
542.575	163.06
542.789	155.06
543.002	137.06
543.216	137.06
543.43	119.06
543.644	135.06
543.857	158.06
544.071	161.06
544.285	151.06
544.498	162.06
544.712	175.06
544.925	158.06
545.139	160.06
545.352	155.06
545.566	159.06
545.779	163.06
545.993	166.06
546.206	181.06
546.42	170.06
546.633	155.06
546.847	158.06
547.06	177.06
547.274	162.06
547.487	183.06
547.7	182.06
547.914	172.06
548.127	158.06
548.34	157.06
548.554	162.06
548.767	150.06
548.98	160.06
549.193	168.06
549.407	140.06
549.62	142.06
549.833	146.06
550.046	151.06
550.259	142.06
550.473	161.06
550.686	143.06
550.899	146.06
551.112	145.06
551.325	149.06
551.538	142.06
551.751	130.06
551.964	133.06
552.177	118.06
552.39	139.06
552.603	138.06
552.816	160.06
553.029	169.06
553.242	162.06
553.455	170.06
553.667	168.06
553.88	141.06
554.093	151.06
554.306	155.06
554.519	150.06
554.732	149.06
554.944	148.06
555.157	133.06
555.37	147.06
555.583	156.06
555.795	145.06
556.008	147.06
556.221	143.06
556.433	129.06
556.646	133.06
556.859	143.06
557.071	142.06
557.284	143.06
557.496	134.06
557.709	143.06
557.921	141.06
558.134	147.06
558.346	139.06
558.559	137.06
558.771	147.06
558.984	133.06
559.196	140.06
559.409	135.06
559.621	129.06
559.833	145.06
560.046	121.06
560.258	137.06
560.47	128.06
560.683	143.06
560.895	137.06
561.107	124.06
561.32	129.06
561.532	137.06
561.744	130.06
561.956	129.06
562.168	132.06
562.381	140.06
562.593	159.06
562.805	148.06
563.017	126.06
563.229	132.06
563.441	129.06
563.653	124.06
563.865	119.06
564.077	119.06
564.289	121.06
564.501	117.06
564.713	127.06
564.925	130.06
565.137	119.06
565.349	123.06
565.561	126.06
565.773	124.06
565.985	128.06
566.197	115.06
566.408	129.06
566.62	119.06
566.832	107.06
567.044	117.06
567.255	122.06
567.467	129.06
567.679	109.06
567.891	121.06
568.102	106.06
568.314	95.06
568.526	85.06
568.737	83.06
568.949	83.06
569.161	86.06
569.372	97.06
569.584	92.06
569.795	86.06
570.007	84.06
570.218	85.06
570.43	79.06
570.641	84.06
570.853	103.06
571.064	103.06
571.276	109.06
571.487	113.06
571.698	98.06
571.91	102.06
572.121	98.06
572.333	105.06
572.544	91.06
572.755	93.06
572.966	98.06
573.178	93.06
573.389	83.06
573.6	86.06
573.811	79.06
574.023	100.06
574.234	100.06
574.445	98.06
574.656	82.06
574.867	82.06
575.078	90.06
575.289	105.06
575.501	113.06
575.712	89.06
575.923	79.06
576.134	94.06
576.345	86.06
576.556	111.06
576.767	99.06
576.978	95.06
577.188	95.06
577.399	107.06
577.61	95.06
577.821	84.06
578.032	113.06
578.243	94.06
578.454	94.06
578.665	88.06
578.875	81.06
579.086	88.06
579.297	88.06
579.508	88.06
579.718	85.06
579.929	94.06
580.14	98.06
580.35	102.06
580.561	87.06
580.772	92.06
580.982	82.06
581.193	107.06
581.403	100.06
581.614	99.06
581.825	87.06
582.035	94.06
582.246	101.06
582.456	95.06
582.667	88.06
582.877	99.06
583.087	105.06
583.298	90.06
583.508	90.06
583.719	99.06
583.929	99.06
584.139	81.06
584.35	89.06
584.56	82.06
584.77	86.06
584.981	85.06
585.191	94.06
585.401	91.06
585.611	92.06
585.821	103.06
586.032	83.06
586.242	94.06
586.452	100.06
586.662	95.06
586.872	89.06
587.082	85.06
587.292	83.06
587.502	90.06
587.713	89.06
587.923	86.06
588.133	70.06
588.343	95.06
588.553	80.06
588.762	94.06
588.972	103.06
589.182	77.06
589.392	89.06
589.602	78.06
589.812	92.06
590.022	78.06
590.232	89.06
590.441	90.06
590.651	100.06
590.861	86.06
591.071	86.06
591.281	96.06
591.49	91.06
591.7	94.06
591.91	89.06
592.119	91.06
592.329	105.06
592.539	97.06
592.748	94.06
592.958	83.06
593.167	93.06
593.377	86.06
593.587	100.06
593.796	94.06
594.006	89.06
594.215	85.06
594.424	86.06
594.634	83.06
594.843	102.06
595.053	95.06
595.262	95.06
595.472	89.06
595.681	89.06
595.89	93.06
596.1	99.06
596.309	107.06
596.518	96.06
596.727	96.06
596.937	99.06
597.146	101.06
597.355	95.06
597.564	92.06
597.774	99.06
597.983	80.06
598.192	84.06
598.401	93.06
598.61	108.06
598.819	94.06
599.028	82.06
599.237	99.06
599.446	91.06
599.655	85.06
599.864	103.06
600.073	85.06
600.282	103.06
600.491	93.06
600.7	100.06
600.909	99.06
601.118	96.06
601.327	97.06
601.536	99.06
601.745	121.06
601.953	109.06
602.162	110.06
602.371	114.06
602.58	117.06
602.789	90.06
602.997	108.06
603.206	106.06
603.415	99.06
603.623	102.06
603.832	121.06
604.041	106.06
604.249	101.06
604.458	98.06
604.666	102.06
604.875	106.06
605.084	98.06
605.292	98.06
605.501	107.06
605.709	129.06
605.918	115.06
606.126	103.06
606.334	100.06
606.543	123.06
606.751	120.06
606.96	108.06
607.168	113.06
607.376	109.06
607.585	107.06
607.793	99.06
608.001	118.06
608.21	105.06
608.418	105.06
608.626	124.06
608.834	118.06
609.043	125.06
609.251	115.06
609.459	113.06
609.667	119.06
609.875	122.06
610.083	117.06
610.291	125.06
610.499	113.06
610.707	106.06
610.916	109.06
611.124	94.06
611.332	116.06
611.54	120.06
611.748	113.06
611.955	115.06
612.163	110.06
612.371	126.06
612.579	126.06
612.787	109.06
612.995	119.06
613.203	121.06
613.411	103.06
613.618	133.06
613.826	108.06
614.034	106.06
614.242	115.06
614.449	127.06
614.657	114.06
614.865	127.06
615.072	108.06
615.28	119.06
615.488	98.06
615.695	114.06
615.903	119.06
616.111	94.06
616.318	115.06
616.526	100.06
616.733	119.06
616.941	119.06
617.148	130.06
617.356	125.06
617.563	109.06
617.771	123.06
617.978	94.06
618.185	115.06
618.393	114.06
618.6	122.06
618.807	119.06
619.015	106.06
619.222	113.06
619.429	101.06
619.637	112.06
619.844	114.06
620.051	102.06
620.258	116.06
620.466	108.06
620.673	115.06
620.88	114.06
621.087	106.06
621.294	109.06
621.501	111.06
621.708	115.06
621.915	112.06
622.122	108.06
622.329	110.06
622.536	87.06
622.743	103.06
622.95	99.06
623.157	102.06
623.364	108.06
623.571	108.06
623.778	104.06
623.985	92.06
624.192	89.06
624.399	98.06
624.606	111.06
624.812	109.06
625.019	99.06
625.226	92.06
625.433	108.06
625.639	109.06
625.846	91.06
626.053	101.06
626.259	90.06
626.466	125.06
626.673	86.06
626.879	85.06
627.086	94.06
627.293	115.06
627.499	107.06
627.706	91.06
627.912	115.06
628.119	100.06
628.325	108.06
628.532	105.06
628.738	107.06
628.945	112.06
629.151	95.06
629.357	125.06
629.564	99.06
629.77	92.06
629.976	93.06
630.183	110.06
630.389	93.06
630.595	105.06
630.802	117.06
631.008	113.06
631.214	108.06
631.42	119.06
631.627	111.06
631.833	108.06
632.039	100.06
632.245	100.06
632.451	115.06
632.657	105.06
632.863	114.06
633.069	102.06
633.275	117.06
633.481	107.06
633.688	94.06
633.893	103.06
634.099	117.06
634.305	102.06
634.511	108.06
634.717	109.06
634.923	95.06
635.129	76.06
635.335	89.06
635.541	95.06
635.747	92.06
635.952	92.06
636.158	118.06
636.364	113.06
636.57	108.06
636.775	101.06
636.981	101.06
637.187	114.06
637.392	97.06
637.598	103.06
637.804	114.06
638.009	106.06
638.215	97.06
638.421	101.06
638.626	106.06
638.832	99.06
639.037	98.06
639.243	110.06
639.448	107.06
639.654	106.06
639.859	104.06
640.065	110.06
640.27	114.06
640.475	100.06
640.681	97.06
640.886	101.06
641.091	97.06
641.297	113.06
641.502	106.06
641.707	98.06
641.913	103.06
642.118	107.06
642.323	84.06
642.528	91.06
642.733	101.06
642.939	97.06
643.144	113.06
643.349	106.06
643.554	103.06
643.759	101.06
643.964	99.06
644.169	106.06
644.374	98.06
644.579	113.06
644.784	114.06
644.989	103.06
645.194	98.06
645.399	106.06
645.604	115.06
645.809	104.06
646.014	106.06
646.219	108.06
646.423	109.06
646.628	97.06
646.833	92.06
647.038	100.06
647.243	102.06
647.447	101.06
647.652	105.06
647.857	99.06
648.062	100.06
648.266	89.06
648.471	107.06
648.676	102.06
648.88	99.06
649.085	94.06
649.289	93.06
649.494	94.06
649.698	100.06
649.903	94.06
650.107	107.06
650.312	98.06
650.516	86.06
650.721	93.06
650.925	103.06
651.13	78.06
651.334	115.06
651.539	95.06
651.743	101.06
651.947	99.06
652.152	94.06
652.356	95.06
652.56	93.06
652.764	95.06
652.969	88.06
653.173	85.06
653.377	89.06
653.581	84.06
653.785	101.06
653.99	89.06
654.194	91.06
654.398	82.06
654.602	94.06
654.806	105.06
655.01	94.06
655.214	81.06
655.418	105.06
655.622	88.06
655.826	78.06
656.03	92.06
656.234	84.06
656.438	103.06
656.642	96.06
656.846	77.06
657.049	83.06
657.253	99.06
657.457	102.06
657.661	92.06
657.865	97.06
658.068	98.06
658.272	83.06
658.476	92.06
658.68	96.06
658.883	82.06
659.087	104.06
659.291	108.06
659.494	92.06
659.698	93.06
659.901	90.06
660.105	99.06
660.309	80.06
660.512	84.06
660.716	78.06
660.919	92.06
661.123	90.06
661.326	86.06
661.53	84.06
661.733	94.06
661.936	91.06
662.14	98.06
662.343	86.06
662.546	89.06
662.75	86.06
662.953	91.06
663.156	90.06
663.36	93.06
663.563	90.06
663.766	70.06
663.969	91.06
664.173	94.06
664.376	102.06
664.579	92.06
664.782	99.06
664.985	90.06
665.188	74.06
665.391	83.06
665.594	87.06
665.797	78.06
666	91.06
666.203	75.06
666.406	81.06
666.609	92.06
666.812	67.06
667.015	83.06
667.218	93.06
667.421	95.06
667.624	75.06
667.827	100.06
668.03	76.06
668.232	89.06
668.435	79.06
668.638	94.06
668.841	90.06
669.043	75.06
669.246	83.06
669.449	87.06
669.651	94.06
669.854	91.06
670.057	83.06
670.259	97.06
670.462	94.06
670.665	79.06
670.867	90.06
671.07	97.06
671.272	94.06
671.475	76.06
671.677	89.06
671.88	98.06
672.082	77.06
672.284	94.06
672.487	91.06
672.689	82.06
672.892	100.06
