Data from Location2.07152019.Energy5.Lamp.07192019.3%Agarose_HRD10591_14-58-04-359.txt Node
Date: Fri Jul 19 14:58:04 EDT 2019
User: cochatt
Spectrometer: HR+D1059
Trigger mode: 1
Integration Time (sec): 1.000000E-1
Scans to average: 1
Electric dark correction enabled: true
Nonlinearity correction enabled: false
Boxcar width: 0
XAxis mode: Wavelengths
Number of Pixels in Spectrum: 2048
>>>>>Begin Spectral Data<<<<<
223.165	-23.62
223.4	-23.62
223.635	-23.62
223.869	-1.62
224.104	-9.62
224.338	-8.62
224.573	-21.62
224.808	-10.62
225.042	-2.62
225.277	0.38
225.511	-18.62
225.746	9.38
225.98	1.38
226.215	12.38
226.449	24.38
226.683	18.38
226.918	17.38
227.152	13.38
227.387	28.38
227.621	48.38
227.856	39.38
228.09	53.38
228.324	57.38
228.559	60.38
228.793	50.38
229.027	52.38
229.262	57.38
229.496	64.38
229.73	69.38
229.964	64.38
230.199	75.38
230.433	67.38
230.667	72.38
230.901	75.38
231.136	78.38
231.37	73.38
231.604	73.38
231.838	67.38
232.072	82.38
232.306	71.38
232.541	75.38
232.775	82.38
233.009	75.38
233.243	81.38
233.477	74.38
233.711	63.38
233.945	63.38
234.179	77.38
234.413	63.38
234.647	85.38
234.881	62.38
235.115	81.38
235.349	75.38
235.583	83.38
235.817	67.38
236.051	82.38
236.285	86.38
236.519	71.38
236.753	75.38
236.987	80.38
237.221	76.38
237.455	62.38
237.689	74.38
237.922	92.38
238.156	72.38
238.39	64.38
238.624	67.38
238.858	62.38
239.091	77.38
239.325	62.38
239.559	69.38
239.793	80.38
240.027	74.38
240.26	84.38
240.494	75.38
240.728	73.38
240.961	69.38
241.195	75.38
241.429	69.38
241.662	67.38
241.896	75.38
242.13	78.38
242.363	93.38
242.597	62.38
242.83	63.38
243.064	75.38
243.298	73.38
243.531	88.38
243.765	71.38
243.998	76.38
244.232	85.38
244.465	70.38
244.699	79.38
244.932	74.38
245.166	69.38
245.399	77.38
245.633	75.38
245.866	81.38
246.099	80.38
246.333	81.38
246.566	81.38
246.8	72.38
247.033	79.38
247.266	79.38
247.5	69.38
247.733	75.38
247.966	81.38
248.2	82.38
248.433	75.38
248.666	81.38
248.899	87.38
249.133	77.38
249.366	89.38
249.599	85.38
249.832	89.38
250.066	70.38
250.299	77.38
250.532	59.38
250.765	82.38
250.998	77.38
251.231	91.38
251.465	94.38
251.698	71.38
251.931	66.38
252.164	66.38
252.397	85.38
252.63	73.38
252.863	90.38
253.096	90.38
253.329	80.38
253.562	79.38
253.795	72.38
254.028	74.38
254.261	67.38
254.494	72.38
254.727	73.38
254.96	85.38
255.193	81.38
255.426	78.38
255.659	79.38
255.892	62.38
256.124	76.38
256.357	61.38
256.59	78.38
256.823	75.38
257.056	79.38
257.289	63.38
257.521	78.38
257.754	75.38
257.987	72.38
258.22	80.38
258.452	87.38
258.685	86.38
258.918	70.38
259.151	79.38
259.383	80.38
259.616	76.38
259.849	79.38
260.081	69.38
260.314	85.38
260.547	72.38
260.779	78.38
261.012	79.38
261.244	78.38
261.477	82.38
261.71	74.38
261.942	78.38
262.175	88.38
262.407	84.38
262.64	80.38
262.872	78.38
263.105	83.38
263.337	74.38
263.57	74.38
263.802	74.38
264.035	81.38
264.267	79.38
264.499	61.38
264.732	85.38
264.964	74.38
265.197	87.38
265.429	90.38
265.661	76.38
265.894	71.38
266.126	93.38
266.358	77.38
266.591	74.38
266.823	85.38
267.055	73.38
267.287	77.38
267.52	79.38
267.752	70.38
267.984	86.38
268.216	97.38
268.448	89.38
268.681	86.38
268.913	90.38
269.145	98.38
269.377	73.38
269.609	74.38
269.841	73.38
270.073	85.38
270.306	87.38
270.538	86.38
270.77	73.38
271.002	75.38
271.234	82.38
271.466	80.38
271.698	79.38
271.93	77.38
272.162	79.38
272.394	84.38
272.626	90.38
272.858	86.38
273.09	83.38
273.322	86.38
273.553	88.38
273.785	73.38
274.017	82.38
274.249	84.38
274.481	74.38
274.713	79.38
274.945	85.38
275.176	89.38
275.408	81.38
275.64	83.38
275.872	84.38
276.104	70.38
276.335	83.38
276.567	80.38
276.799	75.38
277.031	81.38
277.262	76.38
277.494	77.38
277.726	61.38
277.957	79.38
278.189	91.38
278.421	84.38
278.652	73.38
278.884	75.38
279.115	83.38
279.347	86.38
279.579	77.38
279.81	86.38
280.042	72.38
280.273	87.38
280.505	80.38
280.736	81.38
280.968	77.38
281.199	81.38
281.431	78.38
281.662	79.38
281.894	79.38
282.125	77.38
282.356	71.38
282.588	71.38
282.819	82.38
283.051	81.38
283.282	87.38
283.513	72.38
283.745	91.38
283.976	75.38
284.207	76.38
284.439	97.38
284.67	89.38
284.901	87.38
285.132	82.38
285.364	89.38
285.595	79.38
285.826	80.38
286.057	82.38
286.288	89.38
286.52	77.38
286.751	99.38
286.982	85.38
287.213	77.38
287.444	77.38
287.675	80.38
287.906	72.38
288.138	87.38
288.369	68.38
288.6	72.38
288.831	81.38
289.062	69.38
289.293	75.38
289.524	77.38
289.755	81.38
289.986	74.38
290.217	79.38
290.448	80.38
290.679	70.38
290.91	83.38
291.141	88.38
291.371	81.38
291.602	78.38
291.833	85.38
292.064	67.38
292.295	82.38
292.526	80.38
292.757	99.38
292.987	85.38
293.218	85.38
293.449	82.38
293.68	83.38
293.91	77.38
294.141	82.38
294.372	72.38
294.603	70.38
294.833	72.38
295.064	88.38
295.295	76.38
295.525	80.38
295.756	84.38
295.987	87.38
296.217	83.38
296.448	70.38
296.679	86.38
296.909	74.38
297.14	78.38
297.37	99.38
297.601	85.38
297.831	77.38
298.062	81.38
298.292	84.38
298.523	85.38
298.753	72.38
298.984	79.38
299.214	79.38
299.445	85.38
299.675	85.38
299.905	69.38
300.136	80.38
300.366	81.38
300.597	69.38
300.827	71.38
301.057	86.38
301.288	77.38
301.518	96.38
301.748	81.38
301.979	85.38
302.209	83.38
302.439	74.38
302.669	80.38
302.9	70.38
303.13	75.38
303.36	76.38
303.59	84.38
303.82	74.38
304.051	68.38
304.281	90.38
304.511	86.38
304.741	83.38
304.971	82.38
305.201	78.38
305.431	75.38
305.661	85.38
305.891	80.38
306.121	85.38
306.352	71.38
306.582	80.38
306.812	85.38
307.042	77.38
307.272	86.38
307.502	89.38
307.731	77.38
307.961	75.38
308.191	86.38
308.421	83.38
308.651	58.38
308.881	87.38
309.111	83.38
309.341	65.38
309.571	73.38
309.8	102.38
310.03	87.38
310.26	86.38
310.49	73.38
310.72	76.38
310.949	74.38
311.179	91.38
311.409	73.38
311.639	78.38
311.868	63.38
312.098	67.38
312.328	69.38
312.557	96.38
312.787	86.38
313.017	79.38
313.246	82.38
313.476	86.38
313.706	77.38
313.935	76.38
314.165	85.38
314.394	86.38
314.624	82.38
314.853	81.38
315.083	79.38
315.312	75.38
315.542	86.38
315.771	81.38
316.001	85.38
316.23	87.38
316.46	90.38
316.689	87.38
316.919	83.38
317.148	79.38
317.377	78.38
317.607	80.38
317.836	79.38
318.065	86.38
318.295	67.38
318.524	91.38
318.753	86.38
318.983	78.38
319.212	75.38
319.441	78.38
319.67	71.38
319.9	82.38
320.129	73.38
320.358	82.38
320.587	82.38
320.816	84.38
321.046	78.38
321.275	95.38
321.504	76.38
321.733	65.38
321.962	89.38
322.191	70.38
322.42	85.38
322.649	79.38
322.878	91.38
323.108	68.38
323.337	79.38
323.566	79.38
323.795	78.38
324.024	83.38
324.253	82.38
324.482	91.38
324.71	79.38
324.939	87.38
325.168	65.38
325.397	79.38
325.626	76.38
325.855	74.38
326.084	85.38
326.313	73.38
326.542	79.38
326.77	96.38
326.999	82.38
327.228	86.38
327.457	63.38
327.686	76.38
327.914	86.38
328.143	81.38
328.372	65.38
328.6	76.38
328.829	83.38
329.058	81.38
329.287	76.38
329.515	71.38
329.744	85.38
329.972	73.38
330.201	73.38
330.43	83.38
330.658	74.38
330.887	83.38
331.115	87.38
331.344	79.38
331.572	84.38
331.801	85.38
332.03	74.38
332.258	87.38
332.486	78.38
332.715	81.38
332.943	90.38
333.172	72.38
333.4	109.38
333.629	81.38
333.857	70.38
334.085	83.38
334.314	77.38
334.542	74.38
334.771	75.38
334.999	82.38
335.227	81.38
335.455	107.38
335.684	79.38
335.912	90.38
336.14	98.38
336.369	87.38
336.597	74.38
336.825	66.38
337.053	74.38
337.281	77.38
337.51	83.38
337.738	88.38
337.966	74.38
338.194	67.38
338.422	80.38
338.65	73.38
338.878	84.38
339.106	82.38
339.334	86.38
339.562	89.38
339.79	88.38
340.018	83.38
340.246	89.38
340.474	74.38
340.702	78.38
340.93	86.38
341.158	66.38
341.386	74.38
341.614	79.38
341.842	75.38
342.07	78.38
342.298	80.38
342.526	96.38
342.754	77.38
342.981	97.38
343.209	86.38
343.437	88.38
343.665	83.38
343.893	71.38
344.12	72.38
344.348	71.38
344.576	78.38
344.804	86.38
345.031	88.38
345.259	73.38
345.487	76.38
345.714	82.38
345.942	64.38
346.17	75.38
346.397	91.38
346.625	84.38
346.853	87.38
347.08	92.38
347.308	97.38
347.535	78.38
347.763	76.38
347.99	74.38
348.218	81.38
348.445	97.38
348.673	84.38
348.9	81.38
349.128	85.38
349.355	91.38
349.583	83.38
349.81	81.38
350.037	72.38
350.265	92.38
350.492	86.38
350.72	74.38
350.947	73.38
351.174	84.38
351.402	83.38
351.629	86.38
351.856	76.38
352.083	75.38
352.311	81.38
352.538	92.38
352.765	80.38
352.992	87.38
353.22	63.38
353.447	85.38
353.674	72.38
353.901	77.38
354.128	78.38
354.355	73.38
354.583	80.38
354.81	82.38
355.037	84.38
355.264	88.38
355.491	86.38
355.718	90.38
355.945	78.38
356.172	88.38
356.399	78.38
356.626	77.38
356.853	85.38
357.08	80.38
357.307	91.38
357.534	82.38
357.761	71.38
357.988	83.38
358.215	97.38
358.441	82.38
358.668	82.38
358.895	83.38
359.122	69.38
359.349	90.38
359.576	79.38
359.802	74.38
360.029	88.38
360.256	94.38
360.483	74.38
360.709	86.38
360.936	93.38
361.163	83.38
361.39	85.38
361.616	75.38
361.843	92.38
362.07	82.38
362.296	77.38
362.523	94.38
362.749	71.38
362.976	82.38
363.203	81.38
363.429	82.38
363.656	73.38
363.882	79.38
364.109	76.38
364.335	87.38
364.562	75.38
364.788	78.38
365.015	71.38
365.241	83.38
365.468	76.38
365.694	71.38
365.92	91.38
366.147	77.38
366.373	86.38
366.599	91.38
366.826	75.38
367.052	71.38
367.278	81.38
367.505	68.38
367.731	95.38
367.957	84.38
368.184	70.38
368.41	84.38
368.636	87.38
368.862	89.38
369.089	77.38
369.315	90.38
369.541	79.38
369.767	104.38
369.993	95.38
370.219	87.38
370.445	89.38
370.672	90.38
370.898	75.38
371.124	73.38
371.35	94.38
371.576	89.38
371.802	88.38
372.028	86.38
372.254	82.38
372.48	78.38
372.706	80.38
372.932	82.38
373.158	93.38
373.384	81.38
373.61	83.38
373.835	87.38
374.061	86.38
374.287	93.38
374.513	99.38
374.739	86.38
374.965	75.38
375.191	90.38
375.416	87.38
375.642	93.38
375.868	98.38
376.094	86.38
376.319	91.38
376.545	110.38
376.771	93.38
376.997	90.38
377.222	69.38
377.448	98.38
377.674	93.38
377.899	102.38
378.125	84.38
378.35	89.38
378.576	94.38
378.802	84.38
379.027	85.38
379.253	92.38
379.478	82.38
379.704	81.38
379.929	84.38
380.155	90.38
380.38	87.38
380.606	87.38
380.831	84.38
381.057	90.38
381.282	88.38
381.507	90.38
381.733	82.38
381.958	102.38
382.184	94.38
382.409	103.38
382.634	97.38
382.86	102.38
383.085	104.38
383.31	106.38
383.535	101.38
383.761	87.38
383.986	93.38
384.211	87.38
384.436	86.38
384.662	96.38
384.887	103.38
385.112	91.38
385.337	106.38
385.562	110.38
385.787	97.38
386.013	102.38
386.238	99.38
386.463	95.38
386.688	92.38
386.913	102.38
387.138	97.38
387.363	91.38
387.588	89.38
387.813	93.38
388.038	96.38
388.263	131.38
388.488	99.38
388.713	99.38
388.938	83.38
389.163	98.38
389.387	99.38
389.612	97.38
389.837	106.38
390.062	96.38
390.287	105.38
390.512	114.38
390.736	108.38
390.961	94.38
391.186	96.38
391.411	88.38
391.636	100.38
391.86	97.38
392.085	84.38
392.31	97.38
392.534	101.38
392.759	84.38
392.984	108.38
393.208	107.38
393.433	99.38
393.658	85.38
393.882	114.38
394.107	104.38
394.331	102.38
394.556	104.38
394.78	111.38
395.005	95.38
395.229	97.38
395.454	99.38
395.678	96.38
395.903	106.38
396.127	106.38
396.352	91.38
396.576	99.38
396.801	99.38
397.025	109.38
397.249	89.38
397.474	115.38
397.698	107.38
397.922	99.38
398.147	89.38
398.371	103.38
398.595	103.38
398.82	103.38
399.044	99.38
399.268	93.38
399.492	115.38
399.717	109.38
399.941	118.38
400.165	105.38
400.389	105.38
400.613	123.38
400.837	111.38
401.062	106.38
401.286	93.38
401.51	111.38
401.734	104.38
401.958	99.38
402.182	98.38
402.406	111.38
402.63	115.38
402.854	107.38
403.078	113.38
403.302	105.38
403.526	113.38
403.75	121.38
403.974	116.38
404.198	106.38
404.422	113.38
404.645	120.38
404.869	118.38
405.093	105.38
405.317	120.38
405.541	129.38
405.765	115.38
405.988	101.38
406.212	99.38
406.436	107.38
406.66	113.38
406.883	130.38
407.107	119.38
407.331	96.38
407.555	115.38
407.778	119.38
408.002	125.38
408.226	125.38
408.449	109.38
408.673	126.38
408.896	119.38
409.12	100.38
409.344	115.38
409.567	105.38
409.791	111.38
410.014	112.38
410.238	117.38
410.461	114.38
410.685	111.38
410.908	112.38
411.132	130.38
411.355	131.38
411.578	113.38
411.802	121.38
412.025	127.38
412.249	127.38
412.472	127.38
412.695	117.38
412.919	126.38
413.142	123.38
413.365	123.38
413.589	133.38
413.812	118.38
414.035	131.38
414.258	114.38
414.482	111.38
414.705	111.38
414.928	129.38
415.151	109.38
415.374	124.38
415.597	104.38
415.821	127.38
416.044	122.38
416.267	125.38
416.49	115.38
416.713	129.38
416.936	126.38
417.159	120.38
417.382	108.38
417.605	121.38
417.828	115.38
418.051	122.38
418.274	117.38
418.497	115.38
418.72	122.38
418.943	126.38
419.166	127.38
419.389	134.38
419.611	133.38
419.834	121.38
420.057	121.38
420.28	127.38
420.503	126.38
420.726	130.38
420.948	129.38
421.171	125.38
421.394	131.38
421.617	129.38
421.839	145.38
422.062	136.38
422.285	123.38
422.507	147.38
422.73	127.38
422.953	134.38
423.175	136.38
423.398	136.38
423.621	114.38
423.843	143.38
424.066	120.38
424.288	131.38
424.511	153.38
424.733	137.38
424.956	135.38
425.178	146.38
425.401	140.38
425.623	129.38
425.846	127.38
426.068	123.38
426.291	125.38
426.513	123.38
426.735	116.38
426.958	125.38
427.18	126.38
427.402	135.38
427.625	121.38
427.847	133.38
428.069	132.38
428.292	135.38
428.514	138.38
428.736	140.38
428.958	122.38
429.181	122.38
429.403	124.38
429.625	143.38
429.847	120.38
430.069	120.38
430.292	135.38
430.514	125.38
430.736	128.38
430.958	126.38
431.18	128.38
431.402	117.38
431.624	125.38
431.846	110.38
432.068	81.38
432.29	91.38
432.512	89.38
432.734	106.38
432.956	118.38
433.178	135.38
433.4	133.38
433.622	129.38
433.844	126.38
434.066	126.38
434.287	105.38
434.509	87.38
434.731	89.38
434.953	98.38
435.175	126.38
435.397	141.38
435.618	122.38
435.84	109.38
436.062	123.38
436.284	127.38
436.505	117.38
436.727	131.38
436.949	125.38
437.17	137.38
437.392	123.38
437.614	120.38
437.835	103.38
438.057	102.38
438.278	104.38
438.5	117.38
438.721	131.38
438.943	138.38
439.165	118.38
439.386	137.38
439.608	145.38
439.829	139.38
440.05	133.38
440.272	145.38
440.493	130.38
440.715	127.38
440.936	145.38
441.158	149.38
441.379	143.38
441.6	142.38
441.822	131.38
442.043	137.38
442.264	141.38
442.486	129.38
442.707	135.38
442.928	138.38
443.149	135.38
443.371	133.38
443.592	136.38
443.813	133.38
444.034	133.38
444.255	143.38
444.476	146.38
444.698	132.38
444.919	127.38
445.14	271.38
445.361	197.38
445.582	142.38
445.803	157.38
446.024	147.38
446.245	161.38
446.466	147.38
446.687	155.38
446.908	153.38
447.129	145.38
447.35	155.38
447.571	139.38
447.792	146.38
448.013	144.38
448.234	136.38
448.455	149.38
448.675	141.38
448.896	124.38
449.117	129.38
449.338	150.38
449.559	149.38
449.779	129.38
450	132.38
450.221	145.38
450.442	131.38
450.662	116.38
450.883	139.38
451.104	155.38
451.324	124.38
451.545	118.38
451.766	128.38
451.986	129.38
452.207	123.38
452.428	126.38
452.648	121.38
452.869	115.38
453.089	115.38
453.31	101.38
453.53	106.38
453.751	103.38
453.971	104.38
454.192	103.38
454.412	117.38
454.633	121.38
454.853	115.38
455.073	119.38
455.294	120.38
455.514	123.38
455.734	131.38
455.955	129.38
456.175	107.38
456.395	117.38
456.616	95.38
456.836	109.38
457.056	109.38
457.276	109.38
457.497	105.38
457.717	104.38
457.937	110.38
458.157	98.38
458.377	106.38
458.598	96.38
458.818	87.38
459.038	84.38
459.258	94.38
459.478	86.38
459.698	94.38
459.918	104.38
460.138	100.38
460.358	104.38
460.578	111.38
460.798	109.38
461.018	106.38
461.238	120.38
461.458	113.38
461.678	110.38
461.898	103.38
462.118	117.38
462.338	112.38
462.558	104.38
462.777	110.38
462.997	110.38
463.217	113.38
463.437	107.38
463.657	98.38
463.876	123.38
464.096	116.38
464.316	102.38
464.536	118.38
464.755	119.38
464.975	109.38
465.195	117.38
465.414	107.38
465.634	101.38
465.854	99.38
466.073	113.38
466.293	127.38
466.512	122.38
466.732	130.38
466.951	143.38
467.171	129.38
467.391	124.38
467.61	131.38
467.829	128.38
468.049	124.38
468.268	135.38
468.488	118.38
468.707	130.38
468.927	121.38
469.146	134.38
469.365	131.38
469.585	143.38
469.804	158.38
470.023	138.38
470.243	141.38
470.462	135.38
470.681	145.38
470.901	147.38
471.12	149.38
471.339	130.38
471.558	142.38
471.777	138.38
471.997	135.38
472.216	129.38
472.435	107.38
472.654	111.38
472.873	113.38
473.092	105.38
473.311	121.38
473.53	120.38
473.749	126.38
473.968	122.38
474.187	111.38
474.406	115.38
474.625	125.38
474.844	129.38
475.063	139.38
475.282	131.38
475.501	119.38
475.72	118.38
475.939	133.38
476.158	131.38
476.377	133.38
476.596	113.38
476.814	117.38
477.033	105.38
477.252	102.38
477.471	118.38
477.69	136.38
477.908	136.38
478.127	132.38
478.346	122.38
478.564	131.38
478.783	133.38
479.002	133.38
479.22	138.38
479.439	125.38
479.658	116.38
479.876	117.38
480.095	114.38
480.313	109.38
480.532	105.38
480.751	112.38
480.969	83.38
481.188	86.38
481.406	100.38
481.624	88.38
481.843	85.38
482.061	87.38
482.28	109.38
482.498	117.38
482.717	119.38
482.935	106.38
483.153	153.38
483.372	156.38
483.59	145.38
483.808	144.38
484.027	133.38
484.245	127.38
484.463	133.38
484.681	145.38
484.9	149.38
485.118	135.38
485.336	125.38
485.554	101.38
485.772	97.38
485.99	106.38
486.209	111.38
486.427	93.38
486.645	111.38
486.863	135.38
487.081	145.38
487.299	135.38
487.517	150.38
487.735	154.38
487.953	181.38
488.171	167.38
488.389	167.38
488.607	162.38
488.825	136.38
489.043	127.38
489.261	121.38
489.479	133.38
489.696	132.38
489.914	142.38
490.132	143.38
490.35	138.38
490.568	146.38
490.786	170.38
491.003	175.38
491.221	178.38
491.439	187.38
491.657	193.38
491.874	193.38
492.092	210.38
492.31	236.38
492.527	229.38
492.745	209.38
492.963	190.38
493.18	187.38
493.398	181.38
493.615	169.38
493.833	200.38
494.05	161.38
494.268	179.38
494.485	160.38
494.703	174.38
494.92	177.38
495.138	185.38
495.355	171.38
495.573	163.38
495.79	168.38
496.008	155.38
496.225	170.38
496.442	171.38
496.66	164.38
496.877	145.38
497.094	145.38
497.312	167.38
497.529	162.38
497.746	149.38
497.963	130.38
498.181	127.38
498.398	129.38
498.615	120.38
498.832	119.38
499.049	109.38
499.267	118.38
499.484	123.38
499.701	126.38
499.918	123.38
500.135	149.38
500.352	137.38
500.569	135.38
500.786	137.38
501.003	159.38
501.22	147.38
501.437	138.38
501.654	130.38
501.871	120.38
502.088	129.38
502.305	121.38
502.522	146.38
502.739	134.38
502.956	117.38
503.172	133.38
503.389	114.38
503.606	132.38
503.823	122.38
504.04	118.38
504.256	118.38
504.473	117.38
504.69	118.38
504.907	119.38
505.123	134.38
505.34	116.38
505.557	123.38
505.773	111.38
505.99	121.38
506.207	115.38
506.423	107.38
506.64	116.38
506.856	111.38
507.073	134.38
507.289	121.38
507.506	106.38
507.722	139.38
507.939	130.38
508.155	121.38
508.372	110.38
508.588	88.38
508.805	100.38
509.021	110.38
509.238	106.38
509.454	119.38
509.67	96.38
509.887	75.38
510.103	83.38
510.319	94.38
510.536	83.38
510.752	93.38
510.968	84.38
511.184	70.38
511.401	82.38
511.617	95.38
511.833	96.38
512.049	91.38
512.265	90.38
512.481	95.38
512.698	105.38
512.914	95.38
513.13	89.38
513.346	89.38
513.562	77.38
513.778	96.38
513.994	113.38
514.21	84.38
514.426	96.38
514.642	86.38
514.858	89.38
515.074	85.38
515.29	87.38
515.506	89.38
515.721	96.38
515.937	83.38
516.153	94.38
516.369	81.38
516.585	91.38
516.801	88.38
517.016	102.38
517.232	93.38
517.448	78.38
517.664	85.38
517.879	88.38
518.095	102.38
518.311	90.38
518.527	105.38
518.742	104.38
518.958	96.38
519.173	91.38
519.389	111.38
519.605	104.38
519.82	104.38
520.036	99.38
520.251	104.38
520.467	96.38
520.682	94.38
520.898	84.38
521.113	88.38
521.329	93.38
521.544	90.38
521.76	99.38
521.975	106.38
522.19	106.38
522.406	90.38
522.621	90.38
522.836	102.38
523.052	106.38
523.267	101.38
523.482	101.38
523.698	117.38
523.913	113.38
524.128	104.38
524.343	119.38
524.559	128.38
524.774	117.38
524.989	115.38
525.204	111.38
525.419	119.38
525.634	110.38
525.849	96.38
526.064	103.38
526.28	109.38
526.495	88.38
526.71	90.38
526.925	76.38
527.14	79.38
527.355	82.38
527.57	79.38
527.785	83.38
527.999	79.38
528.214	92.38
528.429	102.38
528.644	130.38
528.859	116.38
529.074	149.38
529.289	154.38
529.503	155.38
529.718	137.38
529.933	120.38
530.148	114.38
530.363	93.38
530.577	94.38
530.792	86.38
531.007	87.38
531.221	75.38
531.436	81.38
531.651	71.38
531.865	95.38
532.08	82.38
532.295	71.38
532.509	94.38
532.724	88.38
532.938	89.38
533.153	114.38
533.367	103.38
533.582	114.38
533.796	117.38
534.011	92.38
534.225	85.38
534.44	82.38
534.654	101.38
534.868	82.38
535.083	104.38
535.297	95.38
535.511	100.38
535.726	113.38
535.94	90.38
536.154	113.38
536.369	84.38
536.583	74.38
536.797	89.38
537.011	87.38
537.225	108.38
537.44	93.38
537.654	96.38
537.868	93.38
538.082	77.38
538.296	103.38
538.51	91.38
538.724	105.38
538.938	120.38
539.153	121.38
539.367	105.38
539.581	116.38
539.795	101.38
540.009	97.38
540.222	79.38
540.436	87.38
540.65	112.38
540.864	121.38
541.078	120.38
541.292	151.38
541.506	149.38
541.72	169.38
541.934	180.38
542.147	183.38
542.361	175.38
542.575	167.38
542.789	134.38
543.002	132.38
543.216	137.38
543.43	123.38
543.644	127.38
543.857	133.38
544.071	153.38
544.285	151.38
544.498	155.38
544.712	165.38
544.925	163.38
545.139	159.38
545.352	175.38
545.566	157.38
545.779	151.38
545.993	165.38
546.206	161.38
546.42	163.38
546.633	154.38
546.847	154.38
547.06	154.38
547.274	154.38
547.487	157.38
547.7	158.38
547.914	174.38
548.127	162.38
548.34	161.38
548.554	169.38
548.767	137.38
548.98	170.38
549.193	147.38
549.407	133.38
549.62	143.38
549.833	161.38
550.046	158.38
550.259	153.38
550.473	162.38
550.686	160.38
550.899	147.38
551.112	136.38
551.325	139.38
551.538	133.38
551.751	122.38
551.964	120.38
552.177	119.38
552.39	127.38
552.603	148.38
552.816	151.38
553.029	130.38
553.242	145.38
553.455	161.38
553.667	144.38
553.88	155.38
554.093	155.38
554.306	139.38
554.519	133.38
554.732	151.38
554.944	141.38
555.157	141.38
555.37	128.38
555.583	140.38
555.795	124.38
556.008	123.38
556.221	129.38
556.433	150.38
556.646	134.38
556.859	145.38
557.071	120.38
557.284	120.38
557.496	135.38
557.709	135.38
557.921	142.38
558.134	152.38
558.346	142.38
558.559	133.38
558.771	133.38
558.984	137.38
559.196	131.38
559.409	132.38
559.621	137.38
559.833	132.38
560.046	122.38
560.258	121.38
560.47	131.38
560.683	145.38
560.895	124.38
561.107	127.38
561.32	127.38
561.532	127.38
561.744	123.38
561.956	118.38
562.168	122.38
562.381	131.38
562.593	131.38
562.805	134.38
563.017	127.38
563.229	127.38
563.441	122.38
563.653	132.38
563.865	124.38
564.077	122.38
564.289	125.38
564.501	121.38
564.713	118.38
564.925	112.38
565.137	113.38
565.349	105.38
565.561	117.38
565.773	121.38
565.985	122.38
566.197	103.38
566.408	115.38
566.62	96.38
566.832	104.38
567.044	116.38
567.255	109.38
567.467	119.38
567.679	114.38
567.891	109.38
568.102	98.38
568.314	99.38
568.526	81.38
568.737	84.38
568.949	89.38
569.161	74.38
569.372	85.38
569.584	86.38
569.795	84.38
570.007	71.38
570.218	81.38
570.43	85.38
570.641	87.38
570.853	88.38
571.064	85.38
571.276	96.38
571.487	111.38
571.698	98.38
571.91	88.38
572.121	96.38
572.333	96.38
572.544	101.38
572.755	102.38
572.966	95.38
573.178	78.38
573.389	89.38
573.6	79.38
573.811	85.38
574.023	83.38
574.234	81.38
574.445	88.38
574.656	87.38
574.867	94.38
575.078	90.38
575.289	96.38
575.501	101.38
575.712	90.38
575.923	94.38
576.134	105.38
576.345	97.38
576.556	88.38
576.767	108.38
576.978	90.38
577.188	94.38
577.399	86.38
577.61	95.38
577.821	93.38
578.032	86.38
578.243	88.38
578.454	94.38
578.665	94.38
578.875	101.38
579.086	94.38
579.297	88.38
579.508	81.38
579.718	74.38
579.929	82.38
580.14	94.38
580.35	76.38
580.561	84.38
580.772	87.38
580.982	92.38
581.193	103.38
581.403	88.38
581.614	85.38
581.825	90.38
582.035	84.38
582.246	95.38
582.456	85.38
582.667	88.38
582.877	81.38
583.087	83.38
583.298	83.38
583.508	77.38
583.719	89.38
583.929	89.38
584.139	91.38
584.35	80.38
584.56	81.38
584.77	81.38
584.981	84.38
585.191	87.38
585.401	82.38
585.611	77.38
585.821	77.38
586.032	82.38
586.242	84.38
586.452	78.38
586.662	81.38
586.872	89.38
587.082	83.38
587.292	88.38
587.502	80.38
587.713	77.38
587.923	85.38
588.133	80.38
588.343	88.38
588.553	76.38
588.762	83.38
588.972	72.38
589.182	77.38
589.392	68.38
589.602	72.38
589.812	82.38
590.022	85.38
590.232	75.38
590.441	81.38
590.651	68.38
590.861	86.38
591.071	74.38
591.281	74.38
591.49	96.38
591.7	95.38
591.91	95.38
592.119	81.38
592.329	82.38
592.539	81.38
592.748	97.38
592.958	88.38
593.167	89.38
593.377	84.38
593.587	71.38
593.796	77.38
594.006	79.38
594.215	82.38
594.424	86.38
594.634	94.38
594.843	90.38
595.053	89.38
595.262	76.38
595.472	94.38
595.681	89.38
595.89	77.38
596.1	79.38
596.309	88.38
596.518	97.38
596.727	72.38
596.937	82.38
597.146	84.38
597.355	102.38
597.564	95.38
597.774	91.38
597.983	86.38
598.192	90.38
598.401	83.38
598.61	88.38
598.819	92.38
599.028	95.38
599.237	98.38
599.446	85.38
599.655	97.38
599.864	90.38
600.073	90.38
600.282	100.38
600.491	99.38
600.7	90.38
600.909	89.38
601.118	93.38
601.327	100.38
601.536	87.38
601.745	96.38
601.953	103.38
602.162	100.38
602.371	111.38
602.58	103.38
602.789	90.38
602.997	104.38
603.206	110.38
603.415	95.38
603.623	105.38
603.832	98.38
604.041	113.38
604.249	107.38
604.458	99.38
604.666	92.38
604.875	85.38
605.084	97.38
605.292	104.38
605.501	108.38
605.709	110.38
605.918	97.38
606.126	120.38
606.334	103.38
606.543	119.38
606.751	106.38
606.96	84.38
607.168	114.38
607.376	97.38
607.585	112.38
607.793	93.38
608.001	98.38
608.21	98.38
608.418	119.38
608.626	122.38
608.834	119.38
609.043	120.38
609.251	124.38
609.459	105.38
609.667	104.38
609.875	111.38
610.083	100.38
610.291	116.38
610.499	108.38
610.707	101.38
610.916	111.38
611.124	123.38
611.332	108.38
611.54	118.38
611.748	98.38
611.955	128.38
612.163	116.38
612.371	111.38
612.579	111.38
612.787	114.38
612.995	116.38
613.203	114.38
613.411	122.38
613.618	96.38
613.826	111.38
614.034	117.38
614.242	110.38
614.449	117.38
614.657	104.38
614.865	114.38
615.072	103.38
615.28	101.38
615.488	110.38
615.695	101.38
615.903	114.38
616.111	115.38
616.318	112.38
616.526	125.38
616.733	115.38
616.941	106.38
617.148	96.38
617.356	106.38
617.563	115.38
617.771	112.38
617.978	102.38
618.185	117.38
618.393	110.38
618.6	109.38
618.807	123.38
619.015	90.38
619.222	115.38
619.429	113.38
619.637	103.38
619.844	105.38
620.051	85.38
620.258	100.38
620.466	109.38
620.673	117.38
620.88	117.38
621.087	112.38
621.294	105.38
621.501	100.38
621.708	112.38
621.915	120.38
622.122	100.38
622.329	119.38
622.536	98.38
622.743	109.38
622.95	116.38
623.157	103.38
623.364	115.38
623.571	119.38
623.778	89.38
623.985	117.38
624.192	105.38
624.399	105.38
624.606	107.38
624.812	87.38
625.019	91.38
625.226	89.38
625.433	101.38
625.639	106.38
625.846	101.38
626.053	89.38
626.259	91.38
626.466	85.38
626.673	82.38
626.879	83.38
627.086	92.38
627.293	93.38
627.499	96.38
627.706	114.38
627.912	91.38
628.119	101.38
628.325	104.38
628.532	101.38
628.738	107.38
628.945	95.38
629.151	100.38
629.357	106.38
629.564	86.38
629.77	87.38
629.976	90.38
630.183	104.38
630.389	112.38
630.595	96.38
630.802	99.38
631.008	103.38
631.214	117.38
631.42	111.38
631.627	89.38
631.833	100.38
632.039	90.38
632.245	108.38
632.451	103.38
632.657	98.38
632.863	106.38
633.069	84.38
633.275	98.38
633.481	106.38
633.688	114.38
633.893	99.38
634.099	93.38
634.305	102.38
634.511	90.38
634.717	92.38
634.923	90.38
635.129	96.38
635.335	99.38
635.541	101.38
635.747	106.38
635.952	107.38
636.158	107.38
636.364	110.38
636.57	102.38
636.775	94.38
636.981	107.38
637.187	118.38
637.392	98.38
637.598	95.38
637.804	102.38
638.009	91.38
638.215	101.38
638.421	99.38
638.626	91.38
638.832	99.38
639.037	87.38
639.243	94.38
639.448	115.38
639.654	90.38
639.859	90.38
640.065	88.38
640.27	90.38
640.475	94.38
640.681	104.38
640.886	99.38
641.091	103.38
641.297	93.38
641.502	89.38
641.707	111.38
641.913	95.38
642.118	85.38
642.323	90.38
642.528	102.38
642.733	87.38
642.939	90.38
643.144	99.38
643.349	94.38
643.554	102.38
643.759	90.38
643.964	80.38
644.169	94.38
644.374	94.38
644.579	106.38
644.784	102.38
644.989	102.38
645.194	98.38
645.399	95.38
645.604	85.38
645.809	103.38
646.014	97.38
646.219	103.38
646.423	99.38
646.628	99.38
646.833	96.38
647.038	98.38
647.243	87.38
647.447	107.38
647.652	100.38
647.857	100.38
648.062	98.38
648.266	92.38
648.471	75.38
648.676	101.38
648.88	91.38
649.085	97.38
649.289	97.38
649.494	85.38
649.698	87.38
649.903	89.38
650.107	93.38
650.312	89.38
650.516	85.38
650.721	91.38
650.925	96.38
651.13	98.38
651.334	85.38
651.539	103.38
651.743	100.38
651.947	98.38
652.152	105.38
652.356	95.38
652.56	97.38
652.764	91.38
652.969	86.38
653.173	83.38
653.377	79.38
653.581	90.38
653.785	81.38
653.99	89.38
654.194	90.38
654.398	87.38
654.602	98.38
654.806	93.38
655.01	87.38
655.214	95.38
655.418	87.38
655.622	84.38
655.826	98.38
656.03	77.38
656.234	88.38
656.438	97.38
656.642	83.38
656.846	90.38
657.049	82.38
657.253	83.38
657.457	85.38
657.661	92.38
657.865	74.38
658.068	101.38
658.272	93.38
658.476	78.38
658.68	91.38
658.883	95.38
659.087	74.38
659.291	84.38
659.494	81.38
659.698	79.38
659.901	78.38
660.105	78.38
660.309	87.38
660.512	84.38
660.716	84.38
660.919	80.38
661.123	86.38
661.326	73.38
661.53	80.38
661.733	84.38
661.936	84.38
662.14	80.38
662.343	81.38
662.546	70.38
662.75	73.38
662.953	92.38
663.156	67.38
663.36	80.38
663.563	84.38
663.766	83.38
663.969	87.38
664.173	79.38
664.376	85.38
664.579	63.38
664.782	80.38
664.985	83.38
665.188	75.38
665.391	73.38
665.594	84.38
665.797	77.38
666	68.38
666.203	76.38
666.406	93.38
666.609	78.38
666.812	89.38
667.015	88.38
667.218	70.38
667.421	90.38
667.624	73.38
667.827	87.38
668.03	89.38
668.232	69.38
668.435	74.38
668.638	89.38
668.841	77.38
669.043	84.38
669.246	83.38
669.449	87.38
669.651	96.38
669.854	93.38
670.057	81.38
670.259	80.38
670.462	71.38
670.665	82.38
670.867	79.38
671.07	65.38
671.272	81.38
671.475	88.38
671.677	75.38
671.88	67.38
672.082	79.38
672.284	87.38
672.487	95.38
672.689	69.38
672.892	84.38
