Data from Location2.07152019.Energy5.Lamp.07192019.3%Agarose_HRD10591_14-56-46-359.txt Node
Date: Fri Jul 19 14:56:46 EDT 2019
User: cochatt
Spectrometer: HR+D1059
Trigger mode: 1
Integration Time (sec): 1.000000E-1
Scans to average: 1
Electric dark correction enabled: true
Nonlinearity correction enabled: false
Boxcar width: 0
XAxis mode: Wavelengths
Number of Pixels in Spectrum: 2048
>>>>>Begin Spectral Data<<<<<
223.165	-10.12
223.4	-10.12
223.635	-10.12
223.869	-26.12
224.104	-18.12
224.338	-17.12
224.573	-17.12
224.808	-7.12
225.042	-14.12
225.277	-0.12
225.511	-1.12
225.746	9.88
225.98	-8.12
226.215	14.88
226.449	17.88
226.683	33.88
226.918	12.88
227.152	29.88
227.387	37.88
227.621	41.88
227.856	44.88
228.09	52.88
228.324	66.88
228.559	57.88
228.793	55.88
229.027	58.88
229.262	61.88
229.496	66.88
229.73	84.88
229.964	75.88
230.199	69.88
230.433	77.88
230.667	70.88
230.901	76.88
231.136	85.88
231.37	90.88
231.604	75.88
231.838	88.88
232.072	78.88
232.306	85.88
232.541	78.88
232.775	73.88
233.009	92.88
233.243	85.88
233.477	82.88
233.711	91.88
233.945	98.88
234.179	90.88
234.413	88.88
234.647	83.88
234.881	89.88
235.115	81.88
235.349	86.88
235.583	79.88
235.817	79.88
236.051	69.88
236.285	69.88
236.519	66.88
236.753	72.88
236.987	79.88
237.221	85.88
237.455	81.88
237.689	68.88
237.922	76.88
238.156	75.88
238.39	60.88
238.624	81.88
238.858	76.88
239.091	85.88
239.325	76.88
239.559	85.88
239.793	75.88
240.027	70.88
240.26	74.88
240.494	67.88
240.728	76.88
240.961	74.88
241.195	79.88
241.429	70.88
241.662	81.88
241.896	79.88
242.13	70.88
242.363	83.88
242.597	83.88
242.83	79.88
243.064	77.88
243.298	80.88
243.531	82.88
243.765	86.88
243.998	74.88
244.232	89.88
244.465	75.88
244.699	75.88
244.932	88.88
245.166	99.88
245.399	77.88
245.633	80.88
245.866	74.88
246.099	78.88
246.333	83.88
246.566	72.88
246.8	71.88
247.033	70.88
247.266	58.88
247.5	84.88
247.733	82.88
247.966	84.88
248.2	66.88
248.433	85.88
248.666	82.88
248.899	101.88
249.133	79.88
249.366	88.88
249.599	75.88
249.832	82.88
250.066	88.88
250.299	87.88
250.532	90.88
250.765	76.88
250.998	94.88
251.231	79.88
251.465	91.88
251.698	88.88
251.931	73.88
252.164	79.88
252.397	73.88
252.63	87.88
252.863	82.88
253.096	75.88
253.329	83.88
253.562	93.88
253.795	79.88
254.028	75.88
254.261	86.88
254.494	74.88
254.727	87.88
254.96	93.88
255.193	77.88
255.426	71.88
255.659	87.88
255.892	83.88
256.124	89.88
256.357	71.88
256.59	94.88
256.823	84.88
257.056	81.88
257.289	88.88
257.521	75.88
257.754	89.88
257.987	83.88
258.22	79.88
258.452	84.88
258.685	79.88
258.918	76.88
259.151	80.88
259.383	82.88
259.616	79.88
259.849	83.88
260.081	83.88
260.314	79.88
260.547	85.88
260.779	76.88
261.012	80.88
261.244	93.88
261.477	92.88
261.71	82.88
261.942	81.88
262.175	78.88
262.407	91.88
262.64	93.88
262.872	66.88
263.105	78.88
263.337	82.88
263.57	87.88
263.802	80.88
264.035	91.88
264.267	77.88
264.499	87.88
264.732	97.88
264.964	94.88
265.197	72.88
265.429	71.88
265.661	93.88
265.894	83.88
266.126	89.88
266.358	78.88
266.591	91.88
266.823	83.88
267.055	86.88
267.287	85.88
267.52	72.88
267.752	69.88
267.984	77.88
268.216	82.88
268.448	87.88
268.681	82.88
268.913	68.88
269.145	87.88
269.377	82.88
269.609	56.88
269.841	85.88
270.073	74.88
270.306	99.88
270.538	83.88
270.77	83.88
271.002	61.88
271.234	62.88
271.466	87.88
271.698	81.88
271.93	83.88
272.162	77.88
272.394	85.88
272.626	78.88
272.858	81.88
273.09	96.88
273.322	98.88
273.553	73.88
273.785	84.88
274.017	87.88
274.249	88.88
274.481	88.88
274.713	75.88
274.945	92.88
275.176	70.88
275.408	101.88
275.64	88.88
275.872	83.88
276.104	77.88
276.335	79.88
276.567	70.88
276.799	68.88
277.031	81.88
277.262	84.88
277.494	82.88
277.726	83.88
277.957	89.88
278.189	79.88
278.421	73.88
278.652	86.88
278.884	69.88
279.115	74.88
279.347	92.88
279.579	85.88
279.81	100.88
280.042	84.88
280.273	90.88
280.505	83.88
280.736	88.88
280.968	80.88
281.199	84.88
281.431	81.88
281.662	85.88
281.894	92.88
282.125	84.88
282.356	85.88
282.588	99.88
282.819	77.88
283.051	79.88
283.282	105.88
283.513	78.88
283.745	83.88
283.976	91.88
284.207	94.88
284.439	80.88
284.67	91.88
284.901	87.88
285.132	92.88
285.364	78.88
285.595	91.88
285.826	75.88
286.057	82.88
286.288	79.88
286.52	99.88
286.751	88.88
286.982	69.88
287.213	91.88
287.444	89.88
287.675	77.88
287.906	76.88
288.138	84.88
288.369	90.88
288.6	74.88
288.831	92.88
289.062	83.88
289.293	72.88
289.524	79.88
289.755	91.88
289.986	75.88
290.217	78.88
290.448	78.88
290.679	89.88
290.91	79.88
291.141	88.88
291.371	83.88
291.602	91.88
291.833	85.88
292.064	90.88
292.295	87.88
292.526	89.88
292.757	89.88
292.987	88.88
293.218	79.88
293.449	83.88
293.68	86.88
293.91	84.88
294.141	91.88
294.372	81.88
294.603	84.88
294.833	74.88
295.064	72.88
295.295	73.88
295.525	73.88
295.756	88.88
295.987	85.88
296.217	75.88
296.448	79.88
296.679	85.88
296.909	81.88
297.14	89.88
297.37	87.88
297.601	75.88
297.831	93.88
298.062	87.88
298.292	81.88
298.523	90.88
298.753	79.88
298.984	87.88
299.214	89.88
299.445	79.88
299.675	86.88
299.905	79.88
300.136	75.88
300.366	90.88
300.597	83.88
300.827	75.88
301.057	81.88
301.288	82.88
301.518	79.88
301.748	71.88
301.979	85.88
302.209	83.88
302.439	74.88
302.669	87.88
302.9	87.88
303.13	100.88
303.36	84.88
303.59	86.88
303.82	89.88
304.051	83.88
304.281	92.88
304.511	77.88
304.741	81.88
304.971	86.88
305.201	91.88
305.431	88.88
305.661	91.88
305.891	81.88
306.121	98.88
306.352	96.88
306.582	77.88
306.812	77.88
307.042	92.88
307.272	89.88
307.502	89.88
307.731	76.88
307.961	72.88
308.191	84.88
308.421	94.88
308.651	83.88
308.881	97.88
309.111	84.88
309.341	91.88
309.571	78.88
309.8	87.88
310.03	98.88
310.26	83.88
310.49	87.88
310.72	80.88
310.949	87.88
311.179	76.88
311.409	80.88
311.639	92.88
311.868	79.88
312.098	72.88
312.328	76.88
312.557	91.88
312.787	76.88
313.017	88.88
313.246	84.88
313.476	74.88
313.706	95.88
313.935	77.88
314.165	103.88
314.394	92.88
314.624	73.88
314.853	90.88
315.083	89.88
315.312	79.88
315.542	83.88
315.771	83.88
316.001	86.88
316.23	87.88
316.46	89.88
316.689	81.88
316.919	93.88
317.148	93.88
317.377	75.88
317.607	82.88
317.836	98.88
318.065	74.88
318.295	82.88
318.524	86.88
318.753	86.88
318.983	83.88
319.212	89.88
319.441	77.88
319.67	75.88
319.9	87.88
320.129	81.88
320.358	91.88
320.587	94.88
320.816	87.88
321.046	93.88
321.275	82.88
321.504	88.88
321.733	88.88
321.962	87.88
322.191	83.88
322.42	93.88
322.649	81.88
322.878	91.88
323.108	89.88
323.337	74.88
323.566	85.88
323.795	85.88
324.024	83.88
324.253	100.88
324.482	72.88
324.71	71.88
324.939	73.88
325.168	90.88
325.397	105.88
325.626	92.88
325.855	78.88
326.084	87.88
326.313	79.88
326.542	76.88
326.77	93.88
326.999	89.88
327.228	77.88
327.457	76.88
327.686	93.88
327.914	90.88
328.143	98.88
328.372	83.88
328.6	90.88
328.829	99.88
329.058	86.88
329.287	88.88
329.515	92.88
329.744	98.88
329.972	82.88
330.201	84.88
330.43	97.88
330.658	82.88
330.887	79.88
331.115	90.88
331.344	75.88
331.572	94.88
331.801	79.88
332.03	78.88
332.258	94.88
332.486	87.88
332.715	88.88
332.943	75.88
333.172	73.88
333.4	77.88
333.629	79.88
333.857	90.88
334.085	80.88
334.314	89.88
334.542	84.88
334.771	71.88
334.999	80.88
335.227	91.88
335.455	87.88
335.684	93.88
335.912	77.88
336.14	97.88
336.369	89.88
336.597	83.88
336.825	92.88
337.053	87.88
337.281	92.88
337.51	87.88
337.738	89.88
337.966	93.88
338.194	98.88
338.422	87.88
338.65	97.88
338.878	84.88
339.106	87.88
339.334	116.88
339.562	92.88
339.79	85.88
340.018	76.88
340.246	94.88
340.474	85.88
340.702	93.88
340.93	73.88
341.158	84.88
341.386	83.88
341.614	70.88
341.842	84.88
342.07	83.88
342.298	74.88
342.526	81.88
342.754	78.88
342.981	79.88
343.209	80.88
343.437	86.88
343.665	82.88
343.893	92.88
344.12	78.88
344.348	81.88
344.576	94.88
344.804	78.88
345.031	90.88
345.259	87.88
345.487	86.88
345.714	75.88
345.942	89.88
346.17	84.88
346.397	92.88
346.625	83.88
346.853	71.88
347.08	84.88
347.308	97.88
347.535	76.88
347.763	92.88
347.99	91.88
348.218	77.88
348.445	76.88
348.673	83.88
348.9	83.88
349.128	95.88
349.355	82.88
349.583	73.88
349.81	81.88
350.037	87.88
350.265	77.88
350.492	82.88
350.72	76.88
350.947	84.88
351.174	85.88
351.402	103.88
351.629	84.88
351.856	76.88
352.083	74.88
352.311	84.88
352.538	94.88
352.765	98.88
352.992	92.88
353.22	78.88
353.447	90.88
353.674	94.88
353.901	79.88
354.128	82.88
354.355	83.88
354.583	94.88
354.81	90.88
355.037	90.88
355.264	86.88
355.491	92.88
355.718	72.88
355.945	83.88
356.172	91.88
356.399	83.88
356.626	94.88
356.853	69.88
357.08	93.88
357.307	99.88
357.534	100.88
357.761	88.88
357.988	80.88
358.215	84.88
358.441	78.88
358.668	93.88
358.895	71.88
359.122	91.88
359.349	85.88
359.576	83.88
359.802	78.88
360.029	90.88
360.256	94.88
360.483	66.88
360.709	79.88
360.936	68.88
361.163	69.88
361.39	94.88
361.616	83.88
361.843	87.88
362.07	83.88
362.296	83.88
362.523	82.88
362.749	92.88
362.976	83.88
363.203	91.88
363.429	73.88
363.656	85.88
363.882	78.88
364.109	76.88
364.335	94.88
364.562	86.88
364.788	85.88
365.015	89.88
365.241	79.88
365.468	88.88
365.694	91.88
365.92	80.88
366.147	90.88
366.373	92.88
366.599	79.88
366.826	88.88
367.052	90.88
367.278	81.88
367.505	100.88
367.731	92.88
367.957	85.88
368.184	97.88
368.41	91.88
368.636	91.88
368.862	99.88
369.089	85.88
369.315	87.88
369.541	106.88
369.767	87.88
369.993	98.88
370.219	98.88
370.445	79.88
370.672	96.88
370.898	88.88
371.124	80.88
371.35	85.88
371.576	76.88
371.802	79.88
372.028	91.88
372.254	87.88
372.48	90.88
372.706	99.88
372.932	88.88
373.158	87.88
373.384	103.88
373.61	86.88
373.835	102.88
374.061	102.88
374.287	92.88
374.513	106.88
374.739	91.88
374.965	95.88
375.191	91.88
375.416	91.88
375.642	104.88
375.868	100.88
376.094	81.88
376.319	89.88
376.545	101.88
376.771	87.88
376.997	89.88
377.222	101.88
377.448	92.88
377.674	95.88
377.899	90.88
378.125	81.88
378.35	99.88
378.576	99.88
378.802	94.88
379.027	91.88
379.253	99.88
379.478	92.88
379.704	97.88
379.929	99.88
380.155	97.88
380.38	94.88
380.606	110.88
380.831	93.88
381.057	103.88
381.282	90.88
381.507	100.88
381.733	103.88
381.958	103.88
382.184	82.88
382.409	95.88
382.634	86.88
382.86	98.88
383.085	105.88
383.31	97.88
383.535	117.88
383.761	105.88
383.986	113.88
384.211	85.88
384.436	99.88
384.662	102.88
384.887	87.88
385.112	84.88
385.337	111.88
385.562	110.88
385.787	99.88
386.013	112.88
386.238	107.88
386.463	98.88
386.688	101.88
386.913	107.88
387.138	97.88
387.363	114.88
387.588	102.88
387.813	110.88
388.038	104.88
388.263	105.88
388.488	113.88
388.713	102.88
388.938	103.88
389.163	106.88
389.387	103.88
389.612	84.88
389.837	86.88
390.062	103.88
390.287	120.88
390.512	94.88
390.736	102.88
390.961	102.88
391.186	107.88
391.411	106.88
391.636	95.88
391.86	108.88
392.085	123.88
392.31	101.88
392.534	118.88
392.759	107.88
392.984	103.88
393.208	104.88
393.433	102.88
393.658	88.88
393.882	97.88
394.107	123.88
394.331	116.88
394.556	115.88
394.78	119.88
395.005	97.88
395.229	103.88
395.454	102.88
395.678	107.88
395.903	103.88
396.127	101.88
396.352	123.88
396.576	107.88
396.801	110.88
397.025	105.88
397.249	99.88
397.474	114.88
397.698	107.88
397.922	109.88
398.147	86.88
398.371	93.88
398.595	111.88
398.82	115.88
399.044	109.88
399.268	118.88
399.492	121.88
399.717	115.88
399.941	106.88
400.165	110.88
400.389	134.88
400.613	105.88
400.837	117.88
401.062	115.88
401.286	116.88
401.51	107.88
401.734	117.88
401.958	113.88
402.182	107.88
402.406	103.88
402.63	100.88
402.854	110.88
403.078	118.88
403.302	115.88
403.526	116.88
403.75	107.88
403.974	126.88
404.198	123.88
404.422	120.88
404.645	109.88
404.869	114.88
405.093	106.88
405.317	125.88
405.541	124.88
405.765	119.88
405.988	106.88
406.212	127.88
406.436	117.88
406.66	116.88
406.883	128.88
407.107	122.88
407.331	119.88
407.555	123.88
407.778	120.88
408.002	137.88
408.226	116.88
408.449	115.88
408.673	133.88
408.896	122.88
409.12	121.88
409.344	108.88
409.567	123.88
409.791	114.88
410.014	106.88
410.238	125.88
410.461	121.88
410.685	135.88
410.908	125.88
411.132	117.88
411.355	118.88
411.578	127.88
411.802	107.88
412.025	114.88
412.249	125.88
412.472	131.88
412.695	113.88
412.919	129.88
413.142	115.88
413.365	114.88
413.589	114.88
413.812	133.88
414.035	129.88
414.258	129.88
414.482	124.88
414.705	106.88
414.928	127.88
415.151	108.88
415.374	123.88
415.597	129.88
415.821	136.88
416.044	129.88
416.267	113.88
416.49	141.88
416.713	130.88
416.936	127.88
417.159	119.88
417.382	116.88
417.605	120.88
417.828	139.88
418.051	133.88
418.274	128.88
418.497	126.88
418.72	139.88
418.943	129.88
419.166	146.88
419.389	154.88
419.611	125.88
419.834	143.88
420.057	117.88
420.28	126.88
420.503	138.88
420.726	137.88
420.948	135.88
421.171	130.88
421.394	133.88
421.617	131.88
421.839	143.88
422.062	142.88
422.285	136.88
422.507	125.88
422.73	120.88
422.953	126.88
423.175	134.88
423.398	127.88
423.621	133.88
423.843	125.88
424.066	126.88
424.288	136.88
424.511	141.88
424.733	139.88
424.956	144.88
425.178	143.88
425.401	127.88
425.623	140.88
425.846	147.88
426.068	131.88
426.291	138.88
426.513	129.88
426.735	119.88
426.958	141.88
427.18	124.88
427.402	134.88
427.625	133.88
427.847	137.88
428.069	143.88
428.292	127.88
428.514	121.88
428.736	124.88
428.958	110.88
429.181	125.88
429.403	121.88
429.625	136.88
429.847	142.88
430.069	150.88
430.292	128.88
430.514	128.88
430.736	125.88
430.958	126.88
431.18	123.88
431.402	126.88
431.624	130.88
431.846	104.88
432.068	97.88
432.29	96.88
432.512	104.88
432.734	117.88
432.956	126.88
433.178	121.88
433.4	131.88
433.622	133.88
433.844	126.88
434.066	122.88
434.287	118.88
434.509	110.88
434.731	96.88
434.953	122.88
435.175	126.88
435.397	125.88
435.618	123.88
435.84	110.88
436.062	119.88
436.284	125.88
436.505	143.88
436.727	129.88
436.949	119.88
437.17	135.88
437.392	134.88
437.614	135.88
437.835	103.88
438.057	123.88
438.278	127.88
438.5	133.88
438.721	131.88
438.943	136.88
439.165	137.88
439.386	137.88
439.608	135.88
439.829	144.88
440.05	148.88
440.272	139.88
440.493	147.88
440.715	149.88
440.936	140.88
441.158	141.88
441.379	136.88
441.6	147.88
441.822	154.88
442.043	142.88
442.264	152.88
442.486	135.88
442.707	141.88
442.928	146.88
443.149	122.88
443.371	138.88
443.592	138.88
443.813	145.88
444.034	133.88
444.255	138.88
444.476	141.88
444.698	123.88
444.919	139.88
445.14	266.88
445.361	215.88
445.582	147.88
445.803	127.88
446.024	160.88
446.245	149.88
446.466	154.88
446.687	167.88
446.908	144.88
447.129	154.88
447.35	153.88
447.571	142.88
447.792	166.88
448.013	137.88
448.234	139.88
448.455	138.88
448.675	150.88
448.896	136.88
449.117	145.88
449.338	133.88
449.559	131.88
449.779	129.88
450	117.88
450.221	135.88
450.442	150.88
450.662	128.88
450.883	145.88
451.104	129.88
451.324	131.88
451.545	123.88
451.766	122.88
451.986	131.88
452.207	124.88
452.428	122.88
452.648	124.88
452.869	127.88
453.089	114.88
453.31	118.88
453.53	102.88
453.751	102.88
453.971	105.88
454.192	113.88
454.412	109.88
454.633	110.88
454.853	126.88
455.073	109.88
455.294	133.88
455.514	117.88
455.734	125.88
455.955	129.88
456.175	110.88
456.395	118.88
456.616	110.88
456.836	115.88
457.056	115.88
457.276	108.88
457.497	110.88
457.717	106.88
457.937	110.88
458.157	118.88
458.377	104.88
458.598	108.88
458.818	90.88
459.038	81.88
459.258	83.88
459.478	75.88
459.698	93.88
459.918	103.88
460.138	115.88
460.358	118.88
460.578	111.88
460.798	104.88
461.018	125.88
461.238	104.88
461.458	101.88
461.678	103.88
461.898	123.88
462.118	125.88
462.338	118.88
462.558	113.88
462.777	117.88
462.997	112.88
463.217	106.88
463.437	111.88
463.657	104.88
463.876	91.88
464.096	106.88
464.316	93.88
464.536	109.88
464.755	113.88
464.975	113.88
465.195	107.88
465.414	128.88
465.634	120.88
465.854	108.88
466.073	110.88
466.293	109.88
466.512	138.88
466.732	133.88
466.951	133.88
467.171	131.88
467.391	143.88
467.61	127.88
467.829	119.88
468.049	134.88
468.268	127.88
468.488	123.88
468.707	131.88
468.927	131.88
469.146	144.88
469.365	139.88
469.585	143.88
469.804	150.88
470.023	141.88
470.243	137.88
470.462	152.88
470.681	138.88
470.901	124.88
471.12	133.88
471.339	139.88
471.558	143.88
471.777	137.88
471.997	137.88
472.216	124.88
472.435	115.88
472.654	119.88
472.873	104.88
473.092	108.88
473.311	126.88
473.53	121.88
473.749	131.88
473.968	128.88
474.187	126.88
474.406	111.88
474.625	108.88
474.844	118.88
475.063	127.88
475.282	126.88
475.501	122.88
475.72	119.88
475.939	113.88
476.158	127.88
476.377	123.88
476.596	119.88
476.814	117.88
477.033	100.88
477.252	101.88
477.471	122.88
477.69	139.88
477.908	131.88
478.127	146.88
478.346	138.88
478.564	127.88
478.783	127.88
479.002	125.88
479.22	143.88
479.439	113.88
479.658	119.88
479.876	122.88
480.095	106.88
480.313	119.88
480.532	117.88
480.751	106.88
480.969	89.88
481.188	92.88
481.406	85.88
481.624	93.88
481.843	85.88
482.061	86.88
482.28	107.88
482.498	111.88
482.717	116.88
482.935	121.88
483.153	135.88
483.372	143.88
483.59	151.88
483.808	158.88
484.027	137.88
484.245	127.88
484.463	148.88
484.681	141.88
484.9	141.88
485.118	153.88
485.336	133.88
485.554	110.88
485.772	100.88
485.99	97.88
486.209	123.88
486.427	110.88
486.645	127.88
486.863	149.88
487.081	137.88
487.299	129.88
487.517	132.88
487.735	157.88
487.953	195.88
488.171	188.88
488.389	172.88
488.607	150.88
488.825	151.88
489.043	130.88
489.261	128.88
489.479	139.88
489.696	132.88
489.914	118.88
490.132	142.88
490.35	152.88
490.568	150.88
490.786	159.88
491.003	185.88
491.221	172.88
491.439	183.88
491.657	193.88
491.874	209.88
492.092	210.88
492.31	234.88
492.527	213.88
492.745	207.88
492.963	187.88
493.18	173.88
493.398	190.88
493.615	192.88
493.833	183.88
494.05	190.88
494.268	174.88
494.485	180.88
494.703	168.88
494.92	175.88
495.138	162.88
495.355	188.88
495.573	178.88
495.79	189.88
496.008	168.88
496.225	179.88
496.442	167.88
496.66	167.88
496.877	169.88
497.094	171.88
497.312	165.88
497.529	147.88
497.746	165.88
497.963	151.88
498.181	147.88
498.398	109.88
498.615	135.88
498.832	108.88
499.049	127.88
499.267	123.88
499.484	123.88
499.701	133.88
499.918	131.88
500.135	136.88
500.352	132.88
500.569	157.88
500.786	149.88
501.003	145.88
501.22	139.88
501.437	136.88
501.654	133.88
501.871	135.88
502.088	133.88
502.305	143.88
502.522	130.88
502.739	126.88
502.956	132.88
503.172	116.88
503.389	128.88
503.606	125.88
503.823	122.88
504.04	111.88
504.256	121.88
504.473	113.88
504.69	140.88
504.907	116.88
505.123	126.88
505.34	119.88
505.557	124.88
505.773	133.88
505.99	116.88
506.207	116.88
506.423	137.88
506.64	135.88
506.856	127.88
507.073	123.88
507.289	116.88
507.506	106.88
507.722	121.88
507.939	124.88
508.155	127.88
508.372	124.88
508.588	115.88
508.805	110.88
509.021	102.88
509.238	119.88
509.454	124.88
509.67	95.88
509.887	101.88
510.103	85.88
510.319	93.88
510.536	90.88
510.752	86.88
510.968	81.88
511.184	82.88
511.401	92.88
511.617	91.88
511.833	93.88
512.049	113.88
512.265	93.88
512.481	94.88
512.698	103.88
512.914	100.88
513.13	92.88
513.346	78.88
513.562	95.88
513.778	89.88
513.994	87.88
514.21	83.88
514.426	81.88
514.642	94.88
514.858	85.88
515.074	77.88
515.29	91.88
515.506	98.88
515.721	89.88
515.937	75.88
516.153	88.88
516.369	75.88
516.585	102.88
516.801	78.88
517.016	92.88
517.232	103.88
517.448	103.88
517.664	91.88
517.879	96.88
518.095	92.88
518.311	91.88
518.527	90.88
518.742	101.88
518.958	82.88
519.173	101.88
519.389	112.88
519.605	105.88
519.82	119.88
520.036	106.88
520.251	103.88
520.467	103.88
520.682	99.88
520.898	95.88
521.113	94.88
521.329	100.88
521.544	73.88
521.76	94.88
521.975	94.88
522.19	105.88
522.406	106.88
522.621	92.88
522.836	99.88
523.052	118.88
523.267	102.88
523.482	105.88
523.698	110.88
523.913	118.88
524.128	117.88
524.343	118.88
524.559	110.88
524.774	117.88
524.989	124.88
525.204	126.88
525.419	108.88
525.634	103.88
525.849	114.88
526.064	119.88
526.28	105.88
526.495	110.88
526.71	89.88
526.925	89.88
527.14	91.88
527.355	90.88
527.57	88.88
527.785	87.88
527.999	91.88
528.214	95.88
528.429	108.88
528.644	133.88
528.859	139.88
529.074	137.88
529.289	155.88
529.503	154.88
529.718	132.88
529.933	113.88
530.148	107.88
530.363	108.88
530.577	86.88
530.792	91.88
531.007	81.88
531.221	96.88
531.436	87.88
531.651	95.88
531.865	93.88
532.08	93.88
532.295	84.88
532.509	87.88
532.724	79.88
532.938	100.88
533.153	94.88
533.367	115.88
533.582	118.88
533.796	130.88
534.011	111.88
534.225	93.88
534.44	99.88
534.654	94.88
534.868	100.88
535.083	96.88
535.297	116.88
535.511	115.88
535.726	100.88
535.94	103.88
536.154	103.88
536.369	90.88
536.583	74.88
536.797	91.88
537.011	72.88
537.225	92.88
537.44	88.88
537.654	74.88
537.868	91.88
538.082	88.88
538.296	104.88
538.51	106.88
538.724	126.88
538.938	127.88
539.153	122.88
539.367	127.88
539.581	113.88
539.795	101.88
540.009	108.88
540.222	112.88
540.436	107.88
540.65	113.88
540.864	119.88
541.078	144.88
541.292	153.88
541.506	151.88
541.72	170.88
541.934	188.88
542.147	196.88
542.361	183.88
542.575	172.88
542.789	135.88
543.002	131.88
543.216	116.88
543.43	117.88
543.644	129.88
543.857	150.88
544.071	147.88
544.285	160.88
544.498	154.88
544.712	149.88
544.925	157.88
545.139	164.88
545.352	155.88
545.566	165.88
545.779	172.88
545.993	169.88
546.206	170.88
546.42	156.88
546.633	169.88
546.847	168.88
547.06	158.88
547.274	162.88
547.487	172.88
547.7	179.88
547.914	171.88
548.127	171.88
548.34	157.88
548.554	174.88
548.767	158.88
548.98	145.88
549.193	159.88
549.407	160.88
549.62	151.88
549.833	152.88
550.046	163.88
550.259	169.88
550.473	173.88
550.686	133.88
550.899	143.88
551.112	149.88
551.325	158.88
551.538	116.88
551.751	125.88
551.964	125.88
552.177	131.88
552.39	139.88
552.603	139.88
552.816	146.88
553.029	157.88
553.242	147.88
553.455	159.88
553.667	151.88
553.88	147.88
554.093	153.88
554.306	153.88
554.519	150.88
554.732	137.88
554.944	159.88
555.157	147.88
555.37	150.88
555.583	146.88
555.795	133.88
556.008	135.88
556.221	142.88
556.433	128.88
556.646	141.88
556.859	151.88
557.071	133.88
557.284	129.88
557.496	147.88
557.709	147.88
557.921	150.88
558.134	139.88
558.346	131.88
558.559	143.88
558.771	131.88
558.984	141.88
559.196	129.88
559.409	133.88
559.621	132.88
559.833	127.88
560.046	123.88
560.258	127.88
560.47	137.88
560.683	135.88
560.895	137.88
561.107	144.88
561.32	123.88
561.532	141.88
561.744	136.88
561.956	142.88
562.168	134.88
562.381	131.88
562.593	126.88
562.805	131.88
563.017	129.88
563.229	138.88
563.441	137.88
563.653	117.88
563.865	106.88
564.077	112.88
564.289	110.88
564.501	121.88
564.713	137.88
564.925	128.88
565.137	119.88
565.349	120.88
565.561	122.88
565.773	126.88
565.985	117.88
566.197	107.88
566.408	105.88
566.62	126.88
566.832	125.88
567.044	119.88
567.255	119.88
567.467	107.88
567.679	124.88
567.891	119.88
568.102	117.88
568.314	108.88
568.526	81.88
568.737	85.88
568.949	89.88
569.161	83.88
569.372	74.88
569.584	83.88
569.795	82.88
570.007	80.88
570.218	94.88
570.43	91.88
570.641	104.88
570.853	97.88
571.064	105.88
571.276	103.88
571.487	101.88
571.698	106.88
571.91	95.88
572.121	115.88
572.333	105.88
572.544	95.88
572.755	96.88
572.966	94.88
573.178	94.88
573.389	101.88
573.6	98.88
573.811	92.88
574.023	83.88
574.234	79.88
574.445	89.88
574.656	75.88
574.867	95.88
575.078	102.88
575.289	107.88
575.501	97.88
575.712	92.88
575.923	97.88
576.134	97.88
576.345	89.88
576.556	102.88
576.767	94.88
576.978	103.88
577.188	105.88
577.399	95.88
577.61	100.88
577.821	102.88
578.032	102.88
578.243	116.88
578.454	103.88
578.665	96.88
578.875	96.88
579.086	85.88
579.297	89.88
579.508	87.88
579.718	86.88
579.929	83.88
580.14	95.88
580.35	89.88
580.561	89.88
580.772	89.88
580.982	94.88
581.193	94.88
581.403	86.88
581.614	87.88
581.825	98.88
582.035	96.88
582.246	104.88
582.456	93.88
582.667	91.88
582.877	88.88
583.087	89.88
583.298	91.88
583.508	99.88
583.719	86.88
583.929	85.88
584.139	85.88
584.35	93.88
584.56	91.88
584.77	100.88
584.981	89.88
585.191	97.88
585.401	98.88
585.611	88.88
585.821	99.88
586.032	97.88
586.242	83.88
586.452	79.88
586.662	70.88
586.872	83.88
587.082	82.88
587.292	97.88
587.502	84.88
587.713	89.88
587.923	85.88
588.133	83.88
588.343	76.88
588.553	86.88
588.762	82.88
588.972	98.88
589.182	84.88
589.392	94.88
589.602	90.88
589.812	90.88
590.022	98.88
590.232	90.88
590.441	87.88
590.651	74.88
590.861	66.88
591.071	86.88
591.281	95.88
591.49	83.88
591.7	91.88
591.91	78.88
592.119	87.88
592.329	90.88
592.539	99.88
592.748	87.88
592.958	97.88
593.167	81.88
593.377	80.88
593.587	91.88
593.796	93.88
594.006	70.88
594.215	89.88
594.424	92.88
594.634	91.88
594.843	90.88
595.053	94.88
595.262	84.88
595.472	84.88
595.681	79.88
595.89	91.88
596.1	93.88
596.309	101.88
596.518	89.88
596.727	97.88
596.937	101.88
597.146	102.88
597.355	94.88
597.564	96.88
597.774	98.88
597.983	94.88
598.192	89.88
598.401	103.88
598.61	86.88
598.819	90.88
599.028	103.88
599.237	89.88
599.446	93.88
599.655	91.88
599.864	96.88
600.073	95.88
600.282	102.88
600.491	97.88
600.7	117.88
600.909	109.88
601.118	95.88
601.327	108.88
601.536	100.88
601.745	101.88
601.953	107.88
602.162	118.88
602.371	108.88
602.58	113.88
602.789	105.88
602.997	104.88
603.206	115.88
603.415	124.88
603.623	115.88
603.832	114.88
604.041	101.88
604.249	117.88
604.458	100.88
604.666	100.88
604.875	88.88
605.084	113.88
605.292	105.88
605.501	105.88
605.709	113.88
605.918	125.88
606.126	122.88
606.334	123.88
606.543	110.88
606.751	127.88
606.96	121.88
607.168	105.88
607.376	106.88
607.585	111.88
607.793	123.88
608.001	115.88
608.21	125.88
608.418	113.88
608.626	123.88
608.834	108.88
609.043	120.88
609.251	131.88
609.459	115.88
609.667	122.88
609.875	122.88
610.083	116.88
610.291	116.88
610.499	118.88
610.707	125.88
610.916	121.88
611.124	109.88
611.332	116.88
611.54	113.88
611.748	102.88
611.955	99.88
612.163	109.88
612.371	105.88
612.579	116.88
612.787	99.88
612.995	113.88
613.203	98.88
613.411	122.88
613.618	101.88
613.826	115.88
614.034	103.88
614.242	117.88
614.449	125.88
614.657	115.88
614.865	117.88
615.072	117.88
615.28	109.88
615.488	126.88
615.695	104.88
615.903	109.88
616.111	114.88
616.318	111.88
616.526	127.88
616.733	102.88
616.941	118.88
617.148	109.88
617.356	119.88
617.563	115.88
617.771	99.88
617.978	113.88
618.185	100.88
618.393	111.88
618.6	126.88
618.807	104.88
619.015	115.88
619.222	125.88
619.429	104.88
619.637	113.88
619.844	89.88
620.051	101.88
620.258	103.88
620.466	114.88
620.673	112.88
620.88	93.88
621.087	109.88
621.294	119.88
621.501	106.88
621.708	113.88
621.915	113.88
622.122	114.88
622.329	106.88
622.536	123.88
622.743	101.88
622.95	121.88
623.157	110.88
623.364	109.88
623.571	100.88
623.778	117.88
623.985	109.88
624.192	108.88
624.399	94.88
624.606	122.88
624.812	115.88
625.019	99.88
625.226	114.88
625.433	102.88
625.639	105.88
625.846	98.88
626.053	98.88
626.259	94.88
626.466	95.88
626.673	85.88
626.879	92.88
627.086	97.88
627.293	97.88
627.499	107.88
627.706	95.88
627.912	118.88
628.119	102.88
628.325	125.88
628.532	108.88
628.738	113.88
628.945	106.88
629.151	108.88
629.357	100.88
629.564	110.88
629.77	104.88
629.976	88.88
630.183	98.88
630.389	90.88
630.595	107.88
630.802	107.88
631.008	98.88
631.214	103.88
631.42	109.88
631.627	117.88
631.833	105.88
632.039	94.88
632.245	99.88
632.451	101.88
632.657	100.88
632.863	116.88
633.069	99.88
633.275	103.88
633.481	89.88
633.688	116.88
633.893	104.88
634.099	88.88
634.305	93.88
634.511	98.88
634.717	100.88
634.923	102.88
635.129	102.88
635.335	94.88
635.541	108.88
635.747	95.88
635.952	97.88
636.158	104.88
636.364	93.88
636.57	118.88
636.775	99.88
636.981	114.88
637.187	95.88
637.392	100.88
637.598	103.88
637.804	113.88
638.009	109.88
638.215	113.88
638.421	90.88
638.626	89.88
638.832	102.88
639.037	96.88
639.243	102.88
639.448	108.88
639.654	120.88
639.859	97.88
640.065	121.88
640.27	115.88
640.475	102.88
640.681	97.88
640.886	89.88
641.091	100.88
641.297	114.88
641.502	99.88
641.707	113.88
641.913	91.88
642.118	97.88
642.323	91.88
642.528	100.88
642.733	105.88
642.939	110.88
643.144	100.88
643.349	95.88
643.554	92.88
643.759	99.88
643.964	101.88
644.169	92.88
644.374	100.88
644.579	105.88
644.784	96.88
644.989	100.88
645.194	103.88
645.399	118.88
645.604	97.88
645.809	93.88
646.014	94.88
646.219	108.88
646.423	98.88
646.628	92.88
646.833	94.88
647.038	94.88
647.243	95.88
647.447	105.88
647.652	102.88
647.857	103.88
648.062	100.88
648.266	95.88
648.471	119.88
648.676	95.88
648.88	74.88
649.085	111.88
649.289	92.88
649.494	98.88
649.698	95.88
649.903	103.88
650.107	81.88
650.312	104.88
650.516	94.88
650.721	96.88
650.925	91.88
651.13	83.88
651.334	88.88
651.539	104.88
651.743	104.88
651.947	99.88
652.152	102.88
652.356	100.88
652.56	93.88
652.764	98.88
652.969	103.88
653.173	94.88
653.377	105.88
653.581	86.88
653.785	108.88
653.99	93.88
654.194	81.88
654.398	78.88
654.602	94.88
654.806	90.88
655.01	77.88
655.214	88.88
655.418	104.88
655.622	92.88
655.826	98.88
656.03	92.88
656.234	89.88
656.438	92.88
656.642	90.88
656.846	79.88
657.049	86.88
657.253	92.88
657.457	82.88
657.661	76.88
657.865	84.88
658.068	83.88
658.272	82.88
658.476	85.88
658.68	93.88
658.883	76.88
659.087	87.88
659.291	89.88
659.494	103.88
659.698	94.88
659.901	85.88
660.105	87.88
660.309	93.88
660.512	85.88
660.716	86.88
660.919	75.88
661.123	82.88
661.326	82.88
661.53	98.88
661.733	98.88
661.936	85.88
662.14	85.88
662.343	77.88
662.546	84.88
662.75	81.88
662.953	89.88
663.156	78.88
663.36	79.88
663.563	83.88
663.766	90.88
663.969	83.88
664.173	95.88
664.376	73.88
664.579	74.88
664.782	82.88
664.985	81.88
665.188	85.88
665.391	82.88
665.594	86.88
665.797	82.88
666	84.88
666.203	78.88
666.406	91.88
666.609	88.88
666.812	79.88
667.015	90.88
667.218	94.88
667.421	86.88
667.624	81.88
667.827	79.88
668.03	93.88
668.232	88.88
668.435	94.88
668.638	62.88
668.841	81.88
669.043	81.88
669.246	84.88
669.449	89.88
669.651	90.88
669.854	74.88
670.057	81.88
670.259	83.88
670.462	70.88
670.665	76.88
670.867	77.88
671.07	84.88
671.272	87.88
671.475	101.88
671.677	84.88
671.88	97.88
672.082	83.88
672.284	85.88
672.487	90.88
672.689	88.88
672.892	67.88
