Data from Location2.07152019.Energy5.Lamp.07192019.3%Agarose_HRD10591_14-56-47-358.txt Node
Date: Fri Jul 19 14:56:47 EDT 2019
User: cochatt
Spectrometer: HR+D1059
Trigger mode: 1
Integration Time (sec): 1.000000E-1
Scans to average: 1
Electric dark correction enabled: true
Nonlinearity correction enabled: false
Boxcar width: 0
XAxis mode: Wavelengths
Number of Pixels in Spectrum: 2048
>>>>>Begin Spectral Data<<<<<
223.165	-13.31
223.4	-13.31
223.635	-13.31
223.869	-12.31
224.104	-21.31
224.338	-24.31
224.573	-14.31
224.808	1.69
225.042	-13.31
225.277	-6.31
225.511	-5.31
225.746	3.69
225.98	2.69
226.215	7.69
226.449	18.69
226.683	21.69
226.918	27.69
227.152	26.69
227.387	24.69
227.621	24.69
227.856	33.69
228.09	27.69
228.324	46.69
228.559	55.69
228.793	50.69
229.027	61.69
229.262	65.69
229.496	53.69
229.73	61.69
229.964	78.69
230.199	54.69
230.433	64.69
230.667	73.69
230.901	84.69
231.136	94.69
231.37	78.69
231.604	68.69
231.838	81.69
232.072	71.69
232.306	81.69
232.541	82.69
232.775	73.69
233.009	79.69
233.243	70.69
233.477	71.69
233.711	80.69
233.945	77.69
234.179	84.69
234.413	78.69
234.647	69.69
234.881	72.69
235.115	81.69
235.349	91.69
235.583	78.69
235.817	82.69
236.051	78.69
236.285	58.69
236.519	78.69
236.753	71.69
236.987	75.69
237.221	82.69
237.455	76.69
237.689	70.69
237.922	81.69
238.156	65.69
238.39	69.69
238.624	75.69
238.858	65.69
239.091	67.69
239.325	85.69
239.559	72.69
239.793	65.69
240.027	74.69
240.26	72.69
240.494	67.69
240.728	61.69
240.961	71.69
241.195	80.69
241.429	64.69
241.662	69.69
241.896	64.69
242.13	66.69
242.363	61.69
242.597	78.69
242.83	85.69
243.064	66.69
243.298	65.69
243.531	69.69
243.765	81.69
243.998	72.69
244.232	80.69
244.465	81.69
244.699	82.69
244.932	76.69
245.166	92.69
245.399	71.69
245.633	61.69
245.866	71.69
246.099	77.69
246.333	70.69
246.566	69.69
246.8	93.69
247.033	79.69
247.266	62.69
247.5	66.69
247.733	69.69
247.966	71.69
248.2	57.69
248.433	70.69
248.666	83.69
248.899	89.69
249.133	86.69
249.366	89.69
249.599	65.69
249.832	62.69
250.066	74.69
250.299	61.69
250.532	81.69
250.765	70.69
250.998	77.69
251.231	69.69
251.465	76.69
251.698	77.69
251.931	74.69
252.164	67.69
252.397	73.69
252.63	78.69
252.863	69.69
253.096	87.69
253.329	69.69
253.562	68.69
253.795	90.69
254.028	75.69
254.261	69.69
254.494	82.69
254.727	80.69
254.96	79.69
255.193	72.69
255.426	83.69
255.659	80.69
255.892	82.69
256.124	87.69
256.357	64.69
256.59	81.69
256.823	78.69
257.056	85.69
257.289	84.69
257.521	80.69
257.754	79.69
257.987	73.69
258.22	71.69
258.452	87.69
258.685	75.69
258.918	67.69
259.151	74.69
259.383	75.69
259.616	69.69
259.849	74.69
260.081	69.69
260.314	85.69
260.547	81.69
260.779	90.69
261.012	75.69
261.244	69.69
261.477	83.69
261.71	73.69
261.942	84.69
262.175	85.69
262.407	90.69
262.64	76.69
262.872	83.69
263.105	71.69
263.337	85.69
263.57	77.69
263.802	71.69
264.035	77.69
264.267	67.69
264.499	57.69
264.732	76.69
264.964	82.69
265.197	86.69
265.429	79.69
265.661	82.69
265.894	81.69
266.126	83.69
266.358	76.69
266.591	87.69
266.823	70.69
267.055	81.69
267.287	77.69
267.52	80.69
267.752	83.69
267.984	77.69
268.216	88.69
268.448	91.69
268.681	81.69
268.913	83.69
269.145	91.69
269.377	80.69
269.609	80.69
269.841	83.69
270.073	74.69
270.306	86.69
270.538	67.69
270.77	83.69
271.002	66.69
271.234	76.69
271.466	81.69
271.698	59.69
271.93	80.69
272.162	77.69
272.394	72.69
272.626	79.69
272.858	69.69
273.09	78.69
273.322	91.69
273.553	96.69
273.785	77.69
274.017	80.69
274.249	90.69
274.481	75.69
274.713	81.69
274.945	73.69
275.176	87.69
275.408	67.69
275.64	81.69
275.872	82.69
276.104	88.69
276.335	83.69
276.567	73.69
276.799	72.69
277.031	83.69
277.262	71.69
277.494	75.69
277.726	82.69
277.957	79.69
278.189	83.69
278.421	79.69
278.652	88.69
278.884	81.69
279.115	87.69
279.347	86.69
279.579	79.69
279.81	81.69
280.042	70.69
280.273	80.69
280.505	70.69
280.736	75.69
280.968	84.69
281.199	87.69
281.431	89.69
281.662	77.69
281.894	81.69
282.125	66.69
282.356	81.69
282.588	84.69
282.819	94.69
283.051	80.69
283.282	77.69
283.513	85.69
283.745	83.69
283.976	72.69
284.207	83.69
284.439	86.69
284.67	79.69
284.901	81.69
285.132	85.69
285.364	90.69
285.595	81.69
285.826	75.69
286.057	92.69
286.288	79.69
286.52	67.69
286.751	77.69
286.982	79.69
287.213	67.69
287.444	83.69
287.675	82.69
287.906	82.69
288.138	90.69
288.369	98.69
288.6	79.69
288.831	70.69
289.062	85.69
289.293	87.69
289.524	91.69
289.755	89.69
289.986	76.69
290.217	79.69
290.448	82.69
290.679	79.69
290.91	72.69
291.141	79.69
291.371	85.69
291.602	84.69
291.833	84.69
292.064	83.69
292.295	82.69
292.526	88.69
292.757	75.69
292.987	77.69
293.218	85.69
293.449	73.69
293.68	76.69
293.91	73.69
294.141	69.69
294.372	82.69
294.603	83.69
294.833	82.69
295.064	91.69
295.295	85.69
295.525	74.69
295.756	68.69
295.987	93.69
296.217	103.69
296.448	84.69
296.679	80.69
296.909	84.69
297.14	87.69
297.37	83.69
297.601	79.69
297.831	89.69
298.062	77.69
298.292	87.69
298.523	69.69
298.753	72.69
298.984	80.69
299.214	72.69
299.445	94.69
299.675	82.69
299.905	89.69
300.136	78.69
300.366	69.69
300.597	84.69
300.827	81.69
301.057	88.69
301.288	84.69
301.518	70.69
301.748	93.69
301.979	85.69
302.209	96.69
302.439	97.69
302.669	76.69
302.9	83.69
303.13	88.69
303.36	81.69
303.59	73.69
303.82	97.69
304.051	81.69
304.281	93.69
304.511	96.69
304.741	95.69
304.971	72.69
305.201	86.69
305.431	67.69
305.661	73.69
305.891	79.69
306.121	90.69
306.352	66.69
306.582	81.69
306.812	80.69
307.042	84.69
307.272	94.69
307.502	89.69
307.731	81.69
307.961	90.69
308.191	90.69
308.421	79.69
308.651	62.69
308.881	92.69
309.111	82.69
309.341	78.69
309.571	79.69
309.8	73.69
310.03	70.69
310.26	87.69
310.49	95.69
310.72	72.69
310.949	68.69
311.179	87.69
311.409	71.69
311.639	81.69
311.868	94.69
312.098	84.69
312.328	83.69
312.557	79.69
312.787	90.69
313.017	89.69
313.246	81.69
313.476	75.69
313.706	98.69
313.935	86.69
314.165	65.69
314.394	67.69
314.624	73.69
314.853	78.69
315.083	75.69
315.312	80.69
315.542	90.69
315.771	96.69
316.001	81.69
316.23	89.69
316.46	66.69
316.689	94.69
316.919	95.69
317.148	77.69
317.377	90.69
317.607	88.69
317.836	82.69
318.065	74.69
318.295	79.69
318.524	72.69
318.753	85.69
318.983	70.69
319.212	79.69
319.441	77.69
319.67	76.69
319.9	80.69
320.129	68.69
320.358	81.69
320.587	78.69
320.816	79.69
321.046	79.69
321.275	71.69
321.504	90.69
321.733	83.69
321.962	81.69
322.191	77.69
322.42	81.69
322.649	90.69
322.878	85.69
323.108	83.69
323.337	66.69
323.566	81.69
323.795	108.69
324.024	79.69
324.253	89.69
324.482	89.69
324.71	86.69
324.939	86.69
325.168	77.69
325.397	83.69
325.626	75.69
325.855	74.69
326.084	90.69
326.313	71.69
326.542	79.69
326.77	83.69
326.999	76.69
327.228	72.69
327.457	85.69
327.686	75.69
327.914	72.69
328.143	89.69
328.372	74.69
328.6	82.69
328.829	73.69
329.058	94.69
329.287	78.69
329.515	72.69
329.744	90.69
329.972	71.69
330.201	76.69
330.43	72.69
330.658	74.69
330.887	89.69
331.115	95.69
331.344	75.69
331.572	77.69
331.801	78.69
332.03	74.69
332.258	88.69
332.486	71.69
332.715	81.69
332.943	83.69
333.172	80.69
333.4	88.69
333.629	85.69
333.857	77.69
334.085	88.69
334.314	73.69
334.542	96.69
334.771	88.69
334.999	86.69
335.227	82.69
335.455	80.69
335.684	79.69
335.912	82.69
336.14	77.69
336.369	80.69
336.597	68.69
336.825	80.69
337.053	81.69
337.281	82.69
337.51	70.69
337.738	83.69
337.966	100.69
338.194	85.69
338.422	83.69
338.65	78.69
338.878	87.69
339.106	75.69
339.334	85.69
339.562	81.69
339.79	89.69
340.018	83.69
340.246	93.69
340.474	80.69
340.702	88.69
340.93	73.69
341.158	75.69
341.386	88.69
341.614	81.69
341.842	86.69
342.07	86.69
342.298	78.69
342.526	77.69
342.754	66.69
342.981	81.69
343.209	87.69
343.437	88.69
343.665	75.69
343.893	82.69
344.12	94.69
344.348	78.69
344.576	105.69
344.804	74.69
345.031	67.69
345.259	93.69
345.487	82.69
345.714	75.69
345.942	77.69
346.17	77.69
346.397	71.69
346.625	82.69
346.853	85.69
347.08	85.69
347.308	68.69
347.535	67.69
347.763	86.69
347.99	83.69
348.218	78.69
348.445	84.69
348.673	82.69
348.9	85.69
349.128	101.69
349.355	79.69
349.583	87.69
349.81	71.69
350.037	86.69
350.265	76.69
350.492	81.69
350.72	90.69
350.947	85.69
351.174	90.69
351.402	84.69
351.629	77.69
351.856	86.69
352.083	74.69
352.311	82.69
352.538	73.69
352.765	55.69
352.992	84.69
353.22	67.69
353.447	83.69
353.674	72.69
353.901	94.69
354.128	65.69
354.355	71.69
354.583	84.69
354.81	80.69
355.037	93.69
355.264	88.69
355.491	78.69
355.718	82.69
355.945	84.69
356.172	74.69
356.399	88.69
356.626	102.69
356.853	85.69
357.08	79.69
357.307	72.69
357.534	70.69
357.761	73.69
357.988	80.69
358.215	80.69
358.441	81.69
358.668	85.69
358.895	82.69
359.122	89.69
359.349	83.69
359.576	79.69
359.802	87.69
360.029	76.69
360.256	81.69
360.483	90.69
360.709	82.69
360.936	90.69
361.163	92.69
361.39	77.69
361.616	78.69
361.843	83.69
362.07	89.69
362.296	80.69
362.523	70.69
362.749	84.69
362.976	85.69
363.203	88.69
363.429	84.69
363.656	84.69
363.882	79.69
364.109	79.69
364.335	78.69
364.562	80.69
364.788	75.69
365.015	86.69
365.241	90.69
365.468	98.69
365.694	81.69
365.92	82.69
366.147	86.69
366.373	95.69
366.599	90.69
366.826	77.69
367.052	74.69
367.278	91.69
367.505	93.69
367.731	86.69
367.957	78.69
368.184	93.69
368.41	74.69
368.636	93.69
368.862	78.69
369.089	96.69
369.315	83.69
369.541	81.69
369.767	89.69
369.993	84.69
370.219	83.69
370.445	87.69
370.672	89.69
370.898	82.69
371.124	87.69
371.35	75.69
371.576	74.69
371.802	73.69
372.028	86.69
372.254	95.69
372.48	97.69
372.706	80.69
372.932	86.69
373.158	87.69
373.384	95.69
373.61	93.69
373.835	89.69
374.061	98.69
374.287	83.69
374.513	95.69
374.739	94.69
374.965	87.69
375.191	88.69
375.416	93.69
375.642	96.69
375.868	80.69
376.094	89.69
376.319	87.69
376.545	95.69
376.771	86.69
376.997	85.69
377.222	81.69
377.448	88.69
377.674	102.69
377.899	99.69
378.125	110.69
378.35	90.69
378.576	103.69
378.802	88.69
379.027	85.69
379.253	88.69
379.478	92.69
379.704	104.69
379.929	102.69
380.155	87.69
380.38	79.69
380.606	90.69
380.831	104.69
381.057	102.69
381.282	82.69
381.507	98.69
381.733	105.69
381.958	95.69
382.184	95.69
382.409	90.69
382.634	82.69
382.86	86.69
383.085	99.69
383.31	106.69
383.535	87.69
383.761	101.69
383.986	88.69
384.211	85.69
384.436	94.69
384.662	93.69
384.887	92.69
385.112	87.69
385.337	79.69
385.562	96.69
385.787	102.69
386.013	113.69
386.238	100.69
386.463	101.69
386.688	94.69
386.913	113.69
387.138	96.69
387.363	103.69
387.588	96.69
387.813	90.69
388.038	119.69
388.263	91.69
388.488	92.69
388.713	95.69
388.938	97.69
389.163	85.69
389.387	96.69
389.612	86.69
389.837	94.69
390.062	111.69
390.287	100.69
390.512	98.69
390.736	85.69
390.961	81.69
391.186	97.69
391.411	90.69
391.636	92.69
391.86	93.69
392.085	81.69
392.31	104.69
392.534	116.69
392.759	89.69
392.984	111.69
393.208	117.69
393.433	105.69
393.658	101.69
393.882	109.69
394.107	95.69
394.331	109.69
394.556	110.69
394.78	98.69
395.005	93.69
395.229	100.69
395.454	114.69
395.678	109.69
395.903	98.69
396.127	102.69
396.352	109.69
396.576	119.69
396.801	90.69
397.025	109.69
397.249	95.69
397.474	111.69
397.698	109.69
397.922	97.69
398.147	95.69
398.371	114.69
398.595	103.69
398.82	102.69
399.044	92.69
399.268	121.69
399.492	105.69
399.717	102.69
399.941	105.69
400.165	118.69
400.389	100.69
400.613	102.69
400.837	104.69
401.062	94.69
401.286	112.69
401.51	108.69
401.734	107.69
401.958	105.69
402.182	104.69
402.406	104.69
402.63	125.69
402.854	98.69
403.078	106.69
403.302	99.69
403.526	99.69
403.75	110.69
403.974	118.69
404.198	109.69
404.422	120.69
404.645	122.69
404.869	94.69
405.093	112.69
405.317	127.69
405.541	127.69
405.765	106.69
405.988	107.69
406.212	113.69
406.436	101.69
406.66	110.69
406.883	118.69
407.107	118.69
407.331	96.69
407.555	118.69
407.778	120.69
408.002	121.69
408.226	121.69
408.449	111.69
408.673	121.69
408.896	122.69
409.12	119.69
409.344	118.69
409.567	126.69
409.791	119.69
410.014	116.69
410.238	113.69
410.461	129.69
410.685	128.69
410.908	125.69
411.132	109.69
411.355	120.69
411.578	115.69
411.802	115.69
412.025	135.69
412.249	102.69
412.472	119.69
412.695	133.69
412.919	117.69
413.142	134.69
413.365	113.69
413.589	110.69
413.812	111.69
414.035	128.69
414.258	115.69
414.482	128.69
414.705	118.69
414.928	107.69
415.151	119.69
415.374	122.69
415.597	123.69
415.821	122.69
416.044	122.69
416.267	121.69
416.49	112.69
416.713	114.69
416.936	120.69
417.159	131.69
417.382	121.69
417.605	130.69
417.828	120.69
418.051	138.69
418.274	125.69
418.497	137.69
418.72	134.69
418.943	139.69
419.166	118.69
419.389	131.69
419.611	129.69
419.834	133.69
420.057	136.69
420.28	121.69
420.503	131.69
420.726	133.69
420.948	132.69
421.171	124.69
421.394	131.69
421.617	127.69
421.839	128.69
422.062	131.69
422.285	122.69
422.507	115.69
422.73	122.69
422.953	144.69
423.175	139.69
423.398	117.69
423.621	116.69
423.843	117.69
424.066	125.69
424.288	135.69
424.511	133.69
424.733	144.69
424.956	135.69
425.178	135.69
425.401	142.69
425.623	151.69
425.846	144.69
426.068	129.69
426.291	131.69
426.513	129.69
426.735	130.69
426.958	137.69
427.18	122.69
427.402	136.69
427.625	120.69
427.847	125.69
428.069	140.69
428.292	131.69
428.514	125.69
428.736	126.69
428.958	118.69
429.181	130.69
429.403	120.69
429.625	123.69
429.847	118.69
430.069	123.69
430.292	113.69
430.514	128.69
430.736	118.69
430.958	126.69
431.18	117.69
431.402	116.69
431.624	112.69
431.846	113.69
432.068	79.69
432.29	81.69
432.512	119.69
432.734	117.69
432.956	137.69
433.178	140.69
433.4	139.69
433.622	127.69
433.844	131.69
434.066	116.69
434.287	98.69
434.509	93.69
434.731	91.69
434.953	105.69
435.175	109.69
435.397	123.69
435.618	114.69
435.84	101.69
436.062	107.69
436.284	123.69
436.505	128.69
436.727	133.69
436.949	138.69
437.17	98.69
437.392	117.69
437.614	125.69
437.835	114.69
438.057	99.69
438.278	102.69
438.5	129.69
438.721	128.69
438.943	135.69
439.165	133.69
439.386	122.69
439.608	154.69
439.829	126.69
440.05	145.69
440.272	136.69
440.493	140.69
440.715	131.69
440.936	138.69
441.158	132.69
441.379	149.69
441.6	137.69
441.822	141.69
442.043	127.69
442.264	134.69
442.486	147.69
442.707	122.69
442.928	147.69
443.149	140.69
443.371	137.69
443.592	127.69
443.813	127.69
444.034	144.69
444.255	138.69
444.476	132.69
444.698	132.69
444.919	134.69
445.14	276.69
445.361	204.69
445.582	143.69
445.803	162.69
446.024	150.69
446.245	136.69
446.466	153.69
446.687	149.69
446.908	149.69
447.129	139.69
447.35	150.69
447.571	151.69
447.792	145.69
448.013	133.69
448.234	149.69
448.455	133.69
448.675	143.69
448.896	131.69
449.117	113.69
449.338	143.69
449.559	129.69
449.779	146.69
450	131.69
450.221	135.69
450.442	129.69
450.662	139.69
450.883	131.69
451.104	139.69
451.324	131.69
451.545	127.69
451.766	135.69
451.986	111.69
452.207	139.69
452.428	126.69
452.648	110.69
452.869	105.69
453.089	129.69
453.31	100.69
453.53	91.69
453.751	105.69
453.971	98.69
454.192	97.69
454.412	98.69
454.633	110.69
454.853	117.69
455.073	126.69
455.294	131.69
455.514	113.69
455.734	122.69
455.955	102.69
456.175	113.69
456.395	115.69
456.616	105.69
456.836	100.69
457.056	116.69
457.276	98.69
457.497	94.69
457.717	114.69
457.937	103.69
458.157	98.69
458.377	93.69
458.598	89.69
458.818	66.69
459.038	86.69
459.258	84.69
459.478	90.69
459.698	83.69
459.918	109.69
460.138	98.69
460.358	133.69
460.578	111.69
460.798	93.69
461.018	124.69
461.238	126.69
461.458	104.69
461.678	119.69
461.898	122.69
462.118	120.69
462.338	113.69
462.558	109.69
462.777	92.69
462.997	104.69
463.217	107.69
463.437	89.69
463.657	91.69
463.876	100.69
464.096	95.69
464.316	91.69
464.536	101.69
464.755	114.69
464.975	116.69
465.195	107.69
465.414	105.69
465.634	117.69
465.854	126.69
466.073	124.69
466.293	109.69
466.512	109.69
466.732	125.69
466.951	143.69
467.171	130.69
467.391	134.69
467.61	134.69
467.829	125.69
468.049	127.69
468.268	121.69
468.488	149.69
468.707	140.69
468.927	131.69
469.146	129.69
469.365	112.69
469.585	125.69
469.804	136.69
470.023	131.69
470.243	144.69
470.462	146.69
470.681	142.69
470.901	118.69
471.12	133.69
471.339	146.69
471.558	126.69
471.777	138.69
471.997	134.69
472.216	114.69
472.435	126.69
472.654	117.69
472.873	113.69
473.092	120.69
473.311	125.69
473.53	113.69
473.749	125.69
473.968	153.69
474.187	122.69
474.406	117.69
474.625	127.69
474.844	132.69
475.063	120.69
475.282	127.69
475.501	118.69
475.72	120.69
475.939	115.69
476.158	112.69
476.377	120.69
476.596	116.69
476.814	111.69
477.033	109.69
477.252	103.69
477.471	137.69
477.69	118.69
477.908	121.69
478.127	135.69
478.346	122.69
478.564	126.69
478.783	123.69
479.002	143.69
479.22	153.69
479.439	123.69
479.658	135.69
479.876	100.69
480.095	109.69
480.313	113.69
480.532	117.69
480.751	101.69
480.969	88.69
481.188	85.69
481.406	84.69
481.624	80.69
481.843	93.69
482.061	88.69
482.28	110.69
482.498	106.69
482.717	98.69
482.935	113.69
483.153	153.69
483.372	152.69
483.59	162.69
483.808	127.69
484.027	127.69
484.245	123.69
484.463	127.69
484.681	149.69
484.9	132.69
485.118	143.69
485.336	124.69
485.554	106.69
485.772	89.69
485.99	84.69
486.209	106.69
486.427	115.69
486.645	127.69
486.863	134.69
487.081	148.69
487.299	125.69
487.517	136.69
487.735	153.69
487.953	180.69
488.171	189.69
488.389	163.69
488.607	140.69
488.825	144.69
489.043	139.69
489.261	124.69
489.479	134.69
489.696	133.69
489.914	132.69
490.132	131.69
490.35	146.69
490.568	167.69
490.786	184.69
491.003	159.69
491.221	181.69
491.439	183.69
491.657	198.69
491.874	189.69
492.092	215.69
492.31	212.69
492.527	213.69
492.745	187.69
492.963	196.69
493.18	183.69
493.398	183.69
493.615	160.69
493.833	165.69
494.05	168.69
494.268	171.69
494.485	166.69
494.703	170.69
494.92	167.69
495.138	152.69
495.355	166.69
495.573	154.69
495.79	175.69
496.008	158.69
496.225	163.69
496.442	173.69
496.66	162.69
496.877	175.69
497.094	147.69
497.312	154.69
497.529	145.69
497.746	134.69
497.963	140.69
498.181	136.69
498.398	123.69
498.615	118.69
498.832	123.69
499.049	117.69
499.267	115.69
499.484	117.69
499.701	123.69
499.918	133.69
500.135	139.69
500.352	142.69
500.569	153.69
500.786	149.69
501.003	138.69
501.22	143.69
501.437	132.69
501.654	126.69
501.871	135.69
502.088	119.69
502.305	132.69
502.522	126.69
502.739	139.69
502.956	140.69
503.172	136.69
503.389	123.69
503.606	117.69
503.823	109.69
504.04	116.69
504.256	127.69
504.473	127.69
504.69	117.69
504.907	119.69
505.123	115.69
505.34	121.69
505.557	125.69
505.773	128.69
505.99	122.69
506.207	113.69
506.423	113.69
506.64	107.69
506.856	131.69
507.073	107.69
507.289	111.69
507.506	120.69
507.722	131.69
507.939	129.69
508.155	102.69
508.372	120.69
508.588	99.69
508.805	100.69
509.021	99.69
509.238	112.69
509.454	96.69
509.67	105.69
509.887	105.69
510.103	90.69
510.319	95.69
510.536	95.69
510.752	88.69
510.968	83.69
511.184	88.69
511.401	84.69
511.617	85.69
511.833	81.69
512.049	95.69
512.265	98.69
512.481	87.69
512.698	96.69
512.914	88.69
513.13	90.69
513.346	88.69
513.562	86.69
513.778	82.69
513.994	91.69
514.21	94.69
514.426	87.69
514.642	100.69
514.858	76.69
515.074	102.69
515.29	92.69
515.506	76.69
515.721	90.69
515.937	74.69
516.153	75.69
516.369	83.69
516.585	87.69
516.801	91.69
517.016	90.69
517.232	86.69
517.448	97.69
517.664	96.69
517.879	82.69
518.095	102.69
518.311	98.69
518.527	81.69
518.742	83.69
518.958	101.69
519.173	102.69
519.389	111.69
519.605	104.69
519.82	99.69
520.036	115.69
520.251	106.69
520.467	107.69
520.682	90.69
520.898	106.69
521.113	88.69
521.329	93.69
521.544	72.69
521.76	94.69
521.975	95.69
522.19	82.69
522.406	94.69
522.621	102.69
522.836	98.69
523.052	112.69
523.267	110.69
523.482	122.69
523.698	110.69
523.913	104.69
524.128	108.69
524.343	130.69
524.559	116.69
524.774	119.69
524.989	113.69
525.204	122.69
525.419	109.69
525.634	123.69
525.849	107.69
526.064	102.69
526.28	111.69
526.495	92.69
526.71	85.69
526.925	76.69
527.14	82.69
527.355	88.69
527.57	61.69
527.785	89.69
527.999	100.69
528.214	100.69
528.429	105.69
528.644	120.69
528.859	131.69
529.074	140.69
529.289	145.69
529.503	131.69
529.718	139.69
529.933	122.69
530.148	116.69
530.363	94.69
530.577	76.69
530.792	72.69
531.007	64.69
531.221	69.69
531.436	85.69
531.651	84.69
531.865	75.69
532.08	83.69
532.295	94.69
532.509	78.69
532.724	91.69
532.938	86.69
533.153	97.69
533.367	116.69
533.582	111.69
533.796	123.69
534.011	118.69
534.225	85.69
534.44	94.69
534.654	107.69
534.868	93.69
535.083	103.69
535.297	94.69
535.511	114.69
535.726	93.69
535.94	93.69
536.154	86.69
536.369	75.69
536.583	83.69
536.797	79.69
537.011	91.69
537.225	83.69
537.44	71.69
537.654	83.69
537.868	90.69
538.082	93.69
538.296	89.69
538.51	107.69
538.724	107.69
538.938	115.69
539.153	119.69
539.367	117.69
539.581	129.69
539.795	104.69
540.009	93.69
540.222	92.69
540.436	103.69
540.65	110.69
540.864	129.69
541.078	133.69
541.292	130.69
541.506	140.69
541.72	151.69
541.934	177.69
542.147	181.69
542.361	175.69
542.575	170.69
542.789	135.69
543.002	141.69
543.216	114.69
543.43	124.69
543.644	139.69
543.857	140.69
544.071	155.69
544.285	154.69
544.498	152.69
544.712	161.69
544.925	155.69
545.139	160.69
545.352	163.69
545.566	146.69
545.779	160.69
545.993	176.69
546.206	155.69
546.42	167.69
546.633	182.69
546.847	157.69
547.06	164.69
547.274	165.69
547.487	174.69
547.7	168.69
547.914	158.69
548.127	165.69
548.34	151.69
548.554	141.69
548.767	149.69
548.98	160.69
549.193	155.69
549.407	143.69
549.62	165.69
549.833	145.69
550.046	150.69
550.259	149.69
550.473	147.69
550.686	135.69
550.899	140.69
551.112	152.69
551.325	137.69
551.538	138.69
551.751	123.69
551.964	112.69
552.177	119.69
552.39	140.69
552.603	143.69
552.816	161.69
553.029	137.69
553.242	158.69
553.455	167.69
553.667	170.69
553.88	145.69
554.093	145.69
554.306	158.69
554.519	143.69
554.732	141.69
554.944	145.69
555.157	130.69
555.37	134.69
555.583	147.69
555.795	136.69
556.008	129.69
556.221	139.69
556.433	121.69
556.646	136.69
556.859	135.69
557.071	126.69
557.284	140.69
557.496	121.69
557.709	134.69
557.921	133.69
558.134	133.69
558.346	130.69
558.559	122.69
558.771	130.69
558.984	121.69
559.196	138.69
559.409	129.69
559.621	145.69
559.833	120.69
560.046	125.69
560.258	119.69
560.47	129.69
560.683	130.69
560.895	137.69
561.107	139.69
561.32	120.69
561.532	129.69
561.744	121.69
561.956	123.69
562.168	117.69
562.381	129.69
562.593	120.69
562.805	121.69
563.017	117.69
563.229	98.69
563.441	109.69
563.653	121.69
563.865	124.69
564.077	117.69
564.289	103.69
564.501	120.69
564.713	118.69
564.925	126.69
565.137	114.69
565.349	106.69
565.561	109.69
565.773	135.69
565.985	135.69
566.197	120.69
566.408	109.69
566.62	107.69
566.832	111.69
567.044	121.69
567.255	110.69
567.467	115.69
567.679	103.69
567.891	100.69
568.102	105.69
568.314	91.69
568.526	82.69
568.737	85.69
568.949	85.69
569.161	74.69
569.372	82.69
569.584	84.69
569.795	81.69
570.007	80.69
570.218	96.69
570.43	89.69
570.641	86.69
570.853	101.69
571.064	85.69
571.276	96.69
571.487	96.69
571.698	100.69
571.91	99.69
572.121	96.69
572.333	95.69
572.544	99.69
572.755	97.69
572.966	87.69
573.178	96.69
573.389	96.69
573.6	72.69
573.811	85.69
574.023	88.69
574.234	83.69
574.445	79.69
574.656	93.69
574.867	95.69
575.078	94.69
575.289	93.69
575.501	94.69
575.712	101.69
575.923	83.69
576.134	90.69
576.345	88.69
576.556	99.69
576.767	94.69
576.978	89.69
577.188	99.69
577.399	97.69
577.61	95.69
577.821	99.69
578.032	101.69
578.243	93.69
578.454	107.69
578.665	81.69
578.875	80.69
579.086	70.69
579.297	93.69
579.508	79.69
579.718	83.69
579.929	87.69
580.14	80.69
580.35	87.69
580.561	89.69
580.772	96.69
580.982	89.69
581.193	91.69
581.403	88.69
581.614	100.69
581.825	96.69
582.035	87.69
582.246	89.69
582.456	94.69
582.667	86.69
582.877	75.69
583.087	98.69
583.298	82.69
583.508	87.69
583.719	87.69
583.929	78.69
584.139	81.69
584.35	79.69
584.56	87.69
584.77	77.69
584.981	77.69
585.191	88.69
585.401	84.69
585.611	87.69
585.821	65.69
586.032	81.69
586.242	81.69
586.452	84.69
586.662	86.69
586.872	78.69
587.082	69.69
587.292	79.69
587.502	71.69
587.713	73.69
587.923	71.69
588.133	73.69
588.343	66.69
588.553	86.69
588.762	88.69
588.972	97.69
589.182	74.69
589.392	100.69
589.602	90.69
589.812	77.69
590.022	90.69
590.232	83.69
590.441	84.69
590.651	73.69
590.861	91.69
591.071	84.69
591.281	95.69
591.49	88.69
591.7	81.69
591.91	74.69
592.119	82.69
592.329	83.69
592.539	70.69
592.748	86.69
592.958	96.69
593.167	79.69
593.377	78.69
593.587	87.69
593.796	80.69
594.006	74.69
594.215	88.69
594.424	97.69
594.634	87.69
594.843	90.69
595.053	89.69
595.262	83.69
595.472	83.69
595.681	86.69
595.89	82.69
596.1	87.69
596.309	82.69
596.518	84.69
596.727	95.69
596.937	85.69
597.146	89.69
597.355	90.69
597.564	96.69
597.774	90.69
597.983	86.69
598.192	100.69
598.401	99.69
598.61	76.69
598.819	77.69
599.028	83.69
599.237	92.69
599.446	94.69
599.655	98.69
599.864	99.69
600.073	94.69
600.282	85.69
600.491	97.69
600.7	88.69
600.909	95.69
601.118	97.69
601.327	104.69
601.536	103.69
601.745	108.69
601.953	101.69
602.162	111.69
602.371	106.69
602.58	90.69
602.789	96.69
602.997	112.69
603.206	103.69
603.415	113.69
603.623	113.69
603.832	103.69
604.041	102.69
604.249	93.69
604.458	91.69
604.666	86.69
604.875	97.69
605.084	95.69
605.292	94.69
605.501	98.69
605.709	118.69
605.918	119.69
606.126	111.69
606.334	106.69
606.543	111.69
606.751	103.69
606.96	109.69
607.168	109.69
607.376	99.69
607.585	105.69
607.793	107.69
608.001	113.69
608.21	133.69
608.418	105.69
608.626	93.69
608.834	110.69
609.043	111.69
609.251	123.69
609.459	114.69
609.667	121.69
609.875	107.69
610.083	107.69
610.291	88.69
610.499	106.69
610.707	104.69
610.916	114.69
611.124	112.69
611.332	111.69
611.54	112.69
611.748	116.69
611.955	116.69
612.163	102.69
612.371	101.69
612.579	113.69
612.787	110.69
612.995	129.69
613.203	107.69
613.411	104.69
613.618	121.69
613.826	114.69
614.034	116.69
614.242	109.69
614.449	118.69
614.657	97.69
614.865	97.69
615.072	113.69
615.28	111.69
615.488	100.69
615.695	100.69
615.903	110.69
616.111	112.69
616.318	119.69
616.526	111.69
616.733	111.69
616.941	97.69
617.148	113.69
617.356	103.69
617.563	104.69
617.771	107.69
617.978	91.69
618.185	116.69
618.393	105.69
618.6	102.69
618.807	111.69
619.015	100.69
619.222	111.69
619.429	105.69
619.637	106.69
619.844	109.69
620.051	91.69
620.258	109.69
620.466	106.69
620.673	107.69
620.88	98.69
621.087	117.69
621.294	112.69
621.501	93.69
621.708	98.69
621.915	89.69
622.122	107.69
622.329	106.69
622.536	99.69
622.743	100.69
622.95	100.69
623.157	99.69
623.364	93.69
623.571	108.69
623.778	104.69
623.985	111.69
624.192	109.69
624.399	107.69
624.606	112.69
624.812	95.69
625.019	95.69
625.226	107.69
625.433	99.69
625.639	93.69
625.846	90.69
626.053	84.69
626.259	82.69
626.466	90.69
626.673	93.69
626.879	81.69
627.086	92.69
627.293	101.69
627.499	106.69
627.706	86.69
627.912	110.69
628.119	84.69
628.325	103.69
628.532	109.69
628.738	98.69
628.945	115.69
629.151	115.69
629.357	94.69
629.564	105.69
629.77	97.69
629.976	95.69
630.183	96.69
630.389	84.69
630.595	96.69
630.802	111.69
631.008	96.69
631.214	94.69
631.42	85.69
631.627	103.69
631.833	83.69
632.039	114.69
632.245	112.69
632.451	91.69
632.657	113.69
632.863	100.69
633.069	103.69
633.275	92.69
633.481	88.69
633.688	94.69
633.893	75.69
634.099	103.69
634.305	95.69
634.511	97.69
634.717	93.69
634.923	101.69
635.129	101.69
635.335	91.69
635.541	100.69
635.747	103.69
635.952	104.69
636.158	97.69
636.364	102.69
636.57	90.69
636.775	91.69
636.981	98.69
637.187	100.69
637.392	109.69
637.598	86.69
637.804	97.69
638.009	92.69
638.215	113.69
638.421	81.69
638.626	101.69
638.832	99.69
639.037	94.69
639.243	91.69
639.448	89.69
639.654	92.69
639.859	89.69
640.065	99.69
640.27	104.69
640.475	97.69
640.681	91.69
640.886	100.69
641.091	103.69
641.297	96.69
641.502	116.69
641.707	93.69
641.913	104.69
642.118	112.69
642.323	94.69
642.528	109.69
642.733	95.69
642.939	102.69
643.144	98.69
643.349	92.69
643.554	95.69
643.759	99.69
643.964	103.69
644.169	94.69
644.374	107.69
644.579	98.69
644.784	95.69
644.989	103.69
645.194	101.69
645.399	96.69
645.604	81.69
645.809	85.69
646.014	96.69
646.219	89.69
646.423	91.69
646.628	97.69
646.833	94.69
647.038	101.69
647.243	97.69
647.447	101.69
647.652	107.69
647.857	95.69
648.062	95.69
648.266	101.69
648.471	91.69
648.676	101.69
648.88	110.69
649.085	82.69
649.289	89.69
649.494	80.69
649.698	93.69
649.903	94.69
650.107	95.69
650.312	94.69
650.516	95.69
650.721	93.69
650.925	96.69
651.13	74.69
651.334	82.69
651.539	87.69
651.743	95.69
651.947	95.69
652.152	97.69
652.356	104.69
652.56	96.69
652.764	101.69
652.969	95.69
653.173	93.69
653.377	90.69
653.581	87.69
653.785	85.69
653.99	96.69
654.194	79.69
654.398	87.69
654.602	95.69
654.806	91.69
655.01	93.69
655.214	88.69
655.418	93.69
655.622	93.69
655.826	86.69
656.03	87.69
656.234	67.69
656.438	81.69
656.642	85.69
656.846	90.69
657.049	69.69
657.253	79.69
657.457	83.69
657.661	67.69
657.865	94.69
658.068	74.69
658.272	75.69
658.476	74.69
658.68	101.69
658.883	78.69
659.087	80.69
659.291	76.69
659.494	77.69
659.698	86.69
659.901	83.69
660.105	80.69
660.309	81.69
660.512	87.69
660.716	88.69
660.919	91.69
661.123	84.69
661.326	78.69
661.53	95.69
661.733	95.69
661.936	73.69
662.14	82.69
662.343	75.69
662.546	79.69
662.75	98.69
662.953	67.69
663.156	77.69
663.36	66.69
663.563	90.69
663.766	74.69
663.969	90.69
664.173	73.69
664.376	76.69
664.579	75.69
664.782	90.69
664.985	85.69
665.188	80.69
665.391	76.69
665.594	86.69
665.797	72.69
666	74.69
666.203	93.69
666.406	80.69
666.609	77.69
666.812	82.69
667.015	90.69
667.218	74.69
667.421	90.69
667.624	56.69
667.827	65.69
668.03	79.69
668.232	89.69
668.435	79.69
668.638	74.69
668.841	81.69
669.043	81.69
669.246	75.69
669.449	86.69
669.651	80.69
669.854	81.69
670.057	80.69
670.259	87.69
670.462	81.69
670.665	83.69
670.867	82.69
671.07	89.69
671.272	78.69
671.475	85.69
671.677	77.69
671.88	67.69
672.082	95.69
672.284	77.69
672.487	87.69
672.689	81.69
672.892	89.69
