Data from Location2.07152019.Energy5.Lamp.07192019.3%Agarose_HRD10591_14-55-57-359.txt Node
Date: Fri Jul 19 14:55:57 EDT 2019
User: cochatt
Spectrometer: HR+D1059
Trigger mode: 1
Integration Time (sec): 1.000000E-1
Scans to average: 1
Electric dark correction enabled: true
Nonlinearity correction enabled: false
Boxcar width: 0
XAxis mode: Wavelengths
Number of Pixels in Spectrum: 2048
>>>>>Begin Spectral Data<<<<<
223.165	-28.31
223.4	-28.31
223.635	-28.31
223.869	-15.31
224.104	-18.31
224.338	-17.31
224.573	-16.31
224.808	-21.31
225.042	0.69
225.277	-4.31
225.511	-2.31
225.746	-6.31
225.98	15.69
226.215	25.69
226.449	21.69
226.683	21.69
226.918	28.69
227.152	15.69
227.387	41.69
227.621	34.69
227.856	31.69
228.09	45.69
228.324	54.69
228.559	43.69
228.793	48.69
229.027	59.69
229.262	77.69
229.496	70.69
229.73	61.69
229.964	65.69
230.199	60.69
230.433	89.69
230.667	78.69
230.901	63.69
231.136	74.69
231.37	88.69
231.604	82.69
231.838	84.69
232.072	69.69
232.306	67.69
232.541	85.69
232.775	68.69
233.009	76.69
233.243	83.69
233.477	76.69
233.711	81.69
233.945	92.69
234.179	87.69
234.413	87.69
234.647	72.69
234.881	81.69
235.115	68.69
235.349	91.69
235.583	76.69
235.817	79.69
236.051	64.69
236.285	73.69
236.519	76.69
236.753	86.69
236.987	82.69
237.221	82.69
237.455	93.69
237.689	82.69
237.922	71.69
238.156	68.69
238.39	58.69
238.624	68.69
238.858	87.69
239.091	73.69
239.325	77.69
239.559	74.69
239.793	76.69
240.027	66.69
240.26	65.69
240.494	76.69
240.728	63.69
240.961	76.69
241.195	71.69
241.429	85.69
241.662	74.69
241.896	73.69
242.13	73.69
242.363	89.69
242.597	81.69
242.83	86.69
243.064	71.69
243.298	76.69
243.531	71.69
243.765	76.69
243.998	89.69
244.232	75.69
244.465	81.69
244.699	63.69
244.932	72.69
245.166	66.69
245.399	80.69
245.633	80.69
245.866	73.69
246.099	88.69
246.333	81.69
246.566	81.69
246.8	70.69
247.033	78.69
247.266	68.69
247.5	76.69
247.733	64.69
247.966	87.69
248.2	73.69
248.433	72.69
248.666	77.69
248.899	93.69
249.133	76.69
249.366	88.69
249.599	83.69
249.832	91.69
250.066	80.69
250.299	85.69
250.532	88.69
250.765	75.69
250.998	81.69
251.231	76.69
251.465	77.69
251.698	77.69
251.931	71.69
252.164	87.69
252.397	84.69
252.63	67.69
252.863	69.69
253.096	80.69
253.329	86.69
253.562	81.69
253.795	88.69
254.028	82.69
254.261	87.69
254.494	103.69
254.727	80.69
254.96	87.69
255.193	80.69
255.426	78.69
255.659	91.69
255.892	78.69
256.124	93.69
256.357	74.69
256.59	79.69
256.823	72.69
257.056	87.69
257.289	88.69
257.521	74.69
257.754	62.69
257.987	81.69
258.22	84.69
258.452	67.69
258.685	71.69
258.918	81.69
259.151	95.69
259.383	75.69
259.616	84.69
259.849	91.69
260.081	76.69
260.314	82.69
260.547	87.69
260.779	81.69
261.012	75.69
261.244	85.69
261.477	74.69
261.71	91.69
261.942	77.69
262.175	83.69
262.407	94.69
262.64	68.69
262.872	68.69
263.105	80.69
263.337	77.69
263.57	83.69
263.802	83.69
264.035	77.69
264.267	79.69
264.499	80.69
264.732	84.69
264.964	85.69
265.197	76.69
265.429	80.69
265.661	87.69
265.894	88.69
266.126	77.69
266.358	81.69
266.591	82.69
266.823	87.69
267.055	82.69
267.287	64.69
267.52	88.69
267.752	68.69
267.984	92.69
268.216	86.69
268.448	78.69
268.681	77.69
268.913	75.69
269.145	77.69
269.377	82.69
269.609	79.69
269.841	76.69
270.073	81.69
270.306	85.69
270.538	91.69
270.77	94.69
271.002	77.69
271.234	93.69
271.466	85.69
271.698	81.69
271.93	86.69
272.162	80.69
272.394	86.69
272.626	91.69
272.858	91.69
273.09	91.69
273.322	85.69
273.553	79.69
273.785	89.69
274.017	82.69
274.249	79.69
274.481	97.69
274.713	79.69
274.945	85.69
275.176	87.69
275.408	82.69
275.64	95.69
275.872	93.69
276.104	94.69
276.335	84.69
276.567	80.69
276.799	98.69
277.031	90.69
277.262	95.69
277.494	87.69
277.726	104.69
277.957	86.69
278.189	73.69
278.421	84.69
278.652	65.69
278.884	85.69
279.115	69.69
279.347	75.69
279.579	102.69
279.81	81.69
280.042	84.69
280.273	66.69
280.505	89.69
280.736	74.69
280.968	93.69
281.199	78.69
281.431	90.69
281.662	85.69
281.894	87.69
282.125	80.69
282.356	95.69
282.588	81.69
282.819	82.69
283.051	80.69
283.282	59.69
283.513	81.69
283.745	72.69
283.976	87.69
284.207	81.69
284.439	77.69
284.67	77.69
284.901	88.69
285.132	81.69
285.364	93.69
285.595	80.69
285.826	80.69
286.057	83.69
286.288	86.69
286.52	80.69
286.751	92.69
286.982	81.69
287.213	87.69
287.444	86.69
287.675	81.69
287.906	85.69
288.138	90.69
288.369	99.69
288.6	79.69
288.831	83.69
289.062	94.69
289.293	73.69
289.524	105.69
289.755	84.69
289.986	91.69
290.217	94.69
290.448	78.69
290.679	93.69
290.91	81.69
291.141	86.69
291.371	79.69
291.602	84.69
291.833	75.69
292.064	72.69
292.295	81.69
292.526	65.69
292.757	86.69
292.987	79.69
293.218	81.69
293.449	80.69
293.68	89.69
293.91	85.69
294.141	77.69
294.372	79.69
294.603	87.69
294.833	86.69
295.064	68.69
295.295	88.69
295.525	82.69
295.756	81.69
295.987	93.69
296.217	80.69
296.448	74.69
296.679	82.69
296.909	75.69
297.14	77.69
297.37	83.69
297.601	88.69
297.831	71.69
298.062	105.69
298.292	102.69
298.523	77.69
298.753	92.69
298.984	90.69
299.214	85.69
299.445	85.69
299.675	87.69
299.905	112.69
300.136	97.69
300.366	87.69
300.597	95.69
300.827	75.69
301.057	96.69
301.288	69.69
301.518	84.69
301.748	81.69
301.979	89.69
302.209	76.69
302.439	91.69
302.669	81.69
302.9	84.69
303.13	83.69
303.36	94.69
303.59	79.69
303.82	85.69
304.051	86.69
304.281	84.69
304.511	82.69
304.741	87.69
304.971	92.69
305.201	82.69
305.431	82.69
305.661	96.69
305.891	81.69
306.121	88.69
306.352	96.69
306.582	97.69
306.812	83.69
307.042	87.69
307.272	76.69
307.502	93.69
307.731	82.69
307.961	79.69
308.191	81.69
308.421	81.69
308.651	88.69
308.881	77.69
309.111	69.69
309.341	82.69
309.571	70.69
309.8	77.69
310.03	83.69
310.26	86.69
310.49	73.69
310.72	94.69
310.949	75.69
311.179	75.69
311.409	88.69
311.639	93.69
311.868	91.69
312.098	78.69
312.328	82.69
312.557	87.69
312.787	87.69
313.017	79.69
313.246	88.69
313.476	76.69
313.706	78.69
313.935	73.69
314.165	83.69
314.394	76.69
314.624	83.69
314.853	94.69
315.083	86.69
315.312	78.69
315.542	97.69
315.771	84.69
316.001	80.69
316.23	91.69
316.46	85.69
316.689	88.69
316.919	91.69
317.148	89.69
317.377	94.69
317.607	85.69
317.836	86.69
318.065	71.69
318.295	74.69
318.524	70.69
318.753	83.69
318.983	92.69
319.212	86.69
319.441	81.69
319.67	81.69
319.9	93.69
320.129	87.69
320.358	87.69
320.587	102.69
320.816	88.69
321.046	81.69
321.275	89.69
321.504	79.69
321.733	95.69
321.962	84.69
322.191	96.69
322.42	91.69
322.649	94.69
322.878	81.69
323.108	82.69
323.337	88.69
323.566	67.69
323.795	82.69
324.024	84.69
324.253	60.69
324.482	97.69
324.71	83.69
324.939	79.69
325.168	88.69
325.397	81.69
325.626	86.69
325.855	93.69
326.084	92.69
326.313	88.69
326.542	82.69
326.77	77.69
326.999	79.69
327.228	86.69
327.457	81.69
327.686	74.69
327.914	92.69
328.143	85.69
328.372	91.69
328.6	79.69
328.829	81.69
329.058	91.69
329.287	80.69
329.515	91.69
329.744	76.69
329.972	88.69
330.201	73.69
330.43	98.69
330.658	89.69
330.887	78.69
331.115	72.69
331.344	89.69
331.572	82.69
331.801	90.69
332.03	83.69
332.258	82.69
332.486	72.69
332.715	78.69
332.943	76.69
333.172	88.69
333.4	94.69
333.629	87.69
333.857	82.69
334.085	75.69
334.314	92.69
334.542	75.69
334.771	80.69
334.999	87.69
335.227	80.69
335.455	83.69
335.684	91.69
335.912	77.69
336.14	71.69
336.369	86.69
336.597	70.69
336.825	92.69
337.053	79.69
337.281	96.69
337.51	90.69
337.738	91.69
337.966	69.69
338.194	89.69
338.422	79.69
338.65	84.69
338.878	102.69
339.106	92.69
339.334	83.69
339.562	74.69
339.79	94.69
340.018	78.69
340.246	85.69
340.474	74.69
340.702	86.69
340.93	95.69
341.158	87.69
341.386	82.69
341.614	96.69
341.842	82.69
342.07	75.69
342.298	82.69
342.526	83.69
342.754	90.69
342.981	80.69
343.209	88.69
343.437	81.69
343.665	86.69
343.893	78.69
344.12	76.69
344.348	85.69
344.576	86.69
344.804	92.69
345.031	75.69
345.259	85.69
345.487	89.69
345.714	100.69
345.942	96.69
346.17	94.69
346.397	80.69
346.625	76.69
346.853	83.69
347.08	80.69
347.308	89.69
347.535	94.69
347.763	75.69
347.99	81.69
348.218	95.69
348.445	78.69
348.673	91.69
348.9	85.69
349.128	82.69
349.355	79.69
349.583	82.69
349.81	74.69
350.037	93.69
350.265	86.69
350.492	78.69
350.72	85.69
350.947	108.69
351.174	94.69
351.402	87.69
351.629	84.69
351.856	72.69
352.083	71.69
352.311	90.69
352.538	99.69
352.765	91.69
352.992	76.69
353.22	82.69
353.447	79.69
353.674	86.69
353.901	74.69
354.128	71.69
354.355	76.69
354.583	94.69
354.81	91.69
355.037	83.69
355.264	78.69
355.491	78.69
355.718	80.69
355.945	92.69
356.172	83.69
356.399	73.69
356.626	89.69
356.853	79.69
357.08	87.69
357.307	82.69
357.534	94.69
357.761	71.69
357.988	87.69
358.215	86.69
358.441	92.69
358.668	84.69
358.895	84.69
359.122	87.69
359.349	77.69
359.576	82.69
359.802	75.69
360.029	93.69
360.256	90.69
360.483	76.69
360.709	74.69
360.936	80.69
361.163	76.69
361.39	83.69
361.616	82.69
361.843	79.69
362.07	83.69
362.296	89.69
362.523	99.69
362.749	86.69
362.976	92.69
363.203	88.69
363.429	87.69
363.656	75.69
363.882	90.69
364.109	74.69
364.335	90.69
364.562	99.69
364.788	78.69
365.015	74.69
365.241	79.69
365.468	84.69
365.694	68.69
365.92	88.69
366.147	96.69
366.373	82.69
366.599	91.69
366.826	76.69
367.052	79.69
367.278	92.69
367.505	87.69
367.731	79.69
367.957	80.69
368.184	75.69
368.41	91.69
368.636	91.69
368.862	90.69
369.089	80.69
369.315	83.69
369.541	88.69
369.767	90.69
369.993	95.69
370.219	104.69
370.445	68.69
370.672	99.69
370.898	93.69
371.124	96.69
371.35	82.69
371.576	89.69
371.802	98.69
372.028	81.69
372.254	92.69
372.48	90.69
372.706	77.69
372.932	94.69
373.158	93.69
373.384	100.69
373.61	103.69
373.835	88.69
374.061	95.69
374.287	85.69
374.513	99.69
374.739	90.69
374.965	105.69
375.191	89.69
375.416	81.69
375.642	90.69
375.868	95.69
376.094	94.69
376.319	92.69
376.545	91.69
376.771	100.69
376.997	107.69
377.222	96.69
377.448	98.69
377.674	89.69
377.899	90.69
378.125	89.69
378.35	83.69
378.576	111.69
378.802	106.69
379.027	102.69
379.253	99.69
379.478	100.69
379.704	99.69
379.929	110.69
380.155	80.69
380.38	79.69
380.606	114.69
380.831	105.69
381.057	90.69
381.282	95.69
381.507	88.69
381.733	99.69
381.958	96.69
382.184	95.69
382.409	89.69
382.634	87.69
382.86	82.69
383.085	104.69
383.31	113.69
383.535	91.69
383.761	100.69
383.986	103.69
384.211	89.69
384.436	92.69
384.662	103.69
384.887	80.69
385.112	89.69
385.337	106.69
385.562	95.69
385.787	107.69
386.013	104.69
386.238	102.69
386.463	87.69
386.688	97.69
386.913	89.69
387.138	104.69
387.363	106.69
387.588	104.69
387.813	121.69
388.038	103.69
388.263	86.69
388.488	112.69
388.713	104.69
388.938	99.69
389.163	103.69
389.387	105.69
389.612	92.69
389.837	103.69
390.062	100.69
390.287	104.69
390.512	107.69
390.736	108.69
390.961	106.69
391.186	101.69
391.411	102.69
391.636	97.69
391.86	89.69
392.085	99.69
392.31	117.69
392.534	113.69
392.759	95.69
392.984	113.69
393.208	91.69
393.433	96.69
393.658	105.69
393.882	106.69
394.107	105.69
394.331	106.69
394.556	102.69
394.78	104.69
395.005	108.69
395.229	106.69
395.454	96.69
395.678	113.69
395.903	99.69
396.127	115.69
396.352	112.69
396.576	102.69
396.801	115.69
397.025	91.69
397.249	102.69
397.474	112.69
397.698	100.69
397.922	105.69
398.147	118.69
398.371	117.69
398.595	108.69
398.82	111.69
399.044	105.69
399.268	106.69
399.492	121.69
399.717	121.69
399.941	108.69
400.165	109.69
400.389	108.69
400.613	105.69
400.837	96.69
401.062	105.69
401.286	98.69
401.51	102.69
401.734	104.69
401.958	123.69
402.182	107.69
402.406	101.69
402.63	125.69
402.854	115.69
403.078	112.69
403.302	123.69
403.526	111.69
403.75	106.69
403.974	114.69
404.198	105.69
404.422	113.69
404.645	113.69
404.869	112.69
405.093	128.69
405.317	121.69
405.541	119.69
405.765	119.69
405.988	108.69
406.212	112.69
406.436	113.69
406.66	120.69
406.883	108.69
407.107	114.69
407.331	113.69
407.555	111.69
407.778	121.69
408.002	121.69
408.226	129.69
408.449	120.69
408.673	117.69
408.896	121.69
409.12	135.69
409.344	126.69
409.567	108.69
409.791	123.69
410.014	137.69
410.238	124.69
410.461	134.69
410.685	112.69
410.908	118.69
411.132	116.69
411.355	99.69
411.578	124.69
411.802	128.69
412.025	132.69
412.249	138.69
412.472	139.69
412.695	118.69
412.919	106.69
413.142	125.69
413.365	135.69
413.589	120.69
413.812	121.69
414.035	121.69
414.258	115.69
414.482	113.69
414.705	129.69
414.928	119.69
415.151	125.69
415.374	108.69
415.597	104.69
415.821	120.69
416.044	129.69
416.267	118.69
416.49	135.69
416.713	144.69
416.936	126.69
417.159	131.69
417.382	125.69
417.605	120.69
417.828	127.69
418.051	141.69
418.274	136.69
418.497	130.69
418.72	131.69
418.943	133.69
419.166	140.69
419.389	137.69
419.611	131.69
419.834	134.69
420.057	145.69
420.28	123.69
420.503	130.69
420.726	142.69
420.948	133.69
421.171	137.69
421.394	125.69
421.617	139.69
421.839	164.69
422.062	137.69
422.285	135.69
422.507	147.69
422.73	117.69
422.953	130.69
423.175	131.69
423.398	125.69
423.621	116.69
423.843	127.69
424.066	135.69
424.288	139.69
424.511	132.69
424.733	144.69
424.956	150.69
425.178	137.69
425.401	133.69
425.623	136.69
425.846	123.69
426.068	127.69
426.291	128.69
426.513	122.69
426.735	112.69
426.958	128.69
427.18	131.69
427.402	122.69
427.625	125.69
427.847	136.69
428.069	128.69
428.292	124.69
428.514	119.69
428.736	123.69
428.958	131.69
429.181	132.69
429.403	122.69
429.625	121.69
429.847	125.69
430.069	141.69
430.292	127.69
430.514	121.69
430.736	126.69
430.958	118.69
431.18	132.69
431.402	131.69
431.624	127.69
431.846	110.69
432.068	101.69
432.29	94.69
432.512	119.69
432.734	101.69
432.956	137.69
433.178	132.69
433.4	129.69
433.622	141.69
433.844	141.69
434.066	128.69
434.287	104.69
434.509	97.69
434.731	116.69
434.953	111.69
435.175	126.69
435.397	131.69
435.618	129.69
435.84	109.69
436.062	119.69
436.284	136.69
436.505	107.69
436.727	127.69
436.949	132.69
437.17	121.69
437.392	123.69
437.614	119.69
437.835	119.69
438.057	121.69
438.278	119.69
438.5	138.69
438.721	155.69
438.943	138.69
439.165	144.69
439.386	137.69
439.608	124.69
439.829	129.69
440.05	128.69
440.272	143.69
440.493	152.69
440.715	153.69
440.936	142.69
441.158	133.69
441.379	146.69
441.6	144.69
441.822	140.69
442.043	142.69
442.264	148.69
442.486	139.69
442.707	127.69
442.928	133.69
443.149	129.69
443.371	144.69
443.592	138.69
443.813	141.69
444.034	138.69
444.255	140.69
444.476	161.69
444.698	132.69
444.919	142.69
445.14	259.69
445.361	199.69
445.582	147.69
445.803	135.69
446.024	151.69
446.245	177.69
446.466	141.69
446.687	142.69
446.908	145.69
447.129	152.69
447.35	153.69
447.571	129.69
447.792	155.69
448.013	135.69
448.234	140.69
448.455	131.69
448.675	135.69
448.896	120.69
449.117	130.69
449.338	139.69
449.559	136.69
449.779	153.69
450	159.69
450.221	139.69
450.442	151.69
450.662	126.69
450.883	130.69
451.104	146.69
451.324	119.69
451.545	133.69
451.766	130.69
451.986	124.69
452.207	124.69
452.428	120.69
452.648	139.69
452.869	113.69
453.089	114.69
453.31	108.69
453.53	104.69
453.751	106.69
453.971	92.69
454.192	112.69
454.412	119.69
454.633	111.69
454.853	108.69
455.073	129.69
455.294	127.69
455.514	129.69
455.734	116.69
455.955	115.69
456.175	123.69
456.395	127.69
456.616	125.69
456.836	121.69
457.056	103.69
457.276	89.69
457.497	112.69
457.717	97.69
457.937	119.69
458.157	113.69
458.377	95.69
458.598	127.69
458.818	95.69
459.038	90.69
459.258	86.69
459.478	86.69
459.698	90.69
459.918	105.69
460.138	101.69
460.358	118.69
460.578	115.69
460.798	122.69
461.018	105.69
461.238	113.69
461.458	127.69
461.678	117.69
461.898	112.69
462.118	107.69
462.338	122.69
462.558	115.69
462.777	100.69
462.997	119.69
463.217	100.69
463.437	122.69
463.657	118.69
463.876	99.69
464.096	109.69
464.316	101.69
464.536	114.69
464.755	116.69
464.975	129.69
465.195	129.69
465.414	122.69
465.634	127.69
465.854	112.69
466.073	107.69
466.293	127.69
466.512	113.69
466.732	127.69
466.951	135.69
467.171	130.69
467.391	124.69
467.61	133.69
467.829	136.69
468.049	136.69
468.268	142.69
468.488	129.69
468.707	143.69
468.927	121.69
469.146	127.69
469.365	134.69
469.585	142.69
469.804	152.69
470.023	131.69
470.243	147.69
470.462	155.69
470.681	152.69
470.901	127.69
471.12	145.69
471.339	136.69
471.558	145.69
471.777	143.69
471.997	146.69
472.216	134.69
472.435	115.69
472.654	109.69
472.873	106.69
473.092	97.69
473.311	120.69
473.53	116.69
473.749	127.69
473.968	133.69
474.187	128.69
474.406	115.69
474.625	138.69
474.844	139.69
475.063	131.69
475.282	118.69
475.501	106.69
475.72	112.69
475.939	133.69
476.158	125.69
476.377	129.69
476.596	125.69
476.814	117.69
477.033	116.69
477.252	111.69
477.471	120.69
477.69	139.69
477.908	129.69
478.127	146.69
478.346	139.69
478.564	129.69
478.783	157.69
479.002	144.69
479.22	135.69
479.439	145.69
479.658	128.69
479.876	114.69
480.095	115.69
480.313	127.69
480.532	132.69
480.751	121.69
480.969	92.69
481.188	81.69
481.406	70.69
481.624	89.69
481.843	97.69
482.061	103.69
482.28	113.69
482.498	122.69
482.717	115.69
482.935	116.69
483.153	157.69
483.372	153.69
483.59	161.69
483.808	142.69
484.027	121.69
484.245	151.69
484.463	151.69
484.681	166.69
484.9	149.69
485.118	144.69
485.336	129.69
485.554	102.69
485.772	117.69
485.99	110.69
486.209	102.69
486.427	114.69
486.645	122.69
486.863	128.69
487.081	140.69
487.299	147.69
487.517	149.69
487.735	154.69
487.953	188.69
488.171	187.69
488.389	168.69
488.607	162.69
488.825	139.69
489.043	116.69
489.261	135.69
489.479	132.69
489.696	147.69
489.914	155.69
490.132	123.69
490.35	134.69
490.568	161.69
490.786	175.69
491.003	169.69
491.221	173.69
491.439	182.69
491.657	184.69
491.874	205.69
492.092	229.69
492.31	215.69
492.527	217.69
492.745	214.69
492.963	197.69
493.18	173.69
493.398	183.69
493.615	175.69
493.833	177.69
494.05	189.69
494.268	172.69
494.485	170.69
494.703	164.69
494.92	164.69
495.138	167.69
495.355	168.69
495.573	170.69
495.79	171.69
496.008	161.69
496.225	163.69
496.442	164.69
496.66	169.69
496.877	165.69
497.094	160.69
497.312	171.69
497.529	151.69
497.746	158.69
497.963	129.69
498.181	123.69
498.398	126.69
498.615	116.69
498.832	126.69
499.049	112.69
499.267	117.69
499.484	122.69
499.701	131.69
499.918	128.69
500.135	142.69
500.352	129.69
500.569	162.69
500.786	145.69
501.003	147.69
501.22	139.69
501.437	125.69
501.654	133.69
501.871	139.69
502.088	132.69
502.305	137.69
502.522	128.69
502.739	117.69
502.956	116.69
503.172	122.69
503.389	120.69
503.606	107.69
503.823	127.69
504.04	125.69
504.256	108.69
504.473	101.69
504.69	112.69
504.907	117.69
505.123	122.69
505.34	111.69
505.557	108.69
505.773	118.69
505.99	113.69
506.207	132.69
506.423	121.69
506.64	119.69
506.856	130.69
507.073	119.69
507.289	106.69
507.506	114.69
507.722	120.69
507.939	123.69
508.155	122.69
508.372	123.69
508.588	118.69
508.805	103.69
509.021	101.69
509.238	101.69
509.454	105.69
509.67	103.69
509.887	103.69
510.103	98.69
510.319	92.69
510.536	96.69
510.752	88.69
510.968	99.69
511.184	77.69
511.401	79.69
511.617	83.69
511.833	88.69
512.049	90.69
512.265	90.69
512.481	83.69
512.698	94.69
512.914	88.69
513.13	91.69
513.346	96.69
513.562	92.69
513.778	97.69
513.994	94.69
514.21	92.69
514.426	102.69
514.642	102.69
514.858	93.69
515.074	86.69
515.29	98.69
515.506	90.69
515.721	81.69
515.937	81.69
516.153	95.69
516.369	84.69
516.585	85.69
516.801	74.69
517.016	90.69
517.232	86.69
517.448	95.69
517.664	107.69
517.879	92.69
518.095	96.69
518.311	91.69
518.527	83.69
518.742	100.69
518.958	98.69
519.173	103.69
519.389	112.69
519.605	113.69
519.82	109.69
520.036	101.69
520.251	118.69
520.467	96.69
520.682	99.69
520.898	90.69
521.113	84.69
521.329	83.69
521.544	91.69
521.76	108.69
521.975	98.69
522.19	87.69
522.406	107.69
522.621	100.69
522.836	91.69
523.052	100.69
523.267	106.69
523.482	106.69
523.698	103.69
523.913	104.69
524.128	91.69
524.343	104.69
524.559	125.69
524.774	123.69
524.989	118.69
525.204	111.69
525.419	129.69
525.634	116.69
525.849	107.69
526.064	95.69
526.28	105.69
526.495	100.69
526.71	98.69
526.925	90.69
527.14	89.69
527.355	87.69
527.57	91.69
527.785	71.69
527.999	89.69
528.214	111.69
528.429	111.69
528.644	122.69
528.859	125.69
529.074	143.69
529.289	159.69
529.503	155.69
529.718	130.69
529.933	118.69
530.148	100.69
530.363	100.69
530.577	89.69
530.792	91.69
531.007	91.69
531.221	83.69
531.436	69.69
531.651	93.69
531.865	95.69
532.08	93.69
532.295	85.69
532.509	90.69
532.724	84.69
532.938	91.69
533.153	98.69
533.367	105.69
533.582	112.69
533.796	125.69
534.011	104.69
534.225	96.69
534.44	93.69
534.654	98.69
534.868	96.69
535.083	104.69
535.297	105.69
535.511	113.69
535.726	104.69
535.94	110.69
536.154	79.69
536.369	87.69
536.583	85.69
536.797	92.69
537.011	95.69
537.225	95.69
537.44	101.69
537.654	86.69
537.868	87.69
538.082	95.69
538.296	90.69
538.51	102.69
538.724	120.69
538.938	121.69
539.153	125.69
539.367	115.69
539.581	112.69
539.795	102.69
540.009	98.69
540.222	100.69
540.436	93.69
540.65	106.69
540.864	113.69
541.078	142.69
541.292	147.69
541.506	154.69
541.72	171.69
541.934	173.69
542.147	199.69
542.361	177.69
542.575	157.69
542.789	148.69
543.002	140.69
543.216	118.69
543.43	131.69
543.644	139.69
543.857	136.69
544.071	136.69
544.285	163.69
544.498	160.69
544.712	155.69
544.925	158.69
545.139	155.69
545.352	149.69
545.566	168.69
545.779	167.69
545.993	160.69
546.206	180.69
546.42	175.69
546.633	170.69
546.847	163.69
547.06	168.69
547.274	172.69
547.487	170.69
547.7	178.69
547.914	176.69
548.127	161.69
548.34	165.69
548.554	155.69
548.767	154.69
548.98	149.69
549.193	147.69
549.407	163.69
549.62	157.69
549.833	149.69
550.046	150.69
550.259	157.69
550.473	147.69
550.686	145.69
550.899	159.69
551.112	163.69
551.325	124.69
551.538	146.69
551.751	124.69
551.964	123.69
552.177	130.69
552.39	155.69
552.603	148.69
552.816	161.69
553.029	149.69
553.242	166.69
553.455	153.69
553.667	167.69
553.88	163.69
554.093	153.69
554.306	156.69
554.519	141.69
554.732	154.69
554.944	153.69
555.157	159.69
555.37	138.69
555.583	131.69
555.795	131.69
556.008	133.69
556.221	119.69
556.433	137.69
556.646	146.69
556.859	139.69
557.071	137.69
557.284	144.69
557.496	141.69
557.709	127.69
557.921	139.69
558.134	158.69
558.346	144.69
558.559	140.69
558.771	145.69
558.984	142.69
559.196	140.69
559.409	132.69
559.621	142.69
559.833	125.69
560.046	138.69
560.258	151.69
560.47	130.69
560.683	148.69
560.895	143.69
561.107	125.69
561.32	140.69
561.532	127.69
561.744	130.69
561.956	127.69
562.168	148.69
562.381	137.69
562.593	148.69
562.805	131.69
563.017	126.69
563.229	126.69
563.441	116.69
563.653	115.69
563.865	103.69
564.077	120.69
564.289	125.69
564.501	140.69
564.713	120.69
564.925	127.69
565.137	125.69
565.349	108.69
565.561	124.69
565.773	122.69
565.985	117.69
566.197	104.69
566.408	113.69
566.62	104.69
566.832	122.69
567.044	103.69
567.255	111.69
567.467	126.69
567.679	120.69
567.891	103.69
568.102	109.69
568.314	86.69
568.526	94.69
568.737	92.69
568.949	85.69
569.161	77.69
569.372	98.69
569.584	83.69
569.795	81.69
570.007	95.69
570.218	88.69
570.43	90.69
570.641	93.69
570.853	127.69
571.064	102.69
571.276	95.69
571.487	89.69
571.698	119.69
571.91	91.69
572.121	98.69
572.333	100.69
572.544	95.69
572.755	103.69
572.966	102.69
573.178	77.69
573.389	92.69
573.6	91.69
573.811	91.69
574.023	83.69
574.234	88.69
574.445	98.69
574.656	107.69
574.867	89.69
575.078	93.69
575.289	100.69
575.501	93.69
575.712	105.69
575.923	101.69
576.134	96.69
576.345	92.69
576.556	106.69
576.767	92.69
576.978	95.69
577.188	93.69
577.399	87.69
577.61	84.69
577.821	87.69
578.032	96.69
578.243	96.69
578.454	95.69
578.665	100.69
578.875	75.69
579.086	84.69
579.297	87.69
579.508	76.69
579.718	89.69
579.929	81.69
580.14	81.69
580.35	87.69
580.561	90.69
580.772	93.69
580.982	102.69
581.193	95.69
581.403	104.69
581.614	97.69
581.825	97.69
582.035	114.69
582.246	90.69
582.456	87.69
582.667	95.69
582.877	84.69
583.087	97.69
583.298	108.69
583.508	84.69
583.719	83.69
583.929	88.69
584.139	83.69
584.35	74.69
584.56	95.69
584.77	93.69
584.981	88.69
585.191	117.69
585.401	89.69
585.611	90.69
585.821	78.69
586.032	85.69
586.242	88.69
586.452	81.69
586.662	74.69
586.872	88.69
587.082	90.69
587.292	74.69
587.502	89.69
587.713	91.69
587.923	89.69
588.133	84.69
588.343	97.69
588.553	86.69
588.762	81.69
588.972	85.69
589.182	93.69
589.392	94.69
589.602	87.69
589.812	77.69
590.022	90.69
590.232	91.69
590.441	85.69
590.651	83.69
590.861	73.69
591.071	81.69
591.281	72.69
591.49	89.69
591.7	82.69
591.91	78.69
592.119	90.69
592.329	98.69
592.539	99.69
592.748	89.69
592.958	87.69
593.167	85.69
593.377	84.69
593.587	88.69
593.796	90.69
594.006	104.69
594.215	107.69
594.424	98.69
594.634	89.69
594.843	83.69
595.053	83.69
595.262	98.69
595.472	92.69
595.681	87.69
595.89	105.69
596.1	113.69
596.309	91.69
596.518	90.69
596.727	89.69
596.937	99.69
597.146	100.69
597.355	103.69
597.564	97.69
597.774	101.69
597.983	80.69
598.192	76.69
598.401	81.69
598.61	91.69
598.819	94.69
599.028	92.69
599.237	95.69
599.446	97.69
599.655	92.69
599.864	102.69
600.073	100.69
600.282	94.69
600.491	97.69
600.7	90.69
600.909	81.69
601.118	103.69
601.327	107.69
601.536	123.69
601.745	116.69
601.953	108.69
602.162	117.69
602.371	113.69
602.58	111.69
602.789	93.69
602.997	106.69
603.206	111.69
603.415	101.69
603.623	111.69
603.832	113.69
604.041	113.69
604.249	118.69
604.458	106.69
604.666	91.69
604.875	92.69
605.084	103.69
605.292	102.69
605.501	96.69
605.709	114.69
605.918	105.69
606.126	118.69
606.334	127.69
606.543	116.69
606.751	108.69
606.96	113.69
607.168	113.69
607.376	113.69
607.585	111.69
607.793	117.69
608.001	111.69
608.21	112.69
608.418	116.69
608.626	103.69
608.834	115.69
609.043	105.69
609.251	127.69
609.459	108.69
609.667	122.69
609.875	120.69
610.083	128.69
610.291	120.69
610.499	111.69
610.707	120.69
610.916	115.69
611.124	119.69
611.332	111.69
611.54	111.69
611.748	107.69
611.955	111.69
612.163	113.69
612.371	104.69
612.579	92.69
612.787	119.69
612.995	108.69
613.203	115.69
613.411	123.69
613.618	99.69
613.826	108.69
614.034	114.69
614.242	116.69
614.449	121.69
614.657	111.69
614.865	111.69
615.072	125.69
615.28	113.69
615.488	117.69
615.695	117.69
615.903	108.69
616.111	116.69
616.318	119.69
616.526	117.69
616.733	104.69
616.941	108.69
617.148	95.69
617.356	99.69
617.563	94.69
617.771	110.69
617.978	103.69
618.185	101.69
618.393	112.69
618.6	119.69
618.807	118.69
619.015	105.69
619.222	118.69
619.429	105.69
619.637	96.69
619.844	86.69
620.051	105.69
620.258	109.69
620.466	108.69
620.673	93.69
620.88	102.69
621.087	107.69
621.294	112.69
621.501	113.69
621.708	119.69
621.915	100.69
622.122	95.69
622.329	108.69
622.536	121.69
622.743	103.69
622.95	101.69
623.157	106.69
623.364	118.69
623.571	109.69
623.778	109.69
623.985	100.69
624.192	112.69
624.399	114.69
624.606	109.69
624.812	102.69
625.019	88.69
625.226	97.69
625.433	103.69
625.639	89.69
625.846	104.69
626.053	91.69
626.259	90.69
626.466	96.69
626.673	102.69
626.879	91.69
627.086	109.69
627.293	90.69
627.499	101.69
627.706	117.69
627.912	104.69
628.119	117.69
628.325	107.69
628.532	115.69
628.738	106.69
628.945	104.69
629.151	110.69
629.357	114.69
629.564	97.69
629.77	95.69
629.976	99.69
630.183	92.69
630.389	103.69
630.595	115.69
630.802	106.69
631.008	112.69
631.214	116.69
631.42	96.69
631.627	121.69
631.833	120.69
632.039	97.69
632.245	97.69
632.451	98.69
632.657	87.69
632.863	94.69
633.069	99.69
633.275	95.69
633.481	93.69
633.688	103.69
633.893	91.69
634.099	103.69
634.305	102.69
634.511	109.69
634.717	100.69
634.923	86.69
635.129	91.69
635.335	104.69
635.541	116.69
635.747	107.69
635.952	104.69
636.158	104.69
636.364	112.69
636.57	110.69
636.775	89.69
636.981	103.69
637.187	89.69
637.392	88.69
637.598	105.69
637.804	101.69
638.009	107.69
638.215	97.69
638.421	108.69
638.626	102.69
638.832	114.69
639.037	107.69
639.243	107.69
639.448	82.69
639.654	85.69
639.859	98.69
640.065	99.69
640.27	102.69
640.475	91.69
640.681	103.69
640.886	95.69
641.091	91.69
641.297	97.69
641.502	92.69
641.707	95.69
641.913	111.69
642.118	84.69
642.323	100.69
642.528	94.69
642.733	102.69
642.939	101.69
643.144	102.69
643.349	112.69
643.554	123.69
643.759	96.69
643.964	98.69
644.169	94.69
644.374	100.69
644.579	105.69
644.784	86.69
644.989	115.69
645.194	91.69
645.399	103.69
645.604	93.69
645.809	104.69
646.014	107.69
646.219	99.69
646.423	91.69
646.628	103.69
646.833	102.69
647.038	107.69
647.243	98.69
647.447	103.69
647.652	100.69
647.857	89.69
648.062	91.69
648.266	91.69
648.471	100.69
648.676	101.69
648.88	103.69
649.085	96.69
649.289	100.69
649.494	86.69
649.698	108.69
649.903	103.69
650.107	113.69
650.312	87.69
650.516	98.69
650.721	106.69
650.925	105.69
651.13	104.69
651.334	103.69
651.539	90.69
651.743	101.69
651.947	102.69
652.152	106.69
652.356	107.69
652.56	95.69
652.764	100.69
652.969	101.69
653.173	85.69
653.377	96.69
653.581	94.69
653.785	84.69
653.99	87.69
654.194	84.69
654.398	96.69
654.602	91.69
654.806	80.69
655.01	90.69
655.214	77.69
655.418	94.69
655.622	88.69
655.826	87.69
656.03	77.69
656.234	81.69
656.438	99.69
656.642	86.69
656.846	87.69
657.049	93.69
657.253	83.69
657.457	89.69
657.661	80.69
657.865	80.69
658.068	97.69
658.272	89.69
658.476	87.69
658.68	77.69
658.883	74.69
659.087	95.69
659.291	82.69
659.494	91.69
659.698	93.69
659.901	84.69
660.105	89.69
660.309	89.69
660.512	78.69
660.716	93.69
660.919	81.69
661.123	82.69
661.326	89.69
661.53	87.69
661.733	81.69
661.936	77.69
662.14	85.69
662.343	78.69
662.546	97.69
662.75	84.69
662.953	81.69
663.156	86.69
663.36	90.69
663.563	87.69
663.766	92.69
663.969	80.69
664.173	73.69
664.376	76.69
664.579	74.69
664.782	75.69
664.985	97.69
665.188	84.69
665.391	100.69
665.594	81.69
665.797	64.69
666	83.69
666.203	86.69
666.406	83.69
666.609	81.69
666.812	71.69
667.015	98.69
667.218	96.69
667.421	89.69
667.624	86.69
667.827	78.69
668.03	91.69
668.232	83.69
668.435	81.69
668.638	88.69
668.841	82.69
669.043	83.69
669.246	88.69
669.449	75.69
669.651	76.69
669.854	76.69
670.057	89.69
670.259	78.69
670.462	70.69
670.665	74.69
670.867	84.69
671.07	76.69
671.272	90.69
671.475	92.69
671.677	80.69
671.88	77.69
672.082	81.69
672.284	86.69
672.487	92.69
672.689	88.69
672.892	89.69
