Data from Location2.07152019.Energy5.Lamp.07192019.3%Agarose_HRD10591_14-55-59-358.txt Node
Date: Fri Jul 19 14:55:59 EDT 2019
User: cochatt
Spectrometer: HR+D1059
Trigger mode: 1
Integration Time (sec): 1.000000E-1
Scans to average: 1
Electric dark correction enabled: true
Nonlinearity correction enabled: false
Boxcar width: 0
XAxis mode: Wavelengths
Number of Pixels in Spectrum: 2048
>>>>>Begin Spectral Data<<<<<
223.165	-10.94
223.4	-10.94
223.635	-10.94
223.869	-12.94
224.104	-17.94
224.338	0.06
224.573	-22.94
224.808	-11.94
225.042	-28.94
225.277	-6.94
225.511	-3.94
225.746	-4.94
225.98	0.06
226.215	17.06
226.449	11.06
226.683	23.06
226.918	32.06
227.152	38.06
227.387	22.06
227.621	42.06
227.856	52.06
228.09	46.06
228.324	45.06
228.559	54.06
228.793	59.06
229.027	64.06
229.262	57.06
229.496	62.06
229.73	84.06
229.964	80.06
230.199	67.06
230.433	78.06
230.667	90.06
230.901	83.06
231.136	74.06
231.37	76.06
231.604	72.06
231.838	66.06
232.072	62.06
232.306	83.06
232.541	84.06
232.775	77.06
233.009	96.06
233.243	78.06
233.477	82.06
233.711	74.06
233.945	90.06
234.179	71.06
234.413	74.06
234.647	76.06
234.881	89.06
235.115	82.06
235.349	84.06
235.583	78.06
235.817	81.06
236.051	76.06
236.285	86.06
236.519	76.06
236.753	76.06
236.987	77.06
237.221	69.06
237.455	80.06
237.689	83.06
237.922	76.06
238.156	84.06
238.39	77.06
238.624	77.06
238.858	76.06
239.091	71.06
239.325	76.06
239.559	86.06
239.793	78.06
240.027	78.06
240.26	73.06
240.494	78.06
240.728	77.06
240.961	83.06
241.195	76.06
241.429	80.06
241.662	76.06
241.896	73.06
242.13	77.06
242.363	72.06
242.597	70.06
242.83	82.06
243.064	84.06
243.298	74.06
243.531	77.06
243.765	85.06
243.998	78.06
244.232	74.06
244.465	75.06
244.699	69.06
244.932	77.06
245.166	72.06
245.399	92.06
245.633	60.06
245.866	71.06
246.099	83.06
246.333	83.06
246.566	82.06
246.8	83.06
247.033	90.06
247.266	80.06
247.5	87.06
247.733	78.06
247.966	77.06
248.2	93.06
248.433	77.06
248.666	77.06
248.899	83.06
249.133	73.06
249.366	74.06
249.599	73.06
249.832	84.06
250.066	89.06
250.299	79.06
250.532	71.06
250.765	84.06
250.998	87.06
251.231	76.06
251.465	93.06
251.698	68.06
251.931	88.06
252.164	84.06
252.397	77.06
252.63	84.06
252.863	73.06
253.096	80.06
253.329	74.06
253.562	85.06
253.795	81.06
254.028	69.06
254.261	82.06
254.494	64.06
254.727	76.06
254.96	87.06
255.193	87.06
255.426	100.06
255.659	87.06
255.892	82.06
256.124	74.06
256.357	76.06
256.59	81.06
256.823	76.06
257.056	75.06
257.289	68.06
257.521	74.06
257.754	91.06
257.987	76.06
258.22	80.06
258.452	87.06
258.685	90.06
258.918	84.06
259.151	91.06
259.383	75.06
259.616	81.06
259.849	84.06
260.081	71.06
260.314	82.06
260.547	96.06
260.779	83.06
261.012	100.06
261.244	90.06
261.477	82.06
261.71	85.06
261.942	90.06
262.175	84.06
262.407	98.06
262.64	83.06
262.872	85.06
263.105	84.06
263.337	84.06
263.57	84.06
263.802	77.06
264.035	74.06
264.267	80.06
264.499	77.06
264.732	78.06
264.964	93.06
265.197	73.06
265.429	74.06
265.661	87.06
265.894	83.06
266.126	69.06
266.358	86.06
266.591	86.06
266.823	77.06
267.055	84.06
267.287	89.06
267.52	87.06
267.752	92.06
267.984	84.06
268.216	79.06
268.448	87.06
268.681	84.06
268.913	76.06
269.145	79.06
269.377	71.06
269.609	100.06
269.841	90.06
270.073	90.06
270.306	91.06
270.538	79.06
270.77	78.06
271.002	84.06
271.234	86.06
271.466	84.06
271.698	63.06
271.93	80.06
272.162	77.06
272.394	92.06
272.626	84.06
272.858	89.06
273.09	88.06
273.322	76.06
273.553	84.06
273.785	78.06
274.017	87.06
274.249	78.06
274.481	84.06
274.713	89.06
274.945	77.06
275.176	95.06
275.408	93.06
275.64	79.06
275.872	86.06
276.104	76.06
276.335	86.06
276.567	82.06
276.799	74.06
277.031	84.06
277.262	82.06
277.494	78.06
277.726	75.06
277.957	89.06
278.189	75.06
278.421	72.06
278.652	70.06
278.884	90.06
279.115	87.06
279.347	77.06
279.579	88.06
279.81	79.06
280.042	84.06
280.273	84.06
280.505	80.06
280.736	82.06
280.968	73.06
281.199	77.06
281.431	76.06
281.662	88.06
281.894	80.06
282.125	82.06
282.356	89.06
282.588	78.06
282.819	84.06
283.051	87.06
283.282	78.06
283.513	67.06
283.745	86.06
283.976	88.06
284.207	91.06
284.439	77.06
284.67	85.06
284.901	79.06
285.132	82.06
285.364	81.06
285.595	87.06
285.826	93.06
286.057	85.06
286.288	92.06
286.52	78.06
286.751	78.06
286.982	67.06
287.213	77.06
287.444	86.06
287.675	94.06
287.906	93.06
288.138	86.06
288.369	82.06
288.6	85.06
288.831	82.06
289.062	88.06
289.293	73.06
289.524	93.06
289.755	89.06
289.986	90.06
290.217	81.06
290.448	83.06
290.679	98.06
290.91	94.06
291.141	71.06
291.371	89.06
291.602	83.06
291.833	76.06
292.064	77.06
292.295	65.06
292.526	93.06
292.757	89.06
292.987	93.06
293.218	89.06
293.449	72.06
293.68	80.06
293.91	82.06
294.141	92.06
294.372	79.06
294.603	81.06
294.833	85.06
295.064	93.06
295.295	78.06
295.525	90.06
295.756	101.06
295.987	62.06
296.217	96.06
296.448	82.06
296.679	89.06
296.909	86.06
297.14	78.06
297.37	88.06
297.601	93.06
297.831	75.06
298.062	88.06
298.292	74.06
298.523	79.06
298.753	79.06
298.984	94.06
299.214	83.06
299.445	84.06
299.675	84.06
299.905	85.06
300.136	99.06
300.366	79.06
300.597	90.06
300.827	105.06
301.057	102.06
301.288	89.06
301.518	85.06
301.748	87.06
301.979	113.06
302.209	96.06
302.439	77.06
302.669	73.06
302.9	88.06
303.13	93.06
303.36	81.06
303.59	91.06
303.82	89.06
304.051	81.06
304.281	86.06
304.511	84.06
304.741	92.06
304.971	98.06
305.201	77.06
305.431	94.06
305.661	77.06
305.891	93.06
306.121	75.06
306.352	90.06
306.582	84.06
306.812	88.06
307.042	94.06
307.272	74.06
307.502	72.06
307.731	98.06
307.961	69.06
308.191	87.06
308.421	86.06
308.651	72.06
308.881	84.06
309.111	82.06
309.341	76.06
309.571	74.06
309.8	74.06
310.03	83.06
310.26	88.06
310.49	81.06
310.72	88.06
310.949	88.06
311.179	84.06
311.409	96.06
311.639	86.06
311.868	80.06
312.098	91.06
312.328	89.06
312.557	84.06
312.787	85.06
313.017	76.06
313.246	78.06
313.476	89.06
313.706	92.06
313.935	86.06
314.165	87.06
314.394	85.06
314.624	86.06
314.853	86.06
315.083	68.06
315.312	77.06
315.542	91.06
315.771	90.06
316.001	93.06
316.23	91.06
316.46	80.06
316.689	88.06
316.919	85.06
317.148	81.06
317.377	85.06
317.607	94.06
317.836	96.06
318.065	77.06
318.295	91.06
318.524	89.06
318.753	83.06
318.983	76.06
319.212	93.06
319.441	84.06
319.67	89.06
319.9	83.06
320.129	80.06
320.358	98.06
320.587	94.06
320.816	77.06
321.046	77.06
321.275	80.06
321.504	85.06
321.733	78.06
321.962	96.06
322.191	98.06
322.42	76.06
322.649	74.06
322.878	89.06
323.108	86.06
323.337	88.06
323.566	79.06
323.795	78.06
324.024	97.06
324.253	78.06
324.482	93.06
324.71	103.06
324.939	81.06
325.168	86.06
325.397	91.06
325.626	81.06
325.855	83.06
326.084	88.06
326.313	82.06
326.542	78.06
326.77	88.06
326.999	74.06
327.228	92.06
327.457	86.06
327.686	95.06
327.914	83.06
328.143	89.06
328.372	90.06
328.6	90.06
328.829	83.06
329.058	80.06
329.287	77.06
329.515	84.06
329.744	89.06
329.972	82.06
330.201	77.06
330.43	94.06
330.658	90.06
330.887	74.06
331.115	83.06
331.344	80.06
331.572	81.06
331.801	78.06
332.03	87.06
332.258	84.06
332.486	81.06
332.715	94.06
332.943	96.06
333.172	90.06
333.4	79.06
333.629	98.06
333.857	90.06
334.085	80.06
334.314	72.06
334.542	87.06
334.771	90.06
334.999	85.06
335.227	77.06
335.455	88.06
335.684	90.06
335.912	87.06
336.14	89.06
336.369	98.06
336.597	80.06
336.825	69.06
337.053	68.06
337.281	75.06
337.51	85.06
337.738	89.06
337.966	87.06
338.194	74.06
338.422	85.06
338.65	83.06
338.878	70.06
339.106	74.06
339.334	94.06
339.562	85.06
339.79	89.06
340.018	92.06
340.246	87.06
340.474	75.06
340.702	90.06
340.93	81.06
341.158	84.06
341.386	80.06
341.614	88.06
341.842	90.06
342.07	64.06
342.298	88.06
342.526	93.06
342.754	87.06
342.981	98.06
343.209	89.06
343.437	85.06
343.665	91.06
343.893	84.06
344.12	82.06
344.348	86.06
344.576	83.06
344.804	84.06
345.031	87.06
345.259	92.06
345.487	82.06
345.714	78.06
345.942	70.06
346.17	84.06
346.397	72.06
346.625	85.06
346.853	86.06
347.08	84.06
347.308	88.06
347.535	89.06
347.763	83.06
347.99	101.06
348.218	78.06
348.445	85.06
348.673	85.06
348.9	77.06
349.128	94.06
349.355	83.06
349.583	74.06
349.81	90.06
350.037	78.06
350.265	79.06
350.492	88.06
350.72	92.06
350.947	85.06
351.174	85.06
351.402	94.06
351.629	84.06
351.856	96.06
352.083	90.06
352.311	78.06
352.538	81.06
352.765	82.06
352.992	79.06
353.22	84.06
353.447	94.06
353.674	90.06
353.901	89.06
354.128	89.06
354.355	89.06
354.583	83.06
354.81	92.06
355.037	93.06
355.264	75.06
355.491	84.06
355.718	74.06
355.945	88.06
356.172	81.06
356.399	77.06
356.626	76.06
356.853	85.06
357.08	83.06
357.307	84.06
357.534	88.06
357.761	91.06
357.988	88.06
358.215	81.06
358.441	88.06
358.668	80.06
358.895	64.06
359.122	81.06
359.349	89.06
359.576	97.06
359.802	85.06
360.029	78.06
360.256	87.06
360.483	75.06
360.709	76.06
360.936	92.06
361.163	83.06
361.39	81.06
361.616	64.06
361.843	95.06
362.07	91.06
362.296	99.06
362.523	80.06
362.749	84.06
362.976	64.06
363.203	91.06
363.429	80.06
363.656	71.06
363.882	71.06
364.109	96.06
364.335	88.06
364.562	82.06
364.788	84.06
365.015	90.06
365.241	78.06
365.468	81.06
365.694	84.06
365.92	78.06
366.147	91.06
366.373	85.06
366.599	89.06
366.826	85.06
367.052	74.06
367.278	100.06
367.505	108.06
367.731	93.06
367.957	89.06
368.184	80.06
368.41	107.06
368.636	80.06
368.862	79.06
369.089	88.06
369.315	102.06
369.541	81.06
369.767	86.06
369.993	86.06
370.219	73.06
370.445	97.06
370.672	98.06
370.898	76.06
371.124	94.06
371.35	99.06
371.576	94.06
371.802	92.06
372.028	90.06
372.254	89.06
372.48	88.06
372.706	102.06
372.932	99.06
373.158	89.06
373.384	94.06
373.61	101.06
373.835	95.06
374.061	85.06
374.287	91.06
374.513	82.06
374.739	90.06
374.965	98.06
375.191	115.06
375.416	102.06
375.642	106.06
375.868	80.06
376.094	100.06
376.319	93.06
376.545	94.06
376.771	105.06
376.997	87.06
377.222	76.06
377.448	90.06
377.674	92.06
377.899	93.06
378.125	78.06
378.35	93.06
378.576	88.06
378.802	85.06
379.027	100.06
379.253	93.06
379.478	88.06
379.704	88.06
379.929	91.06
380.155	90.06
380.38	106.06
380.606	96.06
380.831	104.06
381.057	98.06
381.282	92.06
381.507	81.06
381.733	99.06
381.958	89.06
382.184	95.06
382.409	106.06
382.634	94.06
382.86	95.06
383.085	91.06
383.31	92.06
383.535	91.06
383.761	98.06
383.986	80.06
384.211	99.06
384.436	97.06
384.662	105.06
384.887	104.06
385.112	99.06
385.337	99.06
385.562	99.06
385.787	93.06
386.013	112.06
386.238	93.06
386.463	116.06
386.688	109.06
386.913	110.06
387.138	98.06
387.363	104.06
387.588	87.06
387.813	78.06
388.038	92.06
388.263	87.06
388.488	96.06
388.713	100.06
388.938	91.06
389.163	93.06
389.387	95.06
389.612	94.06
389.837	109.06
390.062	104.06
390.287	96.06
390.512	94.06
390.736	93.06
390.961	109.06
391.186	97.06
391.411	106.06
391.636	101.06
391.86	120.06
392.085	113.06
392.31	105.06
392.534	120.06
392.759	109.06
392.984	111.06
393.208	97.06
393.433	102.06
393.658	104.06
393.882	105.06
394.107	115.06
394.331	102.06
394.556	98.06
394.78	93.06
395.005	101.06
395.229	117.06
395.454	112.06
395.678	112.06
395.903	105.06
396.127	116.06
396.352	104.06
396.576	120.06
396.801	101.06
397.025	117.06
397.249	110.06
397.474	105.06
397.698	119.06
397.922	107.06
398.147	100.06
398.371	103.06
398.595	106.06
398.82	103.06
399.044	101.06
399.268	109.06
399.492	119.06
399.717	110.06
399.941	116.06
400.165	116.06
400.389	113.06
400.613	106.06
400.837	120.06
401.062	116.06
401.286	109.06
401.51	112.06
401.734	115.06
401.958	112.06
402.182	99.06
402.406	104.06
402.63	125.06
402.854	113.06
403.078	112.06
403.302	119.06
403.526	102.06
403.75	128.06
403.974	119.06
404.198	114.06
404.422	119.06
404.645	116.06
404.869	113.06
405.093	117.06
405.317	126.06
405.541	105.06
405.765	105.06
405.988	112.06
406.212	117.06
406.436	117.06
406.66	124.06
406.883	110.06
407.107	110.06
407.331	124.06
407.555	125.06
407.778	124.06
408.002	125.06
408.226	101.06
408.449	114.06
408.673	117.06
408.896	122.06
409.12	116.06
409.344	124.06
409.567	119.06
409.791	117.06
410.014	121.06
410.238	125.06
410.461	116.06
410.685	145.06
410.908	121.06
411.132	124.06
411.355	131.06
411.578	125.06
411.802	109.06
412.025	121.06
412.249	125.06
412.472	121.06
412.695	107.06
412.919	119.06
413.142	113.06
413.365	113.06
413.589	127.06
413.812	137.06
414.035	116.06
414.258	128.06
414.482	124.06
414.705	112.06
414.928	125.06
415.151	116.06
415.374	120.06
415.597	130.06
415.821	119.06
416.044	121.06
416.267	130.06
416.49	118.06
416.713	124.06
416.936	134.06
417.159	123.06
417.382	122.06
417.605	118.06
417.828	129.06
418.051	125.06
418.274	121.06
418.497	120.06
418.72	144.06
418.943	129.06
419.166	136.06
419.389	127.06
419.611	126.06
419.834	134.06
420.057	134.06
420.28	133.06
420.503	129.06
420.726	136.06
420.948	129.06
421.171	122.06
421.394	138.06
421.617	158.06
421.839	152.06
422.062	141.06
422.285	134.06
422.507	137.06
422.73	134.06
422.953	130.06
423.175	128.06
423.398	120.06
423.621	113.06
423.843	125.06
424.066	122.06
424.288	149.06
424.511	144.06
424.733	126.06
424.956	139.06
425.178	141.06
425.401	138.06
425.623	140.06
425.846	143.06
426.068	132.06
426.291	124.06
426.513	130.06
426.735	126.06
426.958	133.06
427.18	109.06
427.402	119.06
427.625	137.06
427.847	142.06
428.069	134.06
428.292	136.06
428.514	122.06
428.736	128.06
428.958	127.06
429.181	119.06
429.403	116.06
429.625	137.06
429.847	118.06
430.069	117.06
430.292	133.06
430.514	117.06
430.736	146.06
430.958	124.06
431.18	118.06
431.402	128.06
431.624	128.06
431.846	105.06
432.068	94.06
432.29	109.06
432.512	108.06
432.734	113.06
432.956	130.06
433.178	146.06
433.4	143.06
433.622	132.06
433.844	130.06
434.066	126.06
434.287	100.06
434.509	92.06
434.731	102.06
434.953	118.06
435.175	122.06
435.397	132.06
435.618	111.06
435.84	111.06
436.062	130.06
436.284	130.06
436.505	126.06
436.727	130.06
436.949	133.06
437.17	131.06
437.392	110.06
437.614	112.06
437.835	104.06
438.057	110.06
438.278	112.06
438.5	108.06
438.721	126.06
438.943	130.06
439.165	143.06
439.386	143.06
439.608	162.06
439.829	122.06
440.05	140.06
440.272	146.06
440.493	138.06
440.715	148.06
440.936	144.06
441.158	149.06
441.379	138.06
441.6	141.06
441.822	141.06
442.043	147.06
442.264	131.06
442.486	146.06
442.707	141.06
442.928	141.06
443.149	138.06
443.371	130.06
443.592	132.06
443.813	137.06
444.034	118.06
444.255	148.06
444.476	131.06
444.698	136.06
444.919	141.06
445.14	248.06
445.361	187.06
445.582	157.06
445.803	153.06
446.024	148.06
446.245	141.06
446.466	152.06
446.687	152.06
446.908	151.06
447.129	163.06
447.35	141.06
447.571	143.06
447.792	148.06
448.013	137.06
448.234	154.06
448.455	141.06
448.675	141.06
448.896	128.06
449.117	127.06
449.338	138.06
449.559	153.06
449.779	137.06
450	150.06
450.221	124.06
450.442	154.06
450.662	132.06
450.883	134.06
451.104	134.06
451.324	123.06
451.545	126.06
451.766	143.06
451.986	117.06
452.207	132.06
452.428	134.06
452.648	120.06
452.869	120.06
453.089	112.06
453.31	109.06
453.53	109.06
453.751	116.06
453.971	105.06
454.192	83.06
454.412	118.06
454.633	105.06
454.853	130.06
455.073	113.06
455.294	113.06
455.514	116.06
455.734	123.06
455.955	112.06
456.175	97.06
456.395	107.06
456.616	110.06
456.836	113.06
457.056	105.06
457.276	120.06
457.497	116.06
457.717	117.06
457.937	112.06
458.157	111.06
458.377	85.06
458.598	107.06
458.818	103.06
459.038	81.06
459.258	88.06
459.478	78.06
459.698	96.06
459.918	94.06
460.138	120.06
460.358	109.06
460.578	111.06
460.798	122.06
461.018	113.06
461.238	121.06
461.458	128.06
461.678	116.06
461.898	98.06
462.118	120.06
462.338	116.06
462.558	113.06
462.777	110.06
462.997	96.06
463.217	117.06
463.437	108.06
463.657	114.06
463.876	111.06
464.096	124.06
464.316	108.06
464.536	120.06
464.755	123.06
464.975	122.06
465.195	112.06
465.414	112.06
465.634	100.06
465.854	108.06
466.073	123.06
466.293	118.06
466.512	136.06
466.732	132.06
466.951	140.06
467.171	142.06
467.391	133.06
467.61	132.06
467.829	137.06
468.049	140.06
468.268	135.06
468.488	147.06
468.707	133.06
468.927	131.06
469.146	138.06
469.365	136.06
469.585	149.06
469.804	138.06
470.023	154.06
470.243	155.06
470.462	149.06
470.681	149.06
470.901	154.06
471.12	143.06
471.339	147.06
471.558	140.06
471.777	142.06
471.997	133.06
472.216	138.06
472.435	125.06
472.654	112.06
472.873	121.06
473.092	113.06
473.311	126.06
473.53	122.06
473.749	123.06
473.968	135.06
474.187	131.06
474.406	117.06
474.625	132.06
474.844	149.06
475.063	122.06
475.282	119.06
475.501	136.06
475.72	144.06
475.939	132.06
476.158	125.06
476.377	131.06
476.596	125.06
476.814	110.06
477.033	115.06
477.252	121.06
477.471	118.06
477.69	134.06
477.908	143.06
478.127	148.06
478.346	127.06
478.564	117.06
478.783	135.06
479.002	159.06
479.22	140.06
479.439	128.06
479.658	114.06
479.876	108.06
480.095	116.06
480.313	121.06
480.532	118.06
480.751	121.06
480.969	114.06
481.188	100.06
481.406	106.06
481.624	89.06
481.843	93.06
482.061	103.06
482.28	128.06
482.498	118.06
482.717	105.06
482.935	125.06
483.153	142.06
483.372	145.06
483.59	142.06
483.808	136.06
484.027	145.06
484.245	126.06
484.463	142.06
484.681	160.06
484.9	139.06
485.118	134.06
485.336	132.06
485.554	115.06
485.772	107.06
485.99	99.06
486.209	99.06
486.427	120.06
486.645	120.06
486.863	132.06
487.081	141.06
487.299	127.06
487.517	141.06
487.735	170.06
487.953	188.06
488.171	172.06
488.389	171.06
488.607	155.06
488.825	132.06
489.043	137.06
489.261	150.06
489.479	136.06
489.696	148.06
489.914	154.06
490.132	150.06
490.35	151.06
490.568	157.06
490.786	158.06
491.003	165.06
491.221	178.06
491.439	168.06
491.657	176.06
491.874	215.06
492.092	225.06
492.31	238.06
492.527	205.06
492.745	205.06
492.963	201.06
493.18	189.06
493.398	178.06
493.615	188.06
493.833	180.06
494.05	186.06
494.268	173.06
494.485	164.06
494.703	172.06
494.92	187.06
495.138	161.06
495.355	169.06
495.573	168.06
495.79	165.06
496.008	178.06
496.225	158.06
496.442	148.06
496.66	164.06
496.877	151.06
497.094	158.06
497.312	150.06
497.529	155.06
497.746	142.06
497.963	146.06
498.181	131.06
498.398	120.06
498.615	133.06
498.832	121.06
499.049	129.06
499.267	129.06
499.484	124.06
499.701	124.06
499.918	138.06
500.135	130.06
500.352	133.06
500.569	132.06
500.786	140.06
501.003	145.06
501.22	128.06
501.437	136.06
501.654	150.06
501.871	130.06
502.088	134.06
502.305	132.06
502.522	135.06
502.739	130.06
502.956	141.06
503.172	121.06
503.389	124.06
503.606	120.06
503.823	116.06
504.04	123.06
504.256	128.06
504.473	121.06
504.69	121.06
504.907	119.06
505.123	126.06
505.34	123.06
505.557	116.06
505.773	131.06
505.99	116.06
506.207	130.06
506.423	126.06
506.64	140.06
506.856	116.06
507.073	132.06
507.289	122.06
507.506	109.06
507.722	113.06
507.939	103.06
508.155	115.06
508.372	108.06
508.588	107.06
508.805	125.06
509.021	112.06
509.238	112.06
509.454	109.06
509.67	112.06
509.887	93.06
510.103	101.06
510.319	72.06
510.536	99.06
510.752	93.06
510.968	84.06
511.184	95.06
511.401	97.06
511.617	95.06
511.833	93.06
512.049	82.06
512.265	99.06
512.481	87.06
512.698	91.06
512.914	101.06
513.13	102.06
513.346	86.06
513.562	89.06
513.778	100.06
513.994	96.06
514.21	88.06
514.426	84.06
514.642	86.06
514.858	101.06
515.074	87.06
515.29	93.06
515.506	72.06
515.721	89.06
515.937	83.06
516.153	89.06
516.369	84.06
516.585	82.06
516.801	89.06
517.016	91.06
517.232	84.06
517.448	90.06
517.664	87.06
517.879	105.06
518.095	91.06
518.311	91.06
518.527	107.06
518.742	97.06
518.958	94.06
519.173	101.06
519.389	108.06
519.605	118.06
519.82	116.06
520.036	100.06
520.251	110.06
520.467	109.06
520.682	93.06
520.898	93.06
521.113	93.06
521.329	84.06
521.544	94.06
521.76	88.06
521.975	100.06
522.19	102.06
522.406	94.06
522.621	112.06
522.836	90.06
523.052	89.06
523.267	121.06
523.482	114.06
523.698	114.06
523.913	116.06
524.128	122.06
524.343	124.06
524.559	112.06
524.774	124.06
524.989	125.06
525.204	128.06
525.419	113.06
525.634	113.06
525.849	111.06
526.064	104.06
526.28	97.06
526.495	110.06
526.71	88.06
526.925	85.06
527.14	86.06
527.355	95.06
527.57	96.06
527.785	77.06
527.999	99.06
528.214	107.06
528.429	103.06
528.644	121.06
528.859	133.06
529.074	154.06
529.289	137.06
529.503	143.06
529.718	144.06
529.933	107.06
530.148	115.06
530.363	102.06
530.577	86.06
530.792	77.06
531.007	79.06
531.221	82.06
531.436	87.06
531.651	81.06
531.865	105.06
532.08	90.06
532.295	74.06
532.509	102.06
532.724	85.06
532.938	104.06
533.153	95.06
533.367	108.06
533.582	107.06
533.796	117.06
534.011	112.06
534.225	98.06
534.44	104.06
534.654	103.06
534.868	99.06
535.083	101.06
535.297	98.06
535.511	104.06
535.726	96.06
535.94	104.06
536.154	92.06
536.369	80.06
536.583	76.06
536.797	76.06
537.011	90.06
537.225	86.06
537.44	84.06
537.654	97.06
537.868	96.06
538.082	104.06
538.296	101.06
538.51	96.06
538.724	120.06
538.938	118.06
539.153	121.06
539.367	134.06
539.581	121.06
539.795	109.06
540.009	102.06
540.222	84.06
540.436	118.06
540.65	119.06
540.864	117.06
541.078	128.06
541.292	141.06
541.506	152.06
541.72	170.06
541.934	176.06
542.147	190.06
542.361	189.06
542.575	167.06
542.789	148.06
543.002	129.06
543.216	126.06
543.43	133.06
543.644	127.06
543.857	146.06
544.071	151.06
544.285	166.06
544.498	144.06
544.712	156.06
544.925	151.06
545.139	162.06
545.352	163.06
545.566	152.06
545.779	144.06
545.993	157.06
546.206	160.06
546.42	159.06
546.633	171.06
546.847	157.06
547.06	168.06
547.274	172.06
547.487	179.06
547.7	185.06
547.914	174.06
548.127	163.06
548.34	165.06
548.554	161.06
548.767	159.06
548.98	161.06
549.193	165.06
549.407	139.06
549.62	156.06
549.833	161.06
550.046	141.06
550.259	148.06
550.473	158.06
550.686	150.06
550.899	134.06
551.112	154.06
551.325	151.06
551.538	132.06
551.751	140.06
551.964	109.06
552.177	146.06
552.39	138.06
552.603	134.06
552.816	149.06
553.029	141.06
553.242	167.06
553.455	160.06
553.667	157.06
553.88	157.06
554.093	131.06
554.306	154.06
554.519	142.06
554.732	155.06
554.944	144.06
555.157	145.06
555.37	149.06
555.583	146.06
555.795	141.06
556.008	138.06
556.221	121.06
556.433	140.06
556.646	143.06
556.859	146.06
557.071	131.06
557.284	142.06
557.496	136.06
557.709	130.06
557.921	130.06
558.134	134.06
558.346	136.06
558.559	143.06
558.771	124.06
558.984	123.06
559.196	133.06
559.409	130.06
559.621	132.06
559.833	129.06
560.046	134.06
560.258	132.06
560.47	129.06
560.683	132.06
560.895	137.06
561.107	129.06
561.32	137.06
561.532	129.06
561.744	118.06
561.956	125.06
562.168	130.06
562.381	118.06
562.593	138.06
562.805	128.06
563.017	124.06
563.229	120.06
563.441	125.06
563.653	124.06
563.865	124.06
564.077	122.06
564.289	122.06
564.501	134.06
564.713	110.06
564.925	120.06
565.137	126.06
565.349	112.06
565.561	107.06
565.773	117.06
565.985	126.06
566.197	110.06
566.408	107.06
566.62	118.06
566.832	120.06
567.044	124.06
567.255	129.06
567.467	117.06
567.679	103.06
567.891	114.06
568.102	98.06
568.314	88.06
568.526	111.06
568.737	102.06
568.949	77.06
569.161	82.06
569.372	85.06
569.584	92.06
569.795	91.06
570.007	97.06
570.218	81.06
570.43	92.06
570.641	78.06
570.853	102.06
571.064	104.06
571.276	89.06
571.487	116.06
571.698	99.06
571.91	103.06
572.121	109.06
572.333	116.06
572.544	94.06
572.755	106.06
572.966	104.06
573.178	96.06
573.389	82.06
573.6	93.06
573.811	84.06
574.023	71.06
574.234	87.06
574.445	103.06
574.656	101.06
574.867	94.06
575.078	89.06
575.289	94.06
575.501	94.06
575.712	91.06
575.923	91.06
576.134	90.06
576.345	99.06
576.556	101.06
576.767	106.06
576.978	99.06
577.188	91.06
577.399	101.06
577.61	73.06
577.821	97.06
578.032	83.06
578.243	99.06
578.454	102.06
578.665	98.06
578.875	84.06
579.086	92.06
579.297	90.06
579.508	93.06
579.718	78.06
579.929	85.06
580.14	92.06
580.35	95.06
580.561	86.06
580.772	71.06
580.982	87.06
581.193	106.06
581.403	92.06
581.614	84.06
581.825	84.06
582.035	97.06
582.246	98.06
582.456	102.06
582.667	100.06
582.877	95.06
583.087	87.06
583.298	92.06
583.508	83.06
583.719	88.06
583.929	99.06
584.139	74.06
584.35	86.06
584.56	84.06
584.77	92.06
584.981	93.06
585.191	78.06
585.401	91.06
585.611	81.06
585.821	85.06
586.032	83.06
586.242	78.06
586.452	79.06
586.662	90.06
586.872	90.06
587.082	84.06
587.292	77.06
587.502	82.06
587.713	79.06
587.923	86.06
588.133	89.06
588.343	82.06
588.553	75.06
588.762	96.06
588.972	96.06
589.182	92.06
589.392	77.06
589.602	90.06
589.812	85.06
590.022	89.06
590.232	75.06
590.441	74.06
590.651	89.06
590.861	84.06
591.071	84.06
591.281	89.06
591.49	75.06
591.7	91.06
591.91	77.06
592.119	79.06
592.329	91.06
592.539	92.06
592.748	91.06
592.958	93.06
593.167	83.06
593.377	94.06
593.587	101.06
593.796	95.06
594.006	89.06
594.215	86.06
594.424	91.06
594.634	93.06
594.843	96.06
595.053	84.06
595.262	92.06
595.472	90.06
595.681	99.06
595.89	93.06
596.1	97.06
596.309	88.06
596.518	100.06
596.727	96.06
596.937	83.06
597.146	93.06
597.355	100.06
597.564	93.06
597.774	89.06
597.983	92.06
598.192	86.06
598.401	89.06
598.61	79.06
598.819	96.06
599.028	93.06
599.237	91.06
599.446	101.06
599.655	102.06
599.864	99.06
600.073	89.06
600.282	98.06
600.491	100.06
600.7	100.06
600.909	88.06
601.118	96.06
601.327	107.06
601.536	98.06
601.745	105.06
601.953	116.06
602.162	100.06
602.371	104.06
602.58	104.06
602.789	101.06
602.997	107.06
603.206	115.06
603.415	107.06
603.623	114.06
603.832	104.06
604.041	124.06
604.249	105.06
604.458	109.06
604.666	88.06
604.875	100.06
605.084	116.06
605.292	99.06
605.501	122.06
605.709	113.06
605.918	106.06
606.126	112.06
606.334	114.06
606.543	102.06
606.751	120.06
606.96	114.06
607.168	114.06
607.376	115.06
607.585	119.06
607.793	125.06
608.001	116.06
608.21	98.06
608.418	108.06
608.626	112.06
608.834	120.06
609.043	117.06
609.251	109.06
609.459	114.06
609.667	120.06
609.875	100.06
610.083	115.06
610.291	120.06
610.499	119.06
610.707	117.06
610.916	105.06
611.124	112.06
611.332	106.06
611.54	130.06
611.748	120.06
611.955	115.06
612.163	116.06
612.371	101.06
612.579	106.06
612.787	108.06
612.995	109.06
613.203	114.06
613.411	112.06
613.618	121.06
613.826	116.06
614.034	112.06
614.242	107.06
614.449	124.06
614.657	109.06
614.865	98.06
615.072	123.06
615.28	116.06
615.488	115.06
615.695	106.06
615.903	115.06
616.111	122.06
616.318	126.06
616.526	121.06
616.733	118.06
616.941	119.06
617.148	119.06
617.356	109.06
617.563	117.06
617.771	116.06
617.978	108.06
618.185	117.06
618.393	92.06
618.6	118.06
618.807	129.06
619.015	96.06
619.222	112.06
619.429	100.06
619.637	121.06
619.844	107.06
620.051	118.06
620.258	117.06
620.466	115.06
620.673	105.06
620.88	96.06
621.087	95.06
621.294	104.06
621.501	101.06
621.708	103.06
621.915	106.06
622.122	105.06
622.329	124.06
622.536	104.06
622.743	116.06
622.95	120.06
623.157	96.06
623.364	105.06
623.571	125.06
623.778	106.06
623.985	124.06
624.192	131.06
624.399	100.06
624.606	101.06
624.812	101.06
625.019	115.06
625.226	99.06
625.433	101.06
625.639	102.06
625.846	94.06
626.053	96.06
626.259	96.06
626.466	85.06
626.673	100.06
626.879	95.06
627.086	98.06
627.293	89.06
627.499	109.06
627.706	102.06
627.912	100.06
628.119	102.06
628.325	92.06
628.532	102.06
628.738	107.06
628.945	112.06
629.151	103.06
629.357	111.06
629.564	104.06
629.77	100.06
629.976	109.06
630.183	116.06
630.389	101.06
630.595	105.06
630.802	100.06
631.008	95.06
631.214	101.06
631.42	93.06
631.627	96.06
631.833	104.06
632.039	93.06
632.245	90.06
632.451	100.06
632.657	107.06
632.863	108.06
633.069	99.06
633.275	92.06
633.481	90.06
633.688	102.06
633.893	104.06
634.099	98.06
634.305	97.06
634.511	97.06
634.717	104.06
634.923	85.06
635.129	91.06
635.335	98.06
635.541	115.06
635.747	100.06
635.952	109.06
636.158	93.06
636.364	115.06
636.57	90.06
636.775	101.06
636.981	89.06
637.187	112.06
637.392	102.06
637.598	87.06
637.804	115.06
638.009	94.06
638.215	99.06
638.421	106.06
638.626	92.06
638.832	106.06
639.037	101.06
639.243	102.06
639.448	98.06
639.654	109.06
639.859	110.06
640.065	89.06
640.27	104.06
640.475	106.06
640.681	95.06
640.886	109.06
641.091	99.06
641.297	99.06
641.502	107.06
641.707	112.06
641.913	116.06
642.118	89.06
642.323	105.06
642.528	111.06
642.733	112.06
642.939	104.06
643.144	108.06
643.349	100.06
643.554	103.06
643.759	119.06
643.964	91.06
644.169	98.06
644.374	107.06
644.579	98.06
644.784	103.06
644.989	100.06
645.194	89.06
645.399	103.06
645.604	104.06
645.809	107.06
646.014	101.06
646.219	103.06
646.423	86.06
646.628	74.06
646.833	102.06
647.038	113.06
647.243	104.06
647.447	102.06
647.652	93.06
647.857	91.06
648.062	104.06
648.266	92.06
648.471	96.06
648.676	91.06
648.88	97.06
649.085	94.06
649.289	102.06
649.494	101.06
649.698	86.06
649.903	88.06
650.107	96.06
650.312	111.06
650.516	94.06
650.721	92.06
650.925	86.06
651.13	100.06
651.334	95.06
651.539	98.06
651.743	96.06
651.947	101.06
652.152	90.06
652.356	90.06
652.56	107.06
652.764	87.06
652.969	89.06
653.173	87.06
653.377	77.06
653.581	90.06
653.785	95.06
653.99	95.06
654.194	89.06
654.398	88.06
654.602	82.06
654.806	89.06
655.01	82.06
655.214	70.06
655.418	100.06
655.622	91.06
655.826	96.06
656.03	85.06
656.234	103.06
656.438	88.06
656.642	94.06
656.846	92.06
657.049	86.06
657.253	84.06
657.457	84.06
657.661	94.06
657.865	85.06
658.068	83.06
658.272	89.06
658.476	77.06
658.68	79.06
658.883	82.06
659.087	81.06
659.291	85.06
659.494	89.06
659.698	80.06
659.901	90.06
660.105	100.06
660.309	82.06
660.512	98.06
660.716	93.06
660.919	88.06
661.123	93.06
661.326	90.06
661.53	82.06
661.733	95.06
661.936	87.06
662.14	69.06
662.343	82.06
662.546	66.06
662.75	73.06
662.953	86.06
663.156	103.06
663.36	74.06
663.563	85.06
663.766	71.06
663.969	78.06
664.173	89.06
664.376	73.06
664.579	86.06
664.782	82.06
664.985	83.06
665.188	76.06
665.391	80.06
665.594	94.06
665.797	93.06
666	84.06
666.203	87.06
666.406	75.06
666.609	93.06
666.812	85.06
667.015	80.06
667.218	94.06
667.421	92.06
667.624	90.06
667.827	85.06
668.03	79.06
668.232	75.06
668.435	71.06
668.638	75.06
668.841	90.06
669.043	73.06
669.246	78.06
669.449	100.06
669.651	75.06
669.854	101.06
670.057	85.06
670.259	78.06
670.462	83.06
670.665	70.06
670.867	90.06
671.07	88.06
671.272	91.06
671.475	80.06
671.677	92.06
671.88	75.06
672.082	93.06
672.284	89.06
672.487	89.06
672.689	86.06
672.892	88.06
