Data from Location2.07152019.Energy5.Lamp.07192019.3%Agarose_HRD10591_14-57-32-359.txt Node
Date: Fri Jul 19 14:57:32 EDT 2019
User: cochatt
Spectrometer: HR+D1059
Trigger mode: 1
Integration Time (sec): 1.000000E-1
Scans to average: 1
Electric dark correction enabled: true
Nonlinearity correction enabled: false
Boxcar width: 0
XAxis mode: Wavelengths
Number of Pixels in Spectrum: 2048
>>>>>Begin Spectral Data<<<<<
223.165	-16.31
223.4	-16.31
223.635	-16.31
223.869	-7.31
224.104	-13.31
224.338	-9.31
224.573	-12.31
224.808	-19.31
225.042	-16.31
225.277	-15.31
225.511	-4.31
225.746	-6.31
225.98	-7.31
226.215	-0.31
226.449	19.69
226.683	33.69
226.918	35.69
227.152	38.69
227.387	33.69
227.621	31.69
227.856	46.69
228.09	48.69
228.324	55.69
228.559	58.69
228.793	57.69
229.027	61.69
229.262	65.69
229.496	78.69
229.73	83.69
229.964	67.69
230.199	67.69
230.433	68.69
230.667	80.69
230.901	66.69
231.136	67.69
231.37	79.69
231.604	69.69
231.838	92.69
232.072	77.69
232.306	87.69
232.541	74.69
232.775	81.69
233.009	81.69
233.243	84.69
233.477	83.69
233.711	93.69
233.945	68.69
234.179	77.69
234.413	83.69
234.647	83.69
234.881	86.69
235.115	81.69
235.349	72.69
235.583	90.69
235.817	75.69
236.051	73.69
236.285	80.69
236.519	84.69
236.753	102.69
236.987	91.69
237.221	83.69
237.455	72.69
237.689	75.69
237.922	75.69
238.156	76.69
238.39	69.69
238.624	71.69
238.858	76.69
239.091	73.69
239.325	66.69
239.559	70.69
239.793	67.69
240.027	68.69
240.26	83.69
240.494	83.69
240.728	70.69
240.961	65.69
241.195	82.69
241.429	82.69
241.662	73.69
241.896	85.69
242.13	71.69
242.363	83.69
242.597	74.69
242.83	74.69
243.064	82.69
243.298	83.69
243.531	80.69
243.765	66.69
243.998	76.69
244.232	74.69
244.465	61.69
244.699	77.69
244.932	70.69
245.166	75.69
245.399	80.69
245.633	73.69
245.866	78.69
246.099	77.69
246.333	72.69
246.566	66.69
246.8	86.69
247.033	76.69
247.266	76.69
247.5	81.69
247.733	81.69
247.966	74.69
248.2	88.69
248.433	69.69
248.666	67.69
248.899	69.69
249.133	74.69
249.366	68.69
249.599	76.69
249.832	66.69
250.066	81.69
250.299	79.69
250.532	80.69
250.765	85.69
250.998	71.69
251.231	71.69
251.465	85.69
251.698	91.69
251.931	69.69
252.164	91.69
252.397	82.69
252.63	63.69
252.863	67.69
253.096	83.69
253.329	86.69
253.562	76.69
253.795	77.69
254.028	71.69
254.261	82.69
254.494	93.69
254.727	94.69
254.96	77.69
255.193	75.69
255.426	73.69
255.659	76.69
255.892	70.69
256.124	84.69
256.357	82.69
256.59	73.69
256.823	93.69
257.056	75.69
257.289	70.69
257.521	79.69
257.754	77.69
257.987	85.69
258.22	83.69
258.452	83.69
258.685	77.69
258.918	91.69
259.151	89.69
259.383	77.69
259.616	79.69
259.849	79.69
260.081	80.69
260.314	88.69
260.547	79.69
260.779	80.69
261.012	81.69
261.244	88.69
261.477	73.69
261.71	83.69
261.942	96.69
262.175	90.69
262.407	71.69
262.64	76.69
262.872	87.69
263.105	79.69
263.337	81.69
263.57	83.69
263.802	83.69
264.035	91.69
264.267	75.69
264.499	89.69
264.732	73.69
264.964	73.69
265.197	81.69
265.429	83.69
265.661	89.69
265.894	73.69
266.126	72.69
266.358	76.69
266.591	65.69
266.823	77.69
267.055	89.69
267.287	78.69
267.52	74.69
267.752	79.69
267.984	88.69
268.216	76.69
268.448	95.69
268.681	71.69
268.913	76.69
269.145	83.69
269.377	91.69
269.609	94.69
269.841	99.69
270.073	76.69
270.306	87.69
270.538	84.69
270.77	98.69
271.002	89.69
271.234	84.69
271.466	86.69
271.698	86.69
271.93	77.69
272.162	83.69
272.394	94.69
272.626	83.69
272.858	76.69
273.09	79.69
273.322	105.69
273.553	74.69
273.785	81.69
274.017	68.69
274.249	88.69
274.481	81.69
274.713	90.69
274.945	81.69
275.176	87.69
275.408	79.69
275.64	80.69
275.872	81.69
276.104	76.69
276.335	81.69
276.567	93.69
276.799	94.69
277.031	83.69
277.262	82.69
277.494	83.69
277.726	87.69
277.957	70.69
278.189	86.69
278.421	96.69
278.652	88.69
278.884	75.69
279.115	87.69
279.347	86.69
279.579	84.69
279.81	85.69
280.042	83.69
280.273	75.69
280.505	85.69
280.736	74.69
280.968	81.69
281.199	77.69
281.431	83.69
281.662	81.69
281.894	84.69
282.125	71.69
282.356	73.69
282.588	76.69
282.819	77.69
283.051	72.69
283.282	76.69
283.513	83.69
283.745	93.69
283.976	97.69
284.207	95.69
284.439	80.69
284.67	73.69
284.901	81.69
285.132	65.69
285.364	77.69
285.595	76.69
285.826	79.69
286.057	92.69
286.288	72.69
286.52	88.69
286.751	74.69
286.982	75.69
287.213	79.69
287.444	83.69
287.675	73.69
287.906	88.69
288.138	92.69
288.369	83.69
288.6	80.69
288.831	78.69
289.062	81.69
289.293	88.69
289.524	81.69
289.755	87.69
289.986	91.69
290.217	95.69
290.448	88.69
290.679	82.69
290.91	85.69
291.141	76.69
291.371	97.69
291.602	93.69
291.833	90.69
292.064	77.69
292.295	91.69
292.526	96.69
292.757	77.69
292.987	99.69
293.218	99.69
293.449	94.69
293.68	80.69
293.91	83.69
294.141	77.69
294.372	85.69
294.603	76.69
294.833	79.69
295.064	101.69
295.295	78.69
295.525	70.69
295.756	90.69
295.987	76.69
296.217	76.69
296.448	75.69
296.679	76.69
296.909	90.69
297.14	88.69
297.37	88.69
297.601	84.69
297.831	87.69
298.062	79.69
298.292	73.69
298.523	72.69
298.753	78.69
298.984	81.69
299.214	90.69
299.445	87.69
299.675	85.69
299.905	99.69
300.136	80.69
300.366	75.69
300.597	103.69
300.827	102.69
301.057	83.69
301.288	81.69
301.518	79.69
301.748	86.69
301.979	89.69
302.209	88.69
302.439	73.69
302.669	86.69
302.9	89.69
303.13	73.69
303.36	83.69
303.59	81.69
303.82	86.69
304.051	92.69
304.281	84.69
304.511	83.69
304.741	72.69
304.971	81.69
305.201	77.69
305.431	81.69
305.661	87.69
305.891	86.69
306.121	86.69
306.352	99.69
306.582	72.69
306.812	77.69
307.042	84.69
307.272	89.69
307.502	91.69
307.731	86.69
307.961	78.69
308.191	79.69
308.421	80.69
308.651	77.69
308.881	91.69
309.111	73.69
309.341	90.69
309.571	83.69
309.8	76.69
310.03	78.69
310.26	84.69
310.49	78.69
310.72	76.69
310.949	95.69
311.179	106.69
311.409	90.69
311.639	86.69
311.868	87.69
312.098	88.69
312.328	74.69
312.557	79.69
312.787	83.69
313.017	76.69
313.246	93.69
313.476	64.69
313.706	77.69
313.935	80.69
314.165	74.69
314.394	81.69
314.624	78.69
314.853	92.69
315.083	87.69
315.312	85.69
315.542	76.69
315.771	99.69
316.001	69.69
316.23	84.69
316.46	89.69
316.689	88.69
316.919	85.69
317.148	77.69
317.377	92.69
317.607	89.69
317.836	81.69
318.065	82.69
318.295	89.69
318.524	88.69
318.753	94.69
318.983	83.69
319.212	91.69
319.441	78.69
319.67	75.69
319.9	80.69
320.129	75.69
320.358	84.69
320.587	77.69
320.816	75.69
321.046	82.69
321.275	99.69
321.504	96.69
321.733	88.69
321.962	86.69
322.191	79.69
322.42	91.69
322.649	82.69
322.878	80.69
323.108	58.69
323.337	81.69
323.566	81.69
323.795	92.69
324.024	104.69
324.253	84.69
324.482	76.69
324.71	89.69
324.939	78.69
325.168	85.69
325.397	92.69
325.626	85.69
325.855	70.69
326.084	77.69
326.313	95.69
326.542	92.69
326.77	91.69
326.999	88.69
327.228	85.69
327.457	81.69
327.686	88.69
327.914	88.69
328.143	90.69
328.372	88.69
328.6	83.69
328.829	82.69
329.058	88.69
329.287	100.69
329.515	79.69
329.744	87.69
329.972	85.69
330.201	81.69
330.43	76.69
330.658	80.69
330.887	79.69
331.115	89.69
331.344	95.69
331.572	90.69
331.801	78.69
332.03	102.69
332.258	92.69
332.486	71.69
332.715	79.69
332.943	85.69
333.172	85.69
333.4	82.69
333.629	94.69
333.857	92.69
334.085	85.69
334.314	83.69
334.542	87.69
334.771	78.69
334.999	70.69
335.227	89.69
335.455	99.69
335.684	82.69
335.912	86.69
336.14	84.69
336.369	85.69
336.597	93.69
336.825	81.69
337.053	86.69
337.281	84.69
337.51	74.69
337.738	90.69
337.966	92.69
338.194	82.69
338.422	95.69
338.65	88.69
338.878	82.69
339.106	76.69
339.334	94.69
339.562	74.69
339.79	102.69
340.018	81.69
340.246	91.69
340.474	88.69
340.702	85.69
340.93	90.69
341.158	96.69
341.386	78.69
341.614	85.69
341.842	84.69
342.07	88.69
342.298	84.69
342.526	74.69
342.754	78.69
342.981	82.69
343.209	80.69
343.437	73.69
343.665	73.69
343.893	90.69
344.12	72.69
344.348	86.69
344.576	81.69
344.804	91.69
345.031	101.69
345.259	96.69
345.487	89.69
345.714	90.69
345.942	86.69
346.17	97.69
346.397	88.69
346.625	85.69
346.853	83.69
347.08	93.69
347.308	76.69
347.535	95.69
347.763	82.69
347.99	70.69
348.218	77.69
348.445	77.69
348.673	103.69
348.9	84.69
349.128	98.69
349.355	80.69
349.583	80.69
349.81	95.69
350.037	73.69
350.265	91.69
350.492	83.69
350.72	82.69
350.947	82.69
351.174	76.69
351.402	84.69
351.629	87.69
351.856	89.69
352.083	77.69
352.311	89.69
352.538	77.69
352.765	82.69
352.992	88.69
353.22	86.69
353.447	95.69
353.674	94.69
353.901	80.69
354.128	88.69
354.355	88.69
354.583	85.69
354.81	82.69
355.037	75.69
355.264	71.69
355.491	85.69
355.718	95.69
355.945	79.69
356.172	84.69
356.399	93.69
356.626	75.69
356.853	76.69
357.08	70.69
357.307	88.69
357.534	86.69
357.761	95.69
357.988	82.69
358.215	63.69
358.441	83.69
358.668	77.69
358.895	82.69
359.122	69.69
359.349	84.69
359.576	90.69
359.802	74.69
360.029	83.69
360.256	76.69
360.483	80.69
360.709	68.69
360.936	85.69
361.163	87.69
361.39	77.69
361.616	82.69
361.843	84.69
362.07	81.69
362.296	69.69
362.523	72.69
362.749	80.69
362.976	75.69
363.203	99.69
363.429	81.69
363.656	97.69
363.882	73.69
364.109	84.69
364.335	73.69
364.562	80.69
364.788	103.69
365.015	82.69
365.241	82.69
365.468	76.69
365.694	77.69
365.92	90.69
366.147	90.69
366.373	76.69
366.599	97.69
366.826	87.69
367.052	95.69
367.278	86.69
367.505	89.69
367.731	80.69
367.957	90.69
368.184	98.69
368.41	98.69
368.636	73.69
368.862	104.69
369.089	97.69
369.315	94.69
369.541	103.69
369.767	86.69
369.993	103.69
370.219	97.69
370.445	85.69
370.672	95.69
370.898	95.69
371.124	89.69
371.35	90.69
371.576	92.69
371.802	86.69
372.028	105.69
372.254	91.69
372.48	102.69
372.706	89.69
372.932	85.69
373.158	97.69
373.384	93.69
373.61	100.69
373.835	82.69
374.061	103.69
374.287	98.69
374.513	92.69
374.739	86.69
374.965	95.69
375.191	89.69
375.416	91.69
375.642	78.69
375.868	99.69
376.094	114.69
376.319	107.69
376.545	85.69
376.771	107.69
376.997	105.69
377.222	80.69
377.448	90.69
377.674	90.69
377.899	98.69
378.125	88.69
378.35	93.69
378.576	76.69
378.802	99.69
379.027	101.69
379.253	112.69
379.478	97.69
379.704	100.69
379.929	107.69
380.155	94.69
380.38	90.69
380.606	86.69
380.831	113.69
381.057	111.69
381.282	108.69
381.507	84.69
381.733	111.69
381.958	101.69
382.184	86.69
382.409	103.69
382.634	95.69
382.86	89.69
383.085	97.69
383.31	91.69
383.535	92.69
383.761	93.69
383.986	94.69
384.211	101.69
384.436	95.69
384.662	85.69
384.887	79.69
385.112	92.69
385.337	94.69
385.562	105.69
385.787	89.69
386.013	97.69
386.238	105.69
386.463	104.69
386.688	95.69
386.913	103.69
387.138	90.69
387.363	101.69
387.588	95.69
387.813	105.69
388.038	124.69
388.263	109.69
388.488	104.69
388.713	95.69
388.938	91.69
389.163	103.69
389.387	95.69
389.612	94.69
389.837	98.69
390.062	95.69
390.287	104.69
390.512	88.69
390.736	107.69
390.961	85.69
391.186	106.69
391.411	117.69
391.636	103.69
391.86	104.69
392.085	103.69
392.31	101.69
392.534	112.69
392.759	97.69
392.984	93.69
393.208	115.69
393.433	108.69
393.658	102.69
393.882	110.69
394.107	108.69
394.331	113.69
394.556	100.69
394.78	101.69
395.005	114.69
395.229	105.69
395.454	105.69
395.678	103.69
395.903	94.69
396.127	93.69
396.352	109.69
396.576	122.69
396.801	118.69
397.025	105.69
397.249	93.69
397.474	98.69
397.698	114.69
397.922	105.69
398.147	119.69
398.371	112.69
398.595	111.69
398.82	116.69
399.044	106.69
399.268	101.69
399.492	118.69
399.717	106.69
399.941	120.69
400.165	111.69
400.389	101.69
400.613	99.69
400.837	113.69
401.062	106.69
401.286	111.69
401.51	119.69
401.734	105.69
401.958	113.69
402.182	125.69
402.406	115.69
402.63	112.69
402.854	126.69
403.078	122.69
403.302	110.69
403.526	104.69
403.75	115.69
403.974	115.69
404.198	128.69
404.422	123.69
404.645	113.69
404.869	111.69
405.093	121.69
405.317	98.69
405.541	125.69
405.765	125.69
405.988	126.69
406.212	110.69
406.436	124.69
406.66	123.69
406.883	117.69
407.107	114.69
407.331	128.69
407.555	120.69
407.778	107.69
408.002	119.69
408.226	99.69
408.449	111.69
408.673	123.69
408.896	108.69
409.12	110.69
409.344	118.69
409.567	125.69
409.791	117.69
410.014	114.69
410.238	119.69
410.461	128.69
410.685	124.69
410.908	113.69
411.132	127.69
411.355	128.69
411.578	135.69
411.802	123.69
412.025	128.69
412.249	110.69
412.472	131.69
412.695	126.69
412.919	127.69
413.142	124.69
413.365	129.69
413.589	123.69
413.812	123.69
414.035	128.69
414.258	121.69
414.482	120.69
414.705	126.69
414.928	123.69
415.151	123.69
415.374	104.69
415.597	129.69
415.821	122.69
416.044	121.69
416.267	126.69
416.49	107.69
416.713	114.69
416.936	122.69
417.159	123.69
417.382	103.69
417.605	124.69
417.828	123.69
418.051	116.69
418.274	132.69
418.497	129.69
418.72	122.69
418.943	130.69
419.166	138.69
419.389	136.69
419.611	148.69
419.834	139.69
420.057	150.69
420.28	117.69
420.503	130.69
420.726	123.69
420.948	123.69
421.171	142.69
421.394	135.69
421.617	148.69
421.839	122.69
422.062	143.69
422.285	133.69
422.507	133.69
422.73	136.69
422.953	124.69
423.175	130.69
423.398	135.69
423.621	127.69
423.843	136.69
424.066	148.69
424.288	139.69
424.511	131.69
424.733	148.69
424.956	151.69
425.178	150.69
425.401	138.69
425.623	144.69
425.846	143.69
426.068	148.69
426.291	122.69
426.513	133.69
426.735	140.69
426.958	135.69
427.18	133.69
427.402	133.69
427.625	139.69
427.847	160.69
428.069	118.69
428.292	136.69
428.514	128.69
428.736	129.69
428.958	125.69
429.181	141.69
429.403	118.69
429.625	123.69
429.847	121.69
430.069	119.69
430.292	132.69
430.514	136.69
430.736	118.69
430.958	128.69
431.18	118.69
431.402	129.69
431.624	121.69
431.846	107.69
432.068	99.69
432.29	97.69
432.512	109.69
432.734	122.69
432.956	131.69
433.178	143.69
433.4	122.69
433.622	151.69
433.844	139.69
434.066	111.69
434.287	120.69
434.509	96.69
434.731	98.69
434.953	109.69
435.175	131.69
435.397	124.69
435.618	122.69
435.84	109.69
436.062	118.69
436.284	125.69
436.505	129.69
436.727	139.69
436.949	119.69
437.17	123.69
437.392	125.69
437.614	111.69
437.835	116.69
438.057	107.69
438.278	117.69
438.5	111.69
438.721	123.69
438.943	141.69
439.165	131.69
439.386	135.69
439.608	154.69
439.829	139.69
440.05	141.69
440.272	142.69
440.493	152.69
440.715	141.69
440.936	144.69
441.158	137.69
441.379	151.69
441.6	142.69
441.822	153.69
442.043	139.69
442.264	149.69
442.486	150.69
442.707	137.69
442.928	145.69
443.149	138.69
443.371	140.69
443.592	136.69
443.813	142.69
444.034	142.69
444.255	138.69
444.476	141.69
444.698	142.69
444.919	145.69
445.14	229.69
445.361	181.69
445.582	151.69
445.803	157.69
446.024	139.69
446.245	138.69
446.466	147.69
446.687	141.69
446.908	155.69
447.129	154.69
447.35	152.69
447.571	146.69
447.792	143.69
448.013	131.69
448.234	147.69
448.455	136.69
448.675	132.69
448.896	141.69
449.117	126.69
449.338	152.69
449.559	142.69
449.779	131.69
450	135.69
450.221	134.69
450.442	127.69
450.662	135.69
450.883	131.69
451.104	138.69
451.324	138.69
451.545	131.69
451.766	118.69
451.986	121.69
452.207	134.69
452.428	123.69
452.648	123.69
452.869	112.69
453.089	108.69
453.31	107.69
453.53	111.69
453.751	119.69
453.971	106.69
454.192	115.69
454.412	111.69
454.633	118.69
454.853	115.69
455.073	113.69
455.294	127.69
455.514	127.69
455.734	125.69
455.955	121.69
456.175	111.69
456.395	99.69
456.616	106.69
456.836	101.69
457.056	100.69
457.276	110.69
457.497	114.69
457.717	117.69
457.937	107.69
458.157	104.69
458.377	118.69
458.598	111.69
458.818	97.69
459.038	92.69
459.258	91.69
459.478	98.69
459.698	87.69
459.918	95.69
460.138	105.69
460.358	119.69
460.578	120.69
460.798	116.69
461.018	117.69
461.238	95.69
461.458	125.69
461.678	120.69
461.898	106.69
462.118	113.69
462.338	122.69
462.558	102.69
462.777	115.69
462.997	105.69
463.217	99.69
463.437	105.69
463.657	107.69
463.876	114.69
464.096	111.69
464.316	113.69
464.536	112.69
464.755	121.69
464.975	113.69
465.195	101.69
465.414	111.69
465.634	127.69
465.854	123.69
466.073	136.69
466.293	118.69
466.512	120.69
466.732	127.69
466.951	131.69
467.171	140.69
467.391	141.69
467.61	116.69
467.829	125.69
468.049	115.69
468.268	146.69
468.488	147.69
468.707	126.69
468.927	137.69
469.146	120.69
469.365	137.69
469.585	140.69
469.804	145.69
470.023	133.69
470.243	135.69
470.462	147.69
470.681	129.69
470.901	129.69
471.12	140.69
471.339	138.69
471.558	148.69
471.777	151.69
471.997	126.69
472.216	141.69
472.435	120.69
472.654	119.69
472.873	133.69
473.092	126.69
473.311	122.69
473.53	142.69
473.749	117.69
473.968	106.69
474.187	127.69
474.406	118.69
474.625	142.69
474.844	141.69
475.063	151.69
475.282	130.69
475.501	109.69
475.72	127.69
475.939	131.69
476.158	142.69
476.377	103.69
476.596	121.69
476.814	113.69
477.033	116.69
477.252	123.69
477.471	121.69
477.69	152.69
477.908	144.69
478.127	140.69
478.346	126.69
478.564	136.69
478.783	135.69
479.002	138.69
479.22	146.69
479.439	131.69
479.658	131.69
479.876	112.69
480.095	121.69
480.313	113.69
480.532	124.69
480.751	113.69
480.969	111.69
481.188	99.69
481.406	99.69
481.624	94.69
481.843	92.69
482.061	99.69
482.28	112.69
482.498	123.69
482.717	99.69
482.935	111.69
483.153	150.69
483.372	163.69
483.59	152.69
483.808	149.69
484.027	133.69
484.245	133.69
484.463	147.69
484.681	156.69
484.9	142.69
485.118	135.69
485.336	135.69
485.554	104.69
485.772	118.69
485.99	106.69
486.209	121.69
486.427	109.69
486.645	122.69
486.863	145.69
487.081	163.69
487.299	131.69
487.517	131.69
487.735	171.69
487.953	196.69
488.171	168.69
488.389	169.69
488.607	165.69
488.825	140.69
489.043	122.69
489.261	153.69
489.479	138.69
489.696	124.69
489.914	142.69
490.132	134.69
490.35	152.69
490.568	161.69
490.786	161.69
491.003	176.69
491.221	177.69
491.439	175.69
491.657	186.69
491.874	202.69
492.092	226.69
492.31	229.69
492.527	222.69
492.745	209.69
492.963	210.69
493.18	181.69
493.398	173.69
493.615	177.69
493.833	155.69
494.05	175.69
494.268	175.69
494.485	156.69
494.703	173.69
494.92	179.69
495.138	181.69
495.355	169.69
495.573	162.69
495.79	172.69
496.008	175.69
496.225	177.69
496.442	181.69
496.66	176.69
496.877	156.69
497.094	169.69
497.312	155.69
497.529	142.69
497.746	138.69
497.963	136.69
498.181	141.69
498.398	122.69
498.615	127.69
498.832	118.69
499.049	113.69
499.267	129.69
499.484	134.69
499.701	125.69
499.918	159.69
500.135	121.69
500.352	145.69
500.569	134.69
500.786	144.69
501.003	155.69
501.22	137.69
501.437	131.69
501.654	141.69
501.871	140.69
502.088	135.69
502.305	136.69
502.522	138.69
502.739	132.69
502.956	131.69
503.172	122.69
503.389	117.69
503.606	111.69
503.823	117.69
504.04	119.69
504.256	129.69
504.473	125.69
504.69	125.69
504.907	121.69
505.123	124.69
505.34	129.69
505.557	125.69
505.773	129.69
505.99	125.69
506.207	133.69
506.423	119.69
506.64	111.69
506.856	117.69
507.073	124.69
507.289	124.69
507.506	119.69
507.722	125.69
507.939	113.69
508.155	107.69
508.372	114.69
508.588	121.69
508.805	105.69
509.021	104.69
509.238	108.69
509.454	102.69
509.67	113.69
509.887	110.69
510.103	96.69
510.319	87.69
510.536	88.69
510.752	86.69
510.968	76.69
511.184	87.69
511.401	90.69
511.617	93.69
511.833	90.69
512.049	89.69
512.265	89.69
512.481	106.69
512.698	83.69
512.914	109.69
513.13	97.69
513.346	84.69
513.562	81.69
513.778	74.69
513.994	95.69
514.21	99.69
514.426	85.69
514.642	96.69
514.858	95.69
515.074	77.69
515.29	85.69
515.506	78.69
515.721	83.69
515.937	99.69
516.153	71.69
516.369	77.69
516.585	92.69
516.801	87.69
517.016	100.69
517.232	103.69
517.448	86.69
517.664	119.69
517.879	90.69
518.095	100.69
518.311	96.69
518.527	91.69
518.742	111.69
518.958	97.69
519.173	111.69
519.389	89.69
519.605	114.69
519.82	113.69
520.036	97.69
520.251	100.69
520.467	120.69
520.682	104.69
520.898	105.69
521.113	92.69
521.329	81.69
521.544	102.69
521.76	73.69
521.975	103.69
522.19	101.69
522.406	93.69
522.621	96.69
522.836	102.69
523.052	119.69
523.267	105.69
523.482	108.69
523.698	105.69
523.913	115.69
524.128	106.69
524.343	112.69
524.559	105.69
524.774	116.69
524.989	122.69
525.204	121.69
525.419	123.69
525.634	116.69
525.849	108.69
526.064	107.69
526.28	113.69
526.495	104.69
526.71	95.69
526.925	99.69
527.14	80.69
527.355	86.69
527.57	87.69
527.785	92.69
527.999	83.69
528.214	108.69
528.429	115.69
528.644	122.69
528.859	122.69
529.074	141.69
529.289	152.69
529.503	151.69
529.718	126.69
529.933	105.69
530.148	113.69
530.363	99.69
530.577	99.69
530.792	96.69
531.007	86.69
531.221	70.69
531.436	94.69
531.651	67.69
531.865	83.69
532.08	77.69
532.295	90.69
532.509	85.69
532.724	88.69
532.938	88.69
533.153	112.69
533.367	118.69
533.582	121.69
533.796	111.69
534.011	104.69
534.225	100.69
534.44	88.69
534.654	88.69
534.868	97.69
535.083	93.69
535.297	109.69
535.511	107.69
535.726	106.69
535.94	102.69
536.154	94.69
536.369	91.69
536.583	80.69
536.797	102.69
537.011	80.69
537.225	95.69
537.44	75.69
537.654	99.69
537.868	100.69
538.082	93.69
538.296	98.69
538.51	107.69
538.724	117.69
538.938	124.69
539.153	121.69
539.367	120.69
539.581	124.69
539.795	91.69
540.009	112.69
540.222	99.69
540.436	100.69
540.65	120.69
540.864	135.69
541.078	147.69
541.292	161.69
541.506	154.69
541.72	172.69
541.934	181.69
542.147	191.69
542.361	188.69
542.575	164.69
542.789	148.69
543.002	143.69
543.216	123.69
543.43	119.69
543.644	140.69
543.857	141.69
544.071	144.69
544.285	172.69
544.498	153.69
544.712	158.69
544.925	151.69
545.139	147.69
545.352	151.69
545.566	144.69
545.779	159.69
545.993	158.69
546.206	168.69
546.42	166.69
546.633	175.69
546.847	162.69
547.06	161.69
547.274	165.69
547.487	187.69
547.7	178.69
547.914	170.69
548.127	147.69
548.34	145.69
548.554	141.69
548.767	153.69
548.98	155.69
549.193	141.69
549.407	147.69
549.62	146.69
549.833	147.69
550.046	149.69
550.259	149.69
550.473	164.69
550.686	146.69
550.899	147.69
551.112	145.69
551.325	139.69
551.538	129.69
551.751	118.69
551.964	115.69
552.177	129.69
552.39	145.69
552.603	141.69
552.816	148.69
553.029	159.69
553.242	141.69
553.455	179.69
553.667	145.69
553.88	167.69
554.093	149.69
554.306	163.69
554.519	140.69
554.732	150.69
554.944	142.69
555.157	120.69
555.37	142.69
555.583	130.69
555.795	143.69
556.008	138.69
556.221	143.69
556.433	124.69
556.646	141.69
556.859	124.69
557.071	147.69
557.284	137.69
557.496	136.69
557.709	134.69
557.921	136.69
558.134	136.69
558.346	153.69
558.559	133.69
558.771	131.69
558.984	127.69
559.196	130.69
559.409	144.69
559.621	137.69
559.833	127.69
560.046	116.69
560.258	133.69
560.47	128.69
560.683	122.69
560.895	126.69
561.107	124.69
561.32	131.69
561.532	120.69
561.744	135.69
561.956	142.69
562.168	119.69
562.381	126.69
562.593	129.69
562.805	112.69
563.017	123.69
563.229	143.69
563.441	108.69
563.653	123.69
563.865	123.69
564.077	125.69
564.289	130.69
564.501	132.69
564.713	123.69
564.925	127.69
565.137	120.69
565.349	123.69
565.561	112.69
565.773	125.69
565.985	124.69
566.197	115.69
566.408	113.69
566.62	126.69
566.832	121.69
567.044	115.69
567.255	120.69
567.467	119.69
567.679	117.69
567.891	101.69
568.102	93.69
568.314	103.69
568.526	86.69
568.737	80.69
568.949	85.69
569.161	83.69
569.372	90.69
569.584	101.69
569.795	82.69
570.007	95.69
570.218	74.69
570.43	82.69
570.641	87.69
570.853	105.69
571.064	92.69
571.276	97.69
571.487	96.69
571.698	105.69
571.91	115.69
572.121	103.69
572.333	96.69
572.544	104.69
572.755	98.69
572.966	86.69
573.178	97.69
573.389	79.69
573.6	74.69
573.811	78.69
574.023	80.69
574.234	73.69
574.445	81.69
574.656	89.69
574.867	90.69
575.078	102.69
575.289	89.69
575.501	93.69
575.712	97.69
575.923	98.69
576.134	94.69
576.345	100.69
576.556	107.69
576.767	102.69
576.978	92.69
577.188	83.69
577.399	93.69
577.61	97.69
577.821	82.69
578.032	93.69
578.243	101.69
578.454	89.69
578.665	81.69
578.875	82.69
579.086	88.69
579.297	84.69
579.508	95.69
579.718	80.69
579.929	89.69
580.14	85.69
580.35	88.69
580.561	73.69
580.772	95.69
580.982	82.69
581.193	103.69
581.403	88.69
581.614	91.69
581.825	99.69
582.035	89.69
582.246	93.69
582.456	97.69
582.667	95.69
582.877	88.69
583.087	95.69
583.298	93.69
583.508	88.69
583.719	93.69
583.929	87.69
584.139	80.69
584.35	85.69
584.56	77.69
584.77	87.69
584.981	83.69
585.191	77.69
585.401	80.69
585.611	89.69
585.821	82.69
586.032	83.69
586.242	90.69
586.452	94.69
586.662	86.69
586.872	92.69
587.082	89.69
587.292	81.69
587.502	92.69
587.713	84.69
587.923	84.69
588.133	96.69
588.343	73.69
588.553	85.69
588.762	103.69
588.972	95.69
589.182	86.69
589.392	84.69
589.602	84.69
589.812	94.69
590.022	91.69
590.232	95.69
590.441	72.69
590.651	81.69
590.861	67.69
591.071	87.69
591.281	78.69
591.49	84.69
591.7	91.69
591.91	76.69
592.119	83.69
592.329	73.69
592.539	79.69
592.748	75.69
592.958	77.69
593.167	93.69
593.377	92.69
593.587	90.69
593.796	80.69
594.006	75.69
594.215	87.69
594.424	81.69
594.634	95.69
594.843	106.69
595.053	100.69
595.262	102.69
595.472	95.69
595.681	88.69
595.89	89.69
596.1	80.69
596.309	95.69
596.518	87.69
596.727	93.69
596.937	95.69
597.146	106.69
597.355	98.69
597.564	109.69
597.774	80.69
597.983	91.69
598.192	86.69
598.401	87.69
598.61	92.69
598.819	90.69
599.028	108.69
599.237	90.69
599.446	99.69
599.655	109.69
599.864	85.69
600.073	99.69
600.282	103.69
600.491	108.69
600.7	92.69
600.909	93.69
601.118	105.69
601.327	92.69
601.536	107.69
601.745	113.69
601.953	111.69
602.162	108.69
602.371	102.69
602.58	115.69
602.789	115.69
602.997	100.69
603.206	99.69
603.415	103.69
603.623	120.69
603.832	109.69
604.041	100.69
604.249	93.69
604.458	102.69
604.666	89.69
604.875	92.69
605.084	101.69
605.292	92.69
605.501	104.69
605.709	112.69
605.918	87.69
606.126	111.69
606.334	120.69
606.543	120.69
606.751	108.69
606.96	123.69
607.168	104.69
607.376	103.69
607.585	107.69
607.793	90.69
608.001	114.69
608.21	127.69
608.418	110.69
608.626	119.69
608.834	107.69
609.043	116.69
609.251	115.69
609.459	119.69
609.667	119.69
609.875	119.69
610.083	118.69
610.291	122.69
610.499	115.69
610.707	96.69
610.916	124.69
611.124	115.69
611.332	122.69
611.54	109.69
611.748	113.69
611.955	117.69
612.163	108.69
612.371	123.69
612.579	119.69
612.787	118.69
612.995	123.69
613.203	115.69
613.411	114.69
613.618	88.69
613.826	109.69
614.034	108.69
614.242	108.69
614.449	114.69
614.657	113.69
614.865	111.69
615.072	113.69
615.28	114.69
615.488	111.69
615.695	107.69
615.903	109.69
616.111	105.69
616.318	123.69
616.526	113.69
616.733	125.69
616.941	117.69
617.148	114.69
617.356	113.69
617.563	112.69
617.771	127.69
617.978	112.69
618.185	119.69
618.393	115.69
618.6	99.69
618.807	105.69
619.015	112.69
619.222	115.69
619.429	108.69
619.637	98.69
619.844	109.69
620.051	116.69
620.258	112.69
620.466	107.69
620.673	100.69
620.88	111.69
621.087	108.69
621.294	107.69
621.501	100.69
621.708	112.69
621.915	102.69
622.122	121.69
622.329	109.69
622.536	116.69
622.743	113.69
622.95	120.69
623.157	113.69
623.364	105.69
623.571	105.69
623.778	115.69
623.985	124.69
624.192	93.69
624.399	105.69
624.606	116.69
624.812	99.69
625.019	102.69
625.226	84.69
625.433	107.69
625.639	85.69
625.846	92.69
626.053	92.69
626.259	104.69
626.466	97.69
626.673	88.69
626.879	99.69
627.086	95.69
627.293	99.69
627.499	105.69
627.706	112.69
627.912	102.69
628.119	99.69
628.325	103.69
628.532	97.69
628.738	93.69
628.945	106.69
629.151	101.69
629.357	96.69
629.564	106.69
629.77	106.69
629.976	95.69
630.183	90.69
630.389	96.69
630.595	88.69
630.802	104.69
631.008	105.69
631.214	100.69
631.42	100.69
631.627	109.69
631.833	104.69
632.039	95.69
632.245	93.69
632.451	88.69
632.657	117.69
632.863	96.69
633.069	91.69
633.275	114.69
633.481	101.69
633.688	103.69
633.893	116.69
634.099	106.69
634.305	103.69
634.511	105.69
634.717	102.69
634.923	98.69
635.129	91.69
635.335	105.69
635.541	92.69
635.747	103.69
635.952	103.69
636.158	97.69
636.364	95.69
636.57	105.69
636.775	108.69
636.981	102.69
637.187	104.69
637.392	95.69
637.598	99.69
637.804	92.69
638.009	113.69
638.215	108.69
638.421	95.69
638.626	92.69
638.832	106.69
639.037	95.69
639.243	105.69
639.448	114.69
639.654	87.69
639.859	96.69
640.065	92.69
640.27	113.69
640.475	96.69
640.681	89.69
640.886	104.69
641.091	106.69
641.297	102.69
641.502	111.69
641.707	109.69
641.913	95.69
642.118	99.69
642.323	122.69
642.528	101.69
642.733	104.69
642.939	107.69
643.144	101.69
643.349	108.69
643.554	99.69
643.759	97.69
643.964	101.69
644.169	113.69
644.374	102.69
644.579	100.69
644.784	108.69
644.989	89.69
645.194	113.69
645.399	100.69
645.604	107.69
645.809	110.69
646.014	104.69
646.219	91.69
646.423	82.69
646.628	90.69
646.833	114.69
647.038	105.69
647.243	107.69
647.447	96.69
647.652	86.69
647.857	101.69
648.062	103.69
648.266	112.69
648.471	106.69
648.676	88.69
648.88	98.69
649.085	103.69
649.289	91.69
649.494	100.69
649.698	94.69
649.903	93.69
650.107	113.69
650.312	95.69
650.516	92.69
650.721	100.69
650.925	91.69
651.13	93.69
651.334	106.69
651.539	90.69
651.743	111.69
651.947	92.69
652.152	85.69
652.356	108.69
652.56	100.69
652.764	88.69
652.969	98.69
653.173	84.69
653.377	95.69
653.581	104.69
653.785	91.69
653.99	93.69
654.194	91.69
654.398	83.69
654.602	95.69
654.806	84.69
655.01	92.69
655.214	85.69
655.418	83.69
655.622	94.69
655.826	97.69
656.03	85.69
656.234	77.69
656.438	84.69
656.642	92.69
656.846	91.69
657.049	92.69
657.253	86.69
657.457	75.69
657.661	87.69
657.865	91.69
658.068	97.69
658.272	91.69
658.476	84.69
658.68	77.69
658.883	73.69
659.087	70.69
659.291	84.69
659.494	91.69
659.698	77.69
659.901	87.69
660.105	89.69
660.309	83.69
660.512	84.69
660.716	86.69
660.919	85.69
661.123	81.69
661.326	91.69
661.53	84.69
661.733	91.69
661.936	74.69
662.14	88.69
662.343	84.69
662.546	94.69
662.75	101.69
662.953	80.69
663.156	84.69
663.36	73.69
663.563	84.69
663.766	74.69
663.969	73.69
664.173	67.69
664.376	87.69
664.579	90.69
664.782	94.69
664.985	90.69
665.188	71.69
665.391	75.69
665.594	77.69
665.797	84.69
666	93.69
666.203	86.69
666.406	97.69
666.609	77.69
666.812	90.69
667.015	71.69
667.218	74.69
667.421	81.69
667.624	81.69
667.827	81.69
668.03	90.69
668.232	78.69
668.435	88.69
668.638	83.69
668.841	77.69
669.043	76.69
669.246	79.69
669.449	74.69
669.651	74.69
669.854	88.69
670.057	83.69
670.259	68.69
670.462	89.69
670.665	72.69
670.867	76.69
671.07	74.69
671.272	83.69
671.475	79.69
671.677	85.69
671.88	74.69
672.082	89.69
672.284	79.69
672.487	80.69
672.689	84.69
672.892	75.69
