Data from Location2.07152019.Energy5.Lamp.07192019.3%Agarose_HRD10591_14-56-48-358.txt Node
Date: Fri Jul 19 14:56:48 EDT 2019
User: cochatt
Spectrometer: HR+D1059
Trigger mode: 1
Integration Time (sec): 1.000000E-1
Scans to average: 1
Electric dark correction enabled: true
Nonlinearity correction enabled: false
Boxcar width: 0
XAxis mode: Wavelengths
Number of Pixels in Spectrum: 2048
>>>>>Begin Spectral Data<<<<<
223.165	-12.31
223.4	-12.31
223.635	-12.31
223.869	-10.31
224.104	-16.31
224.338	-23.31
224.573	-14.31
224.808	-5.31
225.042	-14.31
225.277	-21.31
225.511	-5.31
225.746	13.69
225.98	16.69
226.215	13.69
226.449	8.69
226.683	12.69
226.918	36.69
227.152	20.69
227.387	36.69
227.621	37.69
227.856	35.69
228.09	48.69
228.324	54.69
228.559	55.69
228.793	67.69
229.027	66.69
229.262	68.69
229.496	71.69
229.73	67.69
229.964	75.69
230.199	74.69
230.433	83.69
230.667	79.69
230.901	67.69
231.136	81.69
231.37	76.69
231.604	74.69
231.838	78.69
232.072	71.69
232.306	79.69
232.541	91.69
232.775	76.69
233.009	74.69
233.243	89.69
233.477	75.69
233.711	83.69
233.945	80.69
234.179	75.69
234.413	79.69
234.647	73.69
234.881	70.69
235.115	86.69
235.349	75.69
235.583	74.69
235.817	83.69
236.051	73.69
236.285	84.69
236.519	72.69
236.753	95.69
236.987	81.69
237.221	67.69
237.455	84.69
237.689	79.69
237.922	70.69
238.156	82.69
238.39	85.69
238.624	83.69
238.858	67.69
239.091	72.69
239.325	80.69
239.559	70.69
239.793	81.69
240.027	91.69
240.26	72.69
240.494	74.69
240.728	63.69
240.961	75.69
241.195	80.69
241.429	69.69
241.662	73.69
241.896	81.69
242.13	74.69
242.363	75.69
242.597	72.69
242.83	73.69
243.064	89.69
243.298	76.69
243.531	75.69
243.765	79.69
243.998	80.69
244.232	61.69
244.465	80.69
244.699	73.69
244.932	88.69
245.166	73.69
245.399	82.69
245.633	73.69
245.866	68.69
246.099	84.69
246.333	72.69
246.566	85.69
246.8	82.69
247.033	76.69
247.266	78.69
247.5	67.69
247.733	72.69
247.966	73.69
248.2	72.69
248.433	74.69
248.666	72.69
248.899	82.69
249.133	88.69
249.366	79.69
249.599	79.69
249.832	86.69
250.066	63.69
250.299	79.69
250.532	90.69
250.765	86.69
250.998	79.69
251.231	93.69
251.465	86.69
251.698	78.69
251.931	82.69
252.164	67.69
252.397	67.69
252.63	83.69
252.863	81.69
253.096	84.69
253.329	78.69
253.562	75.69
253.795	70.69
254.028	87.69
254.261	79.69
254.494	79.69
254.727	75.69
254.96	69.69
255.193	87.69
255.426	86.69
255.659	92.69
255.892	80.69
256.124	68.69
256.357	79.69
256.59	71.69
256.823	78.69
257.056	87.69
257.289	80.69
257.521	74.69
257.754	64.69
257.987	76.69
258.22	71.69
258.452	94.69
258.685	80.69
258.918	72.69
259.151	72.69
259.383	86.69
259.616	62.69
259.849	89.69
260.081	82.69
260.314	74.69
260.547	90.69
260.779	65.69
261.012	67.69
261.244	71.69
261.477	83.69
261.71	76.69
261.942	82.69
262.175	75.69
262.407	75.69
262.64	78.69
262.872	86.69
263.105	89.69
263.337	92.69
263.57	76.69
263.802	84.69
264.035	77.69
264.267	80.69
264.499	78.69
264.732	81.69
264.964	79.69
265.197	71.69
265.429	81.69
265.661	67.69
265.894	89.69
266.126	72.69
266.358	90.69
266.591	69.69
266.823	90.69
267.055	88.69
267.287	73.69
267.52	84.69
267.752	85.69
267.984	88.69
268.216	82.69
268.448	68.69
268.681	86.69
268.913	76.69
269.145	75.69
269.377	77.69
269.609	78.69
269.841	86.69
270.073	80.69
270.306	74.69
270.538	87.69
270.77	98.69
271.002	82.69
271.234	90.69
271.466	82.69
271.698	88.69
271.93	82.69
272.162	78.69
272.394	83.69
272.626	90.69
272.858	65.69
273.09	86.69
273.322	84.69
273.553	81.69
273.785	79.69
274.017	73.69
274.249	92.69
274.481	76.69
274.713	96.69
274.945	79.69
275.176	92.69
275.408	79.69
275.64	83.69
275.872	81.69
276.104	73.69
276.335	78.69
276.567	78.69
276.799	97.69
277.031	65.69
277.262	75.69
277.494	78.69
277.726	79.69
277.957	98.69
278.189	93.69
278.421	95.69
278.652	74.69
278.884	82.69
279.115	84.69
279.347	68.69
279.579	88.69
279.81	94.69
280.042	81.69
280.273	69.69
280.505	77.69
280.736	64.69
280.968	81.69
281.199	79.69
281.431	92.69
281.662	77.69
281.894	80.69
282.125	77.69
282.356	92.69
282.588	89.69
282.819	82.69
283.051	85.69
283.282	83.69
283.513	93.69
283.745	80.69
283.976	82.69
284.207	78.69
284.439	84.69
284.67	82.69
284.901	89.69
285.132	85.69
285.364	80.69
285.595	73.69
285.826	74.69
286.057	73.69
286.288	80.69
286.52	88.69
286.751	73.69
286.982	72.69
287.213	82.69
287.444	89.69
287.675	75.69
287.906	90.69
288.138	80.69
288.369	86.69
288.6	79.69
288.831	59.69
289.062	84.69
289.293	81.69
289.524	81.69
289.755	70.69
289.986	80.69
290.217	78.69
290.448	96.69
290.679	91.69
290.91	76.69
291.141	73.69
291.371	89.69
291.602	63.69
291.833	73.69
292.064	81.69
292.295	92.69
292.526	86.69
292.757	89.69
292.987	88.69
293.218	86.69
293.449	96.69
293.68	80.69
293.91	90.69
294.141	84.69
294.372	91.69
294.603	83.69
294.833	76.69
295.064	87.69
295.295	79.69
295.525	91.69
295.756	88.69
295.987	86.69
296.217	76.69
296.448	79.69
296.679	89.69
296.909	75.69
297.14	81.69
297.37	93.69
297.601	75.69
297.831	88.69
298.062	75.69
298.292	84.69
298.523	80.69
298.753	81.69
298.984	88.69
299.214	80.69
299.445	89.69
299.675	89.69
299.905	82.69
300.136	79.69
300.366	78.69
300.597	80.69
300.827	87.69
301.057	85.69
301.288	84.69
301.518	79.69
301.748	91.69
301.979	86.69
302.209	67.69
302.439	81.69
302.669	90.69
302.9	81.69
303.13	84.69
303.36	90.69
303.59	66.69
303.82	85.69
304.051	84.69
304.281	87.69
304.511	88.69
304.741	81.69
304.971	88.69
305.201	91.69
305.431	95.69
305.661	81.69
305.891	86.69
306.121	74.69
306.352	83.69
306.582	90.69
306.812	84.69
307.042	74.69
307.272	74.69
307.502	79.69
307.731	82.69
307.961	81.69
308.191	88.69
308.421	81.69
308.651	76.69
308.881	84.69
309.111	82.69
309.341	64.69
309.571	60.69
309.8	70.69
310.03	80.69
310.26	80.69
310.49	79.69
310.72	81.69
310.949	79.69
311.179	91.69
311.409	95.69
311.639	82.69
311.868	88.69
312.098	85.69
312.328	84.69
312.557	84.69
312.787	95.69
313.017	83.69
313.246	81.69
313.476	86.69
313.706	82.69
313.935	89.69
314.165	89.69
314.394	83.69
314.624	78.69
314.853	80.69
315.083	83.69
315.312	98.69
315.542	73.69
315.771	97.69
316.001	73.69
316.23	85.69
316.46	81.69
316.689	89.69
316.919	88.69
317.148	91.69
317.377	83.69
317.607	98.69
317.836	84.69
318.065	81.69
318.295	75.69
318.524	78.69
318.753	90.69
318.983	91.69
319.212	88.69
319.441	76.69
319.67	77.69
319.9	82.69
320.129	78.69
320.358	71.69
320.587	82.69
320.816	74.69
321.046	69.69
321.275	77.69
321.504	71.69
321.733	87.69
321.962	99.69
322.191	81.69
322.42	78.69
322.649	88.69
322.878	81.69
323.108	77.69
323.337	83.69
323.566	78.69
323.795	80.69
324.024	84.69
324.253	78.69
324.482	82.69
324.71	87.69
324.939	90.69
325.168	84.69
325.397	76.69
325.626	75.69
325.855	83.69
326.084	78.69
326.313	95.69
326.542	75.69
326.77	90.69
326.999	83.69
327.228	65.69
327.457	90.69
327.686	98.69
327.914	86.69
328.143	90.69
328.372	73.69
328.6	81.69
328.829	90.69
329.058	90.69
329.287	82.69
329.515	90.69
329.744	76.69
329.972	69.69
330.201	84.69
330.43	92.69
330.658	76.69
330.887	77.69
331.115	70.69
331.344	75.69
331.572	86.69
331.801	75.69
332.03	88.69
332.258	72.69
332.486	89.69
332.715	95.69
332.943	86.69
333.172	78.69
333.4	81.69
333.629	75.69
333.857	86.69
334.085	87.69
334.314	91.69
334.542	91.69
334.771	73.69
334.999	84.69
335.227	74.69
335.455	85.69
335.684	84.69
335.912	71.69
336.14	70.69
336.369	66.69
336.597	71.69
336.825	76.69
337.053	76.69
337.281	97.69
337.51	88.69
337.738	85.69
337.966	73.69
338.194	85.69
338.422	83.69
338.65	89.69
338.878	76.69
339.106	73.69
339.334	89.69
339.562	96.69
339.79	85.69
340.018	75.69
340.246	99.69
340.474	84.69
340.702	87.69
340.93	87.69
341.158	88.69
341.386	77.69
341.614	85.69
341.842	85.69
342.07	74.69
342.298	81.69
342.526	74.69
342.754	87.69
342.981	80.69
343.209	90.69
343.437	92.69
343.665	84.69
343.893	83.69
344.12	89.69
344.348	81.69
344.576	86.69
344.804	82.69
345.031	83.69
345.259	66.69
345.487	78.69
345.714	90.69
345.942	92.69
346.17	83.69
346.397	86.69
346.625	92.69
346.853	82.69
347.08	90.69
347.308	73.69
347.535	83.69
347.763	85.69
347.99	87.69
348.218	99.69
348.445	93.69
348.673	88.69
348.9	87.69
349.128	83.69
349.355	59.69
349.583	76.69
349.81	91.69
350.037	75.69
350.265	73.69
350.492	87.69
350.72	78.69
350.947	80.69
351.174	86.69
351.402	99.69
351.629	90.69
351.856	85.69
352.083	83.69
352.311	84.69
352.538	73.69
352.765	74.69
352.992	71.69
353.22	99.69
353.447	86.69
353.674	102.69
353.901	87.69
354.128	86.69
354.355	81.69
354.583	70.69
354.81	72.69
355.037	80.69
355.264	81.69
355.491	82.69
355.718	82.69
355.945	73.69
356.172	77.69
356.399	76.69
356.626	75.69
356.853	80.69
357.08	77.69
357.307	81.69
357.534	72.69
357.761	82.69
357.988	99.69
358.215	83.69
358.441	96.69
358.668	88.69
358.895	84.69
359.122	76.69
359.349	82.69
359.576	87.69
359.802	74.69
360.029	85.69
360.256	98.69
360.483	91.69
360.709	70.69
360.936	93.69
361.163	87.69
361.39	90.69
361.616	68.69
361.843	69.69
362.07	85.69
362.296	74.69
362.523	77.69
362.749	87.69
362.976	86.69
363.203	78.69
363.429	88.69
363.656	87.69
363.882	91.69
364.109	88.69
364.335	84.69
364.562	95.69
364.788	72.69
365.015	83.69
365.241	71.69
365.468	85.69
365.694	82.69
365.92	90.69
366.147	82.69
366.373	87.69
366.599	95.69
366.826	98.69
367.052	91.69
367.278	76.69
367.505	77.69
367.731	94.69
367.957	86.69
368.184	92.69
368.41	85.69
368.636	98.69
368.862	96.69
369.089	82.69
369.315	95.69
369.541	89.69
369.767	96.69
369.993	94.69
370.219	106.69
370.445	84.69
370.672	83.69
370.898	91.69
371.124	86.69
371.35	89.69
371.576	96.69
371.802	99.69
372.028	88.69
372.254	79.69
372.48	89.69
372.706	90.69
372.932	76.69
373.158	85.69
373.384	85.69
373.61	77.69
373.835	99.69
374.061	102.69
374.287	94.69
374.513	91.69
374.739	97.69
374.965	90.69
375.191	96.69
375.416	98.69
375.642	90.69
375.868	94.69
376.094	94.69
376.319	74.69
376.545	86.69
376.771	91.69
376.997	86.69
377.222	98.69
377.448	88.69
377.674	71.69
377.899	83.69
378.125	88.69
378.35	113.69
378.576	96.69
378.802	99.69
379.027	105.69
379.253	97.69
379.478	105.69
379.704	96.69
379.929	94.69
380.155	100.69
380.38	99.69
380.606	108.69
380.831	89.69
381.057	98.69
381.282	84.69
381.507	103.69
381.733	101.69
381.958	101.69
382.184	93.69
382.409	100.69
382.634	92.69
382.86	110.69
383.085	112.69
383.31	104.69
383.535	93.69
383.761	92.69
383.986	94.69
384.211	97.69
384.436	100.69
384.662	90.69
384.887	100.69
385.112	83.69
385.337	90.69
385.562	94.69
385.787	93.69
386.013	103.69
386.238	96.69
386.463	97.69
386.688	95.69
386.913	92.69
387.138	94.69
387.363	111.69
387.588	88.69
387.813	92.69
388.038	106.69
388.263	87.69
388.488	103.69
388.713	93.69
388.938	89.69
389.163	98.69
389.387	97.69
389.612	110.69
389.837	99.69
390.062	101.69
390.287	120.69
390.512	103.69
390.736	98.69
390.961	96.69
391.186	96.69
391.411	108.69
391.636	99.69
391.86	90.69
392.085	97.69
392.31	94.69
392.534	103.69
392.759	92.69
392.984	114.69
393.208	113.69
393.433	103.69
393.658	96.69
393.882	105.69
394.107	103.69
394.331	107.69
394.556	94.69
394.78	107.69
395.005	95.69
395.229	104.69
395.454	101.69
395.678	110.69
395.903	92.69
396.127	98.69
396.352	105.69
396.576	111.69
396.801	103.69
397.025	118.69
397.249	107.69
397.474	110.69
397.698	112.69
397.922	99.69
398.147	105.69
398.371	112.69
398.595	108.69
398.82	110.69
399.044	102.69
399.268	98.69
399.492	119.69
399.717	102.69
399.941	103.69
400.165	113.69
400.389	110.69
400.613	106.69
400.837	114.69
401.062	120.69
401.286	114.69
401.51	103.69
401.734	108.69
401.958	113.69
402.182	105.69
402.406	99.69
402.63	112.69
402.854	106.69
403.078	115.69
403.302	126.69
403.526	108.69
403.75	119.69
403.974	114.69
404.198	111.69
404.422	116.69
404.645	99.69
404.869	121.69
405.093	110.69
405.317	103.69
405.541	111.69
405.765	117.69
405.988	116.69
406.212	126.69
406.436	122.69
406.66	126.69
406.883	139.69
407.107	98.69
407.331	116.69
407.555	121.69
407.778	114.69
408.002	107.69
408.226	122.69
408.449	124.69
408.673	114.69
408.896	106.69
409.12	112.69
409.344	108.69
409.567	123.69
409.791	135.69
410.014	118.69
410.238	123.69
410.461	119.69
410.685	129.69
410.908	135.69
411.132	124.69
411.355	131.69
411.578	118.69
411.802	118.69
412.025	126.69
412.249	116.69
412.472	124.69
412.695	116.69
412.919	119.69
413.142	113.69
413.365	130.69
413.589	116.69
413.812	124.69
414.035	118.69
414.258	120.69
414.482	128.69
414.705	120.69
414.928	115.69
415.151	122.69
415.374	114.69
415.597	130.69
415.821	127.69
416.044	126.69
416.267	126.69
416.49	120.69
416.713	126.69
416.936	135.69
417.159	116.69
417.382	128.69
417.605	117.69
417.828	119.69
418.051	123.69
418.274	134.69
418.497	126.69
418.72	133.69
418.943	124.69
419.166	128.69
419.389	140.69
419.611	135.69
419.834	125.69
420.057	130.69
420.28	125.69
420.503	133.69
420.726	135.69
420.948	121.69
421.171	126.69
421.394	136.69
421.617	131.69
421.839	141.69
422.062	140.69
422.285	128.69
422.507	122.69
422.73	121.69
422.953	132.69
423.175	142.69
423.398	115.69
423.621	119.69
423.843	144.69
424.066	138.69
424.288	148.69
424.511	142.69
424.733	140.69
424.956	134.69
425.178	148.69
425.401	134.69
425.623	144.69
425.846	143.69
426.068	125.69
426.291	124.69
426.513	135.69
426.735	135.69
426.958	136.69
427.18	125.69
427.402	137.69
427.625	144.69
427.847	130.69
428.069	122.69
428.292	132.69
428.514	142.69
428.736	119.69
428.958	132.69
429.181	130.69
429.403	122.69
429.625	128.69
429.847	124.69
430.069	132.69
430.292	137.69
430.514	128.69
430.736	145.69
430.958	131.69
431.18	124.69
431.402	112.69
431.624	120.69
431.846	118.69
432.068	89.69
432.29	96.69
432.512	118.69
432.734	120.69
432.956	130.69
433.178	131.69
433.4	124.69
433.622	126.69
433.844	124.69
434.066	113.69
434.287	116.69
434.509	105.69
434.731	104.69
434.953	101.69
435.175	112.69
435.397	122.69
435.618	126.69
435.84	105.69
436.062	115.69
436.284	132.69
436.505	121.69
436.727	128.69
436.949	130.69
437.17	129.69
437.392	133.69
437.614	118.69
437.835	118.69
438.057	93.69
438.278	112.69
438.5	112.69
438.721	133.69
438.943	134.69
439.165	133.69
439.386	158.69
439.608	146.69
439.829	137.69
440.05	140.69
440.272	126.69
440.493	143.69
440.715	143.69
440.936	145.69
441.158	141.69
441.379	138.69
441.6	159.69
441.822	158.69
442.043	140.69
442.264	126.69
442.486	156.69
442.707	133.69
442.928	119.69
443.149	150.69
443.371	129.69
443.592	138.69
443.813	136.69
444.034	132.69
444.255	132.69
444.476	143.69
444.698	130.69
444.919	126.69
445.14	276.69
445.361	196.69
445.582	152.69
445.803	128.69
446.024	137.69
446.245	156.69
446.466	157.69
446.687	154.69
446.908	136.69
447.129	150.69
447.35	134.69
447.571	150.69
447.792	146.69
448.013	141.69
448.234	133.69
448.455	151.69
448.675	153.69
448.896	133.69
449.117	150.69
449.338	132.69
449.559	143.69
449.779	134.69
450	124.69
450.221	131.69
450.442	131.69
450.662	143.69
450.883	128.69
451.104	145.69
451.324	137.69
451.545	125.69
451.766	121.69
451.986	123.69
452.207	127.69
452.428	118.69
452.648	128.69
452.869	121.69
453.089	115.69
453.31	104.69
453.53	118.69
453.751	106.69
453.971	93.69
454.192	103.69
454.412	120.69
454.633	104.69
454.853	104.69
455.073	117.69
455.294	130.69
455.514	123.69
455.734	112.69
455.955	120.69
456.175	120.69
456.395	110.69
456.616	111.69
456.836	120.69
457.056	125.69
457.276	94.69
457.497	110.69
457.717	114.69
457.937	99.69
458.157	107.69
458.377	104.69
458.598	98.69
458.818	103.69
459.038	83.69
459.258	93.69
459.478	94.69
459.698	89.69
459.918	103.69
460.138	86.69
460.358	104.69
460.578	118.69
460.798	117.69
461.018	107.69
461.238	127.69
461.458	122.69
461.678	123.69
461.898	88.69
462.118	115.69
462.338	104.69
462.558	112.69
462.777	112.69
462.997	99.69
463.217	108.69
463.437	110.69
463.657	120.69
463.876	110.69
464.096	118.69
464.316	111.69
464.536	118.69
464.755	129.69
464.975	110.69
465.195	118.69
465.414	122.69
465.634	114.69
465.854	107.69
466.073	94.69
466.293	125.69
466.512	119.69
466.732	127.69
466.951	124.69
467.171	128.69
467.391	128.69
467.61	119.69
467.829	118.69
468.049	124.69
468.268	137.69
468.488	134.69
468.707	127.69
468.927	120.69
469.146	133.69
469.365	129.69
469.585	146.69
469.804	153.69
470.023	144.69
470.243	144.69
470.462	142.69
470.681	138.69
470.901	142.69
471.12	114.69
471.339	130.69
471.558	135.69
471.777	152.69
471.997	134.69
472.216	131.69
472.435	123.69
472.654	105.69
472.873	126.69
473.092	124.69
473.311	120.69
473.53	138.69
473.749	132.69
473.968	133.69
474.187	132.69
474.406	111.69
474.625	109.69
474.844	121.69
475.063	136.69
475.282	116.69
475.501	130.69
475.72	110.69
475.939	124.69
476.158	122.69
476.377	127.69
476.596	115.69
476.814	120.69
477.033	115.69
477.252	110.69
477.471	130.69
477.69	125.69
477.908	153.69
478.127	133.69
478.346	130.69
478.564	132.69
478.783	139.69
479.002	150.69
479.22	138.69
479.439	127.69
479.658	133.69
479.876	107.69
480.095	112.69
480.313	123.69
480.532	124.69
480.751	115.69
480.969	91.69
481.188	90.69
481.406	89.69
481.624	90.69
481.843	82.69
482.061	101.69
482.28	119.69
482.498	90.69
482.717	115.69
482.935	124.69
483.153	132.69
483.372	155.69
483.59	154.69
483.808	136.69
484.027	129.69
484.245	140.69
484.463	145.69
484.681	160.69
484.9	139.69
485.118	130.69
485.336	134.69
485.554	128.69
485.772	103.69
485.99	104.69
486.209	110.69
486.427	105.69
486.645	123.69
486.863	135.69
487.081	142.69
487.299	124.69
487.517	150.69
487.735	161.69
487.953	195.69
488.171	171.69
488.389	169.69
488.607	163.69
488.825	137.69
489.043	138.69
489.261	129.69
489.479	132.69
489.696	154.69
489.914	136.69
490.132	136.69
490.35	177.69
490.568	164.69
490.786	166.69
491.003	164.69
491.221	174.69
491.439	192.69
491.657	195.69
491.874	198.69
492.092	199.69
492.31	227.69
492.527	227.69
492.745	208.69
492.963	183.69
493.18	183.69
493.398	190.69
493.615	176.69
493.833	160.69
494.05	165.69
494.268	166.69
494.485	158.69
494.703	191.69
494.92	171.69
495.138	186.69
495.355	171.69
495.573	170.69
495.79	170.69
496.008	163.69
496.225	166.69
496.442	186.69
496.66	174.69
496.877	147.69
497.094	166.69
497.312	176.69
497.529	167.69
497.746	146.69
497.963	136.69
498.181	124.69
498.398	124.69
498.615	129.69
498.832	128.69
499.049	98.69
499.267	112.69
499.484	118.69
499.701	127.69
499.918	136.69
500.135	132.69
500.352	141.69
500.569	146.69
500.786	146.69
501.003	141.69
501.22	147.69
501.437	131.69
501.654	116.69
501.871	137.69
502.088	135.69
502.305	139.69
502.522	136.69
502.739	131.69
502.956	126.69
503.172	136.69
503.389	116.69
503.606	114.69
503.823	127.69
504.04	130.69
504.256	135.69
504.473	131.69
504.69	120.69
504.907	123.69
505.123	122.69
505.34	115.69
505.557	131.69
505.773	115.69
505.99	123.69
506.207	136.69
506.423	132.69
506.64	119.69
506.856	124.69
507.073	118.69
507.289	112.69
507.506	112.69
507.722	110.69
507.939	113.69
508.155	118.69
508.372	106.69
508.588	93.69
508.805	106.69
509.021	118.69
509.238	118.69
509.454	97.69
509.67	99.69
509.887	107.69
510.103	111.69
510.319	101.69
510.536	101.69
510.752	82.69
510.968	80.69
511.184	83.69
511.401	89.69
511.617	95.69
511.833	84.69
512.049	106.69
512.265	88.69
512.481	100.69
512.698	98.69
512.914	100.69
513.13	95.69
513.346	95.69
513.562	97.69
513.778	85.69
513.994	77.69
514.21	82.69
514.426	87.69
514.642	92.69
514.858	75.69
515.074	86.69
515.29	88.69
515.506	89.69
515.721	84.69
515.937	84.69
516.153	103.69
516.369	77.69
516.585	82.69
516.801	91.69
517.016	90.69
517.232	99.69
517.448	97.69
517.664	93.69
517.879	93.69
518.095	95.69
518.311	100.69
518.527	97.69
518.742	94.69
518.958	115.69
519.173	100.69
519.389	94.69
519.605	98.69
519.82	113.69
520.036	104.69
520.251	99.69
520.467	106.69
520.682	95.69
520.898	67.69
521.113	86.69
521.329	84.69
521.544	90.69
521.76	87.69
521.975	95.69
522.19	103.69
522.406	98.69
522.621	102.69
522.836	92.69
523.052	89.69
523.267	90.69
523.482	103.69
523.698	106.69
523.913	115.69
524.128	110.69
524.343	124.69
524.559	113.69
524.774	121.69
524.989	136.69
525.204	123.69
525.419	112.69
525.634	115.69
525.849	118.69
526.064	110.69
526.28	91.69
526.495	88.69
526.71	92.69
526.925	105.69
527.14	83.69
527.355	75.69
527.57	91.69
527.785	104.69
527.999	98.69
528.214	100.69
528.429	107.69
528.644	124.69
528.859	128.69
529.074	140.69
529.289	136.69
529.503	151.69
529.718	141.69
529.933	114.69
530.148	109.69
530.363	108.69
530.577	79.69
530.792	86.69
531.007	82.69
531.221	86.69
531.436	100.69
531.651	89.69
531.865	87.69
532.08	79.69
532.295	96.69
532.509	81.69
532.724	76.69
532.938	91.69
533.153	93.69
533.367	95.69
533.582	117.69
533.796	121.69
534.011	115.69
534.225	99.69
534.44	90.69
534.654	95.69
534.868	105.69
535.083	94.69
535.297	106.69
535.511	103.69
535.726	99.69
535.94	100.69
536.154	88.69
536.369	81.69
536.583	80.69
536.797	88.69
537.011	84.69
537.225	81.69
537.44	86.69
537.654	87.69
537.868	100.69
538.082	91.69
538.296	91.69
538.51	97.69
538.724	115.69
538.938	112.69
539.153	115.69
539.367	129.69
539.581	120.69
539.795	92.69
540.009	84.69
540.222	98.69
540.436	111.69
540.65	126.69
540.864	121.69
541.078	118.69
541.292	149.69
541.506	151.69
541.72	156.69
541.934	180.69
542.147	190.69
542.361	165.69
542.575	146.69
542.789	144.69
543.002	134.69
543.216	141.69
543.43	134.69
543.644	131.69
543.857	145.69
544.071	150.69
544.285	150.69
544.498	146.69
544.712	174.69
544.925	171.69
545.139	162.69
545.352	157.69
545.566	171.69
545.779	155.69
545.993	178.69
546.206	178.69
546.42	156.69
546.633	173.69
546.847	166.69
547.06	149.69
547.274	152.69
547.487	174.69
547.7	161.69
547.914	148.69
548.127	152.69
548.34	147.69
548.554	143.69
548.767	146.69
548.98	147.69
549.193	155.69
549.407	146.69
549.62	158.69
549.833	167.69
550.046	146.69
550.259	143.69
550.473	161.69
550.686	149.69
550.899	139.69
551.112	139.69
551.325	141.69
551.538	139.69
551.751	128.69
551.964	123.69
552.177	135.69
552.39	146.69
552.603	146.69
552.816	146.69
553.029	147.69
553.242	164.69
553.455	164.69
553.667	158.69
553.88	135.69
554.093	146.69
554.306	156.69
554.519	146.69
554.732	156.69
554.944	150.69
555.157	126.69
555.37	140.69
555.583	154.69
555.795	130.69
556.008	128.69
556.221	136.69
556.433	134.69
556.646	122.69
556.859	139.69
557.071	144.69
557.284	139.69
557.496	130.69
557.709	149.69
557.921	151.69
558.134	130.69
558.346	145.69
558.559	122.69
558.771	121.69
558.984	134.69
559.196	128.69
559.409	120.69
559.621	128.69
559.833	128.69
560.046	130.69
560.258	125.69
560.47	123.69
560.683	132.69
560.895	123.69
561.107	121.69
561.32	121.69
561.532	139.69
561.744	123.69
561.956	123.69
562.168	130.69
562.381	128.69
562.593	138.69
562.805	128.69
563.017	127.69
563.229	138.69
563.441	120.69
563.653	124.69
563.865	129.69
564.077	117.69
564.289	117.69
564.501	127.69
564.713	112.69
564.925	107.69
565.137	110.69
565.349	110.69
565.561	114.69
565.773	107.69
565.985	109.69
566.197	110.69
566.408	122.69
566.62	126.69
566.832	117.69
567.044	107.69
567.255	119.69
567.467	104.69
567.679	106.69
567.891	111.69
568.102	104.69
568.314	97.69
568.526	89.69
568.737	92.69
568.949	90.69
569.161	90.69
569.372	99.69
569.584	100.69
569.795	79.69
570.007	85.69
570.218	109.69
570.43	91.69
570.641	88.69
570.853	84.69
571.064	104.69
571.276	94.69
571.487	100.69
571.698	110.69
571.91	96.69
572.121	118.69
572.333	106.69
572.544	98.69
572.755	91.69
572.966	79.69
573.178	82.69
573.389	76.69
573.6	81.69
573.811	83.69
574.023	80.69
574.234	97.69
574.445	96.69
574.656	89.69
574.867	96.69
575.078	96.69
575.289	94.69
575.501	102.69
575.712	100.69
575.923	81.69
576.134	75.69
576.345	75.69
576.556	98.69
576.767	86.69
576.978	100.69
577.188	104.69
577.399	85.69
577.61	82.69
577.821	88.69
578.032	89.69
578.243	89.69
578.454	107.69
578.665	101.69
578.875	82.69
579.086	79.69
579.297	76.69
579.508	83.69
579.718	89.69
579.929	94.69
580.14	87.69
580.35	92.69
580.561	87.69
580.772	83.69
580.982	91.69
581.193	75.69
581.403	90.69
581.614	88.69
581.825	91.69
582.035	88.69
582.246	93.69
582.456	100.69
582.667	87.69
582.877	94.69
583.087	86.69
583.298	92.69
583.508	91.69
583.719	84.69
583.929	82.69
584.139	75.69
584.35	78.69
584.56	71.69
584.77	88.69
584.981	87.69
585.191	81.69
585.401	90.69
585.611	89.69
585.821	79.69
586.032	80.69
586.242	75.69
586.452	76.69
586.662	82.69
586.872	81.69
587.082	79.69
587.292	73.69
587.502	73.69
587.713	70.69
587.923	84.69
588.133	80.69
588.343	88.69
588.553	82.69
588.762	92.69
588.972	71.69
589.182	84.69
589.392	87.69
589.602	91.69
589.812	92.69
590.022	90.69
590.232	86.69
590.441	71.69
590.651	71.69
590.861	67.69
591.071	87.69
591.281	78.69
591.49	73.69
591.7	81.69
591.91	88.69
592.119	90.69
592.329	91.69
592.539	78.69
592.748	82.69
592.958	91.69
593.167	81.69
593.377	82.69
593.587	81.69
593.796	95.69
594.006	88.69
594.215	91.69
594.424	80.69
594.634	87.69
594.843	83.69
595.053	85.69
595.262	81.69
595.472	83.69
595.681	98.69
595.89	90.69
596.1	84.69
596.309	71.69
596.518	91.69
596.727	92.69
596.937	102.69
597.146	102.69
597.355	96.69
597.564	92.69
597.774	95.69
597.983	78.69
598.192	97.69
598.401	86.69
598.61	82.69
598.819	96.69
599.028	92.69
599.237	87.69
599.446	98.69
599.655	86.69
599.864	94.69
600.073	104.69
600.282	82.69
600.491	80.69
600.7	92.69
600.909	82.69
601.118	82.69
601.327	110.69
601.536	92.69
601.745	107.69
601.953	109.69
602.162	112.69
602.371	111.69
602.58	111.69
602.789	102.69
602.997	115.69
603.206	103.69
603.415	119.69
603.623	118.69
603.832	106.69
604.041	107.69
604.249	116.69
604.458	93.69
604.666	102.69
604.875	95.69
605.084	102.69
605.292	98.69
605.501	97.69
605.709	114.69
605.918	107.69
606.126	108.69
606.334	108.69
606.543	117.69
606.751	117.69
606.96	118.69
607.168	99.69
607.376	110.69
607.585	116.69
607.793	114.69
608.001	114.69
608.21	116.69
608.418	120.69
608.626	99.69
608.834	108.69
609.043	122.69
609.251	113.69
609.459	106.69
609.667	120.69
609.875	116.69
610.083	96.69
610.291	126.69
610.499	112.69
610.707	99.69
610.916	96.69
611.124	109.69
611.332	95.69
611.54	104.69
611.748	102.69
611.955	110.69
612.163	108.69
612.371	106.69
612.579	122.69
612.787	102.69
612.995	111.69
613.203	110.69
613.411	112.69
613.618	117.69
613.826	105.69
614.034	102.69
614.242	93.69
614.449	105.69
614.657	116.69
614.865	118.69
615.072	112.69
615.28	104.69
615.488	109.69
615.695	129.69
615.903	107.69
616.111	107.69
616.318	111.69
616.526	105.69
616.733	106.69
616.941	118.69
617.148	113.69
617.356	111.69
617.563	102.69
617.771	115.69
617.978	112.69
618.185	112.69
618.393	108.69
618.6	114.69
618.807	105.69
619.015	110.69
619.222	97.69
619.429	102.69
619.637	86.69
619.844	110.69
620.051	114.69
620.258	104.69
620.466	102.69
620.673	104.69
620.88	92.69
621.087	111.69
621.294	107.69
621.501	117.69
621.708	97.69
621.915	94.69
622.122	108.69
622.329	113.69
622.536	90.69
622.743	97.69
622.95	110.69
623.157	111.69
623.364	100.69
623.571	101.69
623.778	105.69
623.985	118.69
624.192	112.69
624.399	122.69
624.606	116.69
624.812	109.69
625.019	87.69
625.226	105.69
625.433	105.69
625.639	103.69
625.846	100.69
626.053	104.69
626.259	102.69
626.466	98.69
626.673	90.69
626.879	80.69
627.086	84.69
627.293	97.69
627.499	99.69
627.706	98.69
627.912	112.69
628.119	95.69
628.325	108.69
628.532	93.69
628.738	96.69
628.945	100.69
629.151	97.69
629.357	98.69
629.564	100.69
629.77	97.69
629.976	103.69
630.183	103.69
630.389	98.69
630.595	102.69
630.802	95.69
631.008	93.69
631.214	104.69
631.42	96.69
631.627	104.69
631.833	94.69
632.039	105.69
632.245	99.69
632.451	99.69
632.657	90.69
632.863	76.69
633.069	105.69
633.275	95.69
633.481	90.69
633.688	98.69
633.893	97.69
634.099	106.69
634.305	107.69
634.511	103.69
634.717	104.69
634.923	87.69
635.129	85.69
635.335	89.69
635.541	94.69
635.747	90.69
635.952	112.69
636.158	108.69
636.364	104.69
636.57	113.69
636.775	88.69
636.981	116.69
637.187	103.69
637.392	100.69
637.598	103.69
637.804	85.69
638.009	97.69
638.215	99.69
638.421	101.69
638.626	95.69
638.832	103.69
639.037	90.69
639.243	101.69
639.448	102.69
639.654	106.69
639.859	107.69
640.065	93.69
640.27	84.69
640.475	104.69
640.681	111.69
640.886	106.69
641.091	103.69
641.297	105.69
641.502	94.69
641.707	109.69
641.913	94.69
642.118	102.69
642.323	107.69
642.528	99.69
642.733	97.69
642.939	95.69
643.144	96.69
643.349	87.69
643.554	88.69
643.759	96.69
643.964	97.69
644.169	103.69
644.374	99.69
644.579	103.69
644.784	90.69
644.989	101.69
645.194	101.69
645.399	101.69
645.604	95.69
645.809	104.69
646.014	98.69
646.219	97.69
646.423	82.69
646.628	105.69
646.833	107.69
647.038	107.69
647.243	97.69
647.447	98.69
647.652	86.69
647.857	89.69
648.062	100.69
648.266	100.69
648.471	96.69
648.676	90.69
648.88	103.69
649.085	94.69
649.289	99.69
649.494	107.69
649.698	85.69
649.903	87.69
650.107	88.69
650.312	80.69
650.516	107.69
650.721	95.69
650.925	98.69
651.13	90.69
651.334	95.69
651.539	117.69
651.743	101.69
651.947	98.69
652.152	86.69
652.356	101.69
652.56	94.69
652.764	84.69
652.969	95.69
653.173	80.69
653.377	91.69
653.581	103.69
653.785	75.69
653.99	80.69
654.194	84.69
654.398	92.69
654.602	87.69
654.806	94.69
655.01	89.69
655.214	76.69
655.418	93.69
655.622	78.69
655.826	89.69
656.03	79.69
656.234	82.69
656.438	76.69
656.642	89.69
656.846	92.69
657.049	88.69
657.253	87.69
657.457	89.69
657.661	78.69
657.865	85.69
658.068	80.69
658.272	84.69
658.476	99.69
658.68	87.69
658.883	90.69
659.087	72.69
659.291	94.69
659.494	96.69
659.698	79.69
659.901	66.69
660.105	83.69
660.309	74.69
660.512	87.69
660.716	96.69
660.919	83.69
661.123	82.69
661.326	93.69
661.53	76.69
661.733	76.69
661.936	72.69
662.14	79.69
662.343	82.69
662.546	73.69
662.75	76.69
662.953	73.69
663.156	83.69
663.36	79.69
663.563	87.69
663.766	73.69
663.969	93.69
664.173	73.69
664.376	61.69
664.579	93.69
664.782	77.69
664.985	90.69
665.188	78.69
665.391	96.69
665.594	68.69
665.797	84.69
666	77.69
666.203	71.69
666.406	73.69
666.609	67.69
666.812	85.69
667.015	85.69
667.218	73.69
667.421	82.69
667.624	87.69
667.827	95.69
668.03	69.69
668.232	81.69
668.435	77.69
668.638	82.69
668.841	80.69
669.043	73.69
669.246	76.69
669.449	92.69
669.651	75.69
669.854	98.69
670.057	75.69
670.259	82.69
670.462	68.69
670.665	83.69
670.867	82.69
671.07	75.69
671.272	93.69
671.475	67.69
671.677	77.69
671.88	81.69
672.082	81.69
672.284	82.69
672.487	84.69
672.689	85.69
672.892	91.69
