Data from Location2.07152019.Energy5.Lamp.07192019.3%Agarose_HRD10591_14-55-55-358.txt Node
Date: Fri Jul 19 14:55:55 EDT 2019
User: cochatt
Spectrometer: HR+D1059
Trigger mode: 1
Integration Time (sec): 1.000000E-1
Scans to average: 1
Electric dark correction enabled: true
Nonlinearity correction enabled: false
Boxcar width: 0
XAxis mode: Wavelengths
Number of Pixels in Spectrum: 2048
>>>>>Begin Spectral Data<<<<<
223.165	-19.12
223.4	-19.12
223.635	-19.12
223.869	-28.12
224.104	-26.12
224.338	-14.12
224.573	-11.12
224.808	0.88
225.042	-6.12
225.277	-12.12
225.511	6.88
225.746	10.88
225.98	5.88
226.215	5.88
226.449	9.88
226.683	11.88
226.918	18.88
227.152	45.88
227.387	36.88
227.621	33.88
227.856	54.88
228.09	48.88
228.324	45.88
228.559	50.88
228.793	59.88
229.027	57.88
229.262	58.88
229.496	67.88
229.73	84.88
229.964	87.88
230.199	84.88
230.433	76.88
230.667	79.88
230.901	61.88
231.136	67.88
231.37	96.88
231.604	74.88
231.838	83.88
232.072	95.88
232.306	77.88
232.541	80.88
232.775	77.88
233.009	79.88
233.243	88.88
233.477	84.88
233.711	73.88
233.945	84.88
234.179	96.88
234.413	78.88
234.647	72.88
234.881	76.88
235.115	81.88
235.349	85.88
235.583	82.88
235.817	87.88
236.051	84.88
236.285	73.88
236.519	74.88
236.753	86.88
236.987	76.88
237.221	69.88
237.455	79.88
237.689	73.88
237.922	73.88
238.156	81.88
238.39	86.88
238.624	72.88
238.858	83.88
239.091	92.88
239.325	75.88
239.559	77.88
239.793	90.88
240.027	68.88
240.26	88.88
240.494	81.88
240.728	80.88
240.961	96.88
241.195	88.88
241.429	72.88
241.662	73.88
241.896	82.88
242.13	76.88
242.363	78.88
242.597	76.88
242.83	79.88
243.064	65.88
243.298	84.88
243.531	82.88
243.765	71.88
243.998	78.88
244.232	77.88
244.465	87.88
244.699	82.88
244.932	83.88
245.166	82.88
245.399	82.88
245.633	65.88
245.866	73.88
246.099	90.88
246.333	82.88
246.566	70.88
246.8	83.88
247.033	71.88
247.266	81.88
247.5	85.88
247.733	73.88
247.966	72.88
248.2	81.88
248.433	65.88
248.666	67.88
248.899	81.88
249.133	83.88
249.366	79.88
249.599	79.88
249.832	70.88
250.066	98.88
250.299	73.88
250.532	90.88
250.765	78.88
250.998	81.88
251.231	84.88
251.465	69.88
251.698	81.88
251.931	64.88
252.164	78.88
252.397	80.88
252.63	68.88
252.863	72.88
253.096	85.88
253.329	82.88
253.562	88.88
253.795	77.88
254.028	72.88
254.261	83.88
254.494	85.88
254.727	92.88
254.96	89.88
255.193	65.88
255.426	94.88
255.659	77.88
255.892	82.88
256.124	94.88
256.357	75.88
256.59	78.88
256.823	83.88
257.056	78.88
257.289	87.88
257.521	92.88
257.754	69.88
257.987	84.88
258.22	77.88
258.452	75.88
258.685	81.88
258.918	84.88
259.151	83.88
259.383	78.88
259.616	76.88
259.849	84.88
260.081	86.88
260.314	82.88
260.547	71.88
260.779	76.88
261.012	94.88
261.244	83.88
261.477	84.88
261.71	73.88
261.942	77.88
262.175	100.88
262.407	75.88
262.64	74.88
262.872	84.88
263.105	74.88
263.337	73.88
263.57	70.88
263.802	95.88
264.035	89.88
264.267	77.88
264.499	83.88
264.732	90.88
264.964	77.88
265.197	86.88
265.429	80.88
265.661	89.88
265.894	76.88
266.126	89.88
266.358	86.88
266.591	78.88
266.823	70.88
267.055	90.88
267.287	68.88
267.52	77.88
267.752	70.88
267.984	73.88
268.216	84.88
268.448	86.88
268.681	78.88
268.913	79.88
269.145	93.88
269.377	85.88
269.609	88.88
269.841	71.88
270.073	91.88
270.306	78.88
270.538	83.88
270.77	81.88
271.002	71.88
271.234	78.88
271.466	98.88
271.698	73.88
271.93	80.88
272.162	90.88
272.394	77.88
272.626	93.88
272.858	83.88
273.09	86.88
273.322	83.88
273.553	90.88
273.785	101.88
274.017	81.88
274.249	81.88
274.481	83.88
274.713	87.88
274.945	74.88
275.176	72.88
275.408	95.88
275.64	74.88
275.872	77.88
276.104	74.88
276.335	74.88
276.567	82.88
276.799	82.88
277.031	80.88
277.262	79.88
277.494	90.88
277.726	85.88
277.957	96.88
278.189	84.88
278.421	94.88
278.652	94.88
278.884	90.88
279.115	94.88
279.347	90.88
279.579	89.88
279.81	93.88
280.042	81.88
280.273	78.88
280.505	100.88
280.736	80.88
280.968	93.88
281.199	84.88
281.431	96.88
281.662	60.88
281.894	91.88
282.125	93.88
282.356	76.88
282.588	82.88
282.819	102.88
283.051	78.88
283.282	85.88
283.513	90.88
283.745	86.88
283.976	84.88
284.207	86.88
284.439	75.88
284.67	72.88
284.901	83.88
285.132	73.88
285.364	70.88
285.595	82.88
285.826	91.88
286.057	92.88
286.288	92.88
286.52	78.88
286.751	79.88
286.982	88.88
287.213	85.88
287.444	75.88
287.675	83.88
287.906	90.88
288.138	84.88
288.369	72.88
288.6	83.88
288.831	88.88
289.062	87.88
289.293	89.88
289.524	85.88
289.755	77.88
289.986	81.88
290.217	91.88
290.448	90.88
290.679	90.88
290.91	91.88
291.141	90.88
291.371	82.88
291.602	81.88
291.833	88.88
292.064	99.88
292.295	81.88
292.526	99.88
292.757	87.88
292.987	91.88
293.218	77.88
293.449	80.88
293.68	89.88
293.91	92.88
294.141	90.88
294.372	86.88
294.603	75.88
294.833	79.88
295.064	105.88
295.295	84.88
295.525	76.88
295.756	72.88
295.987	81.88
296.217	84.88
296.448	86.88
296.679	76.88
296.909	88.88
297.14	92.88
297.37	83.88
297.601	75.88
297.831	100.88
298.062	92.88
298.292	93.88
298.523	83.88
298.753	93.88
298.984	97.88
299.214	82.88
299.445	82.88
299.675	78.88
299.905	92.88
300.136	87.88
300.366	87.88
300.597	93.88
300.827	85.88
301.057	74.88
301.288	83.88
301.518	90.88
301.748	91.88
301.979	75.88
302.209	81.88
302.439	69.88
302.669	77.88
302.9	105.88
303.13	90.88
303.36	97.88
303.59	81.88
303.82	81.88
304.051	101.88
304.281	93.88
304.511	75.88
304.741	85.88
304.971	68.88
305.201	97.88
305.431	88.88
305.661	94.88
305.891	93.88
306.121	88.88
306.352	66.88
306.582	78.88
306.812	79.88
307.042	84.88
307.272	72.88
307.502	85.88
307.731	99.88
307.961	89.88
308.191	87.88
308.421	92.88
308.651	98.88
308.881	88.88
309.111	85.88
309.341	78.88
309.571	106.88
309.8	80.88
310.03	88.88
310.26	92.88
310.49	72.88
310.72	77.88
310.949	93.88
311.179	85.88
311.409	84.88
311.639	81.88
311.868	94.88
312.098	88.88
312.328	78.88
312.557	77.88
312.787	89.88
313.017	89.88
313.246	83.88
313.476	88.88
313.706	86.88
313.935	93.88
314.165	77.88
314.394	79.88
314.624	94.88
314.853	79.88
315.083	96.88
315.312	114.88
315.542	93.88
315.771	84.88
316.001	75.88
316.23	84.88
316.46	94.88
316.689	84.88
316.919	77.88
317.148	84.88
317.377	84.88
317.607	73.88
317.836	67.88
318.065	90.88
318.295	84.88
318.524	84.88
318.753	93.88
318.983	88.88
319.212	81.88
319.441	90.88
319.67	86.88
319.9	88.88
320.129	81.88
320.358	87.88
320.587	81.88
320.816	74.88
321.046	76.88
321.275	97.88
321.504	84.88
321.733	92.88
321.962	89.88
322.191	81.88
322.42	92.88
322.649	82.88
322.878	76.88
323.108	87.88
323.337	85.88
323.566	77.88
323.795	99.88
324.024	85.88
324.253	74.88
324.482	87.88
324.71	83.88
324.939	92.88
325.168	90.88
325.397	83.88
325.626	88.88
325.855	89.88
326.084	94.88
326.313	89.88
326.542	79.88
326.77	87.88
326.999	89.88
327.228	79.88
327.457	87.88
327.686	92.88
327.914	80.88
328.143	77.88
328.372	85.88
328.6	77.88
328.829	100.88
329.058	83.88
329.287	89.88
329.515	77.88
329.744	77.88
329.972	83.88
330.201	84.88
330.43	87.88
330.658	83.88
330.887	85.88
331.115	94.88
331.344	67.88
331.572	90.88
331.801	79.88
332.03	97.88
332.258	84.88
332.486	79.88
332.715	75.88
332.943	86.88
333.172	78.88
333.4	84.88
333.629	76.88
333.857	100.88
334.085	72.88
334.314	95.88
334.542	89.88
334.771	85.88
334.999	96.88
335.227	79.88
335.455	79.88
335.684	90.88
335.912	86.88
336.14	77.88
336.369	95.88
336.597	93.88
336.825	92.88
337.053	84.88
337.281	91.88
337.51	89.88
337.738	85.88
337.966	87.88
338.194	81.88
338.422	77.88
338.65	91.88
338.878	92.88
339.106	95.88
339.334	82.88
339.562	94.88
339.79	93.88
340.018	107.88
340.246	83.88
340.474	82.88
340.702	91.88
340.93	96.88
341.158	85.88
341.386	90.88
341.614	91.88
341.842	86.88
342.07	93.88
342.298	85.88
342.526	78.88
342.754	91.88
342.981	83.88
343.209	93.88
343.437	84.88
343.665	90.88
343.893	78.88
344.12	77.88
344.348	91.88
344.576	82.88
344.804	88.88
345.031	85.88
345.259	93.88
345.487	93.88
345.714	79.88
345.942	82.88
346.17	96.88
346.397	72.88
346.625	82.88
346.853	96.88
347.08	93.88
347.308	97.88
347.535	95.88
347.763	87.88
347.99	99.88
348.218	86.88
348.445	85.88
348.673	88.88
348.9	95.88
349.128	93.88
349.355	92.88
349.583	91.88
349.81	75.88
350.037	86.88
350.265	87.88
350.492	78.88
350.72	93.88
350.947	84.88
351.174	85.88
351.402	78.88
351.629	76.88
351.856	77.88
352.083	85.88
352.311	84.88
352.538	83.88
352.765	82.88
352.992	88.88
353.22	94.88
353.447	92.88
353.674	80.88
353.901	79.88
354.128	76.88
354.355	76.88
354.583	76.88
354.81	86.88
355.037	90.88
355.264	80.88
355.491	81.88
355.718	74.88
355.945	89.88
356.172	84.88
356.399	86.88
356.626	87.88
356.853	89.88
357.08	89.88
357.307	105.88
357.534	87.88
357.761	90.88
357.988	98.88
358.215	94.88
358.441	80.88
358.668	95.88
358.895	82.88
359.122	81.88
359.349	84.88
359.576	78.88
359.802	96.88
360.029	84.88
360.256	96.88
360.483	89.88
360.709	81.88
360.936	88.88
361.163	81.88
361.39	85.88
361.616	100.88
361.843	94.88
362.07	97.88
362.296	85.88
362.523	85.88
362.749	82.88
362.976	103.88
363.203	89.88
363.429	87.88
363.656	82.88
363.882	91.88
364.109	87.88
364.335	73.88
364.562	82.88
364.788	84.88
365.015	72.88
365.241	86.88
365.468	88.88
365.694	85.88
365.92	79.88
366.147	101.88
366.373	90.88
366.599	82.88
366.826	87.88
367.052	84.88
367.278	88.88
367.505	97.88
367.731	98.88
367.957	97.88
368.184	93.88
368.41	98.88
368.636	98.88
368.862	88.88
369.089	101.88
369.315	97.88
369.541	76.88
369.767	97.88
369.993	103.88
370.219	98.88
370.445	110.88
370.672	88.88
370.898	100.88
371.124	98.88
371.35	109.88
371.576	97.88
371.802	93.88
372.028	88.88
372.254	84.88
372.48	92.88
372.706	91.88
372.932	97.88
373.158	89.88
373.384	97.88
373.61	87.88
373.835	85.88
374.061	97.88
374.287	116.88
374.513	85.88
374.739	95.88
374.965	96.88
375.191	97.88
375.416	106.88
375.642	88.88
375.868	101.88
376.094	86.88
376.319	109.88
376.545	92.88
376.771	85.88
376.997	104.88
377.222	93.88
377.448	99.88
377.674	105.88
377.899	102.88
378.125	103.88
378.35	81.88
378.576	91.88
378.802	86.88
379.027	91.88
379.253	92.88
379.478	85.88
379.704	86.88
379.929	97.88
380.155	96.88
380.38	101.88
380.606	101.88
380.831	106.88
381.057	105.88
381.282	102.88
381.507	96.88
381.733	89.88
381.958	99.88
382.184	99.88
382.409	99.88
382.634	113.88
382.86	89.88
383.085	93.88
383.31	98.88
383.535	96.88
383.761	94.88
383.986	100.88
384.211	106.88
384.436	93.88
384.662	81.88
384.887	96.88
385.112	86.88
385.337	117.88
385.562	97.88
385.787	103.88
386.013	89.88
386.238	102.88
386.463	98.88
386.688	105.88
386.913	103.88
387.138	101.88
387.363	87.88
387.588	93.88
387.813	127.88
388.038	112.88
388.263	105.88
388.488	100.88
388.713	97.88
388.938	110.88
389.163	103.88
389.387	92.88
389.612	104.88
389.837	91.88
390.062	107.88
390.287	115.88
390.512	106.88
390.736	103.88
390.961	109.88
391.186	103.88
391.411	107.88
391.636	108.88
391.86	104.88
392.085	107.88
392.31	99.88
392.534	97.88
392.759	103.88
392.984	108.88
393.208	125.88
393.433	107.88
393.658	108.88
393.882	104.88
394.107	97.88
394.331	101.88
394.556	92.88
394.78	95.88
395.005	103.88
395.229	115.88
395.454	96.88
395.678	105.88
395.903	103.88
396.127	112.88
396.352	116.88
396.576	92.88
396.801	106.88
397.025	107.88
397.249	121.88
397.474	107.88
397.698	105.88
397.922	98.88
398.147	109.88
398.371	129.88
398.595	116.88
398.82	122.88
399.044	122.88
399.268	117.88
399.492	100.88
399.717	109.88
399.941	109.88
400.165	122.88
400.389	116.88
400.613	106.88
400.837	112.88
401.062	109.88
401.286	122.88
401.51	109.88
401.734	96.88
401.958	118.88
402.182	118.88
402.406	120.88
402.63	120.88
402.854	90.88
403.078	122.88
403.302	112.88
403.526	122.88
403.75	123.88
403.974	125.88
404.198	128.88
404.422	121.88
404.645	117.88
404.869	117.88
405.093	116.88
405.317	124.88
405.541	111.88
405.765	116.88
405.988	122.88
406.212	122.88
406.436	123.88
406.66	109.88
406.883	116.88
407.107	118.88
407.331	125.88
407.555	126.88
407.778	125.88
408.002	120.88
408.226	120.88
408.449	126.88
408.673	133.88
408.896	112.88
409.12	122.88
409.344	119.88
409.567	123.88
409.791	121.88
410.014	109.88
410.238	122.88
410.461	127.88
410.685	128.88
410.908	127.88
411.132	115.88
411.355	116.88
411.578	123.88
411.802	132.88
412.025	117.88
412.249	123.88
412.472	125.88
412.695	117.88
412.919	123.88
413.142	124.88
413.365	123.88
413.589	132.88
413.812	123.88
414.035	129.88
414.258	121.88
414.482	126.88
414.705	122.88
414.928	117.88
415.151	122.88
415.374	132.88
415.597	125.88
415.821	136.88
416.044	117.88
416.267	129.88
416.49	129.88
416.713	128.88
416.936	122.88
417.159	118.88
417.382	125.88
417.605	139.88
417.828	125.88
418.051	129.88
418.274	132.88
418.497	124.88
418.72	130.88
418.943	130.88
419.166	138.88
419.389	123.88
419.611	130.88
419.834	136.88
420.057	138.88
420.28	131.88
420.503	149.88
420.726	123.88
420.948	128.88
421.171	130.88
421.394	124.88
421.617	128.88
421.839	142.88
422.062	129.88
422.285	125.88
422.507	127.88
422.73	136.88
422.953	131.88
423.175	130.88
423.398	127.88
423.621	128.88
423.843	128.88
424.066	130.88
424.288	147.88
424.511	141.88
424.733	149.88
424.956	143.88
425.178	148.88
425.401	125.88
425.623	133.88
425.846	148.88
426.068	124.88
426.291	126.88
426.513	144.88
426.735	145.88
426.958	136.88
427.18	129.88
427.402	125.88
427.625	144.88
427.847	131.88
428.069	133.88
428.292	139.88
428.514	138.88
428.736	132.88
428.958	139.88
429.181	121.88
429.403	124.88
429.625	124.88
429.847	119.88
430.069	140.88
430.292	124.88
430.514	131.88
430.736	128.88
430.958	140.88
431.18	124.88
431.402	118.88
431.624	129.88
431.846	118.88
432.068	103.88
432.29	96.88
432.512	112.88
432.734	121.88
432.956	126.88
433.178	137.88
433.4	146.88
433.622	132.88
433.844	128.88
434.066	114.88
434.287	117.88
434.509	103.88
434.731	92.88
434.953	120.88
435.175	117.88
435.397	139.88
435.618	107.88
435.84	121.88
436.062	117.88
436.284	135.88
436.505	141.88
436.727	128.88
436.949	140.88
437.17	129.88
437.392	147.88
437.614	109.88
437.835	137.88
438.057	101.88
438.278	104.88
438.5	123.88
438.721	138.88
438.943	143.88
439.165	136.88
439.386	126.88
439.608	136.88
439.829	145.88
440.05	130.88
440.272	145.88
440.493	138.88
440.715	138.88
440.936	153.88
441.158	146.88
441.379	145.88
441.6	140.88
441.822	136.88
442.043	143.88
442.264	157.88
442.486	149.88
442.707	129.88
442.928	136.88
443.149	144.88
443.371	134.88
443.592	129.88
443.813	140.88
444.034	132.88
444.255	146.88
444.476	145.88
444.698	128.88
444.919	156.88
445.14	259.88
445.361	191.88
445.582	142.88
445.803	157.88
446.024	153.88
446.245	149.88
446.466	146.88
446.687	150.88
446.908	161.88
447.129	153.88
447.35	171.88
447.571	153.88
447.792	165.88
448.013	140.88
448.234	146.88
448.455	140.88
448.675	140.88
448.896	139.88
449.117	145.88
449.338	155.88
449.559	128.88
449.779	128.88
450	149.88
450.221	124.88
450.442	134.88
450.662	138.88
450.883	141.88
451.104	134.88
451.324	152.88
451.545	126.88
451.766	134.88
451.986	129.88
452.207	133.88
452.428	137.88
452.648	124.88
452.869	126.88
453.089	124.88
453.31	109.88
453.53	112.88
453.751	96.88
453.971	98.88
454.192	104.88
454.412	120.88
454.633	126.88
454.853	124.88
455.073	136.88
455.294	125.88
455.514	124.88
455.734	130.88
455.955	114.88
456.175	121.88
456.395	118.88
456.616	99.88
456.836	88.88
457.056	109.88
457.276	106.88
457.497	118.88
457.717	101.88
457.937	100.88
458.157	97.88
458.377	114.88
458.598	104.88
458.818	96.88
459.038	80.88
459.258	81.88
459.478	93.88
459.698	98.88
459.918	86.88
460.138	105.88
460.358	104.88
460.578	114.88
460.798	114.88
461.018	107.88
461.238	123.88
461.458	133.88
461.678	123.88
461.898	113.88
462.118	120.88
462.338	102.88
462.558	118.88
462.777	112.88
462.997	115.88
463.217	93.88
463.437	117.88
463.657	116.88
463.876	112.88
464.096	114.88
464.316	112.88
464.536	108.88
464.755	128.88
464.975	132.88
465.195	114.88
465.414	125.88
465.634	123.88
465.854	133.88
466.073	130.88
466.293	113.88
466.512	126.88
466.732	133.88
466.951	138.88
467.171	140.88
467.391	136.88
467.61	129.88
467.829	142.88
468.049	141.88
468.268	141.88
468.488	117.88
468.707	143.88
468.927	144.88
469.146	132.88
469.365	122.88
469.585	138.88
469.804	152.88
470.023	156.88
470.243	146.88
470.462	125.88
470.681	156.88
470.901	132.88
471.12	132.88
471.339	125.88
471.558	140.88
471.777	136.88
471.997	148.88
472.216	136.88
472.435	113.88
472.654	114.88
472.873	115.88
473.092	104.88
473.311	124.88
473.53	130.88
473.749	120.88
473.968	122.88
474.187	106.88
474.406	125.88
474.625	125.88
474.844	125.88
475.063	137.88
475.282	130.88
475.501	115.88
475.72	119.88
475.939	132.88
476.158	125.88
476.377	126.88
476.596	148.88
476.814	121.88
477.033	107.88
477.252	123.88
477.471	136.88
477.69	145.88
477.908	154.88
478.127	148.88
478.346	138.88
478.564	131.88
478.783	139.88
479.002	146.88
479.22	142.88
479.439	122.88
479.658	138.88
479.876	126.88
480.095	123.88
480.313	114.88
480.532	129.88
480.751	113.88
480.969	107.88
481.188	90.88
481.406	88.88
481.624	106.88
481.843	78.88
482.061	106.88
482.28	114.88
482.498	115.88
482.717	112.88
482.935	122.88
483.153	147.88
483.372	145.88
483.59	134.88
483.808	150.88
484.027	136.88
484.245	134.88
484.463	144.88
484.681	158.88
484.9	131.88
485.118	150.88
485.336	114.88
485.554	125.88
485.772	113.88
485.99	101.88
486.209	104.88
486.427	117.88
486.645	128.88
486.863	142.88
487.081	148.88
487.299	137.88
487.517	134.88
487.735	152.88
487.953	174.88
488.171	173.88
488.389	177.88
488.607	166.88
488.825	155.88
489.043	123.88
489.261	124.88
489.479	133.88
489.696	145.88
489.914	157.88
490.132	152.88
490.35	149.88
490.568	165.88
490.786	168.88
491.003	172.88
491.221	183.88
491.439	188.88
491.657	181.88
491.874	212.88
492.092	229.88
492.31	240.88
492.527	234.88
492.745	207.88
492.963	200.88
493.18	179.88
493.398	168.88
493.615	179.88
493.833	184.88
494.05	163.88
494.268	166.88
494.485	164.88
494.703	169.88
494.92	162.88
495.138	170.88
495.355	174.88
495.573	178.88
495.79	168.88
496.008	186.88
496.225	170.88
496.442	161.88
496.66	179.88
496.877	168.88
497.094	171.88
497.312	162.88
497.529	156.88
497.746	158.88
497.963	128.88
498.181	139.88
498.398	126.88
498.615	119.88
498.832	129.88
499.049	132.88
499.267	132.88
499.484	129.88
499.701	140.88
499.918	132.88
500.135	138.88
500.352	151.88
500.569	143.88
500.786	146.88
501.003	164.88
501.22	126.88
501.437	137.88
501.654	146.88
501.871	141.88
502.088	137.88
502.305	133.88
502.522	135.88
502.739	138.88
502.956	128.88
503.172	117.88
503.389	117.88
503.606	122.88
503.823	123.88
504.04	113.88
504.256	112.88
504.473	125.88
504.69	125.88
504.907	132.88
505.123	131.88
505.34	115.88
505.557	133.88
505.773	125.88
505.99	137.88
506.207	125.88
506.423	120.88
506.64	123.88
506.856	128.88
507.073	121.88
507.289	124.88
507.506	124.88
507.722	123.88
507.939	127.88
508.155	115.88
508.372	115.88
508.588	109.88
508.805	125.88
509.021	105.88
509.238	102.88
509.454	100.88
509.67	108.88
509.887	98.88
510.103	104.88
510.319	103.88
510.536	88.88
510.752	93.88
510.968	83.88
511.184	85.88
511.401	97.88
511.617	94.88
511.833	82.88
512.049	98.88
512.265	103.88
512.481	94.88
512.698	111.88
512.914	96.88
513.13	92.88
513.346	90.88
513.562	109.88
513.778	109.88
513.994	100.88
514.21	85.88
514.426	117.88
514.642	106.88
514.858	90.88
515.074	87.88
515.29	112.88
515.506	103.88
515.721	84.88
515.937	80.88
516.153	72.88
516.369	84.88
516.585	81.88
516.801	78.88
517.016	87.88
517.232	101.88
517.448	97.88
517.664	99.88
517.879	106.88
518.095	94.88
518.311	86.88
518.527	98.88
518.742	102.88
518.958	91.88
519.173	99.88
519.389	108.88
519.605	96.88
519.82	119.88
520.036	109.88
520.251	106.88
520.467	120.88
520.682	98.88
520.898	101.88
521.113	99.88
521.329	88.88
521.544	88.88
521.76	100.88
521.975	94.88
522.19	95.88
522.406	97.88
522.621	120.88
522.836	118.88
523.052	109.88
523.267	112.88
523.482	110.88
523.698	103.88
523.913	116.88
524.128	126.88
524.343	108.88
524.559	112.88
524.774	118.88
524.989	135.88
525.204	124.88
525.419	134.88
525.634	122.88
525.849	127.88
526.064	114.88
526.28	96.88
526.495	101.88
526.71	88.88
526.925	97.88
527.14	87.88
527.355	98.88
527.57	78.88
527.785	90.88
527.999	91.88
528.214	104.88
528.429	107.88
528.644	134.88
528.859	143.88
529.074	148.88
529.289	155.88
529.503	154.88
529.718	134.88
529.933	129.88
530.148	113.88
530.363	94.88
530.577	84.88
530.792	75.88
531.007	81.88
531.221	100.88
531.436	80.88
531.651	90.88
531.865	90.88
532.08	91.88
532.295	89.88
532.509	85.88
532.724	98.88
532.938	91.88
533.153	100.88
533.367	114.88
533.582	117.88
533.796	109.88
534.011	99.88
534.225	93.88
534.44	88.88
534.654	98.88
534.868	104.88
535.083	110.88
535.297	101.88
535.511	114.88
535.726	113.88
535.94	117.88
536.154	120.88
536.369	90.88
536.583	82.88
536.797	93.88
537.011	101.88
537.225	90.88
537.44	103.88
537.654	101.88
537.868	96.88
538.082	104.88
538.296	85.88
538.51	95.88
538.724	113.88
538.938	122.88
539.153	125.88
539.367	114.88
539.581	127.88
539.795	108.88
540.009	114.88
540.222	109.88
540.436	95.88
540.65	125.88
540.864	124.88
541.078	140.88
541.292	149.88
541.506	160.88
541.72	174.88
541.934	189.88
542.147	202.88
542.361	188.88
542.575	166.88
542.789	147.88
543.002	143.88
543.216	133.88
543.43	141.88
543.644	139.88
543.857	151.88
544.071	164.88
544.285	178.88
544.498	160.88
544.712	169.88
544.925	160.88
545.139	157.88
545.352	158.88
545.566	142.88
545.779	161.88
545.993	177.88
546.206	158.88
546.42	163.88
546.633	163.88
546.847	168.88
547.06	177.88
547.274	175.88
547.487	164.88
547.7	158.88
547.914	170.88
548.127	165.88
548.34	168.88
548.554	165.88
548.767	154.88
548.98	165.88
549.193	159.88
549.407	173.88
549.62	150.88
549.833	155.88
550.046	162.88
550.259	157.88
550.473	156.88
550.686	157.88
550.899	160.88
551.112	150.88
551.325	143.88
551.538	144.88
551.751	125.88
551.964	115.88
552.177	134.88
552.39	126.88
552.603	145.88
552.816	154.88
553.029	154.88
553.242	159.88
553.455	151.88
553.667	164.88
553.88	145.88
554.093	164.88
554.306	162.88
554.519	152.88
554.732	151.88
554.944	146.88
555.157	144.88
555.37	155.88
555.583	141.88
555.795	145.88
556.008	147.88
556.221	129.88
556.433	125.88
556.646	120.88
556.859	142.88
557.071	140.88
557.284	146.88
557.496	138.88
557.709	146.88
557.921	154.88
558.134	145.88
558.346	153.88
558.559	129.88
558.771	152.88
558.984	135.88
559.196	143.88
559.409	146.88
559.621	133.88
559.833	135.88
560.046	137.88
560.258	121.88
560.47	129.88
560.683	128.88
560.895	124.88
561.107	139.88
561.32	128.88
561.532	122.88
561.744	124.88
561.956	126.88
562.168	125.88
562.381	133.88
562.593	142.88
562.805	133.88
563.017	128.88
563.229	139.88
563.441	141.88
563.653	119.88
563.865	139.88
564.077	127.88
564.289	119.88
564.501	132.88
564.713	127.88
564.925	119.88
565.137	116.88
565.349	130.88
565.561	119.88
565.773	120.88
565.985	113.88
566.197	124.88
566.408	115.88
566.62	118.88
566.832	118.88
567.044	113.88
567.255	119.88
567.467	139.88
567.679	108.88
567.891	104.88
568.102	92.88
568.314	96.88
568.526	94.88
568.737	91.88
568.949	91.88
569.161	92.88
569.372	89.88
569.584	89.88
569.795	90.88
570.007	84.88
570.218	94.88
570.43	79.88
570.641	90.88
570.853	93.88
571.064	95.88
571.276	96.88
571.487	100.88
571.698	122.88
571.91	109.88
572.121	103.88
572.333	96.88
572.544	102.88
572.755	90.88
572.966	99.88
573.178	87.88
573.389	90.88
573.6	86.88
573.811	91.88
574.023	99.88
574.234	93.88
574.445	103.88
574.656	89.88
574.867	104.88
575.078	94.88
575.289	82.88
575.501	100.88
575.712	106.88
575.923	84.88
576.134	108.88
576.345	93.88
576.556	103.88
576.767	100.88
576.978	104.88
577.188	107.88
577.399	102.88
577.61	93.88
577.821	94.88
578.032	93.88
578.243	99.88
578.454	112.88
578.665	102.88
578.875	98.88
579.086	101.88
579.297	103.88
579.508	94.88
579.718	78.88
579.929	87.88
580.14	98.88
580.35	82.88
580.561	82.88
580.772	77.88
580.982	85.88
581.193	88.88
581.403	94.88
581.614	107.88
581.825	84.88
582.035	88.88
582.246	96.88
582.456	100.88
582.667	90.88
582.877	93.88
583.087	92.88
583.298	100.88
583.508	88.88
583.719	87.88
583.929	100.88
584.139	82.88
584.35	82.88
584.56	85.88
584.77	91.88
584.981	93.88
585.191	94.88
585.401	89.88
585.611	75.88
585.821	79.88
586.032	93.88
586.242	105.88
586.452	99.88
586.662	88.88
586.872	100.88
587.082	97.88
587.292	84.88
587.502	85.88
587.713	88.88
587.923	83.88
588.133	91.88
588.343	98.88
588.553	89.88
588.762	94.88
588.972	93.88
589.182	86.88
589.392	97.88
589.602	85.88
589.812	78.88
590.022	87.88
590.232	84.88
590.441	80.88
590.651	82.88
590.861	82.88
591.071	112.88
591.281	68.88
591.49	78.88
591.7	83.88
591.91	95.88
592.119	82.88
592.329	75.88
592.539	103.88
592.748	99.88
592.958	75.88
593.167	82.88
593.377	96.88
593.587	101.88
593.796	90.88
594.006	88.88
594.215	71.88
594.424	102.88
594.634	84.88
594.843	105.88
595.053	78.88
595.262	104.88
595.472	106.88
595.681	99.88
595.89	93.88
596.1	97.88
596.309	91.88
596.518	91.88
596.727	100.88
596.937	103.88
597.146	100.88
597.355	96.88
597.564	92.88
597.774	103.88
597.983	88.88
598.192	89.88
598.401	90.88
598.61	82.88
598.819	75.88
599.028	95.88
599.237	93.88
599.446	103.88
599.655	93.88
599.864	93.88
600.073	99.88
600.282	108.88
600.491	93.88
600.7	92.88
600.909	93.88
601.118	109.88
601.327	116.88
601.536	116.88
601.745	120.88
601.953	119.88
602.162	114.88
602.371	110.88
602.58	121.88
602.789	116.88
602.997	117.88
603.206	123.88
603.415	117.88
603.623	105.88
603.832	116.88
604.041	106.88
604.249	96.88
604.458	97.88
604.666	97.88
604.875	104.88
605.084	110.88
605.292	113.88
605.501	114.88
605.709	112.88
605.918	109.88
606.126	116.88
606.334	124.88
606.543	122.88
606.751	120.88
606.96	129.88
607.168	116.88
607.376	110.88
607.585	120.88
607.793	102.88
608.001	108.88
608.21	118.88
608.418	108.88
608.626	120.88
608.834	112.88
609.043	109.88
609.251	125.88
609.459	126.88
609.667	120.88
609.875	116.88
610.083	110.88
610.291	122.88
610.499	121.88
610.707	133.88
610.916	121.88
611.124	108.88
611.332	124.88
611.54	121.88
611.748	118.88
611.955	113.88
612.163	115.88
612.371	125.88
612.579	107.88
612.787	120.88
612.995	120.88
613.203	113.88
613.411	121.88
613.618	116.88
613.826	118.88
614.034	116.88
614.242	113.88
614.449	119.88
614.657	122.88
614.865	112.88
615.072	113.88
615.28	106.88
615.488	103.88
615.695	97.88
615.903	113.88
616.111	103.88
616.318	113.88
616.526	107.88
616.733	129.88
616.941	122.88
617.148	125.88
617.356	101.88
617.563	108.88
617.771	123.88
617.978	106.88
618.185	125.88
618.393	106.88
618.6	119.88
618.807	99.88
619.015	120.88
619.222	107.88
619.429	112.88
619.637	114.88
619.844	94.88
620.051	103.88
620.258	97.88
620.466	108.88
620.673	107.88
620.88	119.88
621.087	101.88
621.294	118.88
621.501	107.88
621.708	106.88
621.915	105.88
622.122	115.88
622.329	110.88
622.536	110.88
622.743	120.88
622.95	116.88
623.157	117.88
623.364	117.88
623.571	103.88
623.778	109.88
623.985	98.88
624.192	117.88
624.399	101.88
624.606	115.88
624.812	120.88
625.019	97.88
625.226	96.88
625.433	123.88
625.639	91.88
625.846	89.88
626.053	117.88
626.259	86.88
626.466	96.88
626.673	91.88
626.879	94.88
627.086	98.88
627.293	97.88
627.499	92.88
627.706	107.88
627.912	109.88
628.119	113.88
628.325	107.88
628.532	100.88
628.738	108.88
628.945	108.88
629.151	120.88
629.357	97.88
629.564	108.88
629.77	104.88
629.976	116.88
630.183	104.88
630.389	102.88
630.595	105.88
630.802	93.88
631.008	109.88
631.214	104.88
631.42	109.88
631.627	107.88
631.833	114.88
632.039	110.88
632.245	92.88
632.451	102.88
632.657	98.88
632.863	110.88
633.069	106.88
633.275	103.88
633.481	106.88
633.688	94.88
633.893	115.88
634.099	107.88
634.305	97.88
634.511	110.88
634.717	88.88
634.923	103.88
635.129	85.88
635.335	119.88
635.541	91.88
635.747	93.88
635.952	100.88
636.158	95.88
636.364	116.88
636.57	113.88
636.775	96.88
636.981	108.88
637.187	103.88
637.392	106.88
637.598	105.88
637.804	111.88
638.009	98.88
638.215	106.88
638.421	92.88
638.626	116.88
638.832	109.88
639.037	90.88
639.243	97.88
639.448	107.88
639.654	101.88
639.859	102.88
640.065	113.88
640.27	109.88
640.475	96.88
640.681	118.88
640.886	100.88
641.091	110.88
641.297	88.88
641.502	105.88
641.707	98.88
641.913	95.88
642.118	103.88
642.323	103.88
642.528	110.88
642.733	100.88
642.939	100.88
643.144	86.88
643.349	107.88
643.554	93.88
643.759	99.88
643.964	95.88
644.169	113.88
644.374	98.88
644.579	102.88
644.784	102.88
644.989	100.88
645.194	110.88
645.399	101.88
645.604	101.88
645.809	100.88
646.014	94.88
646.219	93.88
646.423	101.88
646.628	93.88
646.833	87.88
647.038	108.88
647.243	121.88
647.447	97.88
647.652	97.88
647.857	96.88
648.062	99.88
648.266	93.88
648.471	98.88
648.676	83.88
648.88	86.88
649.085	112.88
649.289	102.88
649.494	102.88
649.698	104.88
649.903	93.88
650.107	107.88
650.312	112.88
650.516	90.88
650.721	90.88
650.925	94.88
651.13	98.88
651.334	105.88
651.539	88.88
651.743	111.88
651.947	106.88
652.152	110.88
652.356	101.88
652.56	97.88
652.764	93.88
652.969	106.88
653.173	92.88
653.377	96.88
653.581	94.88
653.785	99.88
653.99	105.88
654.194	93.88
654.398	89.88
654.602	84.88
654.806	96.88
655.01	89.88
655.214	97.88
655.418	92.88
655.622	84.88
655.826	87.88
656.03	97.88
656.234	90.88
656.438	81.88
656.642	88.88
656.846	82.88
657.049	92.88
657.253	85.88
657.457	92.88
657.661	97.88
657.865	87.88
658.068	89.88
658.272	100.88
658.476	96.88
658.68	86.88
658.883	83.88
659.087	92.88
659.291	84.88
659.494	94.88
659.698	93.88
659.901	85.88
660.105	92.88
660.309	92.88
660.512	89.88
660.716	86.88
660.919	89.88
661.123	88.88
661.326	80.88
661.53	95.88
661.733	85.88
661.936	88.88
662.14	78.88
662.343	78.88
662.546	88.88
662.75	68.88
662.953	77.88
663.156	100.88
663.36	85.88
663.563	98.88
663.766	92.88
663.969	80.88
664.173	78.88
664.376	85.88
664.579	73.88
664.782	75.88
664.985	79.88
665.188	84.88
665.391	92.88
665.594	77.88
665.797	92.88
666	94.88
666.203	89.88
666.406	89.88
666.609	81.88
666.812	79.88
667.015	88.88
667.218	73.88
667.421	80.88
667.624	73.88
667.827	94.88
668.03	74.88
668.232	94.88
668.435	82.88
668.638	83.88
668.841	73.88
669.043	75.88
669.246	85.88
669.449	90.88
669.651	81.88
669.854	77.88
670.057	95.88
670.259	96.88
670.462	85.88
670.665	73.88
670.867	80.88
671.07	98.88
671.272	81.88
671.475	83.88
671.677	78.88
671.88	87.88
672.082	68.88
672.284	77.88
672.487	91.88
672.689	77.88
672.892	74.88
