Data from Location2.07152019.Energy5.Lamp.07192019.3%Agarose_HRD10591_14-57-51-358.txt Node
Date: Fri Jul 19 14:57:51 EDT 2019
User: cochatt
Spectrometer: HR+D1059
Trigger mode: 1
Integration Time (sec): 1.000000E-1
Scans to average: 1
Electric dark correction enabled: true
Nonlinearity correction enabled: false
Boxcar width: 0
XAxis mode: Wavelengths
Number of Pixels in Spectrum: 2048
>>>>>Begin Spectral Data<<<<<
223.165	-13.31
223.4	-13.31
223.635	-13.31
223.869	-12.31
224.104	-30.31
224.338	-9.31
224.573	-13.31
224.808	-6.31
225.042	-15.31
225.277	3.69
225.511	-2.31
225.746	-6.31
225.98	5.69
226.215	-3.31
226.449	18.69
226.683	17.69
226.918	33.69
227.152	32.69
227.387	28.69
227.621	38.69
227.856	42.69
228.09	34.69
228.324	49.69
228.559	50.69
228.793	63.69
229.027	49.69
229.262	75.69
229.496	67.69
229.73	66.69
229.964	74.69
230.199	68.69
230.433	74.69
230.667	76.69
230.901	77.69
231.136	86.69
231.37	86.69
231.604	68.69
231.838	85.69
232.072	80.69
232.306	83.69
232.541	101.69
232.775	74.69
233.009	77.69
233.243	92.69
233.477	86.69
233.711	78.69
233.945	88.69
234.179	78.69
234.413	87.69
234.647	82.69
234.881	88.69
235.115	81.69
235.349	72.69
235.583	81.69
235.817	78.69
236.051	66.69
236.285	78.69
236.519	76.69
236.753	70.69
236.987	69.69
237.221	72.69
237.455	76.69
237.689	78.69
237.922	75.69
238.156	92.69
238.39	86.69
238.624	94.69
238.858	82.69
239.091	78.69
239.325	78.69
239.559	68.69
239.793	66.69
240.027	71.69
240.26	87.69
240.494	84.69
240.728	71.69
240.961	72.69
241.195	84.69
241.429	75.69
241.662	79.69
241.896	79.69
242.13	82.69
242.363	67.69
242.597	75.69
242.83	84.69
243.064	75.69
243.298	85.69
243.531	72.69
243.765	88.69
243.998	86.69
244.232	75.69
244.465	76.69
244.699	73.69
244.932	75.69
245.166	71.69
245.399	89.69
245.633	67.69
245.866	74.69
246.099	68.69
246.333	72.69
246.566	89.69
246.8	76.69
247.033	89.69
247.266	87.69
247.5	84.69
247.733	78.69
247.966	78.69
248.2	92.69
248.433	62.69
248.666	91.69
248.899	81.69
249.133	71.69
249.366	83.69
249.599	72.69
249.832	88.69
250.066	82.69
250.299	77.69
250.532	84.69
250.765	79.69
250.998	64.69
251.231	76.69
251.465	80.69
251.698	84.69
251.931	78.69
252.164	86.69
252.397	84.69
252.63	84.69
252.863	80.69
253.096	76.69
253.329	91.69
253.562	58.69
253.795	90.69
254.028	96.69
254.261	71.69
254.494	76.69
254.727	73.69
254.96	84.69
255.193	81.69
255.426	67.69
255.659	77.69
255.892	84.69
256.124	87.69
256.357	77.69
256.59	91.69
256.823	84.69
257.056	77.69
257.289	70.69
257.521	77.69
257.754	74.69
257.987	84.69
258.22	77.69
258.452	90.69
258.685	71.69
258.918	76.69
259.151	74.69
259.383	87.69
259.616	78.69
259.849	79.69
260.081	70.69
260.314	64.69
260.547	65.69
260.779	83.69
261.012	82.69
261.244	93.69
261.477	82.69
261.71	84.69
261.942	74.69
262.175	81.69
262.407	63.69
262.64	68.69
262.872	68.69
263.105	76.69
263.337	83.69
263.57	73.69
263.802	75.69
264.035	71.69
264.267	84.69
264.499	81.69
264.732	84.69
264.964	81.69
265.197	83.69
265.429	76.69
265.661	88.69
265.894	81.69
266.126	98.69
266.358	90.69
266.591	78.69
266.823	84.69
267.055	74.69
267.287	74.69
267.52	84.69
267.752	71.69
267.984	100.69
268.216	78.69
268.448	83.69
268.681	79.69
268.913	77.69
269.145	89.69
269.377	88.69
269.609	90.69
269.841	78.69
270.073	89.69
270.306	85.69
270.538	85.69
270.77	81.69
271.002	89.69
271.234	80.69
271.466	92.69
271.698	92.69
271.93	79.69
272.162	86.69
272.394	75.69
272.626	75.69
272.858	86.69
273.09	80.69
273.322	82.69
273.553	76.69
273.785	88.69
274.017	95.69
274.249	82.69
274.481	97.69
274.713	89.69
274.945	88.69
275.176	88.69
275.408	81.69
275.64	90.69
275.872	91.69
276.104	89.69
276.335	82.69
276.567	74.69
276.799	82.69
277.031	71.69
277.262	78.69
277.494	91.69
277.726	94.69
277.957	83.69
278.189	84.69
278.421	80.69
278.652	76.69
278.884	93.69
279.115	85.69
279.347	73.69
279.579	82.69
279.81	80.69
280.042	84.69
280.273	93.69
280.505	81.69
280.736	76.69
280.968	85.69
281.199	90.69
281.431	96.69
281.662	69.69
281.894	83.69
282.125	89.69
282.356	81.69
282.588	94.69
282.819	97.69
283.051	90.69
283.282	78.69
283.513	88.69
283.745	81.69
283.976	77.69
284.207	71.69
284.439	95.69
284.67	80.69
284.901	76.69
285.132	81.69
285.364	87.69
285.595	96.69
285.826	79.69
286.057	86.69
286.288	80.69
286.52	80.69
286.751	87.69
286.982	94.69
287.213	88.69
287.444	78.69
287.675	69.69
287.906	97.69
288.138	84.69
288.369	83.69
288.6	93.69
288.831	82.69
289.062	93.69
289.293	84.69
289.524	90.69
289.755	79.69
289.986	80.69
290.217	74.69
290.448	82.69
290.679	73.69
290.91	97.69
291.141	80.69
291.371	89.69
291.602	88.69
291.833	84.69
292.064	83.69
292.295	87.69
292.526	94.69
292.757	94.69
292.987	65.69
293.218	87.69
293.449	90.69
293.68	87.69
293.91	75.69
294.141	85.69
294.372	75.69
294.603	65.69
294.833	75.69
295.064	67.69
295.295	98.69
295.525	84.69
295.756	83.69
295.987	82.69
296.217	80.69
296.448	101.69
296.679	83.69
296.909	81.69
297.14	87.69
297.37	92.69
297.601	81.69
297.831	86.69
298.062	87.69
298.292	81.69
298.523	101.69
298.753	84.69
298.984	78.69
299.214	94.69
299.445	90.69
299.675	82.69
299.905	92.69
300.136	85.69
300.366	76.69
300.597	94.69
300.827	94.69
301.057	77.69
301.288	85.69
301.518	70.69
301.748	92.69
301.979	85.69
302.209	72.69
302.439	81.69
302.669	84.69
302.9	77.69
303.13	80.69
303.36	77.69
303.59	81.69
303.82	88.69
304.051	83.69
304.281	86.69
304.511	93.69
304.741	89.69
304.971	84.69
305.201	88.69
305.431	81.69
305.661	92.69
305.891	85.69
306.121	74.69
306.352	91.69
306.582	92.69
306.812	83.69
307.042	87.69
307.272	89.69
307.502	82.69
307.731	69.69
307.961	95.69
308.191	87.69
308.421	80.69
308.651	89.69
308.881	84.69
309.111	97.69
309.341	86.69
309.571	79.69
309.8	92.69
310.03	91.69
310.26	64.69
310.49	92.69
310.72	83.69
310.949	93.69
311.179	81.69
311.409	76.69
311.639	70.69
311.868	78.69
312.098	83.69
312.328	88.69
312.557	85.69
312.787	85.69
313.017	82.69
313.246	77.69
313.476	83.69
313.706	84.69
313.935	88.69
314.165	65.69
314.394	87.69
314.624	85.69
314.853	76.69
315.083	83.69
315.312	81.69
315.542	87.69
315.771	87.69
316.001	97.69
316.23	89.69
316.46	92.69
316.689	75.69
316.919	82.69
317.148	81.69
317.377	92.69
317.607	92.69
317.836	85.69
318.065	82.69
318.295	101.69
318.524	70.69
318.753	82.69
318.983	88.69
319.212	76.69
319.441	73.69
319.67	92.69
319.9	88.69
320.129	85.69
320.358	80.69
320.587	92.69
320.816	83.69
321.046	83.69
321.275	87.69
321.504	68.69
321.733	80.69
321.962	88.69
322.191	88.69
322.42	85.69
322.649	92.69
322.878	85.69
323.108	85.69
323.337	91.69
323.566	99.69
323.795	69.69
324.024	91.69
324.253	92.69
324.482	87.69
324.71	89.69
324.939	88.69
325.168	96.69
325.397	82.69
325.626	97.69
325.855	75.69
326.084	91.69
326.313	86.69
326.542	77.69
326.77	83.69
326.999	74.69
327.228	96.69
327.457	87.69
327.686	89.69
327.914	78.69
328.143	74.69
328.372	87.69
328.6	87.69
328.829	79.69
329.058	71.69
329.287	83.69
329.515	81.69
329.744	92.69
329.972	92.69
330.201	95.69
330.43	88.69
330.658	95.69
330.887	87.69
331.115	87.69
331.344	85.69
331.572	80.69
331.801	69.69
332.03	86.69
332.258	86.69
332.486	73.69
332.715	83.69
332.943	90.69
333.172	95.69
333.4	98.69
333.629	89.69
333.857	78.69
334.085	78.69
334.314	96.69
334.542	93.69
334.771	76.69
334.999	69.69
335.227	88.69
335.455	94.69
335.684	77.69
335.912	92.69
336.14	69.69
336.369	95.69
336.597	92.69
336.825	98.69
337.053	91.69
337.281	89.69
337.51	86.69
337.738	99.69
337.966	91.69
338.194	92.69
338.422	87.69
338.65	94.69
338.878	95.69
339.106	87.69
339.334	96.69
339.562	70.69
339.79	81.69
340.018	74.69
340.246	85.69
340.474	91.69
340.702	92.69
340.93	83.69
341.158	91.69
341.386	92.69
341.614	98.69
341.842	82.69
342.07	72.69
342.298	86.69
342.526	84.69
342.754	88.69
342.981	80.69
343.209	83.69
343.437	84.69
343.665	86.69
343.893	80.69
344.12	89.69
344.348	84.69
344.576	76.69
344.804	89.69
345.031	83.69
345.259	80.69
345.487	90.69
345.714	83.69
345.942	80.69
346.17	94.69
346.397	73.69
346.625	79.69
346.853	73.69
347.08	88.69
347.308	95.69
347.535	85.69
347.763	84.69
347.99	102.69
348.218	77.69
348.445	86.69
348.673	84.69
348.9	89.69
349.128	76.69
349.355	92.69
349.583	86.69
349.81	92.69
350.037	82.69
350.265	89.69
350.492	95.69
350.72	89.69
350.947	95.69
351.174	77.69
351.402	91.69
351.629	95.69
351.856	83.69
352.083	99.69
352.311	89.69
352.538	82.69
352.765	90.69
352.992	91.69
353.22	88.69
353.447	92.69
353.674	75.69
353.901	86.69
354.128	87.69
354.355	76.69
354.583	77.69
354.81	76.69
355.037	96.69
355.264	87.69
355.491	87.69
355.718	81.69
355.945	76.69
356.172	81.69
356.399	91.69
356.626	87.69
356.853	82.69
357.08	100.69
357.307	103.69
357.534	77.69
357.761	77.69
357.988	80.69
358.215	87.69
358.441	71.69
358.668	88.69
358.895	81.69
359.122	87.69
359.349	82.69
359.576	74.69
359.802	84.69
360.029	67.69
360.256	92.69
360.483	89.69
360.709	73.69
360.936	96.69
361.163	89.69
361.39	73.69
361.616	88.69
361.843	84.69
362.07	78.69
362.296	101.69
362.523	84.69
362.749	89.69
362.976	86.69
363.203	92.69
363.429	80.69
363.656	83.69
363.882	79.69
364.109	90.69
364.335	78.69
364.562	87.69
364.788	86.69
365.015	83.69
365.241	76.69
365.468	85.69
365.694	79.69
365.92	79.69
366.147	98.69
366.373	93.69
366.599	89.69
366.826	83.69
367.052	75.69
367.278	84.69
367.505	96.69
367.731	96.69
367.957	90.69
368.184	107.69
368.41	88.69
368.636	97.69
368.862	106.69
369.089	76.69
369.315	100.69
369.541	105.69
369.767	92.69
369.993	89.69
370.219	100.69
370.445	103.69
370.672	93.69
370.898	100.69
371.124	84.69
371.35	96.69
371.576	105.69
371.802	83.69
372.028	90.69
372.254	99.69
372.48	90.69
372.706	91.69
372.932	86.69
373.158	90.69
373.384	86.69
373.61	92.69
373.835	83.69
374.061	95.69
374.287	93.69
374.513	90.69
374.739	92.69
374.965	86.69
375.191	81.69
375.416	92.69
375.642	99.69
375.868	87.69
376.094	107.69
376.319	100.69
376.545	93.69
376.771	94.69
376.997	108.69
377.222	104.69
377.448	96.69
377.674	101.69
377.899	101.69
378.125	92.69
378.35	87.69
378.576	100.69
378.802	112.69
379.027	89.69
379.253	105.69
379.478	101.69
379.704	78.69
379.929	94.69
380.155	96.69
380.38	101.69
380.606	83.69
380.831	86.69
381.057	107.69
381.282	93.69
381.507	104.69
381.733	93.69
381.958	100.69
382.184	101.69
382.409	103.69
382.634	93.69
382.86	104.69
383.085	101.69
383.31	93.69
383.535	91.69
383.761	92.69
383.986	103.69
384.211	106.69
384.436	100.69
384.662	97.69
384.887	86.69
385.112	90.69
385.337	101.69
385.562	101.69
385.787	114.69
386.013	105.69
386.238	101.69
386.463	104.69
386.688	97.69
386.913	106.69
387.138	97.69
387.363	107.69
387.588	115.69
387.813	103.69
388.038	118.69
388.263	96.69
388.488	97.69
388.713	116.69
388.938	99.69
389.163	96.69
389.387	106.69
389.612	88.69
389.837	108.69
390.062	91.69
390.287	94.69
390.512	102.69
390.736	102.69
390.961	103.69
391.186	100.69
391.411	99.69
391.636	90.69
391.86	113.69
392.085	112.69
392.31	113.69
392.534	122.69
392.759	99.69
392.984	111.69
393.208	113.69
393.433	91.69
393.658	91.69
393.882	105.69
394.107	114.69
394.331	110.69
394.556	108.69
394.78	111.69
395.005	111.69
395.229	117.69
395.454	118.69
395.678	107.69
395.903	113.69
396.127	117.69
396.352	110.69
396.576	106.69
396.801	101.69
397.025	104.69
397.249	107.69
397.474	97.69
397.698	100.69
397.922	99.69
398.147	101.69
398.371	102.69
398.595	119.69
398.82	99.69
399.044	111.69
399.268	123.69
399.492	116.69
399.717	111.69
399.941	98.69
400.165	117.69
400.389	108.69
400.613	104.69
400.837	97.69
401.062	112.69
401.286	120.69
401.51	111.69
401.734	126.69
401.958	120.69
402.182	114.69
402.406	118.69
402.63	99.69
402.854	124.69
403.078	121.69
403.302	99.69
403.526	104.69
403.75	131.69
403.974	108.69
404.198	116.69
404.422	107.69
404.645	119.69
404.869	108.69
405.093	116.69
405.317	121.69
405.541	124.69
405.765	103.69
405.988	121.69
406.212	120.69
406.436	116.69
406.66	115.69
406.883	131.69
407.107	114.69
407.331	112.69
407.555	123.69
407.778	127.69
408.002	115.69
408.226	125.69
408.449	124.69
408.673	116.69
408.896	131.69
409.12	115.69
409.344	114.69
409.567	132.69
409.791	124.69
410.014	123.69
410.238	128.69
410.461	123.69
410.685	140.69
410.908	115.69
411.132	136.69
411.355	114.69
411.578	128.69
411.802	122.69
412.025	127.69
412.249	117.69
412.472	111.69
412.695	121.69
412.919	117.69
413.142	132.69
413.365	123.69
413.589	128.69
413.812	126.69
414.035	144.69
414.258	111.69
414.482	127.69
414.705	128.69
414.928	122.69
415.151	134.69
415.374	120.69
415.597	127.69
415.821	135.69
416.044	116.69
416.267	120.69
416.49	125.69
416.713	132.69
416.936	121.69
417.159	131.69
417.382	129.69
417.605	123.69
417.828	120.69
418.051	127.69
418.274	140.69
418.497	124.69
418.72	140.69
418.943	131.69
419.166	126.69
419.389	132.69
419.611	146.69
419.834	141.69
420.057	113.69
420.28	145.69
420.503	133.69
420.726	131.69
420.948	147.69
421.171	138.69
421.394	147.69
421.617	138.69
421.839	153.69
422.062	149.69
422.285	130.69
422.507	134.69
422.73	144.69
422.953	121.69
423.175	129.69
423.398	127.69
423.621	142.69
423.843	121.69
424.066	127.69
424.288	145.69
424.511	143.69
424.733	137.69
424.956	114.69
425.178	150.69
425.401	141.69
425.623	136.69
425.846	126.69
426.068	123.69
426.291	141.69
426.513	110.69
426.735	136.69
426.958	123.69
427.18	125.69
427.402	139.69
427.625	139.69
427.847	140.69
428.069	127.69
428.292	125.69
428.514	134.69
428.736	133.69
428.958	123.69
429.181	118.69
429.403	127.69
429.625	119.69
429.847	125.69
430.069	119.69
430.292	138.69
430.514	119.69
430.736	124.69
430.958	129.69
431.18	113.69
431.402	135.69
431.624	135.69
431.846	115.69
432.068	95.69
432.29	104.69
432.512	116.69
432.734	125.69
432.956	126.69
433.178	138.69
433.4	133.69
433.622	123.69
433.844	124.69
434.066	128.69
434.287	113.69
434.509	99.69
434.731	104.69
434.953	120.69
435.175	115.69
435.397	137.69
435.618	129.69
435.84	115.69
436.062	111.69
436.284	107.69
436.505	123.69
436.727	121.69
436.949	142.69
437.17	145.69
437.392	140.69
437.614	129.69
437.835	114.69
438.057	107.69
438.278	111.69
438.5	137.69
438.721	145.69
438.943	138.69
439.165	136.69
439.386	136.69
439.608	137.69
439.829	135.69
440.05	145.69
440.272	124.69
440.493	131.69
440.715	139.69
440.936	141.69
441.158	148.69
441.379	145.69
441.6	150.69
441.822	147.69
442.043	143.69
442.264	133.69
442.486	126.69
442.707	142.69
442.928	135.69
443.149	146.69
443.371	142.69
443.592	145.69
443.813	131.69
444.034	129.69
444.255	135.69
444.476	126.69
444.698	131.69
444.919	150.69
445.14	213.69
445.361	191.69
445.582	145.69
445.803	147.69
446.024	154.69
446.245	144.69
446.466	151.69
446.687	155.69
446.908	152.69
447.129	162.69
447.35	155.69
447.571	147.69
447.792	149.69
448.013	154.69
448.234	156.69
448.455	152.69
448.675	142.69
448.896	127.69
449.117	138.69
449.338	131.69
449.559	140.69
449.779	133.69
450	139.69
450.221	138.69
450.442	146.69
450.662	131.69
450.883	135.69
451.104	126.69
451.324	156.69
451.545	139.69
451.766	136.69
451.986	131.69
452.207	133.69
452.428	125.69
452.648	127.69
452.869	126.69
453.089	118.69
453.31	120.69
453.53	121.69
453.751	108.69
453.971	105.69
454.192	99.69
454.412	114.69
454.633	115.69
454.853	122.69
455.073	115.69
455.294	131.69
455.514	135.69
455.734	109.69
455.955	123.69
456.175	121.69
456.395	113.69
456.616	115.69
456.836	116.69
457.056	123.69
457.276	105.69
457.497	117.69
457.717	101.69
457.937	111.69
458.157	115.69
458.377	116.69
458.598	107.69
458.818	85.69
459.038	100.69
459.258	93.69
459.478	93.69
459.698	91.69
459.918	95.69
460.138	89.69
460.358	121.69
460.578	111.69
460.798	119.69
461.018	122.69
461.238	131.69
461.458	114.69
461.678	110.69
461.898	105.69
462.118	107.69
462.338	122.69
462.558	108.69
462.777	113.69
462.997	105.69
463.217	106.69
463.437	108.69
463.657	118.69
463.876	106.69
464.096	104.69
464.316	116.69
464.536	104.69
464.755	105.69
464.975	119.69
465.195	111.69
465.414	119.69
465.634	125.69
465.854	115.69
466.073	133.69
466.293	132.69
466.512	125.69
466.732	119.69
466.951	123.69
467.171	136.69
467.391	148.69
467.61	121.69
467.829	130.69
468.049	134.69
468.268	122.69
468.488	134.69
468.707	141.69
468.927	137.69
469.146	137.69
469.365	149.69
469.585	157.69
469.804	156.69
470.023	134.69
470.243	131.69
470.462	139.69
470.681	138.69
470.901	142.69
471.12	153.69
471.339	143.69
471.558	154.69
471.777	139.69
471.997	124.69
472.216	118.69
472.435	137.69
472.654	106.69
472.873	109.69
473.092	122.69
473.311	115.69
473.53	125.69
473.749	127.69
473.968	128.69
474.187	137.69
474.406	119.69
474.625	125.69
474.844	146.69
475.063	133.69
475.282	142.69
475.501	131.69
475.72	125.69
475.939	116.69
476.158	134.69
476.377	129.69
476.596	125.69
476.814	123.69
477.033	118.69
477.252	113.69
477.471	118.69
477.69	142.69
477.908	141.69
478.127	132.69
478.346	129.69
478.564	150.69
478.783	123.69
479.002	144.69
479.22	140.69
479.439	135.69
479.658	152.69
479.876	121.69
480.095	102.69
480.313	117.69
480.532	123.69
480.751	107.69
480.969	90.69
481.188	87.69
481.406	89.69
481.624	84.69
481.843	80.69
482.061	96.69
482.28	113.69
482.498	122.69
482.717	100.69
482.935	117.69
483.153	138.69
483.372	148.69
483.59	152.69
483.808	143.69
484.027	116.69
484.245	135.69
484.463	153.69
484.681	159.69
484.9	141.69
485.118	121.69
485.336	146.69
485.554	115.69
485.772	112.69
485.99	112.69
486.209	99.69
486.427	115.69
486.645	112.69
486.863	147.69
487.081	140.69
487.299	117.69
487.517	137.69
487.735	156.69
487.953	181.69
488.171	178.69
488.389	194.69
488.607	157.69
488.825	147.69
489.043	142.69
489.261	149.69
489.479	147.69
489.696	144.69
489.914	141.69
490.132	143.69
490.35	150.69
490.568	156.69
490.786	172.69
491.003	177.69
491.221	191.69
491.439	180.69
491.657	207.69
491.874	188.69
492.092	205.69
492.31	240.69
492.527	242.69
492.745	212.69
492.963	203.69
493.18	204.69
493.398	183.69
493.615	183.69
493.833	164.69
494.05	192.69
494.268	176.69
494.485	179.69
494.703	175.69
494.92	167.69
495.138	156.69
495.355	170.69
495.573	173.69
495.79	171.69
496.008	159.69
496.225	172.69
496.442	159.69
496.66	154.69
496.877	162.69
497.094	154.69
497.312	156.69
497.529	163.69
497.746	157.69
497.963	142.69
498.181	135.69
498.398	126.69
498.615	139.69
498.832	103.69
499.049	114.69
499.267	127.69
499.484	134.69
499.701	141.69
499.918	147.69
500.135	141.69
500.352	139.69
500.569	144.69
500.786	155.69
501.003	138.69
501.22	151.69
501.437	142.69
501.654	135.69
501.871	132.69
502.088	155.69
502.305	141.69
502.522	137.69
502.739	131.69
502.956	131.69
503.172	123.69
503.389	121.69
503.606	129.69
503.823	124.69
504.04	117.69
504.256	120.69
504.473	107.69
504.69	123.69
504.907	129.69
505.123	124.69
505.34	123.69
505.557	119.69
505.773	125.69
505.99	108.69
506.207	127.69
506.423	111.69
506.64	116.69
506.856	129.69
507.073	114.69
507.289	114.69
507.506	124.69
507.722	122.69
507.939	137.69
508.155	122.69
508.372	111.69
508.588	115.69
508.805	108.69
509.021	121.69
509.238	115.69
509.454	99.69
509.67	105.69
509.887	100.69
510.103	100.69
510.319	92.69
510.536	104.69
510.752	86.69
510.968	90.69
511.184	81.69
511.401	71.69
511.617	96.69
511.833	83.69
512.049	80.69
512.265	102.69
512.481	95.69
512.698	92.69
512.914	97.69
513.13	90.69
513.346	92.69
513.562	78.69
513.778	84.69
513.994	97.69
514.21	87.69
514.426	105.69
514.642	108.69
514.858	93.69
515.074	84.69
515.29	97.69
515.506	94.69
515.721	81.69
515.937	95.69
516.153	91.69
516.369	85.69
516.585	80.69
516.801	85.69
517.016	93.69
517.232	99.69
517.448	91.69
517.664	70.69
517.879	109.69
518.095	99.69
518.311	96.69
518.527	110.69
518.742	113.69
518.958	103.69
519.173	117.69
519.389	109.69
519.605	102.69
519.82	110.69
520.036	98.69
520.251	91.69
520.467	98.69
520.682	94.69
520.898	102.69
521.113	97.69
521.329	86.69
521.544	84.69
521.76	98.69
521.975	101.69
522.19	104.69
522.406	102.69
522.621	99.69
522.836	100.69
523.052	103.69
523.267	104.69
523.482	115.69
523.698	107.69
523.913	123.69
524.128	119.69
524.343	109.69
524.559	120.69
524.774	132.69
524.989	122.69
525.204	118.69
525.419	115.69
525.634	111.69
525.849	113.69
526.064	99.69
526.28	100.69
526.495	90.69
526.71	92.69
526.925	83.69
527.14	91.69
527.355	90.69
527.57	100.69
527.785	94.69
527.999	91.69
528.214	95.69
528.429	105.69
528.644	122.69
528.859	125.69
529.074	140.69
529.289	142.69
529.503	155.69
529.718	125.69
529.933	106.69
530.148	111.69
530.363	108.69
530.577	81.69
530.792	77.69
531.007	89.69
531.221	87.69
531.436	89.69
531.651	86.69
531.865	95.69
532.08	84.69
532.295	88.69
532.509	77.69
532.724	81.69
532.938	106.69
533.153	97.69
533.367	104.69
533.582	120.69
533.796	113.69
534.011	106.69
534.225	93.69
534.44	107.69
534.654	106.69
534.868	96.69
535.083	96.69
535.297	97.69
535.511	113.69
535.726	98.69
535.94	105.69
536.154	93.69
536.369	87.69
536.583	91.69
536.797	87.69
537.011	86.69
537.225	93.69
537.44	81.69
537.654	104.69
537.868	81.69
538.082	88.69
538.296	108.69
538.51	93.69
538.724	113.69
538.938	118.69
539.153	133.69
539.367	123.69
539.581	124.69
539.795	99.69
540.009	103.69
540.222	99.69
540.436	111.69
540.65	120.69
540.864	126.69
541.078	134.69
541.292	151.69
541.506	150.69
541.72	164.69
541.934	199.69
542.147	215.69
542.361	190.69
542.575	159.69
542.789	146.69
543.002	132.69
543.216	132.69
543.43	117.69
543.644	128.69
543.857	143.69
544.071	154.69
544.285	155.69
544.498	153.69
544.712	154.69
544.925	144.69
545.139	158.69
545.352	157.69
545.566	157.69
545.779	155.69
545.993	167.69
546.206	161.69
546.42	160.69
546.633	164.69
546.847	168.69
547.06	165.69
547.274	181.69
547.487	186.69
547.7	164.69
547.914	165.69
548.127	159.69
548.34	162.69
548.554	150.69
548.767	153.69
548.98	161.69
549.193	166.69
549.407	149.69
549.62	147.69
549.833	155.69
550.046	144.69
550.259	155.69
550.473	171.69
550.686	161.69
550.899	159.69
551.112	139.69
551.325	142.69
551.538	124.69
551.751	138.69
551.964	123.69
552.177	138.69
552.39	145.69
552.603	151.69
552.816	152.69
553.029	164.69
553.242	165.69
553.455	154.69
553.667	161.69
553.88	146.69
554.093	157.69
554.306	151.69
554.519	130.69
554.732	152.69
554.944	154.69
555.157	151.69
555.37	147.69
555.583	148.69
555.795	133.69
556.008	138.69
556.221	135.69
556.433	132.69
556.646	135.69
556.859	123.69
557.071	140.69
557.284	147.69
557.496	143.69
557.709	144.69
557.921	147.69
558.134	154.69
558.346	143.69
558.559	143.69
558.771	133.69
558.984	136.69
559.196	130.69
559.409	135.69
559.621	137.69
559.833	134.69
560.046	125.69
560.258	131.69
560.47	140.69
560.683	126.69
560.895	122.69
561.107	129.69
561.32	130.69
561.532	131.69
561.744	142.69
561.956	123.69
562.168	129.69
562.381	129.69
562.593	120.69
562.805	131.69
563.017	127.69
563.229	121.69
563.441	120.69
563.653	120.69
563.865	116.69
564.077	127.69
564.289	119.69
564.501	123.69
564.713	100.69
564.925	121.69
565.137	116.69
565.349	119.69
565.561	123.69
565.773	117.69
565.985	130.69
566.197	115.69
566.408	130.69
566.62	104.69
566.832	124.69
567.044	129.69
567.255	139.69
567.467	112.69
567.679	106.69
567.891	108.69
568.102	93.69
568.314	104.69
568.526	85.69
568.737	95.69
568.949	82.69
569.161	88.69
569.372	79.69
569.584	84.69
569.795	74.69
570.007	85.69
570.218	92.69
570.43	78.69
570.641	93.69
570.853	108.69
571.064	100.69
571.276	99.69
571.487	107.69
571.698	90.69
571.91	112.69
572.121	112.69
572.333	95.69
572.544	103.69
572.755	84.69
572.966	85.69
573.178	90.69
573.389	86.69
573.6	92.69
573.811	84.69
574.023	67.69
574.234	97.69
574.445	96.69
574.656	97.69
574.867	90.69
575.078	101.69
575.289	90.69
575.501	92.69
575.712	94.69
575.923	88.69
576.134	88.69
576.345	87.69
576.556	106.69
576.767	95.69
576.978	96.69
577.188	113.69
577.399	98.69
577.61	87.69
577.821	97.69
578.032	100.69
578.243	101.69
578.454	89.69
578.665	101.69
578.875	98.69
579.086	100.69
579.297	78.69
579.508	79.69
579.718	89.69
579.929	89.69
580.14	85.69
580.35	106.69
580.561	92.69
580.772	90.69
580.982	95.69
581.193	87.69
581.403	88.69
581.614	84.69
581.825	101.69
582.035	74.69
582.246	82.69
582.456	98.69
582.667	92.69
582.877	92.69
583.087	81.69
583.298	85.69
583.508	97.69
583.719	90.69
583.929	99.69
584.139	85.69
584.35	90.69
584.56	98.69
584.77	81.69
584.981	91.69
585.191	66.69
585.401	98.69
585.611	86.69
585.821	91.69
586.032	87.69
586.242	81.69
586.452	92.69
586.662	96.69
586.872	96.69
587.082	80.69
587.292	67.69
587.502	83.69
587.713	77.69
587.923	95.69
588.133	78.69
588.343	84.69
588.553	74.69
588.762	82.69
588.972	86.69
589.182	89.69
589.392	83.69
589.602	87.69
589.812	90.69
590.022	76.69
590.232	90.69
590.441	79.69
590.651	73.69
590.861	72.69
591.071	81.69
591.281	86.69
591.49	93.69
591.7	82.69
591.91	71.69
592.119	91.69
592.329	99.69
592.539	84.69
592.748	91.69
592.958	100.69
593.167	83.69
593.377	78.69
593.587	100.69
593.796	94.69
594.006	85.69
594.215	84.69
594.424	86.69
594.634	87.69
594.843	103.69
595.053	104.69
595.262	103.69
595.472	90.69
595.681	78.69
595.89	96.69
596.1	89.69
596.309	95.69
596.518	96.69
596.727	103.69
596.937	88.69
597.146	96.69
597.355	102.69
597.564	87.69
597.774	92.69
597.983	84.69
598.192	89.69
598.401	84.69
598.61	85.69
598.819	73.69
599.028	88.69
599.237	103.69
599.446	98.69
599.655	92.69
599.864	94.69
600.073	79.69
600.282	101.69
600.491	99.69
600.7	90.69
600.909	86.69
601.118	102.69
601.327	92.69
601.536	117.69
601.745	112.69
601.953	108.69
602.162	106.69
602.371	103.69
602.58	101.69
602.789	132.69
602.997	116.69
603.206	103.69
603.415	110.69
603.623	109.69
603.832	115.69
604.041	115.69
604.249	124.69
604.458	101.69
604.666	87.69
604.875	93.69
605.084	91.69
605.292	104.69
605.501	115.69
605.709	111.69
605.918	111.69
606.126	103.69
606.334	106.69
606.543	130.69
606.751	127.69
606.96	118.69
607.168	116.69
607.376	112.69
607.585	116.69
607.793	103.69
608.001	109.69
608.21	112.69
608.418	117.69
608.626	98.69
608.834	116.69
609.043	119.69
609.251	118.69
609.459	121.69
609.667	114.69
609.875	115.69
610.083	84.69
610.291	106.69
610.499	107.69
610.707	106.69
610.916	102.69
611.124	107.69
611.332	111.69
611.54	115.69
611.748	107.69
611.955	120.69
612.163	117.69
612.371	121.69
612.579	106.69
612.787	108.69
612.995	106.69
613.203	125.69
613.411	119.69
613.618	107.69
613.826	113.69
614.034	123.69
614.242	118.69
614.449	105.69
614.657	120.69
614.865	105.69
615.072	125.69
615.28	102.69
615.488	107.69
615.695	125.69
615.903	111.69
616.111	95.69
616.318	109.69
616.526	93.69
616.733	122.69
616.941	120.69
617.148	117.69
617.356	124.69
617.563	116.69
617.771	107.69
617.978	102.69
618.185	112.69
618.393	100.69
618.6	105.69
618.807	107.69
619.015	107.69
619.222	106.69
619.429	99.69
619.637	104.69
619.844	99.69
620.051	114.69
620.258	119.69
620.466	121.69
620.673	104.69
620.88	113.69
621.087	108.69
621.294	116.69
621.501	111.69
621.708	108.69
621.915	99.69
622.122	117.69
622.329	106.69
622.536	112.69
622.743	94.69
622.95	101.69
623.157	102.69
623.364	117.69
623.571	119.69
623.778	108.69
623.985	103.69
624.192	111.69
624.399	83.69
624.606	98.69
624.812	109.69
625.019	113.69
625.226	90.69
625.433	115.69
625.639	106.69
625.846	104.69
626.053	86.69
626.259	93.69
626.466	95.69
626.673	87.69
626.879	96.69
627.086	98.69
627.293	94.69
627.499	104.69
627.706	107.69
627.912	104.69
628.119	98.69
628.325	102.69
628.532	91.69
628.738	100.69
628.945	110.69
629.151	107.69
629.357	104.69
629.564	99.69
629.77	107.69
629.976	96.69
630.183	98.69
630.389	95.69
630.595	107.69
630.802	109.69
631.008	103.69
631.214	107.69
631.42	109.69
631.627	98.69
631.833	111.69
632.039	103.69
632.245	90.69
632.451	103.69
632.657	111.69
632.863	98.69
633.069	108.69
633.275	91.69
633.481	99.69
633.688	106.69
633.893	98.69
634.099	108.69
634.305	104.69
634.511	102.69
634.717	89.69
634.923	89.69
635.129	96.69
635.335	111.69
635.541	96.69
635.747	96.69
635.952	101.69
636.158	87.69
636.364	105.69
636.57	105.69
636.775	93.69
636.981	109.69
637.187	117.69
637.392	99.69
637.598	78.69
637.804	114.69
638.009	117.69
638.215	109.69
638.421	88.69
638.626	101.69
638.832	105.69
639.037	109.69
639.243	95.69
639.448	92.69
639.654	93.69
639.859	92.69
640.065	103.69
640.27	105.69
640.475	93.69
640.681	104.69
640.886	95.69
641.091	101.69
641.297	105.69
641.502	104.69
641.707	104.69
641.913	104.69
642.118	90.69
642.323	110.69
642.528	114.69
642.733	103.69
642.939	111.69
643.144	111.69
643.349	101.69
643.554	121.69
643.759	103.69
643.964	93.69
644.169	104.69
644.374	92.69
644.579	109.69
644.784	114.69
644.989	91.69
645.194	111.69
645.399	108.69
645.604	101.69
645.809	120.69
646.014	92.69
646.219	103.69
646.423	99.69
646.628	95.69
646.833	96.69
647.038	102.69
647.243	98.69
647.447	89.69
647.652	90.69
647.857	100.69
648.062	97.69
648.266	99.69
648.471	84.69
648.676	114.69
648.88	111.69
649.085	103.69
649.289	106.69
649.494	89.69
649.698	119.69
649.903	106.69
650.107	101.69
650.312	91.69
650.516	103.69
650.721	102.69
650.925	113.69
651.13	94.69
651.334	83.69
651.539	97.69
651.743	95.69
651.947	102.69
652.152	99.69
652.356	96.69
652.56	120.69
652.764	94.69
652.969	95.69
653.173	92.69
653.377	92.69
653.581	85.69
653.785	113.69
653.99	90.69
654.194	91.69
654.398	80.69
654.602	89.69
654.806	76.69
655.01	92.69
655.214	90.69
655.418	80.69
655.622	92.69
655.826	91.69
656.03	91.69
656.234	91.69
656.438	83.69
656.642	98.69
656.846	91.69
657.049	92.69
657.253	90.69
657.457	84.69
657.661	76.69
657.865	82.69
658.068	116.69
658.272	84.69
658.476	93.69
658.68	87.69
658.883	80.69
659.087	90.69
659.291	84.69
659.494	99.69
659.698	82.69
659.901	72.69
660.105	89.69
660.309	89.69
660.512	78.69
660.716	87.69
660.919	81.69
661.123	78.69
661.326	100.69
661.53	76.69
661.733	88.69
661.936	75.69
662.14	83.69
662.343	87.69
662.546	82.69
662.75	78.69
662.953	92.69
663.156	80.69
663.36	85.69
663.563	93.69
663.766	81.69
663.969	81.69
664.173	87.69
664.376	79.69
664.579	74.69
664.782	83.69
664.985	87.69
665.188	86.69
665.391	80.69
665.594	73.69
665.797	76.69
666	67.69
666.203	70.69
666.406	84.69
666.609	87.69
666.812	74.69
667.015	81.69
667.218	92.69
667.421	96.69
667.624	78.69
667.827	86.69
668.03	80.69
668.232	91.69
668.435	91.69
668.638	79.69
668.841	84.69
669.043	84.69
669.246	88.69
669.449	75.69
669.651	91.69
669.854	84.69
670.057	87.69
670.259	86.69
670.462	86.69
670.665	83.69
670.867	83.69
671.07	85.69
671.272	83.69
671.475	87.69
671.677	76.69
671.88	83.69
672.082	74.69
672.284	70.69
672.487	89.69
672.689	97.69
672.892	78.69
