Data from Location2.07152019.Energy5.Lamp.07192019.3%Agarose_HRD10591_14-56-50-358.txt Node
Date: Fri Jul 19 14:56:50 EDT 2019
User: cochatt
Spectrometer: HR+D1059
Trigger mode: 1
Integration Time (sec): 1.000000E-1
Scans to average: 1
Electric dark correction enabled: true
Nonlinearity correction enabled: false
Boxcar width: 0
XAxis mode: Wavelengths
Number of Pixels in Spectrum: 2048
>>>>>Begin Spectral Data<<<<<
223.165	-22.31
223.4	-22.31
223.635	-22.31
223.869	-20.31
224.104	-18.31
224.338	-20.31
224.573	-19.31
224.808	-10.31
225.042	2.69
225.277	-0.31
225.511	-0.31
225.746	2.69
225.98	1.69
226.215	10.69
226.449	8.69
226.683	13.69
226.918	31.69
227.152	39.69
227.387	24.69
227.621	18.69
227.856	45.69
228.09	36.69
228.324	51.69
228.559	60.69
228.793	59.69
229.027	47.69
229.262	68.69
229.496	65.69
229.73	77.69
229.964	66.69
230.199	78.69
230.433	57.69
230.667	81.69
230.901	75.69
231.136	76.69
231.37	72.69
231.604	71.69
231.838	74.69
232.072	76.69
232.306	81.69
232.541	82.69
232.775	76.69
233.009	68.69
233.243	80.69
233.477	68.69
233.711	80.69
233.945	84.69
234.179	76.69
234.413	82.69
234.647	89.69
234.881	97.69
235.115	89.69
235.349	78.69
235.583	82.69
235.817	84.69
236.051	82.69
236.285	63.69
236.519	93.69
236.753	85.69
236.987	77.69
237.221	77.69
237.455	72.69
237.689	68.69
237.922	74.69
238.156	69.69
238.39	72.69
238.624	75.69
238.858	75.69
239.091	70.69
239.325	74.69
239.559	69.69
239.793	70.69
240.027	74.69
240.26	72.69
240.494	68.69
240.728	75.69
240.961	70.69
241.195	78.69
241.429	82.69
241.662	70.69
241.896	85.69
242.13	68.69
242.363	60.69
242.597	76.69
242.83	71.69
243.064	73.69
243.298	73.69
243.531	80.69
243.765	73.69
243.998	84.69
244.232	67.69
244.465	82.69
244.699	84.69
244.932	74.69
245.166	76.69
245.399	87.69
245.633	78.69
245.866	58.69
246.099	70.69
246.333	80.69
246.566	77.69
246.8	67.69
247.033	70.69
247.266	82.69
247.5	82.69
247.733	84.69
247.966	67.69
248.2	84.69
248.433	72.69
248.666	74.69
248.899	73.69
249.133	81.69
249.366	71.69
249.599	88.69
249.832	83.69
250.066	84.69
250.299	67.69
250.532	87.69
250.765	79.69
250.998	79.69
251.231	76.69
251.465	84.69
251.698	86.69
251.931	70.69
252.164	77.69
252.397	56.69
252.63	87.69
252.863	90.69
253.096	73.69
253.329	89.69
253.562	83.69
253.795	81.69
254.028	65.69
254.261	73.69
254.494	86.69
254.727	86.69
254.96	71.69
255.193	74.69
255.426	86.69
255.659	77.69
255.892	73.69
256.124	73.69
256.357	73.69
256.59	71.69
256.823	70.69
257.056	77.69
257.289	75.69
257.521	85.69
257.754	81.69
257.987	79.69
258.22	79.69
258.452	79.69
258.685	105.69
258.918	90.69
259.151	82.69
259.383	78.69
259.616	69.69
259.849	89.69
260.081	78.69
260.314	88.69
260.547	72.69
260.779	70.69
261.012	76.69
261.244	90.69
261.477	78.69
261.71	74.69
261.942	71.69
262.175	69.69
262.407	84.69
262.64	87.69
262.872	78.69
263.105	72.69
263.337	92.69
263.57	84.69
263.802	96.69
264.035	84.69
264.267	89.69
264.499	89.69
264.732	90.69
264.964	78.69
265.197	88.69
265.429	68.69
265.661	72.69
265.894	85.69
266.126	86.69
266.358	74.69
266.591	78.69
266.823	86.69
267.055	80.69
267.287	69.69
267.52	62.69
267.752	73.69
267.984	85.69
268.216	79.69
268.448	98.69
268.681	89.69
268.913	92.69
269.145	79.69
269.377	89.69
269.609	95.69
269.841	73.69
270.073	81.69
270.306	78.69
270.538	67.69
270.77	89.69
271.002	92.69
271.234	79.69
271.466	83.69
271.698	71.69
271.93	79.69
272.162	84.69
272.394	87.69
272.626	72.69
272.858	91.69
273.09	83.69
273.322	77.69
273.553	77.69
273.785	86.69
274.017	74.69
274.249	73.69
274.481	81.69
274.713	82.69
274.945	78.69
275.176	78.69
275.408	87.69
275.64	86.69
275.872	83.69
276.104	91.69
276.335	80.69
276.567	82.69
276.799	78.69
277.031	61.69
277.262	81.69
277.494	98.69
277.726	77.69
277.957	77.69
278.189	76.69
278.421	76.69
278.652	78.69
278.884	73.69
279.115	81.69
279.347	84.69
279.579	91.69
279.81	82.69
280.042	86.69
280.273	93.69
280.505	81.69
280.736	83.69
280.968	88.69
281.199	89.69
281.431	83.69
281.662	95.69
281.894	89.69
282.125	84.69
282.356	73.69
282.588	89.69
282.819	96.69
283.051	88.69
283.282	77.69
283.513	80.69
283.745	100.69
283.976	81.69
284.207	81.69
284.439	86.69
284.67	86.69
284.901	77.69
285.132	86.69
285.364	83.69
285.595	89.69
285.826	88.69
286.057	75.69
286.288	66.69
286.52	84.69
286.751	83.69
286.982	101.69
287.213	76.69
287.444	80.69
287.675	76.69
287.906	93.69
288.138	82.69
288.369	74.69
288.6	89.69
288.831	78.69
289.062	73.69
289.293	82.69
289.524	89.69
289.755	97.69
289.986	75.69
290.217	73.69
290.448	81.69
290.679	83.69
290.91	83.69
291.141	72.69
291.371	74.69
291.602	87.69
291.833	90.69
292.064	89.69
292.295	76.69
292.526	98.69
292.757	86.69
292.987	68.69
293.218	81.69
293.449	81.69
293.68	75.69
293.91	74.69
294.141	77.69
294.372	96.69
294.603	95.69
294.833	76.69
295.064	75.69
295.295	81.69
295.525	86.69
295.756	81.69
295.987	74.69
296.217	80.69
296.448	72.69
296.679	88.69
296.909	90.69
297.14	79.69
297.37	83.69
297.601	80.69
297.831	83.69
298.062	89.69
298.292	72.69
298.523	83.69
298.753	77.69
298.984	64.69
299.214	87.69
299.445	85.69
299.675	82.69
299.905	83.69
300.136	101.69
300.366	74.69
300.597	93.69
300.827	87.69
301.057	80.69
301.288	82.69
301.518	84.69
301.748	88.69
301.979	91.69
302.209	70.69
302.439	71.69
302.669	86.69
302.9	88.69
303.13	93.69
303.36	95.69
303.59	93.69
303.82	79.69
304.051	88.69
304.281	85.69
304.511	81.69
304.741	88.69
304.971	83.69
305.201	89.69
305.431	88.69
305.661	83.69
305.891	84.69
306.121	82.69
306.352	81.69
306.582	78.69
306.812	78.69
307.042	74.69
307.272	77.69
307.502	85.69
307.731	83.69
307.961	84.69
308.191	92.69
308.421	85.69
308.651	80.69
308.881	73.69
309.111	91.69
309.341	77.69
309.571	84.69
309.8	94.69
310.03	73.69
310.26	90.69
310.49	84.69
310.72	75.69
310.949	100.69
311.179	87.69
311.409	95.69
311.639	80.69
311.868	85.69
312.098	83.69
312.328	85.69
312.557	97.69
312.787	69.69
313.017	94.69
313.246	79.69
313.476	79.69
313.706	86.69
313.935	82.69
314.165	69.69
314.394	94.69
314.624	75.69
314.853	88.69
315.083	85.69
315.312	75.69
315.542	90.69
315.771	87.69
316.001	85.69
316.23	80.69
316.46	77.69
316.689	86.69
316.919	103.69
317.148	93.69
317.377	79.69
317.607	87.69
317.836	84.69
318.065	74.69
318.295	91.69
318.524	88.69
318.753	90.69
318.983	88.69
319.212	75.69
319.441	76.69
319.67	71.69
319.9	87.69
320.129	74.69
320.358	82.69
320.587	74.69
320.816	88.69
321.046	83.69
321.275	85.69
321.504	86.69
321.733	92.69
321.962	96.69
322.191	97.69
322.42	91.69
322.649	95.69
322.878	82.69
323.108	74.69
323.337	86.69
323.566	80.69
323.795	77.69
324.024	83.69
324.253	93.69
324.482	87.69
324.71	93.69
324.939	92.69
325.168	86.69
325.397	74.69
325.626	84.69
325.855	86.69
326.084	106.69
326.313	96.69
326.542	97.69
326.77	99.69
326.999	76.69
327.228	76.69
327.457	77.69
327.686	80.69
327.914	82.69
328.143	88.69
328.372	92.69
328.6	93.69
328.829	92.69
329.058	84.69
329.287	87.69
329.515	85.69
329.744	89.69
329.972	82.69
330.201	88.69
330.43	97.69
330.658	82.69
330.887	81.69
331.115	85.69
331.344	89.69
331.572	84.69
331.801	87.69
332.03	87.69
332.258	84.69
332.486	71.69
332.715	78.69
332.943	71.69
333.172	82.69
333.4	89.69
333.629	76.69
333.857	73.69
334.085	85.69
334.314	72.69
334.542	91.69
334.771	84.69
334.999	82.69
335.227	84.69
335.455	84.69
335.684	99.69
335.912	82.69
336.14	72.69
336.369	83.69
336.597	81.69
336.825	65.69
337.053	87.69
337.281	87.69
337.51	93.69
337.738	90.69
337.966	87.69
338.194	77.69
338.422	83.69
338.65	93.69
338.878	74.69
339.106	78.69
339.334	83.69
339.562	95.69
339.79	82.69
340.018	83.69
340.246	82.69
340.474	85.69
340.702	83.69
340.93	58.69
341.158	83.69
341.386	84.69
341.614	74.69
341.842	70.69
342.07	76.69
342.298	82.69
342.526	80.69
342.754	93.69
342.981	77.69
343.209	96.69
343.437	80.69
343.665	81.69
343.893	96.69
344.12	75.69
344.348	90.69
344.576	88.69
344.804	81.69
345.031	78.69
345.259	87.69
345.487	87.69
345.714	88.69
345.942	84.69
346.17	79.69
346.397	89.69
346.625	76.69
346.853	88.69
347.08	73.69
347.308	83.69
347.535	78.69
347.763	77.69
347.99	80.69
348.218	89.69
348.445	91.69
348.673	65.69
348.9	77.69
349.128	85.69
349.355	78.69
349.583	73.69
349.81	84.69
350.037	62.69
350.265	80.69
350.492	88.69
350.72	91.69
350.947	87.69
351.174	89.69
351.402	88.69
351.629	84.69
351.856	79.69
352.083	65.69
352.311	89.69
352.538	74.69
352.765	77.69
352.992	80.69
353.22	102.69
353.447	82.69
353.674	76.69
353.901	86.69
354.128	76.69
354.355	91.69
354.583	95.69
354.81	88.69
355.037	82.69
355.264	88.69
355.491	97.69
355.718	93.69
355.945	72.69
356.172	97.69
356.399	79.69
356.626	86.69
356.853	83.69
357.08	78.69
357.307	66.69
357.534	83.69
357.761	83.69
357.988	99.69
358.215	85.69
358.441	95.69
358.668	84.69
358.895	79.69
359.122	88.69
359.349	79.69
359.576	88.69
359.802	87.69
360.029	77.69
360.256	89.69
360.483	92.69
360.709	93.69
360.936	94.69
361.163	87.69
361.39	103.69
361.616	85.69
361.843	67.69
362.07	87.69
362.296	88.69
362.523	72.69
362.749	86.69
362.976	95.69
363.203	97.69
363.429	83.69
363.656	80.69
363.882	90.69
364.109	102.69
364.335	82.69
364.562	88.69
364.788	98.69
365.015	80.69
365.241	81.69
365.468	80.69
365.694	84.69
365.92	89.69
366.147	81.69
366.373	79.69
366.599	81.69
366.826	89.69
367.052	84.69
367.278	80.69
367.505	90.69
367.731	91.69
367.957	82.69
368.184	72.69
368.41	68.69
368.636	87.69
368.862	80.69
369.089	83.69
369.315	100.69
369.541	99.69
369.767	92.69
369.993	92.69
370.219	84.69
370.445	86.69
370.672	97.69
370.898	92.69
371.124	100.69
371.35	91.69
371.576	81.69
371.802	91.69
372.028	81.69
372.254	89.69
372.48	90.69
372.706	86.69
372.932	72.69
373.158	98.69
373.384	98.69
373.61	92.69
373.835	86.69
374.061	92.69
374.287	75.69
374.513	109.69
374.739	85.69
374.965	96.69
375.191	96.69
375.416	101.69
375.642	100.69
375.868	99.69
376.094	84.69
376.319	75.69
376.545	93.69
376.771	86.69
376.997	121.69
377.222	80.69
377.448	98.69
377.674	93.69
377.899	98.69
378.125	94.69
378.35	90.69
378.576	88.69
378.802	99.69
379.027	86.69
379.253	90.69
379.478	89.69
379.704	90.69
379.929	94.69
380.155	100.69
380.38	105.69
380.606	101.69
380.831	93.69
381.057	101.69
381.282	100.69
381.507	96.69
381.733	105.69
381.958	98.69
382.184	104.69
382.409	94.69
382.634	88.69
382.86	89.69
383.085	101.69
383.31	90.69
383.535	92.69
383.761	92.69
383.986	90.69
384.211	96.69
384.436	76.69
384.662	89.69
384.887	99.69
385.112	93.69
385.337	108.69
385.562	104.69
385.787	106.69
386.013	103.69
386.238	98.69
386.463	108.69
386.688	96.69
386.913	110.69
387.138	96.69
387.363	94.69
387.588	101.69
387.813	102.69
388.038	94.69
388.263	112.69
388.488	116.69
388.713	98.69
388.938	106.69
389.163	86.69
389.387	107.69
389.612	96.69
389.837	91.69
390.062	90.69
390.287	102.69
390.512	99.69
390.736	89.69
390.961	90.69
391.186	84.69
391.411	102.69
391.636	90.69
391.86	92.69
392.085	109.69
392.31	117.69
392.534	109.69
392.759	123.69
392.984	106.69
393.208	113.69
393.433	92.69
393.658	96.69
393.882	112.69
394.107	100.69
394.331	106.69
394.556	106.69
394.78	109.69
395.005	108.69
395.229	113.69
395.454	107.69
395.678	100.69
395.903	113.69
396.127	96.69
396.352	116.69
396.576	112.69
396.801	102.69
397.025	101.69
397.249	101.69
397.474	104.69
397.698	107.69
397.922	106.69
398.147	112.69
398.371	104.69
398.595	116.69
398.82	103.69
399.044	106.69
399.268	112.69
399.492	121.69
399.717	100.69
399.941	113.69
400.165	106.69
400.389	104.69
400.613	94.69
400.837	104.69
401.062	105.69
401.286	110.69
401.51	107.69
401.734	112.69
401.958	116.69
402.182	104.69
402.406	104.69
402.63	115.69
402.854	104.69
403.078	95.69
403.302	105.69
403.526	104.69
403.75	108.69
403.974	108.69
404.198	106.69
404.422	111.69
404.645	109.69
404.869	116.69
405.093	126.69
405.317	109.69
405.541	125.69
405.765	105.69
405.988	112.69
406.212	105.69
406.436	112.69
406.66	116.69
406.883	105.69
407.107	112.69
407.331	102.69
407.555	112.69
407.778	108.69
408.002	130.69
408.226	120.69
408.449	122.69
408.673	121.69
408.896	120.69
409.12	103.69
409.344	122.69
409.567	120.69
409.791	127.69
410.014	136.69
410.238	122.69
410.461	118.69
410.685	124.69
410.908	130.69
411.132	110.69
411.355	118.69
411.578	121.69
411.802	126.69
412.025	108.69
412.249	124.69
412.472	120.69
412.695	118.69
412.919	108.69
413.142	122.69
413.365	110.69
413.589	134.69
413.812	116.69
414.035	120.69
414.258	120.69
414.482	119.69
414.705	124.69
414.928	109.69
415.151	115.69
415.374	105.69
415.597	123.69
415.821	121.69
416.044	130.69
416.267	126.69
416.49	132.69
416.713	112.69
416.936	132.69
417.159	117.69
417.382	128.69
417.605	131.69
417.828	133.69
418.051	109.69
418.274	123.69
418.497	132.69
418.72	125.69
418.943	123.69
419.166	145.69
419.389	151.69
419.611	135.69
419.834	133.69
420.057	134.69
420.28	137.69
420.503	133.69
420.726	124.69
420.948	116.69
421.171	121.69
421.394	145.69
421.617	147.69
421.839	129.69
422.062	132.69
422.285	142.69
422.507	135.69
422.73	126.69
422.953	124.69
423.175	124.69
423.398	135.69
423.621	118.69
423.843	135.69
424.066	141.69
424.288	136.69
424.511	138.69
424.733	154.69
424.956	130.69
425.178	130.69
425.401	134.69
425.623	144.69
425.846	136.69
426.068	128.69
426.291	134.69
426.513	123.69
426.735	132.69
426.958	142.69
427.18	126.69
427.402	136.69
427.625	124.69
427.847	123.69
428.069	140.69
428.292	121.69
428.514	129.69
428.736	133.69
428.958	148.69
429.181	122.69
429.403	126.69
429.625	118.69
429.847	111.69
430.069	120.69
430.292	127.69
430.514	130.69
430.736	125.69
430.958	120.69
431.18	125.69
431.402	128.69
431.624	124.69
431.846	105.69
432.068	100.69
432.29	100.69
432.512	109.69
432.734	116.69
432.956	132.69
433.178	139.69
433.4	141.69
433.622	120.69
433.844	138.69
434.066	116.69
434.287	126.69
434.509	106.69
434.731	102.69
434.953	108.69
435.175	129.69
435.397	132.69
435.618	134.69
435.84	110.69
436.062	109.69
436.284	114.69
436.505	130.69
436.727	127.69
436.949	129.69
437.17	140.69
437.392	130.69
437.614	119.69
437.835	114.69
438.057	116.69
438.278	118.69
438.5	125.69
438.721	126.69
438.943	138.69
439.165	138.69
439.386	136.69
439.608	134.69
439.829	133.69
440.05	134.69
440.272	132.69
440.493	150.69
440.715	139.69
440.936	150.69
441.158	146.69
441.379	155.69
441.6	140.69
441.822	141.69
442.043	148.69
442.264	150.69
442.486	127.69
442.707	134.69
442.928	125.69
443.149	133.69
443.371	146.69
443.592	128.69
443.813	143.69
444.034	134.69
444.255	143.69
444.476	140.69
444.698	139.69
444.919	149.69
445.14	284.69
445.361	214.69
445.582	151.69
445.803	142.69
446.024	141.69
446.245	145.69
446.466	153.69
446.687	157.69
446.908	157.69
447.129	157.69
447.35	151.69
447.571	140.69
447.792	135.69
448.013	144.69
448.234	154.69
448.455	123.69
448.675	141.69
448.896	143.69
449.117	129.69
449.338	140.69
449.559	134.69
449.779	129.69
450	143.69
450.221	140.69
450.442	148.69
450.662	124.69
450.883	128.69
451.104	136.69
451.324	132.69
451.545	134.69
451.766	132.69
451.986	138.69
452.207	140.69
452.428	124.69
452.648	134.69
452.869	124.69
453.089	112.69
453.31	128.69
453.53	97.69
453.751	98.69
453.971	99.69
454.192	112.69
454.412	132.69
454.633	112.69
454.853	120.69
455.073	130.69
455.294	120.69
455.514	131.69
455.734	136.69
455.955	118.69
456.175	113.69
456.395	97.69
456.616	116.69
456.836	106.69
457.056	102.69
457.276	108.69
457.497	110.69
457.717	105.69
457.937	100.69
458.157	92.69
458.377	113.69
458.598	100.69
458.818	94.69
459.038	85.69
459.258	97.69
459.478	99.69
459.698	97.69
459.918	92.69
460.138	83.69
460.358	113.69
460.578	122.69
460.798	126.69
461.018	119.69
461.238	128.69
461.458	103.69
461.678	128.69
461.898	112.69
462.118	115.69
462.338	118.69
462.558	107.69
462.777	106.69
462.997	111.69
463.217	130.69
463.437	112.69
463.657	97.69
463.876	102.69
464.096	105.69
464.316	107.69
464.536	103.69
464.755	109.69
464.975	104.69
465.195	114.69
465.414	100.69
465.634	117.69
465.854	131.69
466.073	134.69
466.293	124.69
466.512	116.69
466.732	139.69
466.951	124.69
467.171	128.69
467.391	127.69
467.61	137.69
467.829	128.69
468.049	121.69
468.268	143.69
468.488	121.69
468.707	128.69
468.927	138.69
469.146	125.69
469.365	144.69
469.585	140.69
469.804	150.69
470.023	144.69
470.243	138.69
470.462	139.69
470.681	146.69
470.901	136.69
471.12	152.69
471.339	144.69
471.558	142.69
471.777	152.69
471.997	133.69
472.216	128.69
472.435	126.69
472.654	98.69
472.873	121.69
473.092	114.69
473.311	118.69
473.53	127.69
473.749	128.69
473.968	119.69
474.187	124.69
474.406	112.69
474.625	127.69
474.844	140.69
475.063	139.69
475.282	122.69
475.501	121.69
475.72	112.69
475.939	119.69
476.158	116.69
476.377	127.69
476.596	124.69
476.814	108.69
477.033	104.69
477.252	103.69
477.471	119.69
477.69	129.69
477.908	131.69
478.127	144.69
478.346	128.69
478.564	135.69
478.783	122.69
479.002	120.69
479.22	144.69
479.439	138.69
479.658	122.69
479.876	120.69
480.095	120.69
480.313	113.69
480.532	121.69
480.751	123.69
480.969	100.69
481.188	96.69
481.406	92.69
481.624	68.69
481.843	71.69
482.061	103.69
482.28	114.69
482.498	91.69
482.717	112.69
482.935	128.69
483.153	142.69
483.372	157.69
483.59	147.69
483.808	143.69
484.027	130.69
484.245	136.69
484.463	130.69
484.681	167.69
484.9	157.69
485.118	137.69
485.336	119.69
485.554	126.69
485.772	103.69
485.99	100.69
486.209	101.69
486.427	105.69
486.645	105.69
486.863	151.69
487.081	138.69
487.299	137.69
487.517	140.69
487.735	144.69
487.953	181.69
488.171	173.69
488.389	165.69
488.607	165.69
488.825	146.69
489.043	124.69
489.261	129.69
489.479	140.69
489.696	148.69
489.914	156.69
490.132	154.69
490.35	150.69
490.568	146.69
490.786	178.69
491.003	172.69
491.221	185.69
491.439	196.69
491.657	187.69
491.874	213.69
492.092	217.69
492.31	215.69
492.527	219.69
492.745	208.69
492.963	208.69
493.18	190.69
493.398	181.69
493.615	176.69
493.833	178.69
494.05	168.69
494.268	168.69
494.485	170.69
494.703	177.69
494.92	170.69
495.138	169.69
495.355	158.69
495.573	150.69
495.79	185.69
496.008	176.69
496.225	149.69
496.442	155.69
496.66	167.69
496.877	160.69
497.094	166.69
497.312	162.69
497.529	161.69
497.746	146.69
497.963	129.69
498.181	122.69
498.398	122.69
498.615	123.69
498.832	135.69
499.049	110.69
499.267	124.69
499.484	117.69
499.701	123.69
499.918	136.69
500.135	143.69
500.352	146.69
500.569	148.69
500.786	136.69
501.003	151.69
501.22	119.69
501.437	141.69
501.654	126.69
501.871	128.69
502.088	131.69
502.305	127.69
502.522	145.69
502.739	127.69
502.956	111.69
503.172	122.69
503.389	129.69
503.606	108.69
503.823	117.69
504.04	128.69
504.256	139.69
504.473	110.69
504.69	118.69
504.907	120.69
505.123	117.69
505.34	112.69
505.557	114.69
505.773	113.69
505.99	109.69
506.207	102.69
506.423	112.69
506.64	116.69
506.856	124.69
507.073	117.69
507.289	124.69
507.506	123.69
507.722	113.69
507.939	115.69
508.155	117.69
508.372	118.69
508.588	114.69
508.805	112.69
509.021	114.69
509.238	109.69
509.454	102.69
509.67	110.69
509.887	92.69
510.103	98.69
510.319	104.69
510.536	103.69
510.752	76.69
510.968	84.69
511.184	88.69
511.401	83.69
511.617	68.69
511.833	104.69
512.049	86.69
512.265	102.69
512.481	96.69
512.698	92.69
512.914	94.69
513.13	100.69
513.346	78.69
513.562	94.69
513.778	94.69
513.994	84.69
514.21	97.69
514.426	91.69
514.642	76.69
514.858	106.69
515.074	90.69
515.29	97.69
515.506	93.69
515.721	96.69
515.937	85.69
516.153	86.69
516.369	81.69
516.585	81.69
516.801	101.69
517.016	85.69
517.232	98.69
517.448	100.69
517.664	86.69
517.879	85.69
518.095	86.69
518.311	91.69
518.527	84.69
518.742	93.69
518.958	103.69
519.173	113.69
519.389	100.69
519.605	106.69
519.82	105.69
520.036	103.69
520.251	91.69
520.467	103.69
520.682	94.69
520.898	94.69
521.113	97.69
521.329	96.69
521.544	91.69
521.76	85.69
521.975	102.69
522.19	106.69
522.406	106.69
522.621	96.69
522.836	99.69
523.052	97.69
523.267	105.69
523.482	110.69
523.698	115.69
523.913	124.69
524.128	122.69
524.343	118.69
524.559	114.69
524.774	120.69
524.989	110.69
525.204	109.69
525.419	129.69
525.634	118.69
525.849	121.69
526.064	119.69
526.28	100.69
526.495	103.69
526.71	92.69
526.925	86.69
527.14	82.69
527.355	84.69
527.57	77.69
527.785	98.69
527.999	104.69
528.214	106.69
528.429	107.69
528.644	120.69
528.859	120.69
529.074	136.69
529.289	154.69
529.503	135.69
529.718	129.69
529.933	113.69
530.148	113.69
530.363	86.69
530.577	102.69
530.792	91.69
531.007	89.69
531.221	86.69
531.436	85.69
531.651	81.69
531.865	77.69
532.08	84.69
532.295	83.69
532.509	82.69
532.724	88.69
532.938	94.69
533.153	105.69
533.367	102.69
533.582	124.69
533.796	125.69
534.011	105.69
534.225	77.69
534.44	83.69
534.654	88.69
534.868	106.69
535.083	99.69
535.297	101.69
535.511	88.69
535.726	89.69
535.94	98.69
536.154	91.69
536.369	78.69
536.583	78.69
536.797	94.69
537.011	87.69
537.225	97.69
537.44	85.69
537.654	84.69
537.868	87.69
538.082	84.69
538.296	88.69
538.51	100.69
538.724	112.69
538.938	113.69
539.153	116.69
539.367	123.69
539.581	104.69
539.795	97.69
540.009	109.69
540.222	116.69
540.436	105.69
540.65	124.69
540.864	126.69
541.078	149.69
541.292	149.69
541.506	154.69
541.72	173.69
541.934	168.69
542.147	181.69
542.361	171.69
542.575	149.69
542.789	136.69
543.002	128.69
543.216	118.69
543.43	126.69
543.644	143.69
543.857	139.69
544.071	158.69
544.285	159.69
544.498	138.69
544.712	143.69
544.925	146.69
545.139	158.69
545.352	157.69
545.566	158.69
545.779	163.69
545.993	146.69
546.206	172.69
546.42	156.69
546.633	179.69
546.847	169.69
547.06	158.69
547.274	186.69
547.487	177.69
547.7	187.69
547.914	152.69
548.127	162.69
548.34	153.69
548.554	153.69
548.767	162.69
548.98	158.69
549.193	144.69
549.407	147.69
549.62	152.69
549.833	145.69
550.046	152.69
550.259	145.69
550.473	163.69
550.686	153.69
550.899	149.69
551.112	142.69
551.325	130.69
551.538	132.69
551.751	122.69
551.964	129.69
552.177	124.69
552.39	136.69
552.603	138.69
552.816	159.69
553.029	161.69
553.242	137.69
553.455	147.69
553.667	156.69
553.88	156.69
554.093	148.69
554.306	169.69
554.519	144.69
554.732	160.69
554.944	135.69
555.157	147.69
555.37	155.69
555.583	136.69
555.795	136.69
556.008	142.69
556.221	143.69
556.433	133.69
556.646	140.69
556.859	135.69
557.071	129.69
557.284	124.69
557.496	138.69
557.709	140.69
557.921	154.69
558.134	134.69
558.346	138.69
558.559	133.69
558.771	124.69
558.984	138.69
559.196	135.69
559.409	132.69
559.621	128.69
559.833	123.69
560.046	132.69
560.258	141.69
560.47	148.69
560.683	138.69
560.895	140.69
561.107	122.69
561.32	133.69
561.532	130.69
561.744	146.69
561.956	129.69
562.168	127.69
562.381	132.69
562.593	118.69
562.805	127.69
563.017	135.69
563.229	124.69
563.441	122.69
563.653	119.69
563.865	118.69
564.077	116.69
564.289	126.69
564.501	126.69
564.713	121.69
564.925	118.69
565.137	120.69
565.349	115.69
565.561	115.69
565.773	110.69
565.985	119.69
566.197	130.69
566.408	113.69
566.62	114.69
566.832	109.69
567.044	116.69
567.255	128.69
567.467	120.69
567.679	118.69
567.891	96.69
568.102	109.69
568.314	98.69
568.526	89.69
568.737	93.69
568.949	68.69
569.161	87.69
569.372	82.69
569.584	82.69
569.795	93.69
570.007	91.69
570.218	85.69
570.43	91.69
570.641	85.69
570.853	95.69
571.064	99.69
571.276	105.69
571.487	113.69
571.698	100.69
571.91	109.69
572.121	100.69
572.333	107.69
572.544	117.69
572.755	100.69
572.966	90.69
573.178	95.69
573.389	87.69
573.6	81.69
573.811	92.69
574.023	81.69
574.234	91.69
574.445	87.69
574.656	77.69
574.867	90.69
575.078	105.69
575.289	92.69
575.501	113.69
575.712	92.69
575.923	96.69
576.134	96.69
576.345	96.69
576.556	103.69
576.767	82.69
576.978	95.69
577.188	94.69
577.399	96.69
577.61	83.69
577.821	98.69
578.032	96.69
578.243	86.69
578.454	98.69
578.665	90.69
578.875	87.69
579.086	82.69
579.297	69.69
579.508	72.69
579.718	82.69
579.929	94.69
580.14	92.69
580.35	85.69
580.561	106.69
580.772	94.69
580.982	108.69
581.193	73.69
581.403	88.69
581.614	83.69
581.825	83.69
582.035	87.69
582.246	85.69
582.456	94.69
582.667	97.69
582.877	91.69
583.087	102.69
583.298	88.69
583.508	87.69
583.719	92.69
583.929	93.69
584.139	86.69
584.35	80.69
584.56	89.69
584.77	84.69
584.981	84.69
585.191	83.69
585.401	80.69
585.611	78.69
585.821	94.69
586.032	97.69
586.242	96.69
586.452	83.69
586.662	84.69
586.872	108.69
587.082	91.69
587.292	92.69
587.502	87.69
587.713	87.69
587.923	75.69
588.133	89.69
588.343	79.69
588.553	84.69
588.762	86.69
588.972	93.69
589.182	73.69
589.392	68.69
589.602	84.69
589.812	87.69
590.022	89.69
590.232	82.69
590.441	81.69
590.651	82.69
590.861	96.69
591.071	84.69
591.281	100.69
591.49	76.69
591.7	83.69
591.91	98.69
592.119	83.69
592.329	87.69
592.539	84.69
592.748	102.69
592.958	85.69
593.167	102.69
593.377	89.69
593.587	94.69
593.796	84.69
594.006	93.69
594.215	90.69
594.424	95.69
594.634	89.69
594.843	94.69
595.053	91.69
595.262	87.69
595.472	85.69
595.681	89.69
595.89	66.69
596.1	88.69
596.309	84.69
596.518	92.69
596.727	94.69
596.937	93.69
597.146	90.69
597.355	102.69
597.564	84.69
597.774	91.69
597.983	99.69
598.192	88.69
598.401	80.69
598.61	95.69
598.819	72.69
599.028	77.69
599.237	91.69
599.446	88.69
599.655	77.69
599.864	90.69
600.073	86.69
600.282	105.69
600.491	91.69
600.7	86.69
600.909	95.69
601.118	92.69
601.327	101.69
601.536	105.69
601.745	98.69
601.953	90.69
602.162	111.69
602.371	109.69
602.58	117.69
602.789	112.69
602.997	116.69
603.206	129.69
603.415	100.69
603.623	96.69
603.832	115.69
604.041	103.69
604.249	96.69
604.458	91.69
604.666	88.69
604.875	108.69
605.084	99.69
605.292	100.69
605.501	112.69
605.709	115.69
605.918	112.69
606.126	118.69
606.334	123.69
606.543	115.69
606.751	113.69
606.96	98.69
607.168	115.69
607.376	106.69
607.585	125.69
607.793	122.69
608.001	109.69
608.21	107.69
608.418	114.69
608.626	112.69
608.834	112.69
609.043	125.69
609.251	122.69
609.459	105.69
609.667	116.69
609.875	105.69
610.083	114.69
610.291	106.69
610.499	107.69
610.707	100.69
610.916	115.69
611.124	130.69
611.332	103.69
611.54	118.69
611.748	117.69
611.955	119.69
612.163	106.69
612.371	124.69
612.579	126.69
612.787	106.69
612.995	115.69
613.203	118.69
613.411	95.69
613.618	119.69
613.826	100.69
614.034	106.69
614.242	112.69
614.449	109.69
614.657	99.69
614.865	113.69
615.072	103.69
615.28	115.69
615.488	105.69
615.695	103.69
615.903	113.69
616.111	120.69
616.318	102.69
616.526	114.69
616.733	119.69
616.941	114.69
617.148	114.69
617.356	110.69
617.563	117.69
617.771	92.69
617.978	107.69
618.185	105.69
618.393	105.69
618.6	98.69
618.807	109.69
619.015	105.69
619.222	103.69
619.429	116.69
619.637	103.69
619.844	83.69
620.051	103.69
620.258	100.69
620.466	112.69
620.673	101.69
620.88	106.69
621.087	92.69
621.294	118.69
621.501	104.69
621.708	100.69
621.915	91.69
622.122	88.69
622.329	110.69
622.536	114.69
622.743	101.69
622.95	105.69
623.157	108.69
623.364	92.69
623.571	112.69
623.778	119.69
623.985	124.69
624.192	102.69
624.399	104.69
624.606	106.69
624.812	100.69
625.019	99.69
625.226	100.69
625.433	105.69
625.639	99.69
625.846	94.69
626.053	89.69
626.259	106.69
626.466	100.69
626.673	78.69
626.879	83.69
627.086	89.69
627.293	98.69
627.499	102.69
627.706	105.69
627.912	116.69
628.119	89.69
628.325	100.69
628.532	101.69
628.738	108.69
628.945	97.69
629.151	105.69
629.357	98.69
629.564	102.69
629.77	107.69
629.976	97.69
630.183	93.69
630.389	85.69
630.595	97.69
630.802	97.69
631.008	92.69
631.214	101.69
631.42	89.69
631.627	98.69
631.833	101.69
632.039	114.69
632.245	88.69
632.451	96.69
632.657	102.69
632.863	95.69
633.069	96.69
633.275	96.69
633.481	112.69
633.688	102.69
633.893	108.69
634.099	98.69
634.305	93.69
634.511	96.69
634.717	108.69
634.923	117.69
635.129	87.69
635.335	94.69
635.541	98.69
635.747	83.69
635.952	103.69
636.158	113.69
636.364	121.69
636.57	101.69
636.775	98.69
636.981	101.69
637.187	97.69
637.392	92.69
637.598	101.69
637.804	90.69
638.009	99.69
638.215	105.69
638.421	104.69
638.626	95.69
638.832	97.69
639.037	89.69
639.243	94.69
639.448	97.69
639.654	114.69
639.859	107.69
640.065	96.69
640.27	102.69
640.475	105.69
640.681	98.69
640.886	96.69
641.091	93.69
641.297	90.69
641.502	97.69
641.707	106.69
641.913	92.69
642.118	117.69
642.323	98.69
642.528	119.69
642.733	114.69
642.939	95.69
643.144	107.69
643.349	78.69
643.554	102.69
643.759	99.69
643.964	96.69
644.169	100.69
644.374	95.69
644.579	114.69
644.784	92.69
644.989	110.69
645.194	105.69
645.399	104.69
645.604	93.69
645.809	93.69
646.014	90.69
646.219	87.69
646.423	98.69
646.628	86.69
646.833	92.69
647.038	95.69
647.243	108.69
647.447	87.69
647.652	104.69
647.857	92.69
648.062	90.69
648.266	105.69
648.471	105.69
648.676	106.69
648.88	99.69
649.085	97.69
649.289	101.69
649.494	91.69
649.698	88.69
649.903	101.69
650.107	88.69
650.312	83.69
650.516	92.69
650.721	98.69
650.925	97.69
651.13	89.69
651.334	96.69
651.539	93.69
651.743	97.69
651.947	91.69
652.152	109.69
652.356	93.69
652.56	99.69
652.764	101.69
652.969	89.69
653.173	85.69
653.377	96.69
653.581	85.69
653.785	104.69
653.99	111.69
654.194	88.69
654.398	98.69
654.602	91.69
654.806	103.69
655.01	83.69
655.214	96.69
655.418	80.69
655.622	84.69
655.826	94.69
656.03	85.69
656.234	91.69
656.438	74.69
656.642	89.69
656.846	84.69
657.049	85.69
657.253	86.69
657.457	78.69
657.661	88.69
657.865	88.69
658.068	84.69
658.272	83.69
658.476	91.69
658.68	92.69
658.883	80.69
659.087	76.69
659.291	96.69
659.494	90.69
659.698	74.69
659.901	85.69
660.105	83.69
660.309	95.69
660.512	96.69
660.716	82.69
660.919	85.69
661.123	83.69
661.326	86.69
661.53	85.69
661.733	95.69
661.936	96.69
662.14	86.69
662.343	81.69
662.546	85.69
662.75	72.69
662.953	77.69
663.156	80.69
663.36	66.69
663.563	83.69
663.766	77.69
663.969	91.69
664.173	91.69
664.376	68.69
664.579	82.69
664.782	69.69
664.985	69.69
665.188	78.69
665.391	96.69
665.594	78.69
665.797	83.69
666	91.69
666.203	87.69
666.406	95.69
666.609	96.69
666.812	77.69
667.015	80.69
667.218	78.69
667.421	75.69
667.624	83.69
667.827	88.69
668.03	88.69
668.232	80.69
668.435	99.69
668.638	88.69
668.841	93.69
669.043	81.69
669.246	74.69
669.449	81.69
669.651	70.69
669.854	88.69
670.057	80.69
670.259	85.69
670.462	79.69
670.665	66.69
670.867	74.69
671.07	71.69
671.272	94.69
671.475	84.69
671.677	88.69
671.88	78.69
672.082	77.69
672.284	84.69
672.487	90.69
672.689	74.69
672.892	84.69
