Data from Location2.07152019.Energy5.Lamp.07192019.3%Agarose_HRD10591_14-55-51-358.txt Node
Date: Fri Jul 19 14:55:51 EDT 2019
User: cochatt
Spectrometer: HR+D1059
Trigger mode: 1
Integration Time (sec): 1.000000E-1
Scans to average: 1
Electric dark correction enabled: true
Nonlinearity correction enabled: false
Boxcar width: 0
XAxis mode: Wavelengths
Number of Pixels in Spectrum: 2048
>>>>>Begin Spectral Data<<<<<
223.165	-5.62
223.4	-5.62
223.635	-5.62
223.869	-21.62
224.104	-21.62
224.338	-11.62
224.573	-5.62
224.808	-14.62
225.042	1.38
225.277	-20.62
225.511	-6.62
225.746	15.38
225.98	3.38
226.215	16.38
226.449	25.38
226.683	25.38
226.918	3.38
227.152	17.38
227.387	23.38
227.621	39.38
227.856	44.38
228.09	40.38
228.324	41.38
228.559	50.38
228.793	51.38
229.027	53.38
229.262	58.38
229.496	59.38
229.73	65.38
229.964	59.38
230.199	70.38
230.433	82.38
230.667	64.38
230.901	76.38
231.136	76.38
231.37	75.38
231.604	78.38
231.838	87.38
232.072	75.38
232.306	92.38
232.541	92.38
232.775	83.38
233.009	90.38
233.243	88.38
233.477	82.38
233.711	95.38
233.945	70.38
234.179	80.38
234.413	96.38
234.647	89.38
234.881	77.38
235.115	91.38
235.349	73.38
235.583	83.38
235.817	82.38
236.051	85.38
236.285	89.38
236.519	75.38
236.753	80.38
236.987	72.38
237.221	83.38
237.455	83.38
237.689	83.38
237.922	72.38
238.156	72.38
238.39	79.38
238.624	79.38
238.858	89.38
239.091	79.38
239.325	71.38
239.559	92.38
239.793	79.38
240.027	72.38
240.26	87.38
240.494	74.38
240.728	88.38
240.961	79.38
241.195	88.38
241.429	74.38
241.662	68.38
241.896	72.38
242.13	69.38
242.363	71.38
242.597	79.38
242.83	79.38
243.064	82.38
243.298	84.38
243.531	72.38
243.765	72.38
243.998	77.38
244.232	73.38
244.465	86.38
244.699	81.38
244.932	79.38
245.166	82.38
245.399	75.38
245.633	78.38
245.866	88.38
246.099	77.38
246.333	67.38
246.566	70.38
246.8	85.38
247.033	77.38
247.266	74.38
247.5	86.38
247.733	71.38
247.966	87.38
248.2	65.38
248.433	70.38
248.666	74.38
248.899	78.38
249.133	77.38
249.366	88.38
249.599	76.38
249.832	75.38
250.066	77.38
250.299	89.38
250.532	87.38
250.765	80.38
250.998	89.38
251.231	73.38
251.465	80.38
251.698	82.38
251.931	75.38
252.164	86.38
252.397	87.38
252.63	80.38
252.863	72.38
253.096	85.38
253.329	89.38
253.562	89.38
253.795	82.38
254.028	66.38
254.261	78.38
254.494	82.38
254.727	94.38
254.96	87.38
255.193	85.38
255.426	80.38
255.659	68.38
255.892	88.38
256.124	88.38
256.357	79.38
256.59	79.38
256.823	78.38
257.056	73.38
257.289	83.38
257.521	68.38
257.754	72.38
257.987	89.38
258.22	93.38
258.452	82.38
258.685	85.38
258.918	90.38
259.151	89.38
259.383	77.38
259.616	71.38
259.849	82.38
260.081	70.38
260.314	87.38
260.547	91.38
260.779	87.38
261.012	72.38
261.244	84.38
261.477	76.38
261.71	92.38
261.942	75.38
262.175	79.38
262.407	72.38
262.64	89.38
262.872	77.38
263.105	86.38
263.337	69.38
263.57	82.38
263.802	77.38
264.035	69.38
264.267	76.38
264.499	87.38
264.732	83.38
264.964	76.38
265.197	91.38
265.429	67.38
265.661	71.38
265.894	82.38
266.126	85.38
266.358	72.38
266.591	75.38
266.823	77.38
267.055	74.38
267.287	77.38
267.52	81.38
267.752	80.38
267.984	73.38
268.216	69.38
268.448	78.38
268.681	92.38
268.913	84.38
269.145	89.38
269.377	75.38
269.609	92.38
269.841	93.38
270.073	76.38
270.306	98.38
270.538	82.38
270.77	88.38
271.002	82.38
271.234	90.38
271.466	81.38
271.698	73.38
271.93	88.38
272.162	91.38
272.394	85.38
272.626	80.38
272.858	86.38
273.09	82.38
273.322	93.38
273.553	71.38
273.785	89.38
274.017	72.38
274.249	74.38
274.481	75.38
274.713	79.38
274.945	87.38
275.176	85.38
275.408	77.38
275.64	71.38
275.872	88.38
276.104	74.38
276.335	79.38
276.567	94.38
276.799	72.38
277.031	92.38
277.262	73.38
277.494	82.38
277.726	83.38
277.957	85.38
278.189	78.38
278.421	84.38
278.652	87.38
278.884	85.38
279.115	76.38
279.347	83.38
279.579	90.38
279.81	104.38
280.042	86.38
280.273	70.38
280.505	78.38
280.736	88.38
280.968	95.38
281.199	86.38
281.431	95.38
281.662	84.38
281.894	92.38
282.125	77.38
282.356	95.38
282.588	85.38
282.819	80.38
283.051	87.38
283.282	79.38
283.513	95.38
283.745	93.38
283.976	98.38
284.207	80.38
284.439	91.38
284.67	93.38
284.901	89.38
285.132	75.38
285.364	83.38
285.595	93.38
285.826	79.38
286.057	87.38
286.288	95.38
286.52	90.38
286.751	87.38
286.982	90.38
287.213	92.38
287.444	88.38
287.675	96.38
287.906	84.38
288.138	98.38
288.369	76.38
288.6	78.38
288.831	78.38
289.062	95.38
289.293	84.38
289.524	76.38
289.755	97.38
289.986	69.38
290.217	81.38
290.448	89.38
290.679	82.38
290.91	80.38
291.141	84.38
291.371	90.38
291.602	71.38
291.833	76.38
292.064	79.38
292.295	85.38
292.526	83.38
292.757	93.38
292.987	82.38
293.218	85.38
293.449	88.38
293.68	73.38
293.91	91.38
294.141	89.38
294.372	91.38
294.603	83.38
294.833	83.38
295.064	91.38
295.295	85.38
295.525	89.38
295.756	81.38
295.987	74.38
296.217	96.38
296.448	84.38
296.679	84.38
296.909	99.38
297.14	96.38
297.37	87.38
297.601	87.38
297.831	79.38
298.062	72.38
298.292	85.38
298.523	81.38
298.753	100.38
298.984	64.38
299.214	85.38
299.445	80.38
299.675	99.38
299.905	82.38
300.136	83.38
300.366	76.38
300.597	80.38
300.827	85.38
301.057	86.38
301.288	91.38
301.518	93.38
301.748	88.38
301.979	91.38
302.209	69.38
302.439	92.38
302.669	97.38
302.9	93.38
303.13	82.38
303.36	94.38
303.59	91.38
303.82	90.38
304.051	84.38
304.281	89.38
304.511	100.38
304.741	89.38
304.971	104.38
305.201	83.38
305.431	86.38
305.661	86.38
305.891	89.38
306.121	86.38
306.352	85.38
306.582	90.38
306.812	67.38
307.042	93.38
307.272	82.38
307.502	90.38
307.731	82.38
307.961	83.38
308.191	85.38
308.421	89.38
308.651	82.38
308.881	81.38
309.111	79.38
309.341	77.38
309.571	91.38
309.8	86.38
310.03	85.38
310.26	93.38
310.49	89.38
310.72	74.38
310.949	92.38
311.179	86.38
311.409	84.38
311.639	82.38
311.868	83.38
312.098	88.38
312.328	83.38
312.557	98.38
312.787	82.38
313.017	87.38
313.246	89.38
313.476	96.38
313.706	73.38
313.935	69.38
314.165	85.38
314.394	78.38
314.624	82.38
314.853	91.38
315.083	92.38
315.312	77.38
315.542	91.38
315.771	74.38
316.001	97.38
316.23	97.38
316.46	92.38
316.689	67.38
316.919	84.38
317.148	92.38
317.377	87.38
317.607	77.38
317.836	83.38
318.065	83.38
318.295	98.38
318.524	94.38
318.753	87.38
318.983	82.38
319.212	91.38
319.441	83.38
319.67	73.38
319.9	81.38
320.129	72.38
320.358	96.38
320.587	85.38
320.816	90.38
321.046	100.38
321.275	87.38
321.504	85.38
321.733	79.38
321.962	76.38
322.191	72.38
322.42	88.38
322.649	95.38
322.878	85.38
323.108	86.38
323.337	86.38
323.566	88.38
323.795	77.38
324.024	79.38
324.253	75.38
324.482	77.38
324.71	94.38
324.939	93.38
325.168	97.38
325.397	85.38
325.626	75.38
325.855	81.38
326.084	89.38
326.313	88.38
326.542	77.38
326.77	84.38
326.999	93.38
327.228	94.38
327.457	86.38
327.686	81.38
327.914	94.38
328.143	82.38
328.372	96.38
328.6	89.38
328.829	84.38
329.058	89.38
329.287	87.38
329.515	87.38
329.744	84.38
329.972	81.38
330.201	93.38
330.43	88.38
330.658	85.38
330.887	88.38
331.115	84.38
331.344	103.38
331.572	75.38
331.801	88.38
332.03	98.38
332.258	96.38
332.486	75.38
332.715	72.38
332.943	83.38
333.172	77.38
333.4	85.38
333.629	86.38
333.857	79.38
334.085	78.38
334.314	82.38
334.542	85.38
334.771	80.38
334.999	89.38
335.227	89.38
335.455	82.38
335.684	85.38
335.912	81.38
336.14	91.38
336.369	89.38
336.597	90.38
336.825	87.38
337.053	74.38
337.281	88.38
337.51	83.38
337.738	88.38
337.966	93.38
338.194	76.38
338.422	92.38
338.65	85.38
338.878	96.38
339.106	84.38
339.334	81.38
339.562	87.38
339.79	88.38
340.018	84.38
340.246	78.38
340.474	64.38
340.702	83.38
340.93	92.38
341.158	83.38
341.386	85.38
341.614	80.38
341.842	91.38
342.07	80.38
342.298	77.38
342.526	81.38
342.754	95.38
342.981	81.38
343.209	87.38
343.437	73.38
343.665	81.38
343.893	80.38
344.12	85.38
344.348	94.38
344.576	85.38
344.804	84.38
345.031	91.38
345.259	98.38
345.487	85.38
345.714	92.38
345.942	96.38
346.17	73.38
346.397	95.38
346.625	80.38
346.853	90.38
347.08	80.38
347.308	84.38
347.535	83.38
347.763	85.38
347.99	96.38
348.218	75.38
348.445	87.38
348.673	81.38
348.9	84.38
349.128	83.38
349.355	87.38
349.583	85.38
349.81	81.38
350.037	74.38
350.265	87.38
350.492	91.38
350.72	85.38
350.947	81.38
351.174	88.38
351.402	90.38
351.629	91.38
351.856	87.38
352.083	78.38
352.311	98.38
352.538	83.38
352.765	89.38
352.992	88.38
353.22	82.38
353.447	80.38
353.674	73.38
353.901	86.38
354.128	82.38
354.355	77.38
354.583	76.38
354.81	79.38
355.037	79.38
355.264	81.38
355.491	75.38
355.718	62.38
355.945	88.38
356.172	89.38
356.399	84.38
356.626	81.38
356.853	77.38
357.08	68.38
357.307	72.38
357.534	87.38
357.761	78.38
357.988	88.38
358.215	96.38
358.441	83.38
358.668	79.38
358.895	87.38
359.122	96.38
359.349	85.38
359.576	79.38
359.802	84.38
360.029	86.38
360.256	85.38
360.483	78.38
360.709	80.38
360.936	103.38
361.163	74.38
361.39	78.38
361.616	94.38
361.843	78.38
362.07	80.38
362.296	85.38
362.523	90.38
362.749	88.38
362.976	98.38
363.203	83.38
363.429	85.38
363.656	76.38
363.882	81.38
364.109	80.38
364.335	84.38
364.562	91.38
364.788	84.38
365.015	99.38
365.241	92.38
365.468	88.38
365.694	76.38
365.92	74.38
366.147	81.38
366.373	77.38
366.599	93.38
366.826	93.38
367.052	96.38
367.278	89.38
367.505	95.38
367.731	87.38
367.957	83.38
368.184	78.38
368.41	91.38
368.636	89.38
368.862	78.38
369.089	98.38
369.315	94.38
369.541	94.38
369.767	82.38
369.993	96.38
370.219	91.38
370.445	98.38
370.672	86.38
370.898	85.38
371.124	91.38
371.35	98.38
371.576	95.38
371.802	91.38
372.028	94.38
372.254	84.38
372.48	91.38
372.706	93.38
372.932	84.38
373.158	105.38
373.384	91.38
373.61	88.38
373.835	106.38
374.061	85.38
374.287	113.38
374.513	85.38
374.739	91.38
374.965	86.38
375.191	84.38
375.416	90.38
375.642	95.38
375.868	89.38
376.094	98.38
376.319	96.38
376.545	104.38
376.771	97.38
376.997	86.38
377.222	87.38
377.448	81.38
377.674	95.38
377.899	101.38
378.125	101.38
378.35	93.38
378.576	93.38
378.802	90.38
379.027	85.38
379.253	92.38
379.478	107.38
379.704	96.38
379.929	99.38
380.155	92.38
380.38	91.38
380.606	91.38
380.831	92.38
381.057	103.38
381.282	87.38
381.507	101.38
381.733	105.38
381.958	101.38
382.184	105.38
382.409	106.38
382.634	89.38
382.86	106.38
383.085	98.38
383.31	96.38
383.535	94.38
383.761	100.38
383.986	102.38
384.211	98.38
384.436	85.38
384.662	99.38
384.887	95.38
385.112	91.38
385.337	91.38
385.562	107.38
385.787	98.38
386.013	101.38
386.238	103.38
386.463	90.38
386.688	89.38
386.913	90.38
387.138	120.38
387.363	113.38
387.588	100.38
387.813	101.38
388.038	108.38
388.263	96.38
388.488	98.38
388.713	86.38
388.938	105.38
389.163	97.38
389.387	119.38
389.612	104.38
389.837	116.38
390.062	92.38
390.287	85.38
390.512	106.38
390.736	96.38
390.961	87.38
391.186	102.38
391.411	103.38
391.636	97.38
391.86	105.38
392.085	95.38
392.31	104.38
392.534	116.38
392.759	104.38
392.984	111.38
393.208	114.38
393.433	99.38
393.658	102.38
393.882	113.38
394.107	95.38
394.331	102.38
394.556	104.38
394.78	107.38
395.005	111.38
395.229	103.38
395.454	105.38
395.678	99.38
395.903	105.38
396.127	96.38
396.352	107.38
396.576	105.38
396.801	101.38
397.025	116.38
397.249	118.38
397.474	100.38
397.698	106.38
397.922	112.38
398.147	101.38
398.371	123.38
398.595	105.38
398.82	106.38
399.044	114.38
399.268	124.38
399.492	114.38
399.717	108.38
399.941	113.38
400.165	118.38
400.389	106.38
400.613	109.38
400.837	93.38
401.062	95.38
401.286	114.38
401.51	111.38
401.734	119.38
401.958	113.38
402.182	111.38
402.406	112.38
402.63	123.38
402.854	120.38
403.078	116.38
403.302	117.38
403.526	107.38
403.75	120.38
403.974	119.38
404.198	101.38
404.422	115.38
404.645	122.38
404.869	109.38
405.093	121.38
405.317	116.38
405.541	120.38
405.765	120.38
405.988	107.38
406.212	111.38
406.436	114.38
406.66	113.38
406.883	128.38
407.107	122.38
407.331	116.38
407.555	131.38
407.778	109.38
408.002	130.38
408.226	116.38
408.449	121.38
408.673	122.38
408.896	121.38
409.12	107.38
409.344	123.38
409.567	110.38
409.791	104.38
410.014	115.38
410.238	127.38
410.461	120.38
410.685	121.38
410.908	120.38
411.132	116.38
411.355	123.38
411.578	115.38
411.802	106.38
412.025	120.38
412.249	121.38
412.472	115.38
412.695	110.38
412.919	117.38
413.142	131.38
413.365	134.38
413.589	126.38
413.812	123.38
414.035	121.38
414.258	128.38
414.482	122.38
414.705	119.38
414.928	117.38
415.151	117.38
415.374	125.38
415.597	122.38
415.821	127.38
416.044	129.38
416.267	123.38
416.49	117.38
416.713	127.38
416.936	132.38
417.159	136.38
417.382	131.38
417.605	121.38
417.828	109.38
418.051	134.38
418.274	136.38
418.497	142.38
418.72	132.38
418.943	134.38
419.166	121.38
419.389	139.38
419.611	137.38
419.834	131.38
420.057	136.38
420.28	126.38
420.503	140.38
420.726	135.38
420.948	133.38
421.171	130.38
421.394	118.38
421.617	128.38
421.839	142.38
422.062	135.38
422.285	129.38
422.507	135.38
422.73	129.38
422.953	140.38
423.175	123.38
423.398	123.38
423.621	128.38
423.843	110.38
424.066	144.38
424.288	158.38
424.511	165.38
424.733	143.38
424.956	126.38
425.178	136.38
425.401	134.38
425.623	140.38
425.846	134.38
426.068	131.38
426.291	121.38
426.513	125.38
426.735	130.38
426.958	137.38
427.18	140.38
427.402	131.38
427.625	128.38
427.847	115.38
428.069	133.38
428.292	128.38
428.514	125.38
428.736	142.38
428.958	128.38
429.181	144.38
429.403	130.38
429.625	135.38
429.847	123.38
430.069	126.38
430.292	142.38
430.514	128.38
430.736	120.38
430.958	141.38
431.18	124.38
431.402	116.38
431.624	92.38
431.846	115.38
432.068	98.38
432.29	100.38
432.512	119.38
432.734	113.38
432.956	127.38
433.178	139.38
433.4	132.38
433.622	158.38
433.844	128.38
434.066	127.38
434.287	116.38
434.509	86.38
434.731	106.38
434.953	122.38
435.175	127.38
435.397	133.38
435.618	121.38
435.84	126.38
436.062	108.38
436.284	124.38
436.505	116.38
436.727	139.38
436.949	126.38
437.17	115.38
437.392	127.38
437.614	125.38
437.835	105.38
438.057	123.38
438.278	113.38
438.5	123.38
438.721	125.38
438.943	133.38
439.165	145.38
439.386	126.38
439.608	139.38
439.829	135.38
440.05	165.38
440.272	148.38
440.493	142.38
440.715	144.38
440.936	140.38
441.158	141.38
441.379	128.38
441.6	133.38
441.822	141.38
442.043	142.38
442.264	140.38
442.486	140.38
442.707	145.38
442.928	150.38
443.149	148.38
443.371	131.38
443.592	155.38
443.813	138.38
444.034	133.38
444.255	155.38
444.476	150.38
444.698	129.38
444.919	143.38
445.14	273.38
445.361	186.38
445.582	141.38
445.803	149.38
446.024	145.38
446.245	157.38
446.466	156.38
446.687	150.38
446.908	149.38
447.129	159.38
447.35	149.38
447.571	146.38
447.792	130.38
448.013	145.38
448.234	156.38
448.455	153.38
448.675	135.38
448.896	140.38
449.117	130.38
449.338	141.38
449.559	134.38
449.779	143.38
450	134.38
450.221	133.38
450.442	133.38
450.662	150.38
450.883	140.38
451.104	129.38
451.324	136.38
451.545	126.38
451.766	137.38
451.986	125.38
452.207	130.38
452.428	119.38
452.648	124.38
452.869	125.38
453.089	112.38
453.31	122.38
453.53	123.38
453.751	116.38
453.971	111.38
454.192	112.38
454.412	111.38
454.633	120.38
454.853	126.38
455.073	111.38
455.294	119.38
455.514	129.38
455.734	115.38
455.955	121.38
456.175	124.38
456.395	122.38
456.616	104.38
456.836	96.38
457.056	95.38
457.276	96.38
457.497	114.38
457.717	115.38
457.937	107.38
458.157	100.38
458.377	115.38
458.598	106.38
458.818	95.38
459.038	97.38
459.258	91.38
459.478	91.38
459.698	91.38
459.918	92.38
460.138	105.38
460.358	110.38
460.578	106.38
460.798	112.38
461.018	113.38
461.238	114.38
461.458	127.38
461.678	115.38
461.898	116.38
462.118	108.38
462.338	123.38
462.558	115.38
462.777	121.38
462.997	103.38
463.217	108.38
463.437	122.38
463.657	116.38
463.876	114.38
464.096	114.38
464.316	87.38
464.536	106.38
464.755	117.38
464.975	118.38
465.195	100.38
465.414	120.38
465.634	99.38
465.854	100.38
466.073	119.38
466.293	129.38
466.512	121.38
466.732	141.38
466.951	141.38
467.171	123.38
467.391	132.38
467.61	125.38
467.829	129.38
468.049	120.38
468.268	142.38
468.488	138.38
468.707	146.38
468.927	136.38
469.146	145.38
469.365	136.38
469.585	147.38
469.804	133.38
470.023	127.38
470.243	156.38
470.462	145.38
470.681	133.38
470.901	144.38
471.12	139.38
471.339	149.38
471.558	138.38
471.777	143.38
471.997	133.38
472.216	131.38
472.435	117.38
472.654	119.38
472.873	103.38
473.092	119.38
473.311	127.38
473.53	130.38
473.749	137.38
473.968	118.38
474.187	119.38
474.406	115.38
474.625	133.38
474.844	123.38
475.063	140.38
475.282	127.38
475.501	138.38
475.72	118.38
475.939	129.38
476.158	129.38
476.377	116.38
476.596	136.38
476.814	119.38
477.033	111.38
477.252	117.38
477.471	113.38
477.69	129.38
477.908	141.38
478.127	131.38
478.346	124.38
478.564	125.38
478.783	133.38
479.002	150.38
479.22	149.38
479.439	153.38
479.658	142.38
479.876	113.38
480.095	104.38
480.313	117.38
480.532	119.38
480.751	102.38
480.969	101.38
481.188	87.38
481.406	83.38
481.624	94.38
481.843	92.38
482.061	89.38
482.28	119.38
482.498	120.38
482.717	110.38
482.935	119.38
483.153	136.38
483.372	147.38
483.59	146.38
483.808	142.38
484.027	140.38
484.245	130.38
484.463	132.38
484.681	164.38
484.9	134.38
485.118	137.38
485.336	122.38
485.554	107.38
485.772	104.38
485.99	104.38
486.209	118.38
486.427	120.38
486.645	120.38
486.863	130.38
487.081	140.38
487.299	155.38
487.517	132.38
487.735	165.38
487.953	175.38
488.171	175.38
488.389	156.38
488.607	143.38
488.825	138.38
489.043	145.38
489.261	137.38
489.479	147.38
489.696	143.38
489.914	151.38
490.132	146.38
490.35	156.38
490.568	151.38
490.786	166.38
491.003	169.38
491.221	183.38
491.439	176.38
491.657	190.38
491.874	194.38
492.092	215.38
492.31	245.38
492.527	230.38
492.745	209.38
492.963	196.38
493.18	188.38
493.398	183.38
493.615	185.38
493.833	170.38
494.05	169.38
494.268	160.38
494.485	179.38
494.703	168.38
494.92	190.38
495.138	177.38
495.355	192.38
495.573	163.38
495.79	155.38
496.008	171.38
496.225	157.38
496.442	165.38
496.66	159.38
496.877	167.38
497.094	154.38
497.312	180.38
497.529	161.38
497.746	157.38
497.963	138.38
498.181	137.38
498.398	128.38
498.615	117.38
498.832	113.38
499.049	113.38
499.267	133.38
499.484	127.38
499.701	139.38
499.918	133.38
500.135	138.38
500.352	132.38
500.569	141.38
500.786	149.38
501.003	145.38
501.22	149.38
501.437	119.38
501.654	130.38
501.871	123.38
502.088	131.38
502.305	128.38
502.522	136.38
502.739	125.38
502.956	131.38
503.172	124.38
503.389	124.38
503.606	116.38
503.823	133.38
504.04	114.38
504.256	121.38
504.473	111.38
504.69	108.38
504.907	120.38
505.123	130.38
505.34	121.38
505.557	122.38
505.773	111.38
505.99	127.38
506.207	118.38
506.423	120.38
506.64	117.38
506.856	117.38
507.073	113.38
507.289	123.38
507.506	117.38
507.722	112.38
507.939	121.38
508.155	106.38
508.372	115.38
508.588	108.38
508.805	95.38
509.021	99.38
509.238	102.38
509.454	103.38
509.67	100.38
509.887	102.38
510.103	89.38
510.319	86.38
510.536	90.38
510.752	83.38
510.968	82.38
511.184	80.38
511.401	95.38
511.617	92.38
511.833	74.38
512.049	90.38
512.265	98.38
512.481	98.38
512.698	98.38
512.914	103.38
513.13	90.38
513.346	79.38
513.562	92.38
513.778	96.38
513.994	98.38
514.21	85.38
514.426	94.38
514.642	102.38
514.858	96.38
515.074	78.38
515.29	93.38
515.506	108.38
515.721	81.38
515.937	97.38
516.153	98.38
516.369	72.38
516.585	98.38
516.801	100.38
517.016	95.38
517.232	89.38
517.448	88.38
517.664	97.38
517.879	96.38
518.095	98.38
518.311	101.38
518.527	95.38
518.742	102.38
518.958	98.38
519.173	103.38
519.389	104.38
519.605	111.38
519.82	111.38
520.036	103.38
520.251	119.38
520.467	98.38
520.682	100.38
520.898	96.38
521.113	69.38
521.329	78.38
521.544	89.38
521.76	92.38
521.975	97.38
522.19	95.38
522.406	91.38
522.621	96.38
522.836	110.38
523.052	99.38
523.267	82.38
523.482	117.38
523.698	118.38
523.913	118.38
524.128	121.38
524.343	131.38
524.559	115.38
524.774	114.38
524.989	122.38
525.204	131.38
525.419	126.38
525.634	105.38
525.849	124.38
526.064	115.38
526.28	123.38
526.495	101.38
526.71	99.38
526.925	97.38
527.14	89.38
527.355	93.38
527.57	91.38
527.785	104.38
527.999	99.38
528.214	109.38
528.429	108.38
528.644	138.38
528.859	133.38
529.074	144.38
529.289	151.38
529.503	160.38
529.718	139.38
529.933	123.38
530.148	111.38
530.363	105.38
530.577	87.38
530.792	93.38
531.007	87.38
531.221	84.38
531.436	75.38
531.651	90.38
531.865	71.38
532.08	90.38
532.295	85.38
532.509	94.38
532.724	88.38
532.938	84.38
533.153	103.38
533.367	112.38
533.582	117.38
533.796	120.38
534.011	116.38
534.225	98.38
534.44	86.38
534.654	102.38
534.868	91.38
535.083	95.38
535.297	113.38
535.511	107.38
535.726	101.38
535.94	95.38
536.154	89.38
536.369	87.38
536.583	77.38
536.797	99.38
537.011	83.38
537.225	89.38
537.44	88.38
537.654	84.38
537.868	73.38
538.082	101.38
538.296	106.38
538.51	110.38
538.724	105.38
538.938	113.38
539.153	117.38
539.367	121.38
539.581	118.38
539.795	107.38
540.009	103.38
540.222	91.38
540.436	94.38
540.65	108.38
540.864	117.38
541.078	131.38
541.292	157.38
541.506	162.38
541.72	162.38
541.934	206.38
542.147	189.38
542.361	190.38
542.575	160.38
542.789	147.38
543.002	137.38
543.216	129.38
543.43	124.38
543.644	129.38
543.857	140.38
544.071	139.38
544.285	156.38
544.498	164.38
544.712	159.38
544.925	151.38
545.139	176.38
545.352	151.38
545.566	165.38
545.779	157.38
545.993	149.38
546.206	153.38
546.42	166.38
546.633	160.38
546.847	166.38
547.06	151.38
547.274	172.38
547.487	200.38
547.7	162.38
547.914	162.38
548.127	162.38
548.34	173.38
548.554	151.38
548.767	149.38
548.98	159.38
549.193	161.38
549.407	143.38
549.62	154.38
549.833	142.38
550.046	147.38
550.259	162.38
550.473	154.38
550.686	148.38
550.899	142.38
551.112	154.38
551.325	126.38
551.538	131.38
551.751	129.38
551.964	121.38
552.177	121.38
552.39	126.38
552.603	147.38
552.816	149.38
553.029	158.38
553.242	161.38
553.455	165.38
553.667	158.38
553.88	154.38
554.093	155.38
554.306	153.38
554.519	157.38
554.732	146.38
554.944	142.38
555.157	147.38
555.37	145.38
555.583	145.38
555.795	139.38
556.008	131.38
556.221	124.38
556.433	129.38
556.646	133.38
556.859	140.38
557.071	135.38
557.284	151.38
557.496	145.38
557.709	145.38
557.921	138.38
558.134	132.38
558.346	146.38
558.559	128.38
558.771	141.38
558.984	134.38
559.196	137.38
559.409	130.38
559.621	119.38
559.833	125.38
560.046	132.38
560.258	135.38
560.47	131.38
560.683	124.38
560.895	131.38
561.107	129.38
561.32	131.38
561.532	133.38
561.744	128.38
561.956	139.38
562.168	129.38
562.381	139.38
562.593	143.38
562.805	155.38
563.017	115.38
563.229	129.38
563.441	129.38
563.653	128.38
563.865	126.38
564.077	115.38
564.289	131.38
564.501	132.38
564.713	111.38
564.925	111.38
565.137	121.38
565.349	123.38
565.561	108.38
565.773	129.38
565.985	115.38
566.197	115.38
566.408	113.38
566.62	120.38
566.832	122.38
567.044	127.38
567.255	108.38
567.467	114.38
567.679	115.38
567.891	118.38
568.102	106.38
568.314	91.38
568.526	91.38
568.737	91.38
568.949	77.38
569.161	92.38
569.372	78.38
569.584	81.38
569.795	90.38
570.007	82.38
570.218	74.38
570.43	76.38
570.641	86.38
570.853	102.38
571.064	100.38
571.276	111.38
571.487	116.38
571.698	108.38
571.91	92.38
572.121	82.38
572.333	97.38
572.544	100.38
572.755	102.38
572.966	91.38
573.178	88.38
573.389	83.38
573.6	91.38
573.811	87.38
574.023	92.38
574.234	91.38
574.445	83.38
574.656	97.38
574.867	90.38
575.078	95.38
575.289	105.38
575.501	101.38
575.712	83.38
575.923	99.38
576.134	90.38
576.345	92.38
576.556	106.38
576.767	113.38
576.978	106.38
577.188	95.38
577.399	92.38
577.61	89.38
577.821	101.38
578.032	98.38
578.243	74.38
578.454	87.38
578.665	92.38
578.875	80.38
579.086	79.38
579.297	84.38
579.508	79.38
579.718	93.38
579.929	90.38
580.14	84.38
580.35	100.38
580.561	78.38
580.772	84.38
580.982	78.38
581.193	103.38
581.403	94.38
581.614	96.38
581.825	88.38
582.035	95.38
582.246	108.38
582.456	103.38
582.667	92.38
582.877	104.38
583.087	86.38
583.298	88.38
583.508	78.38
583.719	81.38
583.929	93.38
584.139	74.38
584.35	73.38
584.56	95.38
584.77	80.38
584.981	100.38
585.191	75.38
585.401	84.38
585.611	79.38
585.821	96.38
586.032	74.38
586.242	80.38
586.452	82.38
586.662	77.38
586.872	83.38
587.082	60.38
587.292	83.38
587.502	90.38
587.713	83.38
587.923	88.38
588.133	106.38
588.343	95.38
588.553	83.38
588.762	87.38
588.972	85.38
589.182	91.38
589.392	84.38
589.602	95.38
589.812	86.38
590.022	110.38
590.232	87.38
590.441	89.38
590.651	81.38
590.861	69.38
591.071	92.38
591.281	89.38
591.49	79.38
591.7	90.38
591.91	108.38
592.119	98.38
592.329	92.38
592.539	91.38
592.748	80.38
592.958	89.38
593.167	85.38
593.377	90.38
593.587	104.38
593.796	84.38
594.006	69.38
594.215	84.38
594.424	90.38
594.634	76.38
594.843	89.38
595.053	84.38
595.262	93.38
595.472	94.38
595.681	87.38
595.89	101.38
596.1	88.38
596.309	82.38
596.518	86.38
596.727	101.38
596.937	92.38
597.146	98.38
597.355	78.38
597.564	105.38
597.774	92.38
597.983	92.38
598.192	92.38
598.401	89.38
598.61	85.38
598.819	93.38
599.028	88.38
599.237	98.38
599.446	89.38
599.655	85.38
599.864	90.38
600.073	97.38
600.282	91.38
600.491	91.38
600.7	101.38
600.909	89.38
601.118	86.38
601.327	103.38
601.536	108.38
601.745	97.38
601.953	121.38
602.162	96.38
602.371	110.38
602.58	122.38
602.789	103.38
602.997	114.38
603.206	121.38
603.415	107.38
603.623	105.38
603.832	97.38
604.041	111.38
604.249	104.38
604.458	108.38
604.666	90.38
604.875	94.38
605.084	104.38
605.292	93.38
605.501	113.38
605.709	125.38
605.918	97.38
606.126	112.38
606.334	111.38
606.543	104.38
606.751	105.38
606.96	103.38
607.168	100.38
607.376	108.38
607.585	122.38
607.793	108.38
608.001	99.38
608.21	107.38
608.418	112.38
608.626	111.38
608.834	104.38
609.043	116.38
609.251	120.38
609.459	127.38
609.667	116.38
609.875	113.38
610.083	115.38
610.291	115.38
610.499	118.38
610.707	100.38
610.916	111.38
611.124	127.38
611.332	115.38
611.54	109.38
611.748	105.38
611.955	107.38
612.163	127.38
612.371	119.38
612.579	125.38
612.787	123.38
612.995	125.38
613.203	116.38
613.411	115.38
613.618	114.38
613.826	113.38
614.034	108.38
614.242	118.38
614.449	119.38
614.657	119.38
614.865	126.38
615.072	112.38
615.28	116.38
615.488	121.38
615.695	119.38
615.903	111.38
616.111	118.38
616.318	118.38
616.526	109.38
616.733	115.38
616.941	116.38
617.148	106.38
617.356	111.38
617.563	129.38
617.771	111.38
617.978	100.38
618.185	108.38
618.393	116.38
618.6	112.38
618.807	125.38
619.015	127.38
619.222	112.38
619.429	108.38
619.637	117.38
619.844	113.38
620.051	92.38
620.258	113.38
620.466	104.38
620.673	103.38
620.88	114.38
621.087	104.38
621.294	113.38
621.501	104.38
621.708	99.38
621.915	109.38
622.122	103.38
622.329	103.38
622.536	116.38
622.743	110.38
622.95	106.38
623.157	109.38
623.364	120.38
623.571	101.38
623.778	102.38
623.985	122.38
624.192	99.38
624.399	102.38
624.606	107.38
624.812	110.38
625.019	100.38
625.226	104.38
625.433	101.38
625.639	121.38
625.846	114.38
626.053	98.38
626.259	101.38
626.466	113.38
626.673	86.38
626.879	97.38
627.086	100.38
627.293	106.38
627.499	99.38
627.706	95.38
627.912	105.38
628.119	112.38
628.325	113.38
628.532	104.38
628.738	108.38
628.945	111.38
629.151	107.38
629.357	101.38
629.564	100.38
629.77	86.38
629.976	106.38
630.183	84.38
630.389	102.38
630.595	92.38
630.802	101.38
631.008	89.38
631.214	98.38
631.42	108.38
631.627	104.38
631.833	117.38
632.039	84.38
632.245	99.38
632.451	107.38
632.657	108.38
632.863	100.38
633.069	106.38
633.275	103.38
633.481	111.38
633.688	105.38
633.893	97.38
634.099	114.38
634.305	102.38
634.511	103.38
634.717	100.38
634.923	104.38
635.129	91.38
635.335	101.38
635.541	96.38
635.747	86.38
635.952	93.38
636.158	89.38
636.364	124.38
636.57	103.38
636.775	97.38
636.981	96.38
637.187	97.38
637.392	102.38
637.598	107.38
637.804	108.38
638.009	96.38
638.215	100.38
638.421	85.38
638.626	99.38
638.832	95.38
639.037	89.38
639.243	103.38
639.448	89.38
639.654	108.38
639.859	87.38
640.065	104.38
640.27	107.38
640.475	95.38
640.681	113.38
640.886	103.38
641.091	114.38
641.297	91.38
641.502	98.38
641.707	100.38
641.913	95.38
642.118	87.38
642.323	79.38
642.528	107.38
642.733	107.38
642.939	111.38
643.144	98.38
643.349	102.38
643.554	100.38
643.759	105.38
643.964	84.38
644.169	102.38
644.374	100.38
644.579	101.38
644.784	97.38
644.989	90.38
645.194	84.38
645.399	101.38
645.604	104.38
645.809	121.38
646.014	107.38
646.219	107.38
646.423	106.38
646.628	91.38
646.833	95.38
647.038	114.38
647.243	108.38
647.447	94.38
647.652	93.38
647.857	92.38
648.062	98.38
648.266	100.38
648.471	89.38
648.676	89.38
648.88	115.38
649.085	107.38
649.289	93.38
649.494	110.38
649.698	95.38
649.903	85.38
650.107	98.38
650.312	104.38
650.516	83.38
650.721	97.38
650.925	93.38
651.13	96.38
651.334	105.38
651.539	100.38
651.743	97.38
651.947	97.38
652.152	99.38
652.356	93.38
652.56	93.38
652.764	83.38
652.969	90.38
653.173	93.38
653.377	93.38
653.581	100.38
653.785	103.38
653.99	95.38
654.194	91.38
654.398	87.38
654.602	83.38
654.806	96.38
655.01	107.38
655.214	95.38
655.418	92.38
655.622	99.38
655.826	93.38
656.03	89.38
656.234	84.38
656.438	92.38
656.642	81.38
656.846	83.38
657.049	93.38
657.253	103.38
657.457	103.38
657.661	94.38
657.865	92.38
658.068	73.38
658.272	80.38
658.476	84.38
658.68	86.38
658.883	87.38
659.087	93.38
659.291	92.38
659.494	89.38
659.698	84.38
659.901	87.38
660.105	89.38
660.309	81.38
660.512	79.38
660.716	99.38
660.919	87.38
661.123	91.38
661.326	88.38
661.53	82.38
661.733	87.38
661.936	79.38
662.14	89.38
662.343	71.38
662.546	73.38
662.75	89.38
662.953	87.38
663.156	83.38
663.36	87.38
663.563	87.38
663.766	71.38
663.969	90.38
664.173	79.38
664.376	89.38
664.579	77.38
664.782	77.38
664.985	66.38
665.188	76.38
665.391	103.38
665.594	81.38
665.797	79.38
666	87.38
666.203	86.38
666.406	85.38
666.609	81.38
666.812	83.38
667.015	76.38
667.218	98.38
667.421	87.38
667.624	78.38
667.827	84.38
668.03	85.38
668.232	79.38
668.435	79.38
668.638	96.38
668.841	74.38
669.043	90.38
669.246	98.38
669.449	85.38
669.651	80.38
669.854	103.38
670.057	73.38
670.259	68.38
670.462	81.38
670.665	76.38
670.867	92.38
671.07	78.38
671.272	82.38
671.475	90.38
671.677	87.38
671.88	85.38
672.082	75.38
672.284	80.38
672.487	86.38
672.689	84.38
672.892	79.38
