Data from Location2.07152019.Energy5.Lamp.07192019.3%Agarose_HRD10591_14-57-20-360.txt Node
Date: Fri Jul 19 14:57:20 EDT 2019
User: cochatt
Spectrometer: HR+D1059
Trigger mode: 1
Integration Time (sec): 1.000000E-1
Scans to average: 1
Electric dark correction enabled: true
Nonlinearity correction enabled: false
Boxcar width: 0
XAxis mode: Wavelengths
Number of Pixels in Spectrum: 2048
>>>>>Begin Spectral Data<<<<<
223.165	-13.31
223.4	-13.31
223.635	-13.31
223.869	-24.31
224.104	-25.31
224.338	-11.31
224.573	-15.31
224.808	-7.31
225.042	-4.31
225.277	4.69
225.511	1.69
225.746	13.69
225.98	-7.31
226.215	10.69
226.449	18.69
226.683	23.69
226.918	16.69
227.152	18.69
227.387	30.69
227.621	28.69
227.856	44.69
228.09	53.69
228.324	68.69
228.559	54.69
228.793	52.69
229.027	48.69
229.262	58.69
229.496	51.69
229.73	72.69
229.964	71.69
230.199	72.69
230.433	73.69
230.667	82.69
230.901	76.69
231.136	74.69
231.37	78.69
231.604	80.69
231.838	83.69
232.072	74.69
232.306	70.69
232.541	89.69
232.775	83.69
233.009	84.69
233.243	76.69
233.477	87.69
233.711	72.69
233.945	80.69
234.179	80.69
234.413	81.69
234.647	78.69
234.881	80.69
235.115	73.69
235.349	87.69
235.583	89.69
235.817	60.69
236.051	67.69
236.285	77.69
236.519	67.69
236.753	67.69
236.987	83.69
237.221	81.69
237.455	76.69
237.689	82.69
237.922	73.69
238.156	79.69
238.39	83.69
238.624	65.69
238.858	85.69
239.091	72.69
239.325	86.69
239.559	75.69
239.793	79.69
240.027	79.69
240.26	79.69
240.494	88.69
240.728	86.69
240.961	78.69
241.195	79.69
241.429	75.69
241.662	81.69
241.896	82.69
242.13	60.69
242.363	82.69
242.597	76.69
242.83	81.69
243.064	77.69
243.298	69.69
243.531	88.69
243.765	77.69
243.998	68.69
244.232	85.69
244.465	72.69
244.699	72.69
244.932	77.69
245.166	74.69
245.399	71.69
245.633	75.69
245.866	89.69
246.099	67.69
246.333	83.69
246.566	79.69
246.8	78.69
247.033	81.69
247.266	75.69
247.5	82.69
247.733	84.69
247.966	80.69
248.2	90.69
248.433	78.69
248.666	89.69
248.899	79.69
249.133	86.69
249.366	80.69
249.599	79.69
249.832	78.69
250.066	85.69
250.299	74.69
250.532	81.69
250.765	82.69
250.998	75.69
251.231	86.69
251.465	73.69
251.698	82.69
251.931	83.69
252.164	77.69
252.397	78.69
252.63	79.69
252.863	67.69
253.096	83.69
253.329	82.69
253.562	80.69
253.795	84.69
254.028	74.69
254.261	89.69
254.494	74.69
254.727	93.69
254.96	85.69
255.193	78.69
255.426	90.69
255.659	85.69
255.892	89.69
256.124	80.69
256.357	78.69
256.59	84.69
256.823	79.69
257.056	84.69
257.289	68.69
257.521	83.69
257.754	89.69
257.987	66.69
258.22	77.69
258.452	73.69
258.685	77.69
258.918	74.69
259.151	74.69
259.383	69.69
259.616	76.69
259.849	90.69
260.081	81.69
260.314	73.69
260.547	68.69
260.779	76.69
261.012	73.69
261.244	76.69
261.477	82.69
261.71	103.69
261.942	80.69
262.175	83.69
262.407	77.69
262.64	75.69
262.872	68.69
263.105	85.69
263.337	84.69
263.57	81.69
263.802	90.69
264.035	79.69
264.267	89.69
264.499	74.69
264.732	75.69
264.964	79.69
265.197	86.69
265.429	77.69
265.661	84.69
265.894	76.69
266.126	80.69
266.358	82.69
266.591	87.69
266.823	84.69
267.055	79.69
267.287	78.69
267.52	89.69
267.752	105.69
267.984	85.69
268.216	100.69
268.448	91.69
268.681	72.69
268.913	79.69
269.145	76.69
269.377	84.69
269.609	81.69
269.841	82.69
270.073	94.69
270.306	83.69
270.538	86.69
270.77	74.69
271.002	83.69
271.234	73.69
271.466	87.69
271.698	69.69
271.93	86.69
272.162	80.69
272.394	76.69
272.626	67.69
272.858	70.69
273.09	83.69
273.322	94.69
273.553	90.69
273.785	75.69
274.017	80.69
274.249	79.69
274.481	81.69
274.713	79.69
274.945	80.69
275.176	69.69
275.408	81.69
275.64	88.69
275.872	89.69
276.104	88.69
276.335	97.69
276.567	90.69
276.799	70.69
277.031	78.69
277.262	70.69
277.494	91.69
277.726	89.69
277.957	90.69
278.189	81.69
278.421	79.69
278.652	78.69
278.884	77.69
279.115	94.69
279.347	89.69
279.579	98.69
279.81	71.69
280.042	78.69
280.273	82.69
280.505	86.69
280.736	80.69
280.968	88.69
281.199	88.69
281.431	77.69
281.662	84.69
281.894	92.69
282.125	94.69
282.356	98.69
282.588	77.69
282.819	80.69
283.051	96.69
283.282	78.69
283.513	94.69
283.745	99.69
283.976	78.69
284.207	89.69
284.439	88.69
284.67	86.69
284.901	87.69
285.132	85.69
285.364	69.69
285.595	90.69
285.826	88.69
286.057	66.69
286.288	81.69
286.52	83.69
286.751	79.69
286.982	87.69
287.213	75.69
287.444	70.69
287.675	87.69
287.906	84.69
288.138	83.69
288.369	75.69
288.6	81.69
288.831	96.69
289.062	79.69
289.293	90.69
289.524	81.69
289.755	86.69
289.986	87.69
290.217	89.69
290.448	101.69
290.679	76.69
290.91	80.69
291.141	69.69
291.371	73.69
291.602	99.69
291.833	81.69
292.064	71.69
292.295	97.69
292.526	78.69
292.757	73.69
292.987	93.69
293.218	71.69
293.449	70.69
293.68	90.69
293.91	84.69
294.141	80.69
294.372	91.69
294.603	79.69
294.833	88.69
295.064	75.69
295.295	78.69
295.525	82.69
295.756	85.69
295.987	93.69
296.217	70.69
296.448	88.69
296.679	74.69
296.909	85.69
297.14	89.69
297.37	85.69
297.601	94.69
297.831	86.69
298.062	76.69
298.292	75.69
298.523	78.69
298.753	74.69
298.984	87.69
299.214	85.69
299.445	98.69
299.675	81.69
299.905	81.69
300.136	88.69
300.366	84.69
300.597	88.69
300.827	91.69
301.057	78.69
301.288	95.69
301.518	79.69
301.748	75.69
301.979	85.69
302.209	89.69
302.439	76.69
302.669	84.69
302.9	88.69
303.13	92.69
303.36	94.69
303.59	85.69
303.82	79.69
304.051	72.69
304.281	88.69
304.511	84.69
304.741	86.69
304.971	92.69
305.201	81.69
305.431	81.69
305.661	96.69
305.891	79.69
306.121	91.69
306.352	82.69
306.582	73.69
306.812	105.69
307.042	99.69
307.272	88.69
307.502	85.69
307.731	82.69
307.961	97.69
308.191	85.69
308.421	95.69
308.651	75.69
308.881	87.69
309.111	91.69
309.341	67.69
309.571	81.69
309.8	79.69
310.03	89.69
310.26	84.69
310.49	78.69
310.72	84.69
310.949	76.69
311.179	89.69
311.409	85.69
311.639	67.69
311.868	83.69
312.098	92.69
312.328	92.69
312.557	95.69
312.787	82.69
313.017	84.69
313.246	82.69
313.476	96.69
313.706	80.69
313.935	89.69
314.165	88.69
314.394	90.69
314.624	81.69
314.853	95.69
315.083	82.69
315.312	76.69
315.542	104.69
315.771	85.69
316.001	88.69
316.23	103.69
316.46	78.69
316.689	88.69
316.919	85.69
317.148	79.69
317.377	92.69
317.607	81.69
317.836	83.69
318.065	83.69
318.295	91.69
318.524	80.69
318.753	83.69
318.983	91.69
319.212	97.69
319.441	89.69
319.67	74.69
319.9	66.69
320.129	66.69
320.358	72.69
320.587	79.69
320.816	91.69
321.046	98.69
321.275	90.69
321.504	75.69
321.733	82.69
321.962	94.69
322.191	88.69
322.42	83.69
322.649	81.69
322.878	84.69
323.108	110.69
323.337	92.69
323.566	81.69
323.795	84.69
324.024	87.69
324.253	83.69
324.482	90.69
324.71	87.69
324.939	76.69
325.168	93.69
325.397	76.69
325.626	82.69
325.855	103.69
326.084	90.69
326.313	95.69
326.542	89.69
326.77	67.69
326.999	79.69
327.228	82.69
327.457	79.69
327.686	79.69
327.914	72.69
328.143	89.69
328.372	80.69
328.6	76.69
328.829	82.69
329.058	75.69
329.287	74.69
329.515	94.69
329.744	90.69
329.972	80.69
330.201	85.69
330.43	74.69
330.658	82.69
330.887	95.69
331.115	79.69
331.344	99.69
331.572	76.69
331.801	78.69
332.03	85.69
332.258	95.69
332.486	77.69
332.715	91.69
332.943	88.69
333.172	92.69
333.4	71.69
333.629	83.69
333.857	87.69
334.085	86.69
334.314	82.69
334.542	87.69
334.771	79.69
334.999	96.69
335.227	74.69
335.455	71.69
335.684	86.69
335.912	92.69
336.14	89.69
336.369	99.69
336.597	83.69
336.825	96.69
337.053	81.69
337.281	81.69
337.51	89.69
337.738	92.69
337.966	94.69
338.194	84.69
338.422	93.69
338.65	93.69
338.878	87.69
339.106	86.69
339.334	73.69
339.562	86.69
339.79	83.69
340.018	87.69
340.246	90.69
340.474	76.69
340.702	78.69
340.93	91.69
341.158	75.69
341.386	84.69
341.614	79.69
341.842	90.69
342.07	70.69
342.298	93.69
342.526	88.69
342.754	78.69
342.981	77.69
343.209	75.69
343.437	82.69
343.665	95.69
343.893	83.69
344.12	91.69
344.348	94.69
344.576	80.69
344.804	87.69
345.031	86.69
345.259	100.69
345.487	95.69
345.714	75.69
345.942	82.69
346.17	92.69
346.397	96.69
346.625	90.69
346.853	84.69
347.08	74.69
347.308	63.69
347.535	87.69
347.763	89.69
347.99	88.69
348.218	90.69
348.445	89.69
348.673	81.69
348.9	95.69
349.128	87.69
349.355	83.69
349.583	94.69
349.81	86.69
350.037	85.69
350.265	96.69
350.492	88.69
350.72	86.69
350.947	89.69
351.174	88.69
351.402	83.69
351.629	75.69
351.856	76.69
352.083	88.69
352.311	87.69
352.538	71.69
352.765	85.69
352.992	94.69
353.22	75.69
353.447	94.69
353.674	92.69
353.901	76.69
354.128	78.69
354.355	78.69
354.583	97.69
354.81	89.69
355.037	83.69
355.264	88.69
355.491	102.69
355.718	81.69
355.945	84.69
356.172	84.69
356.399	79.69
356.626	76.69
356.853	79.69
357.08	72.69
357.307	82.69
357.534	83.69
357.761	84.69
357.988	95.69
358.215	79.69
358.441	81.69
358.668	86.69
358.895	75.69
359.122	93.69
359.349	75.69
359.576	86.69
359.802	90.69
360.029	77.69
360.256	82.69
360.483	85.69
360.709	90.69
360.936	85.69
361.163	97.69
361.39	89.69
361.616	86.69
361.843	87.69
362.07	89.69
362.296	93.69
362.523	87.69
362.749	90.69
362.976	86.69
363.203	85.69
363.429	98.69
363.656	79.69
363.882	71.69
364.109	86.69
364.335	89.69
364.562	71.69
364.788	81.69
365.015	91.69
365.241	79.69
365.468	80.69
365.694	76.69
365.92	82.69
366.147	88.69
366.373	96.69
366.599	88.69
366.826	84.69
367.052	81.69
367.278	95.69
367.505	87.69
367.731	104.69
367.957	99.69
368.184	90.69
368.41	89.69
368.636	93.69
368.862	82.69
369.089	91.69
369.315	74.69
369.541	89.69
369.767	77.69
369.993	81.69
370.219	87.69
370.445	99.69
370.672	72.69
370.898	80.69
371.124	91.69
371.35	89.69
371.576	100.69
371.802	89.69
372.028	80.69
372.254	99.69
372.48	93.69
372.706	111.69
372.932	90.69
373.158	96.69
373.384	95.69
373.61	87.69
373.835	89.69
374.061	96.69
374.287	93.69
374.513	96.69
374.739	91.69
374.965	86.69
375.191	98.69
375.416	91.69
375.642	92.69
375.868	95.69
376.094	95.69
376.319	96.69
376.545	93.69
376.771	89.69
376.997	98.69
377.222	81.69
377.448	88.69
377.674	100.69
377.899	95.69
378.125	89.69
378.35	93.69
378.576	83.69
378.802	90.69
379.027	93.69
379.253	96.69
379.478	104.69
379.704	91.69
379.929	98.69
380.155	103.69
380.38	81.69
380.606	102.69
380.831	107.69
381.057	94.69
381.282	98.69
381.507	95.69
381.733	99.69
381.958	105.69
382.184	96.69
382.409	84.69
382.634	97.69
382.86	96.69
383.085	89.69
383.31	107.69
383.535	95.69
383.761	106.69
383.986	89.69
384.211	88.69
384.436	98.69
384.662	100.69
384.887	91.69
385.112	91.69
385.337	83.69
385.562	112.69
385.787	100.69
386.013	111.69
386.238	100.69
386.463	88.69
386.688	111.69
386.913	79.69
387.138	83.69
387.363	101.69
387.588	114.69
387.813	106.69
388.038	103.69
388.263	99.69
388.488	115.69
388.713	97.69
388.938	99.69
389.163	101.69
389.387	97.69
389.612	92.69
389.837	108.69
390.062	115.69
390.287	106.69
390.512	122.69
390.736	110.69
390.961	82.69
391.186	105.69
391.411	100.69
391.636	86.69
391.86	118.69
392.085	91.69
392.31	95.69
392.534	110.69
392.759	118.69
392.984	99.69
393.208	119.69
393.433	112.69
393.658	104.69
393.882	120.69
394.107	88.69
394.331	114.69
394.556	99.69
394.78	110.69
395.005	103.69
395.229	102.69
395.454	115.69
395.678	98.69
395.903	110.69
396.127	114.69
396.352	110.69
396.576	112.69
396.801	97.69
397.025	116.69
397.249	126.69
397.474	112.69
397.698	107.69
397.922	112.69
398.147	99.69
398.371	115.69
398.595	98.69
398.82	112.69
399.044	106.69
399.268	102.69
399.492	106.69
399.717	111.69
399.941	108.69
400.165	113.69
400.389	98.69
400.613	97.69
400.837	112.69
401.062	115.69
401.286	97.69
401.51	136.69
401.734	110.69
401.958	111.69
402.182	121.69
402.406	110.69
402.63	106.69
402.854	115.69
403.078	114.69
403.302	107.69
403.526	110.69
403.75	110.69
403.974	117.69
404.198	123.69
404.422	119.69
404.645	112.69
404.869	123.69
405.093	103.69
405.317	114.69
405.541	132.69
405.765	119.69
405.988	127.69
406.212	106.69
406.436	128.69
406.66	123.69
406.883	123.69
407.107	126.69
407.331	122.69
407.555	121.69
407.778	122.69
408.002	106.69
408.226	123.69
408.449	96.69
408.673	123.69
408.896	117.69
409.12	118.69
409.344	120.69
409.567	116.69
409.791	121.69
410.014	116.69
410.238	129.69
410.461	126.69
410.685	125.69
410.908	125.69
411.132	127.69
411.355	123.69
411.578	116.69
411.802	129.69
412.025	114.69
412.249	120.69
412.472	121.69
412.695	114.69
412.919	118.69
413.142	121.69
413.365	125.69
413.589	116.69
413.812	132.69
414.035	124.69
414.258	126.69
414.482	102.69
414.705	122.69
414.928	136.69
415.151	119.69
415.374	131.69
415.597	141.69
415.821	134.69
416.044	119.69
416.267	127.69
416.49	117.69
416.713	122.69
416.936	113.69
417.159	128.69
417.382	117.69
417.605	126.69
417.828	128.69
418.051	117.69
418.274	134.69
418.497	124.69
418.72	142.69
418.943	136.69
419.166	140.69
419.389	135.69
419.611	147.69
419.834	116.69
420.057	134.69
420.28	123.69
420.503	136.69
420.726	133.69
420.948	140.69
421.171	137.69
421.394	132.69
421.617	143.69
421.839	134.69
422.062	153.69
422.285	130.69
422.507	130.69
422.73	135.69
422.953	117.69
423.175	121.69
423.398	135.69
423.621	138.69
423.843	123.69
424.066	149.69
424.288	140.69
424.511	158.69
424.733	139.69
424.956	127.69
425.178	144.69
425.401	152.69
425.623	136.69
425.846	129.69
426.068	136.69
426.291	128.69
426.513	144.69
426.735	137.69
426.958	132.69
427.18	152.69
427.402	131.69
427.625	137.69
427.847	131.69
428.069	132.69
428.292	130.69
428.514	136.69
428.736	127.69
428.958	129.69
429.181	149.69
429.403	140.69
429.625	106.69
429.847	130.69
430.069	124.69
430.292	135.69
430.514	141.69
430.736	136.69
430.958	121.69
431.18	125.69
431.402	100.69
431.624	130.69
431.846	112.69
432.068	86.69
432.29	99.69
432.512	107.69
432.734	129.69
432.956	137.69
433.178	138.69
433.4	149.69
433.622	136.69
433.844	124.69
434.066	123.69
434.287	119.69
434.509	94.69
434.731	116.69
434.953	115.69
435.175	114.69
435.397	136.69
435.618	122.69
435.84	118.69
436.062	130.69
436.284	98.69
436.505	121.69
436.727	126.69
436.949	146.69
437.17	142.69
437.392	137.69
437.614	118.69
437.835	115.69
438.057	110.69
438.278	110.69
438.5	136.69
438.721	124.69
438.943	155.69
439.165	145.69
439.386	145.69
439.608	136.69
439.829	132.69
440.05	136.69
440.272	140.69
440.493	143.69
440.715	148.69
440.936	141.69
441.158	148.69
441.379	140.69
441.6	139.69
441.822	144.69
442.043	123.69
442.264	139.69
442.486	138.69
442.707	115.69
442.928	146.69
443.149	123.69
443.371	146.69
443.592	140.69
443.813	139.69
444.034	136.69
444.255	149.69
444.476	130.69
444.698	143.69
444.919	132.69
445.14	281.69
445.361	204.69
445.582	154.69
445.803	138.69
446.024	140.69
446.245	149.69
446.466	160.69
446.687	149.69
446.908	156.69
447.129	161.69
447.35	151.69
447.571	168.69
447.792	130.69
448.013	138.69
448.234	130.69
448.455	140.69
448.675	126.69
448.896	127.69
449.117	132.69
449.338	134.69
449.559	145.69
449.779	144.69
450	143.69
450.221	150.69
450.442	130.69
450.662	136.69
450.883	131.69
451.104	128.69
451.324	134.69
451.545	135.69
451.766	130.69
451.986	136.69
452.207	126.69
452.428	146.69
452.648	121.69
452.869	118.69
453.089	120.69
453.31	114.69
453.53	111.69
453.751	96.69
453.971	103.69
454.192	91.69
454.412	111.69
454.633	94.69
454.853	117.69
455.073	128.69
455.294	115.69
455.514	113.69
455.734	129.69
455.955	104.69
456.175	100.69
456.395	129.69
456.616	106.69
456.836	94.69
457.056	118.69
457.276	115.69
457.497	94.69
457.717	115.69
457.937	108.69
458.157	111.69
458.377	103.69
458.598	84.69
458.818	83.69
459.038	80.69
459.258	96.69
459.478	92.69
459.698	92.69
459.918	84.69
460.138	89.69
460.358	110.69
460.578	105.69
460.798	118.69
461.018	119.69
461.238	113.69
461.458	119.69
461.678	123.69
461.898	119.69
462.118	116.69
462.338	125.69
462.558	130.69
462.777	114.69
462.997	112.69
463.217	109.69
463.437	111.69
463.657	122.69
463.876	98.69
464.096	108.69
464.316	100.69
464.536	118.69
464.755	122.69
464.975	116.69
465.195	102.69
465.414	124.69
465.634	100.69
465.854	116.69
466.073	113.69
466.293	108.69
466.512	136.69
466.732	128.69
466.951	124.69
467.171	132.69
467.391	126.69
467.61	146.69
467.829	133.69
468.049	134.69
468.268	159.69
468.488	143.69
468.707	141.69
468.927	133.69
469.146	139.69
469.365	137.69
469.585	152.69
469.804	144.69
470.023	135.69
470.243	140.69
470.462	132.69
470.681	159.69
470.901	154.69
471.12	144.69
471.339	146.69
471.558	152.69
471.777	138.69
471.997	141.69
472.216	132.69
472.435	132.69
472.654	111.69
472.873	102.69
473.092	122.69
473.311	115.69
473.53	125.69
473.749	133.69
473.968	129.69
474.187	125.69
474.406	121.69
474.625	124.69
474.844	132.69
475.063	129.69
475.282	127.69
475.501	120.69
475.72	127.69
475.939	137.69
476.158	121.69
476.377	122.69
476.596	124.69
476.814	119.69
477.033	106.69
477.252	120.69
477.471	129.69
477.69	127.69
477.908	140.69
478.127	155.69
478.346	134.69
478.564	132.69
478.783	135.69
479.002	130.69
479.22	132.69
479.439	136.69
479.658	128.69
479.876	116.69
480.095	119.69
480.313	116.69
480.532	115.69
480.751	101.69
480.969	112.69
481.188	90.69
481.406	95.69
481.624	81.69
481.843	89.69
482.061	88.69
482.28	116.69
482.498	121.69
482.717	113.69
482.935	117.69
483.153	139.69
483.372	146.69
483.59	152.69
483.808	142.69
484.027	134.69
484.245	132.69
484.463	137.69
484.681	158.69
484.9	138.69
485.118	149.69
485.336	138.69
485.554	119.69
485.772	104.69
485.99	100.69
486.209	112.69
486.427	105.69
486.645	137.69
486.863	138.69
487.081	148.69
487.299	132.69
487.517	137.69
487.735	152.69
487.953	191.69
488.171	174.69
488.389	154.69
488.607	158.69
488.825	137.69
489.043	135.69
489.261	135.69
489.479	137.69
489.696	146.69
489.914	151.69
490.132	146.69
490.35	162.69
490.568	163.69
490.786	163.69
491.003	186.69
491.221	194.69
491.439	190.69
491.657	174.69
491.874	192.69
492.092	199.69
492.31	235.69
492.527	215.69
492.745	193.69
492.963	200.69
493.18	178.69
493.398	178.69
493.615	169.69
493.833	185.69
494.05	174.69
494.268	183.69
494.485	150.69
494.703	162.69
494.92	175.69
495.138	199.69
495.355	175.69
495.573	175.69
495.79	168.69
496.008	189.69
496.225	162.69
496.442	156.69
496.66	176.69
496.877	174.69
497.094	167.69
497.312	167.69
497.529	158.69
497.746	143.69
497.963	147.69
498.181	112.69
498.398	126.69
498.615	124.69
498.832	107.69
499.049	128.69
499.267	116.69
499.484	129.69
499.701	142.69
499.918	131.69
500.135	148.69
500.352	152.69
500.569	150.69
500.786	144.69
501.003	155.69
501.22	145.69
501.437	146.69
501.654	145.69
501.871	136.69
502.088	119.69
502.305	142.69
502.522	137.69
502.739	119.69
502.956	121.69
503.172	129.69
503.389	114.69
503.606	104.69
503.823	136.69
504.04	124.69
504.256	125.69
504.473	131.69
504.69	138.69
504.907	127.69
505.123	132.69
505.34	127.69
505.557	114.69
505.773	118.69
505.99	108.69
506.207	139.69
506.423	128.69
506.64	129.69
506.856	115.69
507.073	118.69
507.289	120.69
507.506	124.69
507.722	104.69
507.939	122.69
508.155	120.69
508.372	122.69
508.588	114.69
508.805	100.69
509.021	107.69
509.238	111.69
509.454	100.69
509.67	110.69
509.887	110.69
510.103	97.69
510.319	98.69
510.536	72.69
510.752	94.69
510.968	76.69
511.184	93.69
511.401	84.69
511.617	91.69
511.833	81.69
512.049	79.69
512.265	94.69
512.481	89.69
512.698	96.69
512.914	96.69
513.13	87.69
513.346	101.69
513.562	94.69
513.778	96.69
513.994	103.69
514.21	88.69
514.426	97.69
514.642	103.69
514.858	82.69
515.074	106.69
515.29	101.69
515.506	103.69
515.721	94.69
515.937	94.69
516.153	94.69
516.369	70.69
516.585	83.69
516.801	87.69
517.016	88.69
517.232	105.69
517.448	102.69
517.664	103.69
517.879	99.69
518.095	76.69
518.311	100.69
518.527	90.69
518.742	90.69
518.958	97.69
519.173	105.69
519.389	104.69
519.605	94.69
519.82	112.69
520.036	117.69
520.251	97.69
520.467	105.69
520.682	111.69
520.898	99.69
521.113	79.69
521.329	90.69
521.544	101.69
521.76	101.69
521.975	102.69
522.19	90.69
522.406	95.69
522.621	106.69
522.836	119.69
523.052	114.69
523.267	108.69
523.482	105.69
523.698	114.69
523.913	107.69
524.128	108.69
524.343	112.69
524.559	112.69
524.774	121.69
524.989	128.69
525.204	114.69
525.419	118.69
525.634	126.69
525.849	123.69
526.064	112.69
526.28	102.69
526.495	99.69
526.71	88.69
526.925	72.69
527.14	82.69
527.355	94.69
527.57	75.69
527.785	90.69
527.999	91.69
528.214	92.69
528.429	113.69
528.644	118.69
528.859	117.69
529.074	146.69
529.289	161.69
529.503	150.69
529.718	132.69
529.933	123.69
530.148	127.69
530.363	98.69
530.577	103.69
530.792	89.69
531.007	89.69
531.221	69.69
531.436	93.69
531.651	92.69
531.865	86.69
532.08	87.69
532.295	101.69
532.509	94.69
532.724	101.69
532.938	95.69
533.153	94.69
533.367	112.69
533.582	129.69
533.796	112.69
534.011	116.69
534.225	96.69
534.44	86.69
534.654	100.69
534.868	93.69
535.083	95.69
535.297	88.69
535.511	81.69
535.726	99.69
535.94	118.69
536.154	89.69
536.369	98.69
536.583	86.69
536.797	85.69
537.011	81.69
537.225	81.69
537.44	90.69
537.654	89.69
537.868	91.69
538.082	87.69
538.296	103.69
538.51	115.69
538.724	108.69
538.938	128.69
539.153	111.69
539.367	123.69
539.581	115.69
539.795	117.69
540.009	103.69
540.222	89.69
540.436	97.69
540.65	113.69
540.864	136.69
541.078	143.69
541.292	151.69
541.506	161.69
541.72	165.69
541.934	162.69
542.147	181.69
542.361	178.69
542.575	155.69
542.789	152.69
543.002	125.69
543.216	131.69
543.43	120.69
543.644	138.69
543.857	156.69
544.071	164.69
544.285	178.69
544.498	169.69
544.712	156.69
544.925	152.69
545.139	154.69
545.352	157.69
545.566	163.69
545.779	162.69
545.993	162.69
546.206	164.69
546.42	167.69
546.633	169.69
546.847	169.69
547.06	162.69
547.274	167.69
547.487	156.69
547.7	156.69
547.914	162.69
548.127	156.69
548.34	182.69
548.554	156.69
548.767	156.69
548.98	174.69
549.193	150.69
549.407	163.69
549.62	160.69
549.833	149.69
550.046	138.69
550.259	142.69
550.473	154.69
550.686	148.69
550.899	144.69
551.112	153.69
551.325	158.69
551.538	128.69
551.751	121.69
551.964	121.69
552.177	121.69
552.39	139.69
552.603	132.69
552.816	138.69
553.029	155.69
553.242	167.69
553.455	158.69
553.667	165.69
553.88	159.69
554.093	144.69
554.306	127.69
554.519	140.69
554.732	140.69
554.944	127.69
555.157	146.69
555.37	129.69
555.583	134.69
555.795	157.69
556.008	145.69
556.221	144.69
556.433	134.69
556.646	142.69
556.859	129.69
557.071	132.69
557.284	124.69
557.496	131.69
557.709	141.69
557.921	133.69
558.134	152.69
558.346	145.69
558.559	140.69
558.771	136.69
558.984	144.69
559.196	133.69
559.409	126.69
559.621	134.69
559.833	127.69
560.046	139.69
560.258	122.69
560.47	136.69
560.683	143.69
560.895	135.69
561.107	140.69
561.32	121.69
561.532	135.69
561.744	136.69
561.956	116.69
562.168	120.69
562.381	113.69
562.593	128.69
562.805	131.69
563.017	125.69
563.229	132.69
563.441	136.69
563.653	119.69
563.865	118.69
564.077	134.69
564.289	124.69
564.501	142.69
564.713	110.69
564.925	119.69
565.137	122.69
565.349	123.69
565.561	132.69
565.773	115.69
565.985	120.69
566.197	123.69
566.408	117.69
566.62	128.69
566.832	129.69
567.044	117.69
567.255	117.69
567.467	111.69
567.679	120.69
567.891	103.69
568.102	103.69
568.314	101.69
568.526	99.69
568.737	92.69
568.949	83.69
569.161	82.69
569.372	80.69
569.584	80.69
569.795	83.69
570.007	91.69
570.218	88.69
570.43	88.69
570.641	88.69
570.853	99.69
571.064	105.69
571.276	105.69
571.487	102.69
571.698	104.69
571.91	98.69
572.121	100.69
572.333	111.69
572.544	104.69
572.755	92.69
572.966	87.69
573.178	91.69
573.389	77.69
573.6	82.69
573.811	73.69
574.023	92.69
574.234	93.69
574.445	95.69
574.656	81.69
574.867	105.69
575.078	87.69
575.289	110.69
575.501	97.69
575.712	99.69
575.923	89.69
576.134	94.69
576.345	96.69
576.556	105.69
576.767	95.69
576.978	92.69
577.188	91.69
577.399	91.69
577.61	101.69
577.821	95.69
578.032	80.69
578.243	113.69
578.454	105.69
578.665	95.69
578.875	98.69
579.086	87.69
579.297	76.69
579.508	74.69
579.718	96.69
579.929	80.69
580.14	89.69
580.35	84.69
580.561	86.69
580.772	82.69
580.982	90.69
581.193	80.69
581.403	81.69
581.614	90.69
581.825	89.69
582.035	99.69
582.246	89.69
582.456	98.69
582.667	92.69
582.877	84.69
583.087	82.69
583.298	91.69
583.508	80.69
583.719	79.69
583.929	94.69
584.139	77.69
584.35	71.69
584.56	90.69
584.77	80.69
584.981	89.69
585.191	100.69
585.401	74.69
585.611	74.69
585.821	85.69
586.032	68.69
586.242	81.69
586.452	105.69
586.662	83.69
586.872	91.69
587.082	92.69
587.292	80.69
587.502	75.69
587.713	82.69
587.923	86.69
588.133	65.69
588.343	73.69
588.553	101.69
588.762	97.69
588.972	83.69
589.182	84.69
589.392	87.69
589.602	93.69
589.812	80.69
590.022	93.69
590.232	76.69
590.441	80.69
590.651	97.69
590.861	85.69
591.071	79.69
591.281	73.69
591.49	93.69
591.7	82.69
591.91	86.69
592.119	92.69
592.329	85.69
592.539	86.69
592.748	97.69
592.958	87.69
593.167	92.69
593.377	78.69
593.587	79.69
593.796	77.69
594.006	90.69
594.215	94.69
594.424	97.69
594.634	85.69
594.843	87.69
595.053	107.69
595.262	87.69
595.472	99.69
595.681	94.69
595.89	87.69
596.1	96.69
596.309	112.69
596.518	115.69
596.727	92.69
596.937	90.69
597.146	94.69
597.355	100.69
597.564	94.69
597.774	99.69
597.983	89.69
598.192	92.69
598.401	93.69
598.61	90.69
598.819	92.69
599.028	106.69
599.237	99.69
599.446	102.69
599.655	97.69
599.864	91.69
600.073	79.69
600.282	96.69
600.491	90.69
600.7	104.69
600.909	91.69
601.118	94.69
601.327	91.69
601.536	115.69
601.745	119.69
601.953	100.69
602.162	98.69
602.371	99.69
602.58	100.69
602.789	95.69
602.997	105.69
603.206	121.69
603.415	111.69
603.623	89.69
603.832	105.69
604.041	98.69
604.249	89.69
604.458	97.69
604.666	102.69
604.875	107.69
605.084	90.69
605.292	99.69
605.501	100.69
605.709	117.69
605.918	122.69
606.126	120.69
606.334	105.69
606.543	112.69
606.751	112.69
606.96	115.69
607.168	112.69
607.376	109.69
607.585	102.69
607.793	112.69
608.001	102.69
608.21	96.69
608.418	99.69
608.626	103.69
608.834	108.69
609.043	103.69
609.251	122.69
609.459	124.69
609.667	112.69
609.875	103.69
610.083	124.69
610.291	115.69
610.499	95.69
610.707	119.69
610.916	118.69
611.124	130.69
611.332	108.69
611.54	114.69
611.748	113.69
611.955	119.69
612.163	119.69
612.371	112.69
612.579	108.69
612.787	130.69
612.995	112.69
613.203	110.69
613.411	108.69
613.618	95.69
613.826	98.69
614.034	114.69
614.242	100.69
614.449	115.69
614.657	127.69
614.865	110.69
615.072	113.69
615.28	103.69
615.488	95.69
615.695	97.69
615.903	107.69
616.111	105.69
616.318	111.69
616.526	121.69
616.733	128.69
616.941	123.69
617.148	118.69
617.356	127.69
617.563	122.69
617.771	105.69
617.978	97.69
618.185	105.69
618.393	110.69
618.6	109.69
618.807	112.69
619.015	108.69
619.222	97.69
619.429	112.69
619.637	91.69
619.844	118.69
620.051	113.69
620.258	110.69
620.466	115.69
620.673	99.69
620.88	110.69
621.087	109.69
621.294	99.69
621.501	89.69
621.708	109.69
621.915	121.69
622.122	97.69
622.329	119.69
622.536	113.69
622.743	110.69
622.95	116.69
623.157	99.69
623.364	113.69
623.571	110.69
623.778	100.69
623.985	102.69
624.192	102.69
624.399	108.69
624.606	111.69
624.812	113.69
625.019	102.69
625.226	105.69
625.433	98.69
625.639	116.69
625.846	104.69
626.053	110.69
626.259	86.69
626.466	95.69
626.673	85.69
626.879	94.69
627.086	102.69
627.293	95.69
627.499	101.69
627.706	90.69
627.912	100.69
628.119	124.69
628.325	116.69
628.532	123.69
628.738	114.69
628.945	100.69
629.151	115.69
629.357	90.69
629.564	102.69
629.77	101.69
629.976	92.69
630.183	80.69
630.389	92.69
630.595	103.69
630.802	98.69
631.008	94.69
631.214	77.69
631.42	111.69
631.627	110.69
631.833	105.69
632.039	102.69
632.245	108.69
632.451	108.69
632.657	85.69
632.863	90.69
633.069	111.69
633.275	101.69
633.481	96.69
633.688	107.69
633.893	103.69
634.099	105.69
634.305	84.69
634.511	98.69
634.717	98.69
634.923	96.69
635.129	92.69
635.335	103.69
635.541	94.69
635.747	103.69
635.952	105.69
636.158	100.69
636.364	111.69
636.57	98.69
636.775	94.69
636.981	103.69
637.187	111.69
637.392	100.69
637.598	101.69
637.804	113.69
638.009	93.69
638.215	100.69
638.421	101.69
638.626	103.69
638.832	107.69
639.037	112.69
639.243	88.69
639.448	100.69
639.654	103.69
639.859	95.69
640.065	97.69
640.27	102.69
640.475	93.69
640.681	99.69
640.886	99.69
641.091	92.69
641.297	103.69
641.502	102.69
641.707	104.69
641.913	94.69
642.118	111.69
642.323	100.69
642.528	94.69
642.733	99.69
642.939	109.69
643.144	97.69
643.349	90.69
643.554	99.69
643.759	100.69
643.964	110.69
644.169	104.69
644.374	97.69
644.579	102.69
644.784	95.69
644.989	99.69
645.194	93.69
645.399	100.69
645.604	95.69
645.809	104.69
646.014	112.69
646.219	98.69
646.423	100.69
646.628	90.69
646.833	102.69
647.038	102.69
647.243	100.69
647.447	76.69
647.652	104.69
647.857	104.69
648.062	107.69
648.266	98.69
648.471	92.69
648.676	87.69
648.88	102.69
649.085	97.69
649.289	99.69
649.494	90.69
649.698	100.69
649.903	92.69
650.107	112.69
650.312	99.69
650.516	101.69
650.721	92.69
650.925	76.69
651.13	102.69
651.334	92.69
651.539	98.69
651.743	93.69
651.947	99.69
652.152	94.69
652.356	96.69
652.56	90.69
652.764	96.69
652.969	105.69
653.173	106.69
653.377	110.69
653.581	94.69
653.785	107.69
653.99	95.69
654.194	87.69
654.398	91.69
654.602	88.69
654.806	85.69
655.01	97.69
655.214	92.69
655.418	85.69
655.622	87.69
655.826	95.69
656.03	95.69
656.234	85.69
656.438	82.69
656.642	88.69
656.846	107.69
657.049	96.69
657.253	100.69
657.457	89.69
657.661	86.69
657.865	77.69
658.068	82.69
658.272	86.69
658.476	84.69
658.68	89.69
658.883	83.69
659.087	93.69
659.291	83.69
659.494	74.69
659.698	85.69
659.901	89.69
660.105	94.69
660.309	86.69
660.512	86.69
660.716	78.69
660.919	95.69
661.123	88.69
661.326	83.69
661.53	85.69
661.733	106.69
661.936	82.69
662.14	86.69
662.343	93.69
662.546	88.69
662.75	94.69
662.953	88.69
663.156	90.69
663.36	77.69
663.563	82.69
663.766	80.69
663.969	93.69
664.173	92.69
664.376	85.69
664.579	85.69
664.782	95.69
664.985	76.69
665.188	74.69
665.391	90.69
665.594	74.69
665.797	77.69
666	80.69
666.203	88.69
666.406	80.69
666.609	75.69
666.812	80.69
667.015	86.69
667.218	89.69
667.421	87.69
667.624	86.69
667.827	79.69
668.03	96.69
668.232	91.69
668.435	84.69
668.638	87.69
668.841	95.69
669.043	87.69
669.246	76.69
669.449	89.69
669.651	77.69
669.854	89.69
670.057	90.69
670.259	91.69
670.462	89.69
670.665	75.69
670.867	83.69
671.07	82.69
671.272	90.69
671.475	83.69
671.677	66.69
671.88	74.69
672.082	81.69
672.284	84.69
672.487	68.69
672.689	90.69
672.892	89.69
