Data from Location2.07152019.Energy5.Lamp.07192019.3%Agarose_HRD10591_14-58-26-359.txt Node
Date: Fri Jul 19 14:58:26 EDT 2019
User: cochatt
Spectrometer: HR+D1059
Trigger mode: 1
Integration Time (sec): 1.000000E-1
Scans to average: 1
Electric dark correction enabled: true
Nonlinearity correction enabled: false
Boxcar width: 0
XAxis mode: Wavelengths
Number of Pixels in Spectrum: 2048
>>>>>Begin Spectral Data<<<<<
223.165	-21.94
223.4	-21.94
223.635	-21.94
223.869	-15.94
224.104	-25.94
224.338	-1.94
224.573	-7.94
224.808	-0.94
225.042	-8.94
225.277	-11.94
225.511	0.06
225.746	3.06
225.98	10.06
226.215	4.06
226.449	13.06
226.683	10.06
226.918	19.06
227.152	36.06
227.387	40.06
227.621	32.06
227.856	45.06
228.09	46.06
228.324	46.06
228.559	50.06
228.793	55.06
229.027	66.06
229.262	76.06
229.496	67.06
229.73	51.06
229.964	73.06
230.199	77.06
230.433	72.06
230.667	85.06
230.901	79.06
231.136	74.06
231.37	94.06
231.604	91.06
231.838	87.06
232.072	89.06
232.306	92.06
232.541	77.06
232.775	93.06
233.009	73.06
233.243	96.06
233.477	77.06
233.711	86.06
233.945	66.06
234.179	75.06
234.413	78.06
234.647	83.06
234.881	74.06
235.115	90.06
235.349	72.06
235.583	86.06
235.817	84.06
236.051	82.06
236.285	101.06
236.519	76.06
236.753	82.06
236.987	80.06
237.221	83.06
237.455	93.06
237.689	87.06
237.922	71.06
238.156	77.06
238.39	90.06
238.624	85.06
238.858	78.06
239.091	64.06
239.325	83.06
239.559	90.06
239.793	74.06
240.027	74.06
240.26	80.06
240.494	76.06
240.728	67.06
240.961	83.06
241.195	86.06
241.429	82.06
241.662	79.06
241.896	82.06
242.13	76.06
242.363	63.06
242.597	96.06
242.83	71.06
243.064	98.06
243.298	81.06
243.531	71.06
243.765	72.06
243.998	71.06
244.232	85.06
244.465	75.06
244.699	71.06
244.932	83.06
245.166	81.06
245.399	77.06
245.633	86.06
245.866	73.06
246.099	78.06
246.333	71.06
246.566	77.06
246.8	82.06
247.033	83.06
247.266	74.06
247.5	76.06
247.733	88.06
247.966	78.06
248.2	75.06
248.433	79.06
248.666	84.06
248.899	94.06
249.133	90.06
249.366	77.06
249.599	92.06
249.832	90.06
250.066	69.06
250.299	78.06
250.532	86.06
250.765	80.06
250.998	80.06
251.231	81.06
251.465	80.06
251.698	84.06
251.931	85.06
252.164	78.06
252.397	77.06
252.63	80.06
252.863	74.06
253.096	98.06
253.329	103.06
253.562	75.06
253.795	78.06
254.028	78.06
254.261	76.06
254.494	80.06
254.727	89.06
254.96	78.06
255.193	76.06
255.426	81.06
255.659	82.06
255.892	79.06
256.124	78.06
256.357	76.06
256.59	77.06
256.823	86.06
257.056	94.06
257.289	102.06
257.521	89.06
257.754	74.06
257.987	83.06
258.22	84.06
258.452	95.06
258.685	97.06
258.918	95.06
259.151	74.06
259.383	76.06
259.616	79.06
259.849	80.06
260.081	80.06
260.314	76.06
260.547	75.06
260.779	76.06
261.012	85.06
261.244	90.06
261.477	80.06
261.71	73.06
261.942	82.06
262.175	83.06
262.407	89.06
262.64	85.06
262.872	73.06
263.105	88.06
263.337	79.06
263.57	76.06
263.802	81.06
264.035	97.06
264.267	70.06
264.499	76.06
264.732	88.06
264.964	80.06
265.197	77.06
265.429	91.06
265.661	87.06
265.894	78.06
266.126	74.06
266.358	75.06
266.591	76.06
266.823	83.06
267.055	86.06
267.287	76.06
267.52	79.06
267.752	94.06
267.984	102.06
268.216	76.06
268.448	87.06
268.681	88.06
268.913	84.06
269.145	76.06
269.377	88.06
269.609	86.06
269.841	86.06
270.073	72.06
270.306	80.06
270.538	83.06
270.77	88.06
271.002	94.06
271.234	84.06
271.466	88.06
271.698	87.06
271.93	89.06
272.162	98.06
272.394	100.06
272.626	62.06
272.858	84.06
273.09	98.06
273.322	94.06
273.553	87.06
273.785	77.06
274.017	84.06
274.249	90.06
274.481	76.06
274.713	87.06
274.945	86.06
275.176	88.06
275.408	82.06
275.64	101.06
275.872	86.06
276.104	86.06
276.335	82.06
276.567	78.06
276.799	84.06
277.031	88.06
277.262	91.06
277.494	99.06
277.726	90.06
277.957	79.06
278.189	77.06
278.421	66.06
278.652	90.06
278.884	82.06
279.115	81.06
279.347	81.06
279.579	86.06
279.81	94.06
280.042	79.06
280.273	78.06
280.505	77.06
280.736	79.06
280.968	93.06
281.199	90.06
281.431	66.06
281.662	94.06
281.894	90.06
282.125	87.06
282.356	78.06
282.588	84.06
282.819	92.06
283.051	78.06
283.282	77.06
283.513	91.06
283.745	94.06
283.976	85.06
284.207	101.06
284.439	96.06
284.67	89.06
284.901	84.06
285.132	97.06
285.364	79.06
285.595	90.06
285.826	86.06
286.057	77.06
286.288	91.06
286.52	69.06
286.751	84.06
286.982	81.06
287.213	80.06
287.444	80.06
287.675	94.06
287.906	99.06
288.138	99.06
288.369	80.06
288.6	85.06
288.831	86.06
289.062	87.06
289.293	74.06
289.524	89.06
289.755	88.06
289.986	80.06
290.217	79.06
290.448	79.06
290.679	85.06
290.91	90.06
291.141	106.06
291.371	103.06
291.602	94.06
291.833	86.06
292.064	90.06
292.295	95.06
292.526	73.06
292.757	88.06
292.987	101.06
293.218	92.06
293.449	84.06
293.68	80.06
293.91	80.06
294.141	104.06
294.372	103.06
294.603	80.06
294.833	88.06
295.064	86.06
295.295	86.06
295.525	88.06
295.756	76.06
295.987	92.06
296.217	86.06
296.448	75.06
296.679	93.06
296.909	84.06
297.14	87.06
297.37	91.06
297.601	87.06
297.831	76.06
298.062	93.06
298.292	92.06
298.523	86.06
298.753	95.06
298.984	85.06
299.214	74.06
299.445	86.06
299.675	74.06
299.905	76.06
300.136	85.06
300.366	84.06
300.597	92.06
300.827	71.06
301.057	81.06
301.288	90.06
301.518	91.06
301.748	74.06
301.979	77.06
302.209	84.06
302.439	81.06
302.669	78.06
302.9	78.06
303.13	92.06
303.36	80.06
303.59	93.06
303.82	96.06
304.051	97.06
304.281	81.06
304.511	85.06
304.741	87.06
304.971	88.06
305.201	92.06
305.431	100.06
305.661	76.06
305.891	87.06
306.121	88.06
306.352	83.06
306.582	97.06
306.812	90.06
307.042	70.06
307.272	91.06
307.502	90.06
307.731	79.06
307.961	79.06
308.191	95.06
308.421	74.06
308.651	86.06
308.881	91.06
309.111	89.06
309.341	99.06
309.571	94.06
309.8	77.06
310.03	75.06
310.26	80.06
310.49	78.06
310.72	82.06
310.949	80.06
311.179	88.06
311.409	98.06
311.639	95.06
311.868	93.06
312.098	80.06
312.328	82.06
312.557	94.06
312.787	90.06
313.017	95.06
313.246	86.06
313.476	92.06
313.706	81.06
313.935	94.06
314.165	90.06
314.394	96.06
314.624	86.06
314.853	72.06
315.083	75.06
315.312	78.06
315.542	102.06
315.771	83.06
316.001	86.06
316.23	81.06
316.46	84.06
316.689	95.06
316.919	88.06
317.148	100.06
317.377	92.06
317.607	89.06
317.836	90.06
318.065	85.06
318.295	95.06
318.524	92.06
318.753	84.06
318.983	74.06
319.212	79.06
319.441	74.06
319.67	101.06
319.9	79.06
320.129	81.06
320.358	82.06
320.587	81.06
320.816	98.06
321.046	89.06
321.275	92.06
321.504	87.06
321.733	86.06
321.962	82.06
322.191	89.06
322.42	91.06
322.649	87.06
322.878	79.06
323.108	88.06
323.337	77.06
323.566	81.06
323.795	79.06
324.024	91.06
324.253	88.06
324.482	88.06
324.71	83.06
324.939	83.06
325.168	85.06
325.397	90.06
325.626	83.06
325.855	86.06
326.084	96.06
326.313	78.06
326.542	71.06
326.77	96.06
326.999	86.06
327.228	79.06
327.457	78.06
327.686	85.06
327.914	87.06
328.143	84.06
328.372	84.06
328.6	89.06
328.829	83.06
329.058	81.06
329.287	91.06
329.515	85.06
329.744	85.06
329.972	89.06
330.201	98.06
330.43	80.06
330.658	92.06
330.887	86.06
331.115	94.06
331.344	98.06
331.572	98.06
331.801	93.06
332.03	89.06
332.258	91.06
332.486	84.06
332.715	80.06
332.943	88.06
333.172	77.06
333.4	92.06
333.629	89.06
333.857	87.06
334.085	84.06
334.314	94.06
334.542	82.06
334.771	96.06
334.999	80.06
335.227	91.06
335.455	92.06
335.684	92.06
335.912	92.06
336.14	84.06
336.369	98.06
336.597	101.06
336.825	83.06
337.053	89.06
337.281	75.06
337.51	76.06
337.738	86.06
337.966	94.06
338.194	85.06
338.422	98.06
338.65	86.06
338.878	88.06
339.106	95.06
339.334	79.06
339.562	87.06
339.79	88.06
340.018	78.06
340.246	88.06
340.474	88.06
340.702	78.06
340.93	90.06
341.158	86.06
341.386	90.06
341.614	93.06
341.842	84.06
342.07	78.06
342.298	97.06
342.526	74.06
342.754	75.06
342.981	88.06
343.209	100.06
343.437	91.06
343.665	98.06
343.893	83.06
344.12	77.06
344.348	91.06
344.576	85.06
344.804	98.06
345.031	99.06
345.259	92.06
345.487	94.06
345.714	87.06
345.942	80.06
346.17	83.06
346.397	88.06
346.625	80.06
346.853	80.06
347.08	95.06
347.308	90.06
347.535	88.06
347.763	75.06
347.99	94.06
348.218	94.06
348.445	78.06
348.673	83.06
348.9	78.06
349.128	94.06
349.355	87.06
349.583	91.06
349.81	87.06
350.037	77.06
350.265	80.06
350.492	75.06
350.72	94.06
350.947	79.06
351.174	95.06
351.402	92.06
351.629	82.06
351.856	101.06
352.083	93.06
352.311	87.06
352.538	84.06
352.765	94.06
352.992	82.06
353.22	87.06
353.447	79.06
353.674	95.06
353.901	91.06
354.128	95.06
354.355	76.06
354.583	78.06
354.81	84.06
355.037	88.06
355.264	79.06
355.491	86.06
355.718	84.06
355.945	84.06
356.172	86.06
356.399	74.06
356.626	74.06
356.853	75.06
357.08	87.06
357.307	84.06
357.534	89.06
357.761	89.06
357.988	85.06
358.215	70.06
358.441	85.06
358.668	85.06
358.895	87.06
359.122	85.06
359.349	71.06
359.576	83.06
359.802	86.06
360.029	91.06
360.256	85.06
360.483	72.06
360.709	78.06
360.936	90.06
361.163	78.06
361.39	80.06
361.616	98.06
361.843	78.06
362.07	77.06
362.296	77.06
362.523	79.06
362.749	88.06
362.976	75.06
363.203	84.06
363.429	85.06
363.656	83.06
363.882	80.06
364.109	86.06
364.335	76.06
364.562	76.06
364.788	93.06
365.015	88.06
365.241	84.06
365.468	89.06
365.694	76.06
365.92	84.06
366.147	86.06
366.373	96.06
366.599	88.06
366.826	90.06
367.052	80.06
367.278	93.06
367.505	90.06
367.731	97.06
367.957	88.06
368.184	109.06
368.41	100.06
368.636	78.06
368.862	84.06
369.089	95.06
369.315	80.06
369.541	101.06
369.767	82.06
369.993	79.06
370.219	87.06
370.445	89.06
370.672	92.06
370.898	86.06
371.124	86.06
371.35	93.06
371.576	89.06
371.802	104.06
372.028	94.06
372.254	100.06
372.48	88.06
372.706	86.06
372.932	98.06
373.158	96.06
373.384	95.06
373.61	88.06
373.835	94.06
374.061	94.06
374.287	106.06
374.513	98.06
374.739	101.06
374.965	97.06
375.191	98.06
375.416	88.06
375.642	83.06
375.868	98.06
376.094	107.06
376.319	102.06
376.545	101.06
376.771	104.06
376.997	105.06
377.222	90.06
377.448	99.06
377.674	85.06
377.899	91.06
378.125	101.06
378.35	106.06
378.576	90.06
378.802	90.06
379.027	108.06
379.253	89.06
379.478	101.06
379.704	107.06
379.929	107.06
380.155	92.06
380.38	95.06
380.606	100.06
380.831	114.06
381.057	98.06
381.282	98.06
381.507	107.06
381.733	95.06
381.958	96.06
382.184	99.06
382.409	101.06
382.634	102.06
382.86	85.06
383.085	107.06
383.31	112.06
383.535	107.06
383.761	96.06
383.986	94.06
384.211	106.06
384.436	100.06
384.662	112.06
384.887	92.06
385.112	93.06
385.337	117.06
385.562	103.06
385.787	98.06
386.013	99.06
386.238	107.06
386.463	93.06
386.688	99.06
386.913	97.06
387.138	107.06
387.363	94.06
387.588	110.06
387.813	95.06
388.038	96.06
388.263	110.06
388.488	119.06
388.713	119.06
388.938	96.06
389.163	108.06
389.387	105.06
389.612	116.06
389.837	118.06
390.062	116.06
390.287	109.06
390.512	95.06
390.736	99.06
390.961	84.06
391.186	108.06
391.411	118.06
391.636	109.06
391.86	106.06
392.085	106.06
392.31	107.06
392.534	98.06
392.759	107.06
392.984	111.06
393.208	111.06
393.433	105.06
393.658	114.06
393.882	107.06
394.107	110.06
394.331	110.06
394.556	111.06
394.78	111.06
395.005	116.06
395.229	101.06
395.454	99.06
395.678	105.06
395.903	115.06
396.127	106.06
396.352	111.06
396.576	99.06
396.801	92.06
397.025	104.06
397.249	104.06
397.474	115.06
397.698	116.06
397.922	106.06
398.147	104.06
398.371	105.06
398.595	124.06
398.82	104.06
399.044	95.06
399.268	95.06
399.492	108.06
399.717	116.06
399.941	114.06
400.165	119.06
400.389	112.06
400.613	107.06
400.837	99.06
401.062	109.06
401.286	122.06
401.51	111.06
401.734	102.06
401.958	95.06
402.182	107.06
402.406	115.06
402.63	115.06
402.854	106.06
403.078	110.06
403.302	116.06
403.526	128.06
403.75	127.06
403.974	105.06
404.198	109.06
404.422	109.06
404.645	122.06
404.869	128.06
405.093	116.06
405.317	115.06
405.541	120.06
405.765	119.06
405.988	109.06
406.212	136.06
406.436	130.06
406.66	129.06
406.883	124.06
407.107	120.06
407.331	120.06
407.555	111.06
407.778	117.06
408.002	107.06
408.226	130.06
408.449	122.06
408.673	111.06
408.896	108.06
409.12	126.06
409.344	132.06
409.567	123.06
409.791	121.06
410.014	114.06
410.238	119.06
410.461	125.06
410.685	117.06
410.908	117.06
411.132	114.06
411.355	110.06
411.578	123.06
411.802	109.06
412.025	119.06
412.249	114.06
412.472	118.06
412.695	109.06
412.919	121.06
413.142	118.06
413.365	139.06
413.589	130.06
413.812	113.06
414.035	117.06
414.258	123.06
414.482	122.06
414.705	115.06
414.928	131.06
415.151	124.06
415.374	132.06
415.597	144.06
415.821	130.06
416.044	126.06
416.267	120.06
416.49	135.06
416.713	132.06
416.936	140.06
417.159	126.06
417.382	126.06
417.605	124.06
417.828	130.06
418.051	123.06
418.274	128.06
418.497	132.06
418.72	134.06
418.943	120.06
419.166	130.06
419.389	134.06
419.611	125.06
419.834	135.06
420.057	125.06
420.28	124.06
420.503	128.06
420.726	117.06
420.948	128.06
421.171	132.06
421.394	126.06
421.617	128.06
421.839	137.06
422.062	130.06
422.285	130.06
422.507	143.06
422.73	126.06
422.953	131.06
423.175	121.06
423.398	120.06
423.621	134.06
423.843	135.06
424.066	146.06
424.288	145.06
424.511	148.06
424.733	145.06
424.956	147.06
425.178	145.06
425.401	142.06
425.623	152.06
425.846	135.06
426.068	127.06
426.291	130.06
426.513	113.06
426.735	143.06
426.958	122.06
427.18	138.06
427.402	130.06
427.625	134.06
427.847	123.06
428.069	143.06
428.292	123.06
428.514	136.06
428.736	134.06
428.958	117.06
429.181	139.06
429.403	122.06
429.625	134.06
429.847	134.06
430.069	126.06
430.292	129.06
430.514	132.06
430.736	130.06
430.958	121.06
431.18	139.06
431.402	139.06
431.624	118.06
431.846	102.06
432.068	105.06
432.29	98.06
432.512	116.06
432.734	137.06
432.956	142.06
433.178	132.06
433.4	145.06
433.622	136.06
433.844	137.06
434.066	112.06
434.287	119.06
434.509	100.06
434.731	102.06
434.953	124.06
435.175	126.06
435.397	123.06
435.618	121.06
435.84	107.06
436.062	102.06
436.284	132.06
436.505	123.06
436.727	128.06
436.949	137.06
437.17	144.06
437.392	141.06
437.614	136.06
437.835	110.06
438.057	102.06
438.278	126.06
438.5	112.06
438.721	157.06
438.943	148.06
439.165	151.06
439.386	147.06
439.608	145.06
439.829	139.06
440.05	150.06
440.272	154.06
440.493	130.06
440.715	152.06
440.936	144.06
441.158	142.06
441.379	153.06
441.6	154.06
441.822	137.06
442.043	141.06
442.264	141.06
442.486	144.06
442.707	153.06
442.928	141.06
443.149	140.06
443.371	141.06
443.592	139.06
443.813	130.06
444.034	129.06
444.255	153.06
444.476	129.06
444.698	151.06
444.919	135.06
445.14	256.06
445.361	192.06
445.582	136.06
445.803	143.06
446.024	142.06
446.245	158.06
446.466	146.06
446.687	150.06
446.908	157.06
447.129	160.06
447.35	147.06
447.571	148.06
447.792	136.06
448.013	132.06
448.234	148.06
448.455	129.06
448.675	136.06
448.896	152.06
449.117	139.06
449.338	143.06
449.559	136.06
449.779	137.06
450	136.06
450.221	132.06
450.442	141.06
450.662	132.06
450.883	136.06
451.104	136.06
451.324	127.06
451.545	133.06
451.766	134.06
451.986	113.06
452.207	139.06
452.428	127.06
452.648	135.06
452.869	127.06
453.089	115.06
453.31	118.06
453.53	115.06
453.751	104.06
453.971	106.06
454.192	103.06
454.412	100.06
454.633	103.06
454.853	127.06
455.073	127.06
455.294	129.06
455.514	125.06
455.734	120.06
455.955	116.06
456.175	108.06
456.395	114.06
456.616	102.06
456.836	116.06
457.056	126.06
457.276	109.06
457.497	107.06
457.717	111.06
457.937	109.06
458.157	115.06
458.377	116.06
458.598	93.06
458.818	106.06
459.038	93.06
459.258	96.06
459.478	86.06
459.698	103.06
459.918	103.06
460.138	103.06
460.358	107.06
460.578	113.06
460.798	107.06
461.018	122.06
461.238	124.06
461.458	128.06
461.678	132.06
461.898	120.06
462.118	105.06
462.338	111.06
462.558	114.06
462.777	97.06
462.997	120.06
463.217	102.06
463.437	117.06
463.657	117.06
463.876	122.06
464.096	108.06
464.316	118.06
464.536	117.06
464.755	123.06
464.975	125.06
465.195	123.06
465.414	130.06
465.634	124.06
465.854	118.06
466.073	131.06
466.293	146.06
466.512	121.06
466.732	126.06
466.951	133.06
467.171	123.06
467.391	149.06
467.61	130.06
467.829	138.06
468.049	141.06
468.268	141.06
468.488	142.06
468.707	139.06
468.927	139.06
469.146	144.06
469.365	134.06
469.585	139.06
469.804	120.06
470.023	144.06
470.243	150.06
470.462	155.06
470.681	148.06
470.901	134.06
471.12	145.06
471.339	150.06
471.558	138.06
471.777	134.06
471.997	140.06
472.216	130.06
472.435	107.06
472.654	112.06
472.873	109.06
473.092	119.06
473.311	121.06
473.53	127.06
473.749	123.06
473.968	143.06
474.187	130.06
474.406	128.06
474.625	126.06
474.844	131.06
475.063	131.06
475.282	143.06
475.501	123.06
475.72	108.06
475.939	119.06
476.158	114.06
476.377	115.06
476.596	113.06
476.814	113.06
477.033	98.06
477.252	106.06
477.471	133.06
477.69	134.06
477.908	142.06
478.127	141.06
478.346	138.06
478.564	147.06
478.783	140.06
479.002	144.06
479.22	134.06
479.439	134.06
479.658	128.06
479.876	119.06
480.095	114.06
480.313	112.06
480.532	123.06
480.751	129.06
480.969	106.06
481.188	80.06
481.406	102.06
481.624	101.06
481.843	94.06
482.061	91.06
482.28	105.06
482.498	115.06
482.717	111.06
482.935	128.06
483.153	147.06
483.372	162.06
483.59	146.06
483.808	144.06
484.027	140.06
484.245	141.06
484.463	152.06
484.681	150.06
484.9	145.06
485.118	154.06
485.336	119.06
485.554	111.06
485.772	102.06
485.99	92.06
486.209	110.06
486.427	107.06
486.645	118.06
486.863	140.06
487.081	140.06
487.299	141.06
487.517	146.06
487.735	154.06
487.953	191.06
488.171	175.06
488.389	165.06
488.607	150.06
488.825	134.06
489.043	128.06
489.261	130.06
489.479	143.06
489.696	144.06
489.914	158.06
490.132	143.06
490.35	148.06
490.568	154.06
490.786	164.06
491.003	166.06
491.221	186.06
491.439	193.06
491.657	190.06
491.874	198.06
492.092	207.06
492.31	228.06
492.527	223.06
492.745	213.06
492.963	201.06
493.18	202.06
493.398	182.06
493.615	180.06
493.833	180.06
494.05	169.06
494.268	166.06
494.485	178.06
494.703	178.06
494.92	171.06
495.138	170.06
495.355	180.06
495.573	165.06
495.79	183.06
496.008	168.06
496.225	174.06
496.442	179.06
496.66	160.06
496.877	174.06
497.094	157.06
497.312	167.06
497.529	160.06
497.746	165.06
497.963	154.06
498.181	132.06
498.398	124.06
498.615	122.06
498.832	126.06
499.049	123.06
499.267	115.06
499.484	142.06
499.701	114.06
499.918	136.06
500.135	127.06
500.352	132.06
500.569	150.06
500.786	149.06
501.003	142.06
501.22	128.06
501.437	147.06
501.654	141.06
501.871	156.06
502.088	129.06
502.305	118.06
502.522	135.06
502.739	143.06
502.956	132.06
503.172	125.06
503.389	132.06
503.606	120.06
503.823	127.06
504.04	135.06
504.256	126.06
504.473	120.06
504.69	122.06
504.907	121.06
505.123	127.06
505.34	118.06
505.557	134.06
505.773	108.06
505.99	118.06
506.207	121.06
506.423	121.06
506.64	122.06
506.856	130.06
507.073	125.06
507.289	123.06
507.506	122.06
507.722	121.06
507.939	118.06
508.155	145.06
508.372	114.06
508.588	124.06
508.805	116.06
509.021	125.06
509.238	102.06
509.454	108.06
509.67	87.06
509.887	97.06
510.103	99.06
510.319	95.06
510.536	81.06
510.752	75.06
510.968	77.06
511.184	92.06
511.401	78.06
511.617	98.06
511.833	95.06
512.049	102.06
512.265	98.06
512.481	93.06
512.698	97.06
512.914	112.06
513.13	96.06
513.346	94.06
513.562	93.06
513.778	101.06
513.994	98.06
514.21	107.06
514.426	93.06
514.642	94.06
514.858	99.06
515.074	86.06
515.29	90.06
515.506	90.06
515.721	85.06
515.937	86.06
516.153	83.06
516.369	94.06
516.585	101.06
516.801	75.06
517.016	102.06
517.232	85.06
517.448	94.06
517.664	104.06
517.879	102.06
518.095	112.06
518.311	100.06
518.527	86.06
518.742	96.06
518.958	104.06
519.173	110.06
519.389	119.06
519.605	114.06
519.82	102.06
520.036	119.06
520.251	108.06
520.467	105.06
520.682	96.06
520.898	99.06
521.113	90.06
521.329	86.06
521.544	110.06
521.76	95.06
521.975	93.06
522.19	117.06
522.406	107.06
522.621	108.06
522.836	116.06
523.052	110.06
523.267	108.06
523.482	124.06
523.698	119.06
523.913	103.06
524.128	118.06
524.343	109.06
524.559	126.06
524.774	129.06
524.989	140.06
525.204	120.06
525.419	95.06
525.634	109.06
525.849	115.06
526.064	116.06
526.28	118.06
526.495	91.06
526.71	90.06
526.925	79.06
527.14	63.06
527.355	104.06
527.57	79.06
527.785	106.06
527.999	115.06
528.214	102.06
528.429	116.06
528.644	128.06
528.859	121.06
529.074	128.06
529.289	154.06
529.503	148.06
529.718	151.06
529.933	126.06
530.148	108.06
530.363	108.06
530.577	102.06
530.792	90.06
531.007	88.06
531.221	92.06
531.436	76.06
531.651	85.06
531.865	92.06
532.08	88.06
532.295	113.06
532.509	87.06
532.724	95.06
532.938	98.06
533.153	100.06
533.367	109.06
533.582	126.06
533.796	123.06
534.011	109.06
534.225	96.06
534.44	86.06
534.654	101.06
534.868	115.06
535.083	103.06
535.297	99.06
535.511	106.06
535.726	108.06
535.94	111.06
536.154	95.06
536.369	87.06
536.583	88.06
536.797	77.06
537.011	103.06
537.225	97.06
537.44	101.06
537.654	88.06
537.868	93.06
538.082	92.06
538.296	92.06
538.51	113.06
538.724	104.06
538.938	143.06
539.153	139.06
539.367	122.06
539.581	111.06
539.795	124.06
540.009	104.06
540.222	114.06
540.436	120.06
540.65	128.06
540.864	135.06
541.078	138.06
541.292	146.06
541.506	161.06
541.72	167.06
541.934	184.06
542.147	193.06
542.361	182.06
542.575	173.06
542.789	132.06
543.002	145.06
543.216	134.06
543.43	121.06
543.644	134.06
543.857	132.06
544.071	164.06
544.285	157.06
544.498	148.06
544.712	159.06
544.925	156.06
545.139	165.06
545.352	152.06
545.566	165.06
545.779	163.06
545.993	162.06
546.206	165.06
546.42	159.06
546.633	151.06
546.847	170.06
547.06	154.06
547.274	163.06
547.487	173.06
547.7	194.06
547.914	175.06
548.127	174.06
548.34	155.06
548.554	162.06
548.767	159.06
548.98	153.06
549.193	167.06
549.407	154.06
549.62	145.06
549.833	156.06
550.046	146.06
550.259	158.06
550.473	149.06
550.686	151.06
550.899	165.06
551.112	165.06
551.325	142.06
551.538	119.06
551.751	126.06
551.964	110.06
552.177	136.06
552.39	143.06
552.603	147.06
552.816	165.06
553.029	150.06
553.242	154.06
553.455	160.06
553.667	164.06
553.88	151.06
554.093	155.06
554.306	152.06
554.519	154.06
554.732	150.06
554.944	128.06
555.157	147.06
555.37	148.06
555.583	147.06
555.795	129.06
556.008	140.06
556.221	128.06
556.433	132.06
556.646	141.06
556.859	138.06
557.071	152.06
557.284	152.06
557.496	152.06
557.709	145.06
557.921	141.06
558.134	137.06
558.346	147.06
558.559	159.06
558.771	124.06
558.984	130.06
559.196	129.06
559.409	135.06
559.621	125.06
559.833	122.06
560.046	110.06
560.258	136.06
560.47	135.06
560.683	132.06
560.895	133.06
561.107	136.06
561.32	126.06
561.532	128.06
561.744	144.06
561.956	157.06
562.168	125.06
562.381	124.06
562.593	127.06
562.805	126.06
563.017	128.06
563.229	130.06
563.441	134.06
563.653	127.06
563.865	110.06
564.077	132.06
564.289	127.06
564.501	136.06
564.713	124.06
564.925	128.06
565.137	127.06
565.349	122.06
565.561	121.06
565.773	119.06
565.985	121.06
566.197	116.06
566.408	118.06
566.62	110.06
566.832	122.06
567.044	111.06
567.255	123.06
567.467	109.06
567.679	109.06
567.891	110.06
568.102	106.06
568.314	110.06
568.526	93.06
568.737	81.06
568.949	81.06
569.161	87.06
569.372	100.06
569.584	81.06
569.795	100.06
570.007	83.06
570.218	89.06
570.43	102.06
570.641	101.06
570.853	106.06
571.064	95.06
571.276	110.06
571.487	116.06
571.698	114.06
571.91	110.06
572.121	94.06
572.333	93.06
572.544	120.06
572.755	94.06
572.966	93.06
573.178	103.06
573.389	79.06
573.6	80.06
573.811	89.06
574.023	92.06
574.234	102.06
574.445	108.06
574.656	87.06
574.867	100.06
575.078	73.06
575.289	108.06
575.501	87.06
575.712	94.06
575.923	88.06
576.134	93.06
576.345	105.06
576.556	107.06
576.767	101.06
576.978	110.06
577.188	99.06
577.399	110.06
577.61	84.06
577.821	92.06
578.032	98.06
578.243	110.06
578.454	96.06
578.665	94.06
578.875	90.06
579.086	93.06
579.297	86.06
579.508	86.06
579.718	90.06
579.929	98.06
580.14	101.06
580.35	76.06
580.561	90.06
580.772	96.06
580.982	101.06
581.193	96.06
581.403	105.06
581.614	106.06
581.825	91.06
582.035	88.06
582.246	104.06
582.456	83.06
582.667	94.06
582.877	94.06
583.087	89.06
583.298	92.06
583.508	85.06
583.719	95.06
583.929	99.06
584.139	84.06
584.35	98.06
584.56	90.06
584.77	82.06
584.981	94.06
585.191	106.06
585.401	83.06
585.611	96.06
585.821	102.06
586.032	81.06
586.242	95.06
586.452	83.06
586.662	83.06
586.872	83.06
587.082	81.06
587.292	106.06
587.502	93.06
587.713	100.06
587.923	81.06
588.133	84.06
588.343	95.06
588.553	75.06
588.762	76.06
588.972	87.06
589.182	62.06
589.392	93.06
589.602	93.06
589.812	87.06
590.022	92.06
590.232	82.06
590.441	77.06
590.651	86.06
590.861	93.06
591.071	102.06
591.281	104.06
591.49	77.06
591.7	74.06
591.91	89.06
592.119	102.06
592.329	88.06
592.539	104.06
592.748	80.06
592.958	89.06
593.167	90.06
593.377	86.06
593.587	110.06
593.796	86.06
594.006	95.06
594.215	88.06
594.424	81.06
594.634	87.06
594.843	95.06
595.053	89.06
595.262	95.06
595.472	92.06
595.681	95.06
595.89	85.06
596.1	93.06
596.309	96.06
596.518	82.06
596.727	88.06
596.937	91.06
597.146	94.06
597.355	111.06
597.564	87.06
597.774	89.06
597.983	88.06
598.192	102.06
598.401	90.06
598.61	87.06
598.819	92.06
599.028	111.06
599.237	84.06
599.446	91.06
599.655	108.06
599.864	91.06
600.073	96.06
600.282	100.06
600.491	97.06
600.7	100.06
600.909	102.06
601.118	89.06
601.327	92.06
601.536	99.06
601.745	108.06
601.953	100.06
602.162	103.06
602.371	107.06
602.58	108.06
602.789	119.06
602.997	123.06
603.206	116.06
603.415	112.06
603.623	125.06
603.832	106.06
604.041	98.06
604.249	106.06
604.458	96.06
604.666	116.06
604.875	116.06
605.084	97.06
605.292	118.06
605.501	118.06
605.709	115.06
605.918	117.06
606.126	122.06
606.334	122.06
606.543	112.06
606.751	108.06
606.96	110.06
607.168	128.06
607.376	124.06
607.585	118.06
607.793	111.06
608.001	109.06
608.21	121.06
608.418	107.06
608.626	114.06
608.834	111.06
609.043	119.06
609.251	108.06
609.459	112.06
609.667	103.06
609.875	118.06
610.083	110.06
610.291	117.06
610.499	106.06
610.707	114.06
610.916	111.06
611.124	122.06
611.332	114.06
611.54	106.06
611.748	127.06
611.955	114.06
612.163	121.06
612.371	108.06
612.579	118.06
612.787	111.06
612.995	113.06
613.203	103.06
613.411	122.06
613.618	116.06
613.826	112.06
614.034	123.06
614.242	96.06
614.449	106.06
614.657	124.06
614.865	114.06
615.072	128.06
615.28	110.06
615.488	108.06
615.695	96.06
615.903	92.06
616.111	102.06
616.318	113.06
616.526	105.06
616.733	116.06
616.941	112.06
617.148	120.06
617.356	114.06
617.563	131.06
617.771	106.06
617.978	108.06
618.185	103.06
618.393	115.06
618.6	106.06
618.807	112.06
619.015	120.06
619.222	117.06
619.429	107.06
619.637	108.06
619.844	112.06
620.051	101.06
620.258	90.06
620.466	114.06
620.673	124.06
620.88	95.06
621.087	119.06
621.294	111.06
621.501	96.06
621.708	99.06
621.915	118.06
622.122	111.06
622.329	90.06
622.536	104.06
622.743	123.06
622.95	126.06
623.157	111.06
623.364	102.06
623.571	118.06
623.778	117.06
623.985	105.06
624.192	114.06
624.399	114.06
624.606	109.06
624.812	101.06
625.019	107.06
625.226	103.06
625.433	93.06
625.639	96.06
625.846	103.06
626.053	102.06
626.259	79.06
626.466	94.06
626.673	94.06
626.879	89.06
627.086	115.06
627.293	126.06
627.499	110.06
627.706	102.06
627.912	97.06
628.119	121.06
628.325	120.06
628.532	99.06
628.738	96.06
628.945	101.06
629.151	95.06
629.357	99.06
629.564	94.06
629.77	93.06
629.976	105.06
630.183	99.06
630.389	101.06
630.595	99.06
630.802	105.06
631.008	89.06
631.214	108.06
631.42	104.06
631.627	120.06
631.833	106.06
632.039	99.06
632.245	92.06
632.451	102.06
632.657	108.06
632.863	87.06
633.069	101.06
633.275	96.06
633.481	86.06
633.688	97.06
633.893	107.06
634.099	102.06
634.305	116.06
634.511	90.06
634.717	91.06
634.923	102.06
635.129	110.06
635.335	111.06
635.541	95.06
635.747	105.06
635.952	104.06
636.158	110.06
636.364	101.06
636.57	109.06
636.775	107.06
636.981	95.06
637.187	96.06
637.392	107.06
637.598	101.06
637.804	92.06
638.009	101.06
638.215	106.06
638.421	96.06
638.626	95.06
638.832	103.06
639.037	87.06
639.243	94.06
639.448	101.06
639.654	120.06
639.859	98.06
640.065	100.06
640.27	107.06
640.475	95.06
640.681	96.06
640.886	94.06
641.091	92.06
641.297	108.06
641.502	105.06
641.707	88.06
641.913	107.06
642.118	95.06
642.323	104.06
642.528	105.06
642.733	97.06
642.939	105.06
643.144	116.06
643.349	93.06
643.554	102.06
643.759	105.06
643.964	97.06
644.169	107.06
644.374	108.06
644.579	100.06
644.784	110.06
644.989	100.06
645.194	98.06
645.399	103.06
645.604	110.06
645.809	104.06
646.014	103.06
646.219	98.06
646.423	96.06
646.628	98.06
646.833	103.06
647.038	114.06
647.243	111.06
647.447	98.06
647.652	93.06
647.857	103.06
648.062	90.06
648.266	93.06
648.471	108.06
648.676	107.06
648.88	102.06
649.085	98.06
649.289	104.06
649.494	99.06
649.698	108.06
649.903	94.06
650.107	101.06
650.312	100.06
650.516	105.06
650.721	103.06
650.925	85.06
651.13	100.06
651.334	112.06
651.539	89.06
651.743	96.06
651.947	98.06
652.152	95.06
652.356	100.06
652.56	95.06
652.764	100.06
652.969	100.06
653.173	90.06
653.377	93.06
653.581	96.06
653.785	99.06
653.99	105.06
654.194	93.06
654.398	101.06
654.602	74.06
654.806	95.06
655.01	96.06
655.214	84.06
655.418	92.06
655.622	86.06
655.826	104.06
656.03	107.06
656.234	100.06
656.438	95.06
656.642	102.06
656.846	91.06
657.049	98.06
657.253	82.06
657.457	83.06
657.661	93.06
657.865	94.06
658.068	112.06
658.272	105.06
658.476	91.06
658.68	100.06
658.883	98.06
659.087	92.06
659.291	91.06
659.494	76.06
659.698	90.06
659.901	97.06
660.105	81.06
660.309	85.06
660.512	82.06
660.716	82.06
660.919	85.06
661.123	75.06
661.326	84.06
661.53	76.06
661.733	84.06
661.936	82.06
662.14	89.06
662.343	85.06
662.546	84.06
662.75	88.06
662.953	100.06
663.156	80.06
663.36	88.06
663.563	94.06
663.766	84.06
663.969	90.06
664.173	80.06
664.376	59.06
664.579	84.06
664.782	74.06
664.985	84.06
665.188	79.06
665.391	79.06
665.594	72.06
665.797	77.06
666	100.06
666.203	91.06
666.406	68.06
666.609	80.06
666.812	76.06
667.015	96.06
667.218	94.06
667.421	93.06
667.624	83.06
667.827	84.06
668.03	90.06
668.232	94.06
668.435	79.06
668.638	79.06
668.841	79.06
669.043	98.06
669.246	87.06
669.449	92.06
669.651	73.06
669.854	101.06
670.057	99.06
670.259	91.06
670.462	84.06
670.665	84.06
670.867	86.06
671.07	75.06
671.272	103.06
671.475	92.06
671.677	98.06
671.88	64.06
672.082	82.06
672.284	79.06
672.487	96.06
672.689	86.06
672.892	80.06
