Data from Location2.07152019.Energy5.Lamp.07192019.3%Agarose_HRD10591_14-58-57-359.txt Node
Date: Fri Jul 19 14:58:57 EDT 2019
User: cochatt
Spectrometer: HR+D1059
Trigger mode: 1
Integration Time (sec): 1.000000E-1
Scans to average: 1
Electric dark correction enabled: true
Nonlinearity correction enabled: false
Boxcar width: 0
XAxis mode: Wavelengths
Number of Pixels in Spectrum: 2048
>>>>>Begin Spectral Data<<<<<
223.165	-2.94
223.4	-2.94
223.635	-2.94
223.869	-14.94
224.104	-18.94
224.338	-16.94
224.573	-14.94
224.808	-16.94
225.042	-7.94
225.277	-2.94
225.511	-3.94
225.746	2.06
225.98	-10.94
226.215	9.06
226.449	21.06
226.683	29.06
226.918	22.06
227.152	28.06
227.387	40.06
227.621	45.06
227.856	42.06
228.09	57.06
228.324	51.06
228.559	56.06
228.793	46.06
229.027	72.06
229.262	59.06
229.496	73.06
229.73	67.06
229.964	83.06
230.199	71.06
230.433	64.06
230.667	78.06
230.901	73.06
231.136	90.06
231.37	76.06
231.604	95.06
231.838	85.06
232.072	85.06
232.306	84.06
232.541	71.06
232.775	92.06
233.009	90.06
233.243	94.06
233.477	80.06
233.711	82.06
233.945	92.06
234.179	90.06
234.413	75.06
234.647	83.06
234.881	90.06
235.115	71.06
235.349	81.06
235.583	83.06
235.817	69.06
236.051	79.06
236.285	75.06
236.519	86.06
236.753	74.06
236.987	88.06
237.221	79.06
237.455	77.06
237.689	75.06
237.922	65.06
238.156	83.06
238.39	71.06
238.624	94.06
238.858	94.06
239.091	91.06
239.325	82.06
239.559	82.06
239.793	90.06
240.027	96.06
240.26	70.06
240.494	71.06
240.728	66.06
240.961	72.06
241.195	87.06
241.429	96.06
241.662	84.06
241.896	75.06
242.13	68.06
242.363	67.06
242.597	74.06
242.83	75.06
243.064	76.06
243.298	61.06
243.531	72.06
243.765	78.06
243.998	81.06
244.232	78.06
244.465	88.06
244.699	82.06
244.932	77.06
245.166	90.06
245.399	81.06
245.633	81.06
245.866	72.06
246.099	87.06
246.333	77.06
246.566	82.06
246.8	67.06
247.033	76.06
247.266	93.06
247.5	70.06
247.733	82.06
247.966	68.06
248.2	71.06
248.433	87.06
248.666	86.06
248.899	93.06
249.133	81.06
249.366	85.06
249.599	64.06
249.832	96.06
250.066	73.06
250.299	94.06
250.532	92.06
250.765	88.06
250.998	72.06
251.231	83.06
251.465	77.06
251.698	85.06
251.931	80.06
252.164	85.06
252.397	79.06
252.63	78.06
252.863	67.06
253.096	80.06
253.329	89.06
253.562	75.06
253.795	91.06
254.028	81.06
254.261	80.06
254.494	82.06
254.727	82.06
254.96	85.06
255.193	84.06
255.426	80.06
255.659	73.06
255.892	90.06
256.124	83.06
256.357	80.06
256.59	86.06
256.823	78.06
257.056	87.06
257.289	80.06
257.521	84.06
257.754	69.06
257.987	89.06
258.22	87.06
258.452	93.06
258.685	89.06
258.918	83.06
259.151	85.06
259.383	74.06
259.616	90.06
259.849	89.06
260.081	94.06
260.314	97.06
260.547	76.06
260.779	93.06
261.012	72.06
261.244	85.06
261.477	83.06
261.71	99.06
261.942	91.06
262.175	84.06
262.407	85.06
262.64	79.06
262.872	81.06
263.105	67.06
263.337	89.06
263.57	82.06
263.802	77.06
264.035	92.06
264.267	96.06
264.499	73.06
264.732	79.06
264.964	68.06
265.197	78.06
265.429	86.06
265.661	91.06
265.894	92.06
266.126	87.06
266.358	69.06
266.591	78.06
266.823	73.06
267.055	85.06
267.287	86.06
267.52	90.06
267.752	66.06
267.984	90.06
268.216	83.06
268.448	85.06
268.681	92.06
268.913	102.06
269.145	98.06
269.377	101.06
269.609	89.06
269.841	90.06
270.073	83.06
270.306	83.06
270.538	83.06
270.77	90.06
271.002	89.06
271.234	87.06
271.466	89.06
271.698	77.06
271.93	90.06
272.162	77.06
272.394	87.06
272.626	94.06
272.858	79.06
273.09	78.06
273.322	86.06
273.553	78.06
273.785	88.06
274.017	84.06
274.249	90.06
274.481	88.06
274.713	89.06
274.945	85.06
275.176	90.06
275.408	100.06
275.64	84.06
275.872	85.06
276.104	87.06
276.335	89.06
276.567	78.06
276.799	95.06
277.031	83.06
277.262	84.06
277.494	77.06
277.726	79.06
277.957	86.06
278.189	85.06
278.421	88.06
278.652	80.06
278.884	93.06
279.115	75.06
279.347	86.06
279.579	87.06
279.81	72.06
280.042	88.06
280.273	86.06
280.505	82.06
280.736	82.06
280.968	97.06
281.199	101.06
281.431	80.06
281.662	72.06
281.894	97.06
282.125	88.06
282.356	84.06
282.588	89.06
282.819	87.06
283.051	96.06
283.282	81.06
283.513	79.06
283.745	79.06
283.976	72.06
284.207	76.06
284.439	89.06
284.67	87.06
284.901	89.06
285.132	94.06
285.364	93.06
285.595	90.06
285.826	80.06
286.057	85.06
286.288	70.06
286.52	90.06
286.751	81.06
286.982	83.06
287.213	92.06
287.444	90.06
287.675	94.06
287.906	96.06
288.138	91.06
288.369	84.06
288.6	90.06
288.831	82.06
289.062	88.06
289.293	90.06
289.524	97.06
289.755	73.06
289.986	82.06
290.217	82.06
290.448	82.06
290.679	85.06
290.91	79.06
291.141	98.06
291.371	81.06
291.602	78.06
291.833	87.06
292.064	90.06
292.295	95.06
292.526	78.06
292.757	88.06
292.987	83.06
293.218	91.06
293.449	85.06
293.68	94.06
293.91	82.06
294.141	90.06
294.372	82.06
294.603	89.06
294.833	91.06
295.064	87.06
295.295	83.06
295.525	94.06
295.756	73.06
295.987	93.06
296.217	87.06
296.448	93.06
296.679	85.06
296.909	87.06
297.14	98.06
297.37	84.06
297.601	87.06
297.831	81.06
298.062	94.06
298.292	87.06
298.523	84.06
298.753	94.06
298.984	91.06
299.214	86.06
299.445	77.06
299.675	101.06
299.905	88.06
300.136	93.06
300.366	77.06
300.597	78.06
300.827	100.06
301.057	74.06
301.288	93.06
301.518	93.06
301.748	85.06
301.979	87.06
302.209	79.06
302.439	75.06
302.669	77.06
302.9	78.06
303.13	86.06
303.36	90.06
303.59	96.06
303.82	78.06
304.051	98.06
304.281	78.06
304.511	85.06
304.741	84.06
304.971	89.06
305.201	81.06
305.431	90.06
305.661	83.06
305.891	88.06
306.121	81.06
306.352	77.06
306.582	74.06
306.812	81.06
307.042	76.06
307.272	89.06
307.502	86.06
307.731	82.06
307.961	89.06
308.191	90.06
308.421	81.06
308.651	93.06
308.881	83.06
309.111	88.06
309.341	92.06
309.571	97.06
309.8	83.06
310.03	78.06
310.26	89.06
310.49	95.06
310.72	97.06
310.949	73.06
311.179	78.06
311.409	76.06
311.639	78.06
311.868	82.06
312.098	100.06
312.328	87.06
312.557	85.06
312.787	85.06
313.017	88.06
313.246	92.06
313.476	86.06
313.706	81.06
313.935	83.06
314.165	84.06
314.394	91.06
314.624	72.06
314.853	88.06
315.083	84.06
315.312	94.06
315.542	79.06
315.771	88.06
316.001	94.06
316.23	98.06
316.46	83.06
316.689	85.06
316.919	90.06
317.148	85.06
317.377	97.06
317.607	100.06
317.836	81.06
318.065	73.06
318.295	81.06
318.524	98.06
318.753	81.06
318.983	82.06
319.212	95.06
319.441	93.06
319.67	93.06
319.9	86.06
320.129	88.06
320.358	85.06
320.587	101.06
320.816	98.06
321.046	90.06
321.275	91.06
321.504	83.06
321.733	92.06
321.962	86.06
322.191	100.06
322.42	78.06
322.649	88.06
322.878	101.06
323.108	100.06
323.337	84.06
323.566	89.06
323.795	93.06
324.024	99.06
324.253	84.06
324.482	86.06
324.71	77.06
324.939	79.06
325.168	77.06
325.397	97.06
325.626	92.06
325.855	97.06
326.084	87.06
326.313	100.06
326.542	99.06
326.77	91.06
326.999	90.06
327.228	94.06
327.457	92.06
327.686	90.06
327.914	81.06
328.143	91.06
328.372	96.06
328.6	81.06
328.829	76.06
329.058	90.06
329.287	83.06
329.515	87.06
329.744	84.06
329.972	76.06
330.201	91.06
330.43	91.06
330.658	105.06
330.887	85.06
331.115	99.06
331.344	87.06
331.572	89.06
331.801	90.06
332.03	88.06
332.258	73.06
332.486	83.06
332.715	76.06
332.943	74.06
333.172	86.06
333.4	88.06
333.629	88.06
333.857	95.06
334.085	90.06
334.314	90.06
334.542	81.06
334.771	68.06
334.999	78.06
335.227	103.06
335.455	78.06
335.684	77.06
335.912	92.06
336.14	79.06
336.369	82.06
336.597	97.06
336.825	87.06
337.053	88.06
337.281	84.06
337.51	97.06
337.738	89.06
337.966	74.06
338.194	80.06
338.422	77.06
338.65	76.06
338.878	87.06
339.106	97.06
339.334	91.06
339.562	92.06
339.79	96.06
340.018	97.06
340.246	84.06
340.474	82.06
340.702	90.06
340.93	82.06
341.158	93.06
341.386	90.06
341.614	80.06
341.842	84.06
342.07	96.06
342.298	95.06
342.526	97.06
342.754	94.06
342.981	93.06
343.209	84.06
343.437	89.06
343.665	87.06
343.893	83.06
344.12	94.06
344.348	92.06
344.576	90.06
344.804	72.06
345.031	78.06
345.259	87.06
345.487	89.06
345.714	88.06
345.942	83.06
346.17	73.06
346.397	90.06
346.625	91.06
346.853	82.06
347.08	83.06
347.308	97.06
347.535	76.06
347.763	84.06
347.99	86.06
348.218	80.06
348.445	80.06
348.673	104.06
348.9	82.06
349.128	99.06
349.355	90.06
349.583	86.06
349.81	78.06
350.037	78.06
350.265	74.06
350.492	90.06
350.72	81.06
350.947	88.06
351.174	85.06
351.402	95.06
351.629	73.06
351.856	69.06
352.083	71.06
352.311	84.06
352.538	85.06
352.765	95.06
352.992	98.06
353.22	74.06
353.447	75.06
353.674	78.06
353.901	93.06
354.128	94.06
354.355	95.06
354.583	97.06
354.81	86.06
355.037	99.06
355.264	94.06
355.491	87.06
355.718	79.06
355.945	91.06
356.172	83.06
356.399	79.06
356.626	83.06
356.853	77.06
357.08	92.06
357.307	82.06
357.534	80.06
357.761	82.06
357.988	91.06
358.215	76.06
358.441	74.06
358.668	73.06
358.895	75.06
359.122	83.06
359.349	84.06
359.576	103.06
359.802	81.06
360.029	96.06
360.256	90.06
360.483	87.06
360.709	97.06
360.936	87.06
361.163	81.06
361.39	92.06
361.616	79.06
361.843	93.06
362.07	100.06
362.296	94.06
362.523	79.06
362.749	79.06
362.976	73.06
363.203	85.06
363.429	79.06
363.656	89.06
363.882	85.06
364.109	84.06
364.335	92.06
364.562	87.06
364.788	87.06
365.015	77.06
365.241	83.06
365.468	86.06
365.694	83.06
365.92	89.06
366.147	92.06
366.373	92.06
366.599	85.06
366.826	89.06
367.052	92.06
367.278	88.06
367.505	88.06
367.731	82.06
367.957	88.06
368.184	79.06
368.41	91.06
368.636	90.06
368.862	93.06
369.089	83.06
369.315	87.06
369.541	98.06
369.767	95.06
369.993	95.06
370.219	84.06
370.445	84.06
370.672	100.06
370.898	96.06
371.124	101.06
371.35	98.06
371.576	98.06
371.802	93.06
372.028	82.06
372.254	85.06
372.48	88.06
372.706	97.06
372.932	88.06
373.158	88.06
373.384	91.06
373.61	96.06
373.835	105.06
374.061	89.06
374.287	92.06
374.513	102.06
374.739	96.06
374.965	90.06
375.191	89.06
375.416	95.06
375.642	73.06
375.868	97.06
376.094	90.06
376.319	85.06
376.545	107.06
376.771	95.06
376.997	107.06
377.222	106.06
377.448	93.06
377.674	108.06
377.899	112.06
378.125	93.06
378.35	106.06
378.576	89.06
378.802	87.06
379.027	108.06
379.253	104.06
379.478	88.06
379.704	89.06
379.929	92.06
380.155	109.06
380.38	104.06
380.606	92.06
380.831	87.06
381.057	97.06
381.282	104.06
381.507	98.06
381.733	102.06
381.958	112.06
382.184	87.06
382.409	94.06
382.634	99.06
382.86	97.06
383.085	102.06
383.31	102.06
383.535	100.06
383.761	98.06
383.986	91.06
384.211	103.06
384.436	92.06
384.662	99.06
384.887	93.06
385.112	99.06
385.337	91.06
385.562	111.06
385.787	107.06
386.013	103.06
386.238	107.06
386.463	97.06
386.688	104.06
386.913	112.06
387.138	104.06
387.363	93.06
387.588	93.06
387.813	97.06
388.038	100.06
388.263	98.06
388.488	112.06
388.713	100.06
388.938	105.06
389.163	106.06
389.387	88.06
389.612	101.06
389.837	93.06
390.062	107.06
390.287	93.06
390.512	100.06
390.736	106.06
390.961	111.06
391.186	101.06
391.411	118.06
391.636	112.06
391.86	103.06
392.085	106.06
392.31	86.06
392.534	96.06
392.759	104.06
392.984	105.06
393.208	103.06
393.433	109.06
393.658	96.06
393.882	106.06
394.107	107.06
394.331	112.06
394.556	111.06
394.78	97.06
395.005	115.06
395.229	124.06
395.454	116.06
395.678	108.06
395.903	121.06
396.127	105.06
396.352	125.06
396.576	110.06
396.801	113.06
397.025	119.06
397.249	118.06
397.474	106.06
397.698	93.06
397.922	101.06
398.147	107.06
398.371	109.06
398.595	107.06
398.82	105.06
399.044	106.06
399.268	113.06
399.492	118.06
399.717	124.06
399.941	118.06
400.165	114.06
400.389	105.06
400.613	99.06
400.837	107.06
401.062	105.06
401.286	108.06
401.51	103.06
401.734	99.06
401.958	131.06
402.182	110.06
402.406	108.06
402.63	114.06
402.854	119.06
403.078	120.06
403.302	115.06
403.526	122.06
403.75	126.06
403.974	117.06
404.198	122.06
404.422	118.06
404.645	118.06
404.869	105.06
405.093	117.06
405.317	125.06
405.541	111.06
405.765	111.06
405.988	114.06
406.212	121.06
406.436	123.06
406.66	119.06
406.883	121.06
407.107	113.06
407.331	129.06
407.555	105.06
407.778	127.06
408.002	114.06
408.226	112.06
408.449	118.06
408.673	125.06
408.896	126.06
409.12	131.06
409.344	124.06
409.567	107.06
409.791	118.06
410.014	131.06
410.238	137.06
410.461	123.06
410.685	139.06
410.908	125.06
411.132	134.06
411.355	124.06
411.578	124.06
411.802	121.06
412.025	126.06
412.249	115.06
412.472	131.06
412.695	118.06
412.919	114.06
413.142	126.06
413.365	132.06
413.589	125.06
413.812	113.06
414.035	128.06
414.258	116.06
414.482	119.06
414.705	122.06
414.928	123.06
415.151	127.06
415.374	128.06
415.597	119.06
415.821	133.06
416.044	146.06
416.267	136.06
416.49	125.06
416.713	109.06
416.936	131.06
417.159	138.06
417.382	133.06
417.605	118.06
417.828	123.06
418.051	130.06
418.274	124.06
418.497	130.06
418.72	123.06
418.943	125.06
419.166	125.06
419.389	149.06
419.611	125.06
419.834	130.06
420.057	138.06
420.28	141.06
420.503	149.06
420.726	123.06
420.948	117.06
421.171	142.06
421.394	138.06
421.617	148.06
421.839	145.06
422.062	130.06
422.285	141.06
422.507	131.06
422.73	138.06
422.953	124.06
423.175	126.06
423.398	134.06
423.621	125.06
423.843	143.06
424.066	123.06
424.288	151.06
424.511	133.06
424.733	142.06
424.956	132.06
425.178	140.06
425.401	150.06
425.623	142.06
425.846	130.06
426.068	145.06
426.291	133.06
426.513	150.06
426.735	137.06
426.958	125.06
427.18	131.06
427.402	117.06
427.625	125.06
427.847	132.06
428.069	132.06
428.292	123.06
428.514	133.06
428.736	131.06
428.958	139.06
429.181	126.06
429.403	123.06
429.625	112.06
429.847	131.06
430.069	130.06
430.292	141.06
430.514	135.06
430.736	121.06
430.958	119.06
431.18	122.06
431.402	141.06
431.624	108.06
431.846	105.06
432.068	87.06
432.29	114.06
432.512	112.06
432.734	119.06
432.956	130.06
433.178	137.06
433.4	132.06
433.622	127.06
433.844	136.06
434.066	131.06
434.287	110.06
434.509	99.06
434.731	109.06
434.953	110.06
435.175	125.06
435.397	119.06
435.618	113.06
435.84	98.06
436.062	130.06
436.284	115.06
436.505	130.06
436.727	133.06
436.949	119.06
437.17	141.06
437.392	127.06
437.614	129.06
437.835	118.06
438.057	106.06
438.278	108.06
438.5	118.06
438.721	134.06
438.943	135.06
439.165	139.06
439.386	131.06
439.608	150.06
439.829	142.06
440.05	137.06
440.272	143.06
440.493	140.06
440.715	139.06
440.936	138.06
441.158	139.06
441.379	145.06
441.6	150.06
441.822	151.06
442.043	149.06
442.264	145.06
442.486	132.06
442.707	136.06
442.928	137.06
443.149	142.06
443.371	140.06
443.592	127.06
443.813	140.06
444.034	139.06
444.255	143.06
444.476	127.06
444.698	142.06
444.919	139.06
445.14	256.06
445.361	197.06
445.582	149.06
445.803	135.06
446.024	153.06
446.245	155.06
446.466	145.06
446.687	149.06
446.908	151.06
447.129	159.06
447.35	177.06
447.571	152.06
447.792	147.06
448.013	154.06
448.234	147.06
448.455	152.06
448.675	131.06
448.896	131.06
449.117	140.06
449.338	134.06
449.559	140.06
449.779	145.06
450	145.06
450.221	134.06
450.442	130.06
450.662	142.06
450.883	132.06
451.104	129.06
451.324	137.06
451.545	125.06
451.766	136.06
451.986	129.06
452.207	125.06
452.428	126.06
452.648	138.06
452.869	119.06
453.089	118.06
453.31	123.06
453.53	107.06
453.751	100.06
453.971	129.06
454.192	100.06
454.412	105.06
454.633	118.06
454.853	126.06
455.073	122.06
455.294	118.06
455.514	117.06
455.734	121.06
455.955	123.06
456.175	120.06
456.395	115.06
456.616	106.06
456.836	106.06
457.056	117.06
457.276	118.06
457.497	97.06
457.717	113.06
457.937	120.06
458.157	96.06
458.377	115.06
458.598	113.06
458.818	92.06
459.038	85.06
459.258	86.06
459.478	82.06
459.698	84.06
459.918	92.06
460.138	101.06
460.358	129.06
460.578	125.06
460.798	106.06
461.018	125.06
461.238	117.06
461.458	137.06
461.678	108.06
461.898	113.06
462.118	104.06
462.338	117.06
462.558	99.06
462.777	115.06
462.997	119.06
463.217	103.06
463.437	104.06
463.657	97.06
463.876	121.06
464.096	108.06
464.316	103.06
464.536	115.06
464.755	113.06
464.975	118.06
465.195	125.06
465.414	115.06
465.634	117.06
465.854	124.06
466.073	136.06
466.293	134.06
466.512	129.06
466.732	139.06
466.951	118.06
467.171	129.06
467.391	133.06
467.61	144.06
467.829	137.06
468.049	145.06
468.268	141.06
468.488	145.06
468.707	140.06
468.927	133.06
469.146	131.06
469.365	128.06
469.585	127.06
469.804	133.06
470.023	136.06
470.243	131.06
470.462	153.06
470.681	140.06
470.901	141.06
471.12	140.06
471.339	141.06
471.558	138.06
471.777	136.06
471.997	136.06
472.216	134.06
472.435	116.06
472.654	107.06
472.873	124.06
473.092	122.06
473.311	117.06
473.53	131.06
473.749	129.06
473.968	137.06
474.187	144.06
474.406	123.06
474.625	140.06
474.844	129.06
475.063	140.06
475.282	122.06
475.501	108.06
475.72	115.06
475.939	122.06
476.158	133.06
476.377	125.06
476.596	130.06
476.814	125.06
477.033	118.06
477.252	110.06
477.471	125.06
477.69	134.06
477.908	138.06
478.127	139.06
478.346	146.06
478.564	133.06
478.783	136.06
479.002	147.06
479.22	137.06
479.439	141.06
479.658	119.06
479.876	121.06
480.095	105.06
480.313	120.06
480.532	106.06
480.751	102.06
480.969	104.06
481.188	93.06
481.406	86.06
481.624	86.06
481.843	85.06
482.061	90.06
482.28	113.06
482.498	115.06
482.717	111.06
482.935	116.06
483.153	139.06
483.372	150.06
483.59	155.06
483.808	127.06
484.027	126.06
484.245	121.06
484.463	134.06
484.681	159.06
484.9	165.06
485.118	154.06
485.336	126.06
485.554	126.06
485.772	103.06
485.99	115.06
486.209	105.06
486.427	103.06
486.645	120.06
486.863	118.06
487.081	125.06
487.299	135.06
487.517	122.06
487.735	170.06
487.953	186.06
488.171	189.06
488.389	165.06
488.607	154.06
488.825	139.06
489.043	130.06
489.261	139.06
489.479	147.06
489.696	149.06
489.914	148.06
490.132	156.06
490.35	140.06
490.568	162.06
490.786	171.06
491.003	177.06
491.221	169.06
491.439	177.06
491.657	185.06
491.874	204.06
492.092	196.06
492.31	250.06
492.527	213.06
492.745	198.06
492.963	170.06
493.18	188.06
493.398	166.06
493.615	172.06
493.833	172.06
494.05	176.06
494.268	185.06
494.485	166.06
494.703	166.06
494.92	206.06
495.138	171.06
495.355	180.06
495.573	177.06
495.79	170.06
496.008	161.06
496.225	187.06
496.442	158.06
496.66	171.06
496.877	175.06
497.094	169.06
497.312	165.06
497.529	158.06
497.746	155.06
497.963	140.06
498.181	133.06
498.398	128.06
498.615	124.06
498.832	119.06
499.049	115.06
499.267	113.06
499.484	131.06
499.701	143.06
499.918	156.06
500.135	137.06
500.352	133.06
500.569	157.06
500.786	142.06
501.003	160.06
501.22	147.06
501.437	136.06
501.654	134.06
501.871	136.06
502.088	151.06
502.305	125.06
502.522	140.06
502.739	142.06
502.956	131.06
503.172	131.06
503.389	118.06
503.606	125.06
503.823	132.06
504.04	125.06
504.256	122.06
504.473	124.06
504.69	110.06
504.907	123.06
505.123	131.06
505.34	124.06
505.557	117.06
505.773	109.06
505.99	106.06
506.207	125.06
506.423	119.06
506.64	127.06
506.856	125.06
507.073	117.06
507.289	122.06
507.506	125.06
507.722	125.06
507.939	124.06
508.155	120.06
508.372	123.06
508.588	110.06
508.805	125.06
509.021	111.06
509.238	108.06
509.454	95.06
509.67	92.06
509.887	94.06
510.103	102.06
510.319	96.06
510.536	88.06
510.752	86.06
510.968	81.06
511.184	75.06
511.401	77.06
511.617	88.06
511.833	94.06
512.049	101.06
512.265	93.06
512.481	92.06
512.698	84.06
512.914	106.06
513.13	92.06
513.346	93.06
513.562	105.06
513.778	92.06
513.994	93.06
514.21	95.06
514.426	90.06
514.642	102.06
514.858	106.06
515.074	89.06
515.29	95.06
515.506	101.06
515.721	89.06
515.937	95.06
516.153	87.06
516.369	104.06
516.585	83.06
516.801	86.06
517.016	102.06
517.232	106.06
517.448	95.06
517.664	98.06
517.879	93.06
518.095	93.06
518.311	91.06
518.527	77.06
518.742	97.06
518.958	100.06
519.173	101.06
519.389	91.06
519.605	109.06
519.82	113.06
520.036	113.06
520.251	124.06
520.467	101.06
520.682	90.06
520.898	90.06
521.113	80.06
521.329	89.06
521.544	86.06
521.76	91.06
521.975	92.06
522.19	103.06
522.406	97.06
522.621	101.06
522.836	109.06
523.052	117.06
523.267	105.06
523.482	114.06
523.698	103.06
523.913	115.06
524.128	114.06
524.343	113.06
524.559	127.06
524.774	123.06
524.989	123.06
525.204	126.06
525.419	111.06
525.634	104.06
525.849	129.06
526.064	113.06
526.28	114.06
526.495	86.06
526.71	86.06
526.925	82.06
527.14	93.06
527.355	89.06
527.57	78.06
527.785	117.06
527.999	93.06
528.214	117.06
528.429	131.06
528.644	124.06
528.859	128.06
529.074	146.06
529.289	161.06
529.503	164.06
529.718	119.06
529.933	135.06
530.148	110.06
530.363	124.06
530.577	95.06
530.792	84.06
531.007	92.06
531.221	97.06
531.436	79.06
531.651	92.06
531.865	86.06
532.08	93.06
532.295	103.06
532.509	95.06
532.724	88.06
532.938	89.06
533.153	107.06
533.367	101.06
533.582	110.06
533.796	122.06
534.011	116.06
534.225	100.06
534.44	99.06
534.654	93.06
534.868	86.06
535.083	103.06
535.297	87.06
535.511	107.06
535.726	91.06
535.94	98.06
536.154	105.06
536.369	97.06
536.583	87.06
536.797	88.06
537.011	95.06
537.225	82.06
537.44	90.06
537.654	102.06
537.868	91.06
538.082	104.06
538.296	108.06
538.51	86.06
538.724	114.06
538.938	126.06
539.153	125.06
539.367	132.06
539.581	118.06
539.795	121.06
540.009	115.06
540.222	101.06
540.436	119.06
540.65	113.06
540.864	125.06
541.078	137.06
541.292	141.06
541.506	160.06
541.72	178.06
541.934	210.06
542.147	180.06
542.361	176.06
542.575	154.06
542.789	148.06
543.002	133.06
543.216	134.06
543.43	141.06
543.644	137.06
543.857	134.06
544.071	158.06
544.285	162.06
544.498	154.06
544.712	167.06
544.925	150.06
545.139	146.06
545.352	164.06
545.566	162.06
545.779	152.06
545.993	173.06
546.206	175.06
546.42	158.06
546.633	174.06
546.847	152.06
547.06	165.06
547.274	148.06
547.487	178.06
547.7	175.06
547.914	167.06
548.127	159.06
548.34	167.06
548.554	151.06
548.767	166.06
548.98	171.06
549.193	171.06
549.407	163.06
549.62	141.06
549.833	164.06
550.046	160.06
550.259	158.06
550.473	137.06
550.686	157.06
550.899	143.06
551.112	151.06
551.325	156.06
551.538	142.06
551.751	124.06
551.964	110.06
552.177	131.06
552.39	134.06
552.603	146.06
552.816	161.06
553.029	156.06
553.242	153.06
553.455	156.06
553.667	156.06
553.88	162.06
554.093	146.06
554.306	144.06
554.519	150.06
554.732	144.06
554.944	145.06
555.157	156.06
555.37	151.06
555.583	153.06
555.795	120.06
556.008	147.06
556.221	125.06
556.433	132.06
556.646	143.06
556.859	147.06
557.071	149.06
557.284	142.06
557.496	147.06
557.709	152.06
557.921	147.06
558.134	153.06
558.346	153.06
558.559	130.06
558.771	129.06
558.984	137.06
559.196	139.06
559.409	140.06
559.621	132.06
559.833	124.06
560.046	127.06
560.258	137.06
560.47	138.06
560.683	139.06
560.895	127.06
561.107	139.06
561.32	130.06
561.532	125.06
561.744	129.06
561.956	124.06
562.168	125.06
562.381	129.06
562.593	134.06
562.805	127.06
563.017	127.06
563.229	132.06
563.441	121.06
563.653	128.06
563.865	122.06
564.077	125.06
564.289	122.06
564.501	122.06
564.713	125.06
564.925	131.06
565.137	117.06
565.349	136.06
565.561	133.06
565.773	126.06
565.985	126.06
566.197	116.06
566.408	133.06
566.62	119.06
566.832	129.06
567.044	116.06
567.255	113.06
567.467	118.06
567.679	118.06
567.891	98.06
568.102	92.06
568.314	106.06
568.526	89.06
568.737	103.06
568.949	85.06
569.161	74.06
569.372	98.06
569.584	82.06
569.795	96.06
570.007	89.06
570.218	82.06
570.43	80.06
570.641	89.06
570.853	96.06
571.064	96.06
571.276	114.06
571.487	106.06
571.698	102.06
571.91	97.06
572.121	107.06
572.333	109.06
572.544	82.06
572.755	87.06
572.966	84.06
573.178	92.06
573.389	87.06
573.6	71.06
573.811	90.06
574.023	98.06
574.234	102.06
574.445	106.06
574.656	84.06
574.867	101.06
575.078	95.06
575.289	91.06
575.501	97.06
575.712	93.06
575.923	99.06
576.134	108.06
576.345	95.06
576.556	98.06
576.767	101.06
576.978	102.06
577.188	97.06
577.399	98.06
577.61	98.06
577.821	98.06
578.032	91.06
578.243	108.06
578.454	91.06
578.665	103.06
578.875	85.06
579.086	91.06
579.297	93.06
579.508	92.06
579.718	93.06
579.929	95.06
580.14	74.06
580.35	86.06
580.561	98.06
580.772	93.06
580.982	101.06
581.193	92.06
581.403	99.06
581.614	96.06
581.825	105.06
582.035	88.06
582.246	85.06
582.456	86.06
582.667	95.06
582.877	87.06
583.087	93.06
583.298	102.06
583.508	91.06
583.719	81.06
583.929	97.06
584.139	82.06
584.35	84.06
584.56	94.06
584.77	82.06
584.981	96.06
585.191	90.06
585.401	82.06
585.611	89.06
585.821	82.06
586.032	90.06
586.242	97.06
586.452	87.06
586.662	80.06
586.872	90.06
587.082	93.06
587.292	81.06
587.502	81.06
587.713	101.06
587.923	105.06
588.133	85.06
588.343	83.06
588.553	85.06
588.762	91.06
588.972	93.06
589.182	84.06
589.392	93.06
589.602	79.06
589.812	87.06
590.022	91.06
590.232	89.06
590.441	86.06
590.651	90.06
590.861	93.06
591.071	82.06
591.281	95.06
591.49	91.06
591.7	91.06
591.91	97.06
592.119	76.06
592.329	101.06
592.539	83.06
592.748	84.06
592.958	86.06
593.167	71.06
593.377	92.06
593.587	93.06
593.796	89.06
594.006	75.06
594.215	88.06
594.424	94.06
594.634	82.06
594.843	97.06
595.053	104.06
595.262	98.06
595.472	101.06
595.681	90.06
595.89	89.06
596.1	94.06
596.309	89.06
596.518	89.06
596.727	102.06
596.937	104.06
597.146	92.06
597.355	95.06
597.564	94.06
597.774	94.06
597.983	91.06
598.192	85.06
598.401	84.06
598.61	100.06
598.819	104.06
599.028	88.06
599.237	95.06
599.446	85.06
599.655	110.06
599.864	94.06
600.073	89.06
600.282	111.06
600.491	87.06
600.7	95.06
600.909	92.06
601.118	105.06
601.327	107.06
601.536	93.06
601.745	113.06
601.953	104.06
602.162	125.06
602.371	113.06
602.58	126.06
602.789	110.06
602.997	103.06
603.206	110.06
603.415	102.06
603.623	112.06
603.832	115.06
604.041	120.06
604.249	101.06
604.458	114.06
604.666	95.06
604.875	94.06
605.084	108.06
605.292	99.06
605.501	106.06
605.709	121.06
605.918	116.06
606.126	127.06
606.334	104.06
606.543	121.06
606.751	122.06
606.96	114.06
607.168	123.06
607.376	128.06
607.585	123.06
607.793	102.06
608.001	105.06
608.21	118.06
608.418	103.06
608.626	115.06
608.834	118.06
609.043	96.06
609.251	113.06
609.459	112.06
609.667	112.06
609.875	122.06
610.083	115.06
610.291	110.06
610.499	121.06
610.707	123.06
610.916	110.06
611.124	126.06
611.332	137.06
611.54	117.06
611.748	124.06
611.955	116.06
612.163	127.06
612.371	109.06
612.579	116.06
612.787	100.06
612.995	117.06
613.203	125.06
613.411	125.06
613.618	120.06
613.826	92.06
614.034	108.06
614.242	120.06
614.449	112.06
614.657	107.06
614.865	102.06
615.072	100.06
615.28	110.06
615.488	120.06
615.695	113.06
615.903	106.06
616.111	120.06
616.318	128.06
616.526	115.06
616.733	117.06
616.941	111.06
617.148	103.06
617.356	98.06
617.563	106.06
617.771	103.06
617.978	99.06
618.185	114.06
618.393	113.06
618.6	117.06
618.807	102.06
619.015	108.06
619.222	118.06
619.429	113.06
619.637	98.06
619.844	94.06
620.051	114.06
620.258	109.06
620.466	90.06
620.673	109.06
620.88	105.06
621.087	125.06
621.294	99.06
621.501	113.06
621.708	106.06
621.915	110.06
622.122	100.06
622.329	101.06
622.536	106.06
622.743	99.06
622.95	106.06
623.157	117.06
623.364	116.06
623.571	121.06
623.778	117.06
623.985	126.06
624.192	104.06
624.399	116.06
624.606	111.06
624.812	117.06
625.019	92.06
625.226	113.06
625.433	106.06
625.639	97.06
625.846	104.06
626.053	103.06
626.259	101.06
626.466	103.06
626.673	92.06
626.879	99.06
627.086	104.06
627.293	99.06
627.499	107.06
627.706	105.06
627.912	110.06
628.119	110.06
628.325	110.06
628.532	87.06
628.738	106.06
628.945	116.06
629.151	84.06
629.357	98.06
629.564	107.06
629.77	100.06
629.976	97.06
630.183	110.06
630.389	105.06
630.595	105.06
630.802	107.06
631.008	107.06
631.214	97.06
631.42	107.06
631.627	102.06
631.833	97.06
632.039	102.06
632.245	117.06
632.451	97.06
632.657	94.06
632.863	98.06
633.069	100.06
633.275	94.06
633.481	105.06
633.688	107.06
633.893	97.06
634.099	92.06
634.305	95.06
634.511	91.06
634.717	107.06
634.923	106.06
635.129	118.06
635.335	99.06
635.541	93.06
635.747	88.06
635.952	100.06
636.158	97.06
636.364	102.06
636.57	107.06
636.775	89.06
636.981	108.06
637.187	101.06
637.392	93.06
637.598	101.06
637.804	117.06
638.009	107.06
638.215	105.06
638.421	94.06
638.626	101.06
638.832	103.06
639.037	107.06
639.243	80.06
639.448	94.06
639.654	104.06
639.859	84.06
640.065	90.06
640.27	94.06
640.475	101.06
640.681	97.06
640.886	98.06
641.091	105.06
641.297	92.06
641.502	99.06
641.707	103.06
641.913	105.06
642.118	103.06
642.323	100.06
642.528	105.06
642.733	117.06
642.939	105.06
643.144	110.06
643.349	98.06
643.554	99.06
643.759	94.06
643.964	104.06
644.169	106.06
644.374	97.06
644.579	91.06
644.784	92.06
644.989	101.06
645.194	105.06
645.399	111.06
645.604	107.06
645.809	104.06
646.014	92.06
646.219	102.06
646.423	96.06
646.628	103.06
646.833	94.06
647.038	122.06
647.243	110.06
647.447	86.06
647.652	100.06
647.857	95.06
648.062	95.06
648.266	114.06
648.471	113.06
648.676	95.06
648.88	83.06
649.085	94.06
649.289	85.06
649.494	93.06
649.698	93.06
649.903	96.06
650.107	90.06
650.312	107.06
650.516	92.06
650.721	98.06
650.925	99.06
651.13	108.06
651.334	97.06
651.539	91.06
651.743	103.06
651.947	91.06
652.152	102.06
652.356	97.06
652.56	92.06
652.764	82.06
652.969	94.06
653.173	105.06
653.377	101.06
653.581	94.06
653.785	79.06
653.99	91.06
654.194	85.06
654.398	84.06
654.602	95.06
654.806	96.06
655.01	97.06
655.214	104.06
655.418	93.06
655.622	94.06
655.826	96.06
656.03	98.06
656.234	71.06
656.438	106.06
656.642	87.06
656.846	104.06
657.049	84.06
657.253	99.06
657.457	79.06
657.661	98.06
657.865	90.06
658.068	84.06
658.272	90.06
658.476	102.06
658.68	89.06
658.883	86.06
659.087	82.06
659.291	92.06
659.494	94.06
659.698	78.06
659.901	98.06
660.105	90.06
660.309	93.06
660.512	100.06
660.716	92.06
660.919	80.06
661.123	89.06
661.326	73.06
661.53	86.06
661.733	77.06
661.936	101.06
662.14	75.06
662.343	88.06
662.546	95.06
662.75	97.06
662.953	95.06
663.156	78.06
663.36	86.06
663.563	102.06
663.766	82.06
663.969	92.06
664.173	94.06
664.376	98.06
664.579	74.06
664.782	90.06
664.985	74.06
665.188	84.06
665.391	78.06
665.594	77.06
665.797	86.06
666	86.06
666.203	91.06
666.406	98.06
666.609	92.06
666.812	86.06
667.015	97.06
667.218	90.06
667.421	87.06
667.624	73.06
667.827	83.06
668.03	68.06
668.232	77.06
668.435	73.06
668.638	86.06
668.841	81.06
669.043	84.06
669.246	82.06
669.449	87.06
669.651	85.06
669.854	83.06
670.057	96.06
670.259	61.06
670.462	101.06
670.665	101.06
670.867	93.06
671.07	84.06
671.272	91.06
671.475	73.06
671.677	82.06
671.88	87.06
672.082	88.06
672.284	74.06
672.487	81.06
672.689	82.06
672.892	94.06
