Data from Location2.07152019.Energy5.Lamp.07192019.3%Agarose_HRD10591_14-56-59-359.txt Node
Date: Fri Jul 19 14:56:59 EDT 2019
User: cochatt
Spectrometer: HR+D1059
Trigger mode: 1
Integration Time (sec): 1.000000E-1
Scans to average: 1
Electric dark correction enabled: true
Nonlinearity correction enabled: false
Boxcar width: 0
XAxis mode: Wavelengths
Number of Pixels in Spectrum: 2048
>>>>>Begin Spectral Data<<<<<
223.165	-17.94
223.4	-17.94
223.635	-17.94
223.869	-6.94
224.104	-8.94
224.338	-15.94
224.573	-10.94
224.808	-19.94
225.042	-4.94
225.277	-1.94
225.511	-4.94
225.746	18.06
225.98	16.06
226.215	7.06
226.449	-6.94
226.683	20.06
226.918	14.06
227.152	24.06
227.387	20.06
227.621	37.06
227.856	38.06
228.09	31.06
228.324	51.06
228.559	56.06
228.793	65.06
229.027	59.06
229.262	51.06
229.496	57.06
229.73	72.06
229.964	66.06
230.199	70.06
230.433	58.06
230.667	76.06
230.901	69.06
231.136	78.06
231.37	62.06
231.604	82.06
231.838	71.06
232.072	67.06
232.306	65.06
232.541	86.06
232.775	77.06
233.009	81.06
233.243	73.06
233.477	81.06
233.711	82.06
233.945	82.06
234.179	82.06
234.413	71.06
234.647	60.06
234.881	78.06
235.115	83.06
235.349	75.06
235.583	73.06
235.817	76.06
236.051	74.06
236.285	80.06
236.519	70.06
236.753	79.06
236.987	74.06
237.221	80.06
237.455	79.06
237.689	78.06
237.922	66.06
238.156	73.06
238.39	80.06
238.624	73.06
238.858	65.06
239.091	70.06
239.325	81.06
239.559	66.06
239.793	71.06
240.027	72.06
240.26	89.06
240.494	71.06
240.728	79.06
240.961	77.06
241.195	70.06
241.429	70.06
241.662	68.06
241.896	77.06
242.13	80.06
242.363	79.06
242.597	81.06
242.83	67.06
243.064	74.06
243.298	87.06
243.531	57.06
243.765	75.06
243.998	69.06
244.232	85.06
244.465	82.06
244.699	73.06
244.932	85.06
245.166	70.06
245.399	65.06
245.633	76.06
245.866	89.06
246.099	71.06
246.333	74.06
246.566	75.06
246.8	70.06
247.033	72.06
247.266	74.06
247.5	88.06
247.733	78.06
247.966	66.06
248.2	61.06
248.433	83.06
248.666	79.06
248.899	85.06
249.133	58.06
249.366	73.06
249.599	77.06
249.832	72.06
250.066	83.06
250.299	71.06
250.532	68.06
250.765	60.06
250.998	57.06
251.231	81.06
251.465	80.06
251.698	82.06
251.931	78.06
252.164	76.06
252.397	73.06
252.63	75.06
252.863	69.06
253.096	80.06
253.329	72.06
253.562	76.06
253.795	70.06
254.028	74.06
254.261	86.06
254.494	92.06
254.727	90.06
254.96	68.06
255.193	75.06
255.426	65.06
255.659	74.06
255.892	89.06
256.124	77.06
256.357	76.06
256.59	93.06
256.823	89.06
257.056	66.06
257.289	77.06
257.521	65.06
257.754	71.06
257.987	79.06
258.22	82.06
258.452	73.06
258.685	70.06
258.918	82.06
259.151	86.06
259.383	73.06
259.616	81.06
259.849	84.06
260.081	81.06
260.314	76.06
260.547	81.06
260.779	87.06
261.012	79.06
261.244	71.06
261.477	80.06
261.71	78.06
261.942	68.06
262.175	89.06
262.407	71.06
262.64	63.06
262.872	73.06
263.105	77.06
263.337	84.06
263.57	88.06
263.802	86.06
264.035	79.06
264.267	86.06
264.499	95.06
264.732	73.06
264.964	82.06
265.197	84.06
265.429	70.06
265.661	86.06
265.894	82.06
266.126	68.06
266.358	71.06
266.591	87.06
266.823	91.06
267.055	73.06
267.287	87.06
267.52	82.06
267.752	66.06
267.984	74.06
268.216	63.06
268.448	83.06
268.681	77.06
268.913	79.06
269.145	92.06
269.377	72.06
269.609	74.06
269.841	67.06
270.073	76.06
270.306	84.06
270.538	82.06
270.77	83.06
271.002	70.06
271.234	83.06
271.466	82.06
271.698	89.06
271.93	93.06
272.162	84.06
272.394	73.06
272.626	76.06
272.858	86.06
273.09	90.06
273.322	71.06
273.553	71.06
273.785	82.06
274.017	84.06
274.249	80.06
274.481	77.06
274.713	81.06
274.945	93.06
275.176	70.06
275.408	78.06
275.64	92.06
275.872	73.06
276.104	71.06
276.335	68.06
276.567	80.06
276.799	54.06
277.031	77.06
277.262	84.06
277.494	78.06
277.726	81.06
277.957	75.06
278.189	69.06
278.421	71.06
278.652	83.06
278.884	74.06
279.115	86.06
279.347	93.06
279.579	94.06
279.81	75.06
280.042	73.06
280.273	76.06
280.505	82.06
280.736	82.06
280.968	88.06
281.199	94.06
281.431	79.06
281.662	75.06
281.894	77.06
282.125	78.06
282.356	88.06
282.588	85.06
282.819	85.06
283.051	75.06
283.282	78.06
283.513	80.06
283.745	74.06
283.976	74.06
284.207	83.06
284.439	73.06
284.67	81.06
284.901	86.06
285.132	86.06
285.364	89.06
285.595	85.06
285.826	82.06
286.057	90.06
286.288	62.06
286.52	79.06
286.751	80.06
286.982	73.06
287.213	72.06
287.444	94.06
287.675	89.06
287.906	98.06
288.138	87.06
288.369	79.06
288.6	81.06
288.831	86.06
289.062	93.06
289.293	84.06
289.524	74.06
289.755	74.06
289.986	78.06
290.217	95.06
290.448	93.06
290.679	87.06
290.91	78.06
291.141	80.06
291.371	84.06
291.602	88.06
291.833	72.06
292.064	80.06
292.295	74.06
292.526	84.06
292.757	87.06
292.987	80.06
293.218	82.06
293.449	74.06
293.68	75.06
293.91	82.06
294.141	72.06
294.372	78.06
294.603	70.06
294.833	69.06
295.064	78.06
295.295	85.06
295.525	80.06
295.756	100.06
295.987	79.06
296.217	57.06
296.448	75.06
296.679	74.06
296.909	77.06
297.14	85.06
297.37	94.06
297.601	79.06
297.831	78.06
298.062	83.06
298.292	82.06
298.523	70.06
298.753	92.06
298.984	82.06
299.214	89.06
299.445	91.06
299.675	76.06
299.905	95.06
300.136	85.06
300.366	76.06
300.597	81.06
300.827	94.06
301.057	88.06
301.288	87.06
301.518	69.06
301.748	98.06
301.979	86.06
302.209	84.06
302.439	84.06
302.669	80.06
302.9	80.06
303.13	94.06
303.36	76.06
303.59	92.06
303.82	92.06
304.051	83.06
304.281	91.06
304.511	85.06
304.741	73.06
304.971	92.06
305.201	81.06
305.431	73.06
305.661	79.06
305.891	78.06
306.121	94.06
306.352	91.06
306.582	85.06
306.812	86.06
307.042	74.06
307.272	83.06
307.502	85.06
307.731	74.06
307.961	78.06
308.191	70.06
308.421	83.06
308.651	75.06
308.881	69.06
309.111	85.06
309.341	83.06
309.571	69.06
309.8	90.06
310.03	83.06
310.26	83.06
310.49	78.06
310.72	78.06
310.949	77.06
311.179	103.06
311.409	82.06
311.639	73.06
311.868	82.06
312.098	84.06
312.328	81.06
312.557	83.06
312.787	67.06
313.017	86.06
313.246	78.06
313.476	84.06
313.706	85.06
313.935	84.06
314.165	68.06
314.394	75.06
314.624	86.06
314.853	77.06
315.083	88.06
315.312	81.06
315.542	81.06
315.771	82.06
316.001	84.06
316.23	67.06
316.46	80.06
316.689	87.06
316.919	89.06
317.148	74.06
317.377	72.06
317.607	85.06
317.836	84.06
318.065	90.06
318.295	85.06
318.524	85.06
318.753	90.06
318.983	62.06
319.212	89.06
319.441	94.06
319.67	79.06
319.9	85.06
320.129	86.06
320.358	79.06
320.587	81.06
320.816	82.06
321.046	80.06
321.275	87.06
321.504	86.06
321.733	81.06
321.962	93.06
322.191	87.06
322.42	88.06
322.649	88.06
322.878	85.06
323.108	73.06
323.337	102.06
323.566	81.06
323.795	71.06
324.024	76.06
324.253	77.06
324.482	81.06
324.71	79.06
324.939	89.06
325.168	62.06
325.397	71.06
325.626	88.06
325.855	79.06
326.084	83.06
326.313	78.06
326.542	70.06
326.77	90.06
326.999	82.06
327.228	88.06
327.457	79.06
327.686	79.06
327.914	90.06
328.143	104.06
328.372	75.06
328.6	84.06
328.829	94.06
329.058	85.06
329.287	87.06
329.515	78.06
329.744	85.06
329.972	73.06
330.201	85.06
330.43	86.06
330.658	81.06
330.887	78.06
331.115	71.06
331.344	79.06
331.572	84.06
331.801	86.06
332.03	89.06
332.258	79.06
332.486	73.06
332.715	70.06
332.943	77.06
333.172	58.06
333.4	86.06
333.629	84.06
333.857	71.06
334.085	65.06
334.314	76.06
334.542	71.06
334.771	77.06
334.999	78.06
335.227	83.06
335.455	77.06
335.684	85.06
335.912	77.06
336.14	86.06
336.369	69.06
336.597	85.06
336.825	80.06
337.053	82.06
337.281	88.06
337.51	74.06
337.738	80.06
337.966	86.06
338.194	63.06
338.422	84.06
338.65	87.06
338.878	87.06
339.106	73.06
339.334	90.06
339.562	86.06
339.79	76.06
340.018	72.06
340.246	81.06
340.474	89.06
340.702	82.06
340.93	69.06
341.158	93.06
341.386	89.06
341.614	88.06
341.842	86.06
342.07	88.06
342.298	92.06
342.526	91.06
342.754	88.06
342.981	84.06
343.209	69.06
343.437	82.06
343.665	72.06
343.893	82.06
344.12	83.06
344.348	84.06
344.576	78.06
344.804	59.06
345.031	73.06
345.259	90.06
345.487	72.06
345.714	84.06
345.942	94.06
346.17	82.06
346.397	93.06
346.625	79.06
346.853	82.06
347.08	83.06
347.308	100.06
347.535	65.06
347.763	92.06
347.99	77.06
348.218	72.06
348.445	80.06
348.673	76.06
348.9	68.06
349.128	79.06
349.355	86.06
349.583	68.06
349.81	86.06
350.037	87.06
350.265	75.06
350.492	79.06
350.72	82.06
350.947	91.06
351.174	78.06
351.402	70.06
351.629	80.06
351.856	92.06
352.083	86.06
352.311	83.06
352.538	80.06
352.765	74.06
352.992	87.06
353.22	78.06
353.447	78.06
353.674	81.06
353.901	76.06
354.128	79.06
354.355	74.06
354.583	82.06
354.81	83.06
355.037	82.06
355.264	85.06
355.491	74.06
355.718	80.06
355.945	82.06
356.172	79.06
356.399	82.06
356.626	68.06
356.853	74.06
357.08	75.06
357.307	86.06
357.534	75.06
357.761	79.06
357.988	84.06
358.215	85.06
358.441	70.06
358.668	70.06
358.895	88.06
359.122	84.06
359.349	74.06
359.576	77.06
359.802	78.06
360.029	79.06
360.256	80.06
360.483	68.06
360.709	77.06
360.936	93.06
361.163	94.06
361.39	80.06
361.616	71.06
361.843	90.06
362.07	80.06
362.296	80.06
362.523	73.06
362.749	72.06
362.976	77.06
363.203	90.06
363.429	79.06
363.656	78.06
363.882	78.06
364.109	87.06
364.335	81.06
364.562	90.06
364.788	87.06
365.015	83.06
365.241	96.06
365.468	87.06
365.694	75.06
365.92	85.06
366.147	86.06
366.373	79.06
366.599	90.06
366.826	78.06
367.052	80.06
367.278	86.06
367.505	80.06
367.731	80.06
367.957	80.06
368.184	83.06
368.41	66.06
368.636	86.06
368.862	108.06
369.089	76.06
369.315	85.06
369.541	94.06
369.767	102.06
369.993	97.06
370.219	66.06
370.445	88.06
370.672	85.06
370.898	82.06
371.124	83.06
371.35	85.06
371.576	79.06
371.802	95.06
372.028	89.06
372.254	92.06
372.48	87.06
372.706	93.06
372.932	101.06
373.158	85.06
373.384	95.06
373.61	86.06
373.835	80.06
374.061	81.06
374.287	87.06
374.513	78.06
374.739	91.06
374.965	92.06
375.191	92.06
375.416	95.06
375.642	102.06
375.868	86.06
376.094	84.06
376.319	98.06
376.545	85.06
376.771	79.06
376.997	80.06
377.222	83.06
377.448	71.06
377.674	84.06
377.899	99.06
378.125	96.06
378.35	104.06
378.576	86.06
378.802	95.06
379.027	90.06
379.253	95.06
379.478	91.06
379.704	92.06
379.929	97.06
380.155	83.06
380.38	85.06
380.606	99.06
380.831	101.06
381.057	90.06
381.282	84.06
381.507	98.06
381.733	96.06
381.958	79.06
382.184	88.06
382.409	84.06
382.634	87.06
382.86	86.06
383.085	81.06
383.31	86.06
383.535	107.06
383.761	90.06
383.986	97.06
384.211	85.06
384.436	102.06
384.662	87.06
384.887	90.06
385.112	89.06
385.337	89.06
385.562	86.06
385.787	96.06
386.013	104.06
386.238	108.06
386.463	93.06
386.688	95.06
386.913	90.06
387.138	100.06
387.363	95.06
387.588	97.06
387.813	90.06
388.038	111.06
388.263	93.06
388.488	94.06
388.713	111.06
388.938	98.06
389.163	104.06
389.387	88.06
389.612	87.06
389.837	111.06
390.062	101.06
390.287	116.06
390.512	104.06
390.736	88.06
390.961	110.06
391.186	104.06
391.411	110.06
391.636	90.06
391.86	99.06
392.085	87.06
392.31	87.06
392.534	106.06
392.759	110.06
392.984	105.06
393.208	87.06
393.433	90.06
393.658	88.06
393.882	101.06
394.107	110.06
394.331	97.06
394.556	103.06
394.78	88.06
395.005	92.06
395.229	96.06
395.454	98.06
395.678	114.06
395.903	100.06
396.127	104.06
396.352	105.06
396.576	88.06
396.801	92.06
397.025	99.06
397.249	96.06
397.474	113.06
397.698	103.06
397.922	105.06
398.147	102.06
398.371	102.06
398.595	110.06
398.82	115.06
399.044	97.06
399.268	115.06
399.492	116.06
399.717	113.06
399.941	97.06
400.165	110.06
400.389	108.06
400.613	102.06
400.837	110.06
401.062	100.06
401.286	106.06
401.51	89.06
401.734	114.06
401.958	119.06
402.182	85.06
402.406	106.06
402.63	116.06
402.854	113.06
403.078	112.06
403.302	93.06
403.526	108.06
403.75	110.06
403.974	123.06
404.198	117.06
404.422	117.06
404.645	114.06
404.869	109.06
405.093	120.06
405.317	115.06
405.541	106.06
405.765	103.06
405.988	111.06
406.212	118.06
406.436	113.06
406.66	112.06
406.883	105.06
407.107	112.06
407.331	111.06
407.555	112.06
407.778	84.06
408.002	100.06
408.226	108.06
408.449	97.06
408.673	108.06
408.896	95.06
409.12	114.06
409.344	105.06
409.567	118.06
409.791	108.06
410.014	134.06
410.238	99.06
410.461	117.06
410.685	103.06
410.908	102.06
411.132	122.06
411.355	117.06
411.578	114.06
411.802	124.06
412.025	114.06
412.249	128.06
412.472	117.06
412.695	103.06
412.919	124.06
413.142	118.06
413.365	116.06
413.589	120.06
413.812	110.06
414.035	114.06
414.258	109.06
414.482	125.06
414.705	119.06
414.928	128.06
415.151	117.06
415.374	122.06
415.597	112.06
415.821	115.06
416.044	120.06
416.267	133.06
416.49	112.06
416.713	127.06
416.936	128.06
417.159	122.06
417.382	133.06
417.605	120.06
417.828	130.06
418.051	130.06
418.274	128.06
418.497	141.06
418.72	116.06
418.943	128.06
419.166	117.06
419.389	144.06
419.611	134.06
419.834	134.06
420.057	120.06
420.28	122.06
420.503	134.06
420.726	117.06
420.948	124.06
421.171	116.06
421.394	128.06
421.617	146.06
421.839	132.06
422.062	119.06
422.285	142.06
422.507	117.06
422.73	132.06
422.953	120.06
423.175	116.06
423.398	137.06
423.621	139.06
423.843	129.06
424.066	128.06
424.288	133.06
424.511	138.06
424.733	132.06
424.956	126.06
425.178	132.06
425.401	131.06
425.623	122.06
425.846	120.06
426.068	118.06
426.291	120.06
426.513	113.06
426.735	114.06
426.958	114.06
427.18	124.06
427.402	120.06
427.625	120.06
427.847	125.06
428.069	115.06
428.292	130.06
428.514	132.06
428.736	125.06
428.958	127.06
429.181	135.06
429.403	119.06
429.625	118.06
429.847	128.06
430.069	119.06
430.292	124.06
430.514	134.06
430.736	118.06
430.958	143.06
431.18	132.06
431.402	117.06
431.624	118.06
431.846	91.06
432.068	83.06
432.29	99.06
432.512	111.06
432.734	103.06
432.956	116.06
433.178	124.06
433.4	138.06
433.622	132.06
433.844	126.06
434.066	109.06
434.287	114.06
434.509	94.06
434.731	102.06
434.953	104.06
435.175	108.06
435.397	114.06
435.618	119.06
435.84	96.06
436.062	118.06
436.284	113.06
436.505	122.06
436.727	120.06
436.949	126.06
437.17	115.06
437.392	116.06
437.614	110.06
437.835	115.06
438.057	103.06
438.278	114.06
438.5	120.06
438.721	122.06
438.943	122.06
439.165	135.06
439.386	132.06
439.608	131.06
439.829	144.06
440.05	138.06
440.272	138.06
440.493	137.06
440.715	128.06
440.936	144.06
441.158	138.06
441.379	126.06
441.6	141.06
441.822	137.06
442.043	150.06
442.264	135.06
442.486	134.06
442.707	142.06
442.928	132.06
443.149	146.06
443.371	148.06
443.592	133.06
443.813	129.06
444.034	120.06
444.255	138.06
444.476	148.06
444.698	139.06
444.919	147.06
445.14	269.06
445.361	184.06
445.582	148.06
445.803	135.06
446.024	132.06
446.245	137.06
446.466	145.06
446.687	141.06
446.908	161.06
447.129	147.06
447.35	130.06
447.571	136.06
447.792	141.06
448.013	143.06
448.234	147.06
448.455	133.06
448.675	130.06
448.896	119.06
449.117	139.06
449.338	125.06
449.559	146.06
449.779	124.06
450	135.06
450.221	128.06
450.442	132.06
450.662	122.06
450.883	135.06
451.104	130.06
451.324	129.06
451.545	132.06
451.766	105.06
451.986	124.06
452.207	126.06
452.428	113.06
452.648	118.06
452.869	128.06
453.089	110.06
453.31	108.06
453.53	100.06
453.751	95.06
453.971	101.06
454.192	100.06
454.412	108.06
454.633	105.06
454.853	128.06
455.073	130.06
455.294	133.06
455.514	119.06
455.734	102.06
455.955	120.06
456.175	115.06
456.395	96.06
456.616	112.06
456.836	114.06
457.056	111.06
457.276	99.06
457.497	96.06
457.717	109.06
457.937	93.06
458.157	103.06
458.377	113.06
458.598	94.06
458.818	88.06
459.038	90.06
459.258	83.06
459.478	74.06
459.698	89.06
459.918	94.06
460.138	93.06
460.358	105.06
460.578	93.06
460.798	106.06
461.018	101.06
461.238	119.06
461.458	104.06
461.678	124.06
461.898	105.06
462.118	90.06
462.338	112.06
462.558	104.06
462.777	101.06
462.997	87.06
463.217	95.06
463.437	104.06
463.657	112.06
463.876	102.06
464.096	112.06
464.316	92.06
464.536	108.06
464.755	107.06
464.975	118.06
465.195	108.06
465.414	109.06
465.634	120.06
465.854	102.06
466.073	110.06
466.293	118.06
466.512	125.06
466.732	130.06
466.951	113.06
467.171	118.06
467.391	120.06
467.61	126.06
467.829	141.06
468.049	120.06
468.268	126.06
468.488	120.06
468.707	138.06
468.927	132.06
469.146	124.06
469.365	141.06
469.585	129.06
469.804	148.06
470.023	115.06
470.243	130.06
470.462	154.06
470.681	144.06
470.901	132.06
471.12	128.06
471.339	130.06
471.558	131.06
471.777	135.06
471.997	112.06
472.216	119.06
472.435	96.06
472.654	84.06
472.873	117.06
473.092	106.06
473.311	120.06
473.53	124.06
473.749	116.06
473.968	130.06
474.187	115.06
474.406	122.06
474.625	117.06
474.844	125.06
475.063	118.06
475.282	126.06
475.501	112.06
475.72	118.06
475.939	117.06
476.158	122.06
476.377	126.06
476.596	105.06
476.814	105.06
477.033	101.06
477.252	119.06
477.471	119.06
477.69	126.06
477.908	128.06
478.127	146.06
478.346	122.06
478.564	127.06
478.783	127.06
479.002	118.06
479.22	124.06
479.439	126.06
479.658	114.06
479.876	125.06
480.095	105.06
480.313	105.06
480.532	96.06
480.751	117.06
480.969	84.06
481.188	85.06
481.406	83.06
481.624	90.06
481.843	80.06
482.061	95.06
482.28	111.06
482.498	110.06
482.717	104.06
482.935	95.06
483.153	133.06
483.372	143.06
483.59	154.06
483.808	127.06
484.027	139.06
484.245	112.06
484.463	133.06
484.681	169.06
484.9	146.06
485.118	129.06
485.336	130.06
485.554	104.06
485.772	85.06
485.99	91.06
486.209	116.06
486.427	103.06
486.645	99.06
486.863	142.06
487.081	128.06
487.299	120.06
487.517	145.06
487.735	148.06
487.953	169.06
488.171	176.06
488.389	158.06
488.607	158.06
488.825	136.06
489.043	133.06
489.261	129.06
489.479	124.06
489.696	133.06
489.914	142.06
490.132	142.06
490.35	132.06
490.568	166.06
490.786	164.06
491.003	179.06
491.221	178.06
491.439	188.06
491.657	176.06
491.874	180.06
492.092	222.06
492.31	232.06
492.527	229.06
492.745	182.06
492.963	191.06
493.18	161.06
493.398	169.06
493.615	167.06
493.833	178.06
494.05	165.06
494.268	174.06
494.485	164.06
494.703	152.06
494.92	169.06
495.138	183.06
495.355	164.06
495.573	160.06
495.79	147.06
496.008	147.06
496.225	153.06
496.442	154.06
496.66	160.06
496.877	169.06
497.094	156.06
497.312	155.06
497.529	160.06
497.746	142.06
497.963	126.06
498.181	135.06
498.398	119.06
498.615	120.06
498.832	112.06
499.049	115.06
499.267	112.06
499.484	126.06
499.701	119.06
499.918	118.06
500.135	134.06
500.352	126.06
500.569	128.06
500.786	148.06
501.003	154.06
501.22	138.06
501.437	132.06
501.654	126.06
501.871	129.06
502.088	126.06
502.305	134.06
502.522	120.06
502.739	116.06
502.956	123.06
503.172	128.06
503.389	95.06
503.606	103.06
503.823	121.06
504.04	117.06
504.256	105.06
504.473	96.06
504.69	114.06
504.907	122.06
505.123	124.06
505.34	118.06
505.557	117.06
505.773	119.06
505.99	108.06
506.207	119.06
506.423	112.06
506.64	105.06
506.856	109.06
507.073	104.06
507.289	108.06
507.506	118.06
507.722	115.06
507.939	121.06
508.155	111.06
508.372	123.06
508.588	102.06
508.805	108.06
509.021	108.06
509.238	93.06
509.454	106.06
509.67	118.06
509.887	94.06
510.103	78.06
510.319	80.06
510.536	92.06
510.752	89.06
510.968	82.06
511.184	82.06
511.401	86.06
511.617	77.06
511.833	101.06
512.049	81.06
512.265	80.06
512.481	90.06
512.698	100.06
512.914	94.06
513.13	94.06
513.346	81.06
513.562	96.06
513.778	96.06
513.994	91.06
514.21	93.06
514.426	82.06
514.642	79.06
514.858	84.06
515.074	84.06
515.29	86.06
515.506	92.06
515.721	75.06
515.937	90.06
516.153	74.06
516.369	80.06
516.585	89.06
516.801	97.06
517.016	70.06
517.232	89.06
517.448	89.06
517.664	96.06
517.879	86.06
518.095	101.06
518.311	71.06
518.527	89.06
518.742	84.06
518.958	102.06
519.173	120.06
519.389	105.06
519.605	111.06
519.82	111.06
520.036	105.06
520.251	109.06
520.467	108.06
520.682	89.06
520.898	92.06
521.113	94.06
521.329	92.06
521.544	78.06
521.76	88.06
521.975	93.06
522.19	105.06
522.406	78.06
522.621	95.06
522.836	100.06
523.052	104.06
523.267	111.06
523.482	110.06
523.698	100.06
523.913	110.06
524.128	116.06
524.343	114.06
524.559	124.06
524.774	121.06
524.989	120.06
525.204	100.06
525.419	117.06
525.634	101.06
525.849	89.06
526.064	94.06
526.28	109.06
526.495	89.06
526.71	91.06
526.925	88.06
527.14	61.06
527.355	81.06
527.57	74.06
527.785	84.06
527.999	90.06
528.214	90.06
528.429	114.06
528.644	114.06
528.859	119.06
529.074	152.06
529.289	151.06
529.503	138.06
529.718	133.06
529.933	117.06
530.148	104.06
530.363	96.06
530.577	83.06
530.792	115.06
531.007	72.06
531.221	81.06
531.436	92.06
531.651	86.06
531.865	88.06
532.08	80.06
532.295	97.06
532.509	93.06
532.724	71.06
532.938	91.06
533.153	89.06
533.367	111.06
533.582	108.06
533.796	118.06
534.011	105.06
534.225	97.06
534.44	95.06
534.654	94.06
534.868	94.06
535.083	87.06
535.297	89.06
535.511	103.06
535.726	104.06
535.94	111.06
536.154	113.06
536.369	104.06
536.583	80.06
536.797	70.06
537.011	99.06
537.225	79.06
537.44	82.06
537.654	95.06
537.868	102.06
538.082	87.06
538.296	81.06
538.51	112.06
538.724	109.06
538.938	127.06
539.153	117.06
539.367	121.06
539.581	108.06
539.795	96.06
540.009	94.06
540.222	90.06
540.436	94.06
540.65	112.06
540.864	127.06
541.078	132.06
541.292	146.06
541.506	139.06
541.72	153.06
541.934	180.06
542.147	184.06
542.361	180.06
542.575	161.06
542.789	160.06
543.002	128.06
543.216	127.06
543.43	126.06
543.644	116.06
543.857	135.06
544.071	162.06
544.285	151.06
544.498	155.06
544.712	158.06
544.925	151.06
545.139	145.06
545.352	153.06
545.566	164.06
545.779	156.06
545.993	163.06
546.206	160.06
546.42	145.06
546.633	160.06
546.847	141.06
547.06	157.06
547.274	159.06
547.487	178.06
547.7	158.06
547.914	164.06
548.127	157.06
548.34	153.06
548.554	160.06
548.767	150.06
548.98	149.06
549.193	145.06
549.407	153.06
549.62	140.06
549.833	152.06
550.046	146.06
550.259	149.06
550.473	153.06
550.686	149.06
550.899	147.06
551.112	146.06
551.325	144.06
551.538	132.06
551.751	130.06
551.964	122.06
552.177	121.06
552.39	144.06
552.603	140.06
552.816	152.06
553.029	155.06
553.242	148.06
553.455	138.06
553.667	138.06
553.88	142.06
554.093	136.06
554.306	145.06
554.519	151.06
554.732	144.06
554.944	150.06
555.157	152.06
555.37	150.06
555.583	142.06
555.795	136.06
556.008	125.06
556.221	116.06
556.433	133.06
556.646	135.06
556.859	143.06
557.071	140.06
557.284	123.06
557.496	138.06
557.709	130.06
557.921	142.06
558.134	135.06
558.346	116.06
558.559	128.06
558.771	124.06
558.984	122.06
559.196	131.06
559.409	128.06
559.621	129.06
559.833	117.06
560.046	135.06
560.258	129.06
560.47	137.06
560.683	119.06
560.895	124.06
561.107	123.06
561.32	127.06
561.532	130.06
561.744	134.06
561.956	140.06
562.168	131.06
562.381	136.06
562.593	132.06
562.805	123.06
563.017	119.06
563.229	129.06
563.441	136.06
563.653	114.06
563.865	127.06
564.077	116.06
564.289	116.06
564.501	126.06
564.713	125.06
564.925	109.06
565.137	124.06
565.349	113.06
565.561	110.06
565.773	107.06
565.985	109.06
566.197	119.06
566.408	112.06
566.62	117.06
566.832	117.06
567.044	127.06
567.255	115.06
567.467	113.06
567.679	112.06
567.891	101.06
568.102	104.06
568.314	112.06
568.526	95.06
568.737	85.06
568.949	95.06
569.161	81.06
569.372	78.06
569.584	91.06
569.795	81.06
570.007	87.06
570.218	74.06
570.43	79.06
570.641	92.06
570.853	104.06
571.064	95.06
571.276	84.06
571.487	99.06
571.698	95.06
571.91	98.06
572.121	97.06
572.333	100.06
572.544	94.06
572.755	92.06
572.966	77.06
573.178	74.06
573.389	87.06
573.6	70.06
573.811	92.06
574.023	86.06
574.234	80.06
574.445	89.06
574.656	87.06
574.867	80.06
575.078	82.06
575.289	87.06
575.501	104.06
575.712	98.06
575.923	90.06
576.134	87.06
576.345	99.06
576.556	99.06
576.767	101.06
576.978	92.06
577.188	92.06
577.399	88.06
577.61	80.06
577.821	81.06
578.032	84.06
578.243	92.06
578.454	94.06
578.665	79.06
578.875	87.06
579.086	93.06
579.297	87.06
579.508	86.06
579.718	77.06
579.929	74.06
580.14	76.06
580.35	77.06
580.561	89.06
580.772	75.06
580.982	90.06
581.193	94.06
581.403	80.06
581.614	97.06
581.825	93.06
582.035	93.06
582.246	85.06
582.456	92.06
582.667	93.06
582.877	73.06
583.087	81.06
583.298	84.06
583.508	84.06
583.719	77.06
583.929	85.06
584.139	89.06
584.35	91.06
584.56	84.06
584.77	84.06
584.981	88.06
585.191	80.06
585.401	83.06
585.611	72.06
585.821	75.06
586.032	86.06
586.242	74.06
586.452	81.06
586.662	94.06
586.872	77.06
587.082	84.06
587.292	78.06
587.502	96.06
587.713	79.06
587.923	86.06
588.133	79.06
588.343	76.06
588.553	68.06
588.762	88.06
588.972	84.06
589.182	70.06
589.392	70.06
589.602	93.06
589.812	67.06
590.022	93.06
590.232	81.06
590.441	86.06
590.651	89.06
590.861	87.06
591.071	82.06
591.281	82.06
591.49	85.06
591.7	80.06
591.91	84.06
592.119	64.06
592.329	79.06
592.539	87.06
592.748	92.06
592.958	86.06
593.167	80.06
593.377	94.06
593.587	83.06
593.796	95.06
594.006	68.06
594.215	66.06
594.424	69.06
594.634	87.06
594.843	74.06
595.053	92.06
595.262	88.06
595.472	90.06
595.681	87.06
595.89	81.06
596.1	83.06
596.309	80.06
596.518	88.06
596.727	92.06
596.937	90.06
597.146	104.06
597.355	103.06
597.564	90.06
597.774	94.06
597.983	90.06
598.192	87.06
598.401	116.06
598.61	75.06
598.819	77.06
599.028	84.06
599.237	87.06
599.446	109.06
599.655	83.06
599.864	85.06
600.073	103.06
600.282	86.06
600.491	90.06
600.7	95.06
600.909	89.06
601.118	94.06
601.327	91.06
601.536	100.06
601.745	104.06
601.953	99.06
602.162	90.06
602.371	95.06
602.58	106.06
602.789	93.06
602.997	109.06
603.206	117.06
603.415	109.06
603.623	98.06
603.832	101.06
604.041	110.06
604.249	103.06
604.458	98.06
604.666	89.06
604.875	85.06
605.084	96.06
605.292	95.06
605.501	110.06
605.709	120.06
605.918	102.06
606.126	114.06
606.334	118.06
606.543	107.06
606.751	107.06
606.96	116.06
607.168	97.06
607.376	85.06
607.585	106.06
607.793	104.06
608.001	110.06
608.21	108.06
608.418	111.06
608.626	104.06
608.834	112.06
609.043	95.06
609.251	112.06
609.459	97.06
609.667	98.06
609.875	113.06
610.083	104.06
610.291	106.06
610.499	115.06
610.707	95.06
610.916	120.06
611.124	116.06
611.332	108.06
611.54	117.06
611.748	121.06
611.955	115.06
612.163	107.06
612.371	110.06
612.579	118.06
612.787	105.06
612.995	117.06
613.203	100.06
613.411	117.06
613.618	86.06
613.826	117.06
614.034	101.06
614.242	122.06
614.449	104.06
614.657	112.06
614.865	111.06
615.072	111.06
615.28	92.06
615.488	109.06
615.695	104.06
615.903	102.06
616.111	112.06
616.318	116.06
616.526	114.06
616.733	89.06
616.941	114.06
617.148	104.06
617.356	106.06
617.563	94.06
617.771	112.06
617.978	94.06
618.185	96.06
618.393	97.06
618.6	104.06
618.807	126.06
619.015	97.06
619.222	99.06
619.429	106.06
619.637	105.06
619.844	93.06
620.051	90.06
620.258	91.06
620.466	106.06
620.673	112.06
620.88	104.06
621.087	87.06
621.294	103.06
621.501	111.06
621.708	93.06
621.915	92.06
622.122	108.06
622.329	112.06
622.536	101.06
622.743	111.06
622.95	98.06
623.157	108.06
623.364	105.06
623.571	98.06
623.778	112.06
623.985	108.06
624.192	110.06
624.399	100.06
624.606	113.06
624.812	102.06
625.019	97.06
625.226	98.06
625.433	98.06
625.639	91.06
625.846	101.06
626.053	97.06
626.259	86.06
626.466	98.06
626.673	87.06
626.879	79.06
627.086	94.06
627.293	84.06
627.499	98.06
627.706	136.06
627.912	101.06
628.119	105.06
628.325	113.06
628.532	98.06
628.738	97.06
628.945	105.06
629.151	101.06
629.357	87.06
629.564	100.06
629.77	96.06
629.976	101.06
630.183	95.06
630.389	86.06
630.595	100.06
630.802	102.06
631.008	93.06
631.214	91.06
631.42	98.06
631.627	106.06
631.833	99.06
632.039	98.06
632.245	102.06
632.451	105.06
632.657	95.06
632.863	104.06
633.069	102.06
633.275	104.06
633.481	95.06
633.688	95.06
633.893	89.06
634.099	102.06
634.305	103.06
634.511	87.06
634.717	90.06
634.923	87.06
635.129	89.06
635.335	94.06
635.541	87.06
635.747	96.06
635.952	87.06
636.158	96.06
636.364	108.06
636.57	86.06
636.775	110.06
636.981	108.06
637.187	108.06
637.392	99.06
637.598	95.06
637.804	90.06
638.009	94.06
638.215	110.06
638.421	96.06
638.626	96.06
638.832	100.06
639.037	90.06
639.243	88.06
639.448	99.06
639.654	96.06
639.859	91.06
640.065	89.06
640.27	113.06
640.475	101.06
640.681	89.06
640.886	93.06
641.091	100.06
641.297	105.06
641.502	96.06
641.707	100.06
641.913	106.06
642.118	100.06
642.323	101.06
642.528	104.06
642.733	102.06
642.939	106.06
643.144	98.06
643.349	102.06
643.554	101.06
643.759	97.06
643.964	94.06
644.169	110.06
644.374	97.06
644.579	110.06
644.784	100.06
644.989	103.06
645.194	74.06
645.399	101.06
645.604	88.06
645.809	97.06
646.014	91.06
646.219	107.06
646.423	88.06
646.628	106.06
646.833	102.06
647.038	102.06
647.243	101.06
647.447	98.06
647.652	104.06
647.857	98.06
648.062	92.06
648.266	92.06
648.471	92.06
648.676	91.06
648.88	96.06
649.085	95.06
649.289	90.06
649.494	92.06
649.698	89.06
649.903	84.06
650.107	97.06
650.312	90.06
650.516	97.06
650.721	83.06
650.925	97.06
651.13	87.06
651.334	95.06
651.539	91.06
651.743	89.06
651.947	73.06
652.152	92.06
652.356	102.06
652.56	107.06
652.764	90.06
652.969	90.06
653.173	100.06
653.377	81.06
653.581	80.06
653.785	80.06
653.99	101.06
654.194	72.06
654.398	90.06
654.602	93.06
654.806	97.06
655.01	85.06
655.214	74.06
655.418	95.06
655.622	92.06
655.826	89.06
656.03	86.06
656.234	84.06
656.438	81.06
656.642	72.06
656.846	89.06
657.049	76.06
657.253	87.06
657.457	69.06
657.661	101.06
657.865	85.06
658.068	77.06
658.272	80.06
658.476	92.06
658.68	93.06
658.883	72.06
659.087	71.06
659.291	86.06
659.494	73.06
659.698	72.06
659.901	80.06
660.105	83.06
660.309	67.06
660.512	81.06
660.716	82.06
660.919	80.06
661.123	88.06
661.326	79.06
661.53	82.06
661.733	84.06
661.936	73.06
662.14	88.06
662.343	83.06
662.546	73.06
662.75	87.06
662.953	95.06
663.156	80.06
663.36	65.06
663.563	81.06
663.766	77.06
663.969	81.06
664.173	88.06
664.376	81.06
664.579	87.06
664.782	82.06
664.985	79.06
665.188	86.06
665.391	85.06
665.594	90.06
665.797	83.06
666	68.06
666.203	78.06
666.406	64.06
666.609	74.06
666.812	64.06
667.015	55.06
667.218	75.06
667.421	72.06
667.624	69.06
667.827	77.06
668.03	66.06
668.232	81.06
668.435	69.06
668.638	72.06
668.841	80.06
669.043	77.06
669.246	67.06
669.449	89.06
669.651	83.06
669.854	70.06
670.057	72.06
670.259	68.06
670.462	84.06
670.665	72.06
670.867	68.06
671.07	80.06
671.272	73.06
671.475	74.06
671.677	71.06
671.88	84.06
672.082	68.06
672.284	77.06
672.487	75.06
672.689	83.06
672.892	67.06
