Data from Location2.07152019.Energy5.Lamp.07192019.3%Agarose_HRD10591_14-57-58-358.txt Node
Date: Fri Jul 19 14:57:58 EDT 2019
User: cochatt
Spectrometer: HR+D1059
Trigger mode: 1
Integration Time (sec): 1.000000E-1
Scans to average: 1
Electric dark correction enabled: true
Nonlinearity correction enabled: false
Boxcar width: 0
XAxis mode: Wavelengths
Number of Pixels in Spectrum: 2048
>>>>>Begin Spectral Data<<<<<
223.165	-14.12
223.4	-14.12
223.635	-14.12
223.869	-27.12
224.104	-22.12
224.338	-17.12
224.573	-6.12
224.808	0.88
225.042	-19.12
225.277	-13.12
225.511	1.88
225.746	15.88
225.98	3.88
226.215	5.88
226.449	11.88
226.683	19.88
226.918	23.88
227.152	34.88
227.387	32.88
227.621	20.88
227.856	40.88
228.09	50.88
228.324	40.88
228.559	51.88
228.793	53.88
229.027	54.88
229.262	58.88
229.496	64.88
229.73	54.88
229.964	53.88
230.199	80.88
230.433	67.88
230.667	71.88
230.901	77.88
231.136	66.88
231.37	75.88
231.604	81.88
231.838	82.88
232.072	94.88
232.306	77.88
232.541	70.88
232.775	70.88
233.009	86.88
233.243	72.88
233.477	74.88
233.711	79.88
233.945	89.88
234.179	70.88
234.413	81.88
234.647	92.88
234.881	84.88
235.115	67.88
235.349	86.88
235.583	85.88
235.817	81.88
236.051	69.88
236.285	75.88
236.519	68.88
236.753	78.88
236.987	75.88
237.221	75.88
237.455	63.88
237.689	70.88
237.922	76.88
238.156	77.88
238.39	70.88
238.624	84.88
238.858	80.88
239.091	73.88
239.325	78.88
239.559	87.88
239.793	85.88
240.027	77.88
240.26	79.88
240.494	71.88
240.728	63.88
240.961	75.88
241.195	78.88
241.429	76.88
241.662	69.88
241.896	67.88
242.13	72.88
242.363	60.88
242.597	63.88
242.83	71.88
243.064	74.88
243.298	80.88
243.531	74.88
243.765	70.88
243.998	95.88
244.232	83.88
244.465	83.88
244.699	82.88
244.932	80.88
245.166	79.88
245.399	67.88
245.633	92.88
245.866	75.88
246.099	73.88
246.333	79.88
246.566	87.88
246.8	76.88
247.033	84.88
247.266	91.88
247.5	88.88
247.733	90.88
247.966	88.88
248.2	65.88
248.433	70.88
248.666	78.88
248.899	71.88
249.133	68.88
249.366	64.88
249.599	86.88
249.832	89.88
250.066	80.88
250.299	87.88
250.532	79.88
250.765	89.88
250.998	79.88
251.231	68.88
251.465	85.88
251.698	62.88
251.931	73.88
252.164	74.88
252.397	82.88
252.63	72.88
252.863	73.88
253.096	75.88
253.329	69.88
253.562	67.88
253.795	75.88
254.028	81.88
254.261	93.88
254.494	81.88
254.727	83.88
254.96	62.88
255.193	79.88
255.426	86.88
255.659	83.88
255.892	62.88
256.124	82.88
256.357	88.88
256.59	75.88
256.823	92.88
257.056	75.88
257.289	79.88
257.521	88.88
257.754	72.88
257.987	71.88
258.22	77.88
258.452	66.88
258.685	69.88
258.918	64.88
259.151	81.88
259.383	73.88
259.616	74.88
259.849	68.88
260.081	90.88
260.314	96.88
260.547	68.88
260.779	76.88
261.012	78.88
261.244	69.88
261.477	87.88
261.71	73.88
261.942	71.88
262.175	80.88
262.407	86.88
262.64	67.88
262.872	73.88
263.105	92.88
263.337	90.88
263.57	71.88
263.802	80.88
264.035	76.88
264.267	84.88
264.499	82.88
264.732	89.88
264.964	75.88
265.197	73.88
265.429	76.88
265.661	68.88
265.894	76.88
266.126	80.88
266.358	85.88
266.591	86.88
266.823	95.88
267.055	82.88
267.287	82.88
267.52	79.88
267.752	80.88
267.984	88.88
268.216	76.88
268.448	78.88
268.681	70.88
268.913	81.88
269.145	89.88
269.377	80.88
269.609	70.88
269.841	91.88
270.073	84.88
270.306	83.88
270.538	79.88
270.77	67.88
271.002	74.88
271.234	79.88
271.466	83.88
271.698	83.88
271.93	86.88
272.162	75.88
272.394	95.88
272.626	79.88
272.858	88.88
273.09	80.88
273.322	75.88
273.553	71.88
273.785	84.88
274.017	87.88
274.249	86.88
274.481	60.88
274.713	80.88
274.945	86.88
275.176	80.88
275.408	87.88
275.64	82.88
275.872	80.88
276.104	95.88
276.335	95.88
276.567	75.88
276.799	72.88
277.031	70.88
277.262	77.88
277.494	72.88
277.726	84.88
277.957	83.88
278.189	85.88
278.421	86.88
278.652	80.88
278.884	89.88
279.115	89.88
279.347	79.88
279.579	82.88
279.81	91.88
280.042	87.88
280.273	72.88
280.505	82.88
280.736	82.88
280.968	76.88
281.199	85.88
281.431	70.88
281.662	75.88
281.894	82.88
282.125	85.88
282.356	68.88
282.588	79.88
282.819	100.88
283.051	89.88
283.282	79.88
283.513	86.88
283.745	80.88
283.976	86.88
284.207	73.88
284.439	89.88
284.67	89.88
284.901	87.88
285.132	73.88
285.364	83.88
285.595	89.88
285.826	81.88
286.057	88.88
286.288	81.88
286.52	100.88
286.751	93.88
286.982	92.88
287.213	88.88
287.444	96.88
287.675	96.88
287.906	86.88
288.138	84.88
288.369	70.88
288.6	80.88
288.831	92.88
289.062	92.88
289.293	82.88
289.524	84.88
289.755	85.88
289.986	89.88
290.217	90.88
290.448	79.88
290.679	84.88
290.91	87.88
291.141	80.88
291.371	84.88
291.602	86.88
291.833	89.88
292.064	78.88
292.295	86.88
292.526	74.88
292.757	74.88
292.987	72.88
293.218	85.88
293.449	91.88
293.68	91.88
293.91	79.88
294.141	76.88
294.372	83.88
294.603	71.88
294.833	80.88
295.064	82.88
295.295	85.88
295.525	75.88
295.756	76.88
295.987	90.88
296.217	84.88
296.448	79.88
296.679	82.88
296.909	80.88
297.14	89.88
297.37	89.88
297.601	76.88
297.831	95.88
298.062	83.88
298.292	88.88
298.523	86.88
298.753	89.88
298.984	72.88
299.214	85.88
299.445	80.88
299.675	88.88
299.905	82.88
300.136	84.88
300.366	80.88
300.597	85.88
300.827	86.88
301.057	79.88
301.288	92.88
301.518	79.88
301.748	76.88
301.979	76.88
302.209	95.88
302.439	80.88
302.669	86.88
302.9	72.88
303.13	83.88
303.36	93.88
303.59	80.88
303.82	73.88
304.051	93.88
304.281	86.88
304.511	83.88
304.741	83.88
304.971	82.88
305.201	75.88
305.431	84.88
305.661	76.88
305.891	76.88
306.121	82.88
306.352	63.88
306.582	96.88
306.812	83.88
307.042	72.88
307.272	89.88
307.502	99.88
307.731	68.88
307.961	97.88
308.191	86.88
308.421	83.88
308.651	86.88
308.881	82.88
309.111	86.88
309.341	79.88
309.571	87.88
309.8	85.88
310.03	97.88
310.26	73.88
310.49	88.88
310.72	79.88
310.949	74.88
311.179	98.88
311.409	78.88
311.639	89.88
311.868	93.88
312.098	84.88
312.328	100.88
312.557	78.88
312.787	82.88
313.017	77.88
313.246	95.88
313.476	98.88
313.706	80.88
313.935	83.88
314.165	80.88
314.394	70.88
314.624	91.88
314.853	98.88
315.083	74.88
315.312	74.88
315.542	86.88
315.771	84.88
316.001	93.88
316.23	85.88
316.46	79.88
316.689	83.88
316.919	80.88
317.148	76.88
317.377	89.88
317.607	72.88
317.836	82.88
318.065	84.88
318.295	88.88
318.524	79.88
318.753	72.88
318.983	83.88
319.212	90.88
319.441	93.88
319.67	88.88
319.9	81.88
320.129	87.88
320.358	90.88
320.587	87.88
320.816	70.88
321.046	77.88
321.275	91.88
321.504	84.88
321.733	81.88
321.962	87.88
322.191	88.88
322.42	64.88
322.649	82.88
322.878	83.88
323.108	88.88
323.337	92.88
323.566	81.88
323.795	91.88
324.024	79.88
324.253	75.88
324.482	78.88
324.71	72.88
324.939	88.88
325.168	76.88
325.397	73.88
325.626	73.88
325.855	87.88
326.084	77.88
326.313	79.88
326.542	85.88
326.77	91.88
326.999	88.88
327.228	92.88
327.457	87.88
327.686	80.88
327.914	80.88
328.143	86.88
328.372	96.88
328.6	80.88
328.829	72.88
329.058	87.88
329.287	70.88
329.515	72.88
329.744	88.88
329.972	81.88
330.201	74.88
330.43	88.88
330.658	83.88
330.887	86.88
331.115	95.88
331.344	91.88
331.572	79.88
331.801	92.88
332.03	89.88
332.258	80.88
332.486	74.88
332.715	72.88
332.943	75.88
333.172	87.88
333.4	86.88
333.629	78.88
333.857	88.88
334.085	81.88
334.314	87.88
334.542	84.88
334.771	93.88
334.999	92.88
335.227	77.88
335.455	84.88
335.684	88.88
335.912	80.88
336.14	90.88
336.369	93.88
336.597	71.88
336.825	81.88
337.053	82.88
337.281	72.88
337.51	91.88
337.738	79.88
337.966	85.88
338.194	83.88
338.422	78.88
338.65	76.88
338.878	96.88
339.106	81.88
339.334	91.88
339.562	80.88
339.79	102.88
340.018	80.88
340.246	87.88
340.474	87.88
340.702	81.88
340.93	99.88
341.158	75.88
341.386	89.88
341.614	88.88
341.842	84.88
342.07	89.88
342.298	84.88
342.526	84.88
342.754	80.88
342.981	92.88
343.209	85.88
343.437	83.88
343.665	84.88
343.893	90.88
344.12	98.88
344.348	93.88
344.576	82.88
344.804	85.88
345.031	81.88
345.259	80.88
345.487	81.88
345.714	86.88
345.942	82.88
346.17	92.88
346.397	75.88
346.625	92.88
346.853	84.88
347.08	72.88
347.308	85.88
347.535	87.88
347.763	80.88
347.99	84.88
348.218	98.88
348.445	87.88
348.673	84.88
348.9	78.88
349.128	79.88
349.355	77.88
349.583	87.88
349.81	92.88
350.037	78.88
350.265	83.88
350.492	84.88
350.72	79.88
350.947	84.88
351.174	101.88
351.402	95.88
351.629	81.88
351.856	83.88
352.083	85.88
352.311	83.88
352.538	80.88
352.765	90.88
352.992	78.88
353.22	71.88
353.447	68.88
353.674	87.88
353.901	82.88
354.128	86.88
354.355	76.88
354.583	81.88
354.81	80.88
355.037	69.88
355.264	68.88
355.491	80.88
355.718	85.88
355.945	92.88
356.172	69.88
356.399	73.88
356.626	76.88
356.853	98.88
357.08	84.88
357.307	98.88
357.534	84.88
357.761	75.88
357.988	97.88
358.215	89.88
358.441	79.88
358.668	95.88
358.895	85.88
359.122	76.88
359.349	83.88
359.576	86.88
359.802	82.88
360.029	80.88
360.256	94.88
360.483	85.88
360.709	80.88
360.936	86.88
361.163	74.88
361.39	88.88
361.616	78.88
361.843	94.88
362.07	83.88
362.296	77.88
362.523	74.88
362.749	72.88
362.976	76.88
363.203	95.88
363.429	94.88
363.656	89.88
363.882	87.88
364.109	85.88
364.335	78.88
364.562	80.88
364.788	79.88
365.015	82.88
365.241	90.88
365.468	73.88
365.694	81.88
365.92	90.88
366.147	86.88
366.373	86.88
366.599	84.88
366.826	87.88
367.052	83.88
367.278	91.88
367.505	83.88
367.731	81.88
367.957	100.88
368.184	85.88
368.41	83.88
368.636	97.88
368.862	81.88
369.089	96.88
369.315	83.88
369.541	87.88
369.767	99.88
369.993	79.88
370.219	92.88
370.445	99.88
370.672	98.88
370.898	96.88
371.124	89.88
371.35	91.88
371.576	85.88
371.802	83.88
372.028	84.88
372.254	93.88
372.48	87.88
372.706	104.88
372.932	91.88
373.158	87.88
373.384	103.88
373.61	88.88
373.835	88.88
374.061	80.88
374.287	88.88
374.513	88.88
374.739	92.88
374.965	90.88
375.191	89.88
375.416	105.88
375.642	83.88
375.868	107.88
376.094	96.88
376.319	85.88
376.545	89.88
376.771	99.88
376.997	92.88
377.222	94.88
377.448	92.88
377.674	106.88
377.899	88.88
378.125	89.88
378.35	92.88
378.576	76.88
378.802	88.88
379.027	102.88
379.253	95.88
379.478	96.88
379.704	91.88
379.929	95.88
380.155	92.88
380.38	84.88
380.606	89.88
380.831	72.88
381.057	108.88
381.282	97.88
381.507	95.88
381.733	86.88
381.958	87.88
382.184	92.88
382.409	86.88
382.634	104.88
382.86	95.88
383.085	90.88
383.31	106.88
383.535	98.88
383.761	107.88
383.986	94.88
384.211	93.88
384.436	90.88
384.662	95.88
384.887	102.88
385.112	100.88
385.337	102.88
385.562	86.88
385.787	87.88
386.013	98.88
386.238	93.88
386.463	98.88
386.688	105.88
386.913	80.88
387.138	84.88
387.363	101.88
387.588	95.88
387.813	93.88
388.038	101.88
388.263	98.88
388.488	101.88
388.713	94.88
388.938	100.88
389.163	93.88
389.387	99.88
389.612	91.88
389.837	105.88
390.062	88.88
390.287	97.88
390.512	111.88
390.736	110.88
390.961	101.88
391.186	96.88
391.411	105.88
391.636	105.88
391.86	109.88
392.085	109.88
392.31	102.88
392.534	96.88
392.759	105.88
392.984	100.88
393.208	98.88
393.433	107.88
393.658	105.88
393.882	100.88
394.107	114.88
394.331	94.88
394.556	104.88
394.78	106.88
395.005	106.88
395.229	101.88
395.454	99.88
395.678	121.88
395.903	108.88
396.127	103.88
396.352	109.88
396.576	106.88
396.801	112.88
397.025	113.88
397.249	110.88
397.474	127.88
397.698	108.88
397.922	96.88
398.147	105.88
398.371	114.88
398.595	104.88
398.82	96.88
399.044	102.88
399.268	113.88
399.492	100.88
399.717	112.88
399.941	102.88
400.165	111.88
400.389	114.88
400.613	124.88
400.837	112.88
401.062	119.88
401.286	124.88
401.51	119.88
401.734	103.88
401.958	113.88
402.182	123.88
402.406	103.88
402.63	101.88
402.854	99.88
403.078	114.88
403.302	104.88
403.526	124.88
403.75	118.88
403.974	123.88
404.198	114.88
404.422	130.88
404.645	123.88
404.869	103.88
405.093	130.88
405.317	112.88
405.541	121.88
405.765	111.88
405.988	120.88
406.212	121.88
406.436	105.88
406.66	118.88
406.883	106.88
407.107	120.88
407.331	103.88
407.555	108.88
407.778	113.88
408.002	125.88
408.226	123.88
408.449	109.88
408.673	113.88
408.896	125.88
409.12	120.88
409.344	104.88
409.567	114.88
409.791	105.88
410.014	122.88
410.238	127.88
410.461	100.88
410.685	114.88
410.908	117.88
411.132	117.88
411.355	129.88
411.578	116.88
411.802	120.88
412.025	117.88
412.249	113.88
412.472	116.88
412.695	124.88
412.919	118.88
413.142	117.88
413.365	119.88
413.589	115.88
413.812	114.88
414.035	120.88
414.258	115.88
414.482	127.88
414.705	139.88
414.928	118.88
415.151	124.88
415.374	131.88
415.597	125.88
415.821	122.88
416.044	127.88
416.267	110.88
416.49	138.88
416.713	124.88
416.936	114.88
417.159	126.88
417.382	127.88
417.605	130.88
417.828	120.88
418.051	130.88
418.274	105.88
418.497	118.88
418.72	135.88
418.943	127.88
419.166	126.88
419.389	132.88
419.611	127.88
419.834	125.88
420.057	130.88
420.28	123.88
420.503	130.88
420.726	134.88
420.948	139.88
421.171	119.88
421.394	130.88
421.617	124.88
421.839	147.88
422.062	128.88
422.285	119.88
422.507	130.88
422.73	126.88
422.953	121.88
423.175	122.88
423.398	124.88
423.621	136.88
423.843	121.88
424.066	118.88
424.288	138.88
424.511	131.88
424.733	128.88
424.956	138.88
425.178	132.88
425.401	140.88
425.623	138.88
425.846	138.88
426.068	131.88
426.291	128.88
426.513	116.88
426.735	131.88
426.958	132.88
427.18	122.88
427.402	138.88
427.625	129.88
427.847	117.88
428.069	116.88
428.292	120.88
428.514	138.88
428.736	137.88
428.958	130.88
429.181	127.88
429.403	134.88
429.625	131.88
429.847	147.88
430.069	124.88
430.292	142.88
430.514	116.88
430.736	133.88
430.958	120.88
431.18	119.88
431.402	127.88
431.624	117.88
431.846	114.88
432.068	94.88
432.29	83.88
432.512	97.88
432.734	125.88
432.956	122.88
433.178	121.88
433.4	142.88
433.622	130.88
433.844	122.88
434.066	124.88
434.287	114.88
434.509	102.88
434.731	104.88
434.953	96.88
435.175	107.88
435.397	114.88
435.618	124.88
435.84	114.88
436.062	127.88
436.284	118.88
436.505	126.88
436.727	134.88
436.949	138.88
437.17	129.88
437.392	128.88
437.614	123.88
437.835	105.88
438.057	99.88
438.278	113.88
438.5	121.88
438.721	122.88
438.943	132.88
439.165	151.88
439.386	122.88
439.608	140.88
439.829	135.88
440.05	147.88
440.272	147.88
440.493	135.88
440.715	132.88
440.936	153.88
441.158	139.88
441.379	147.88
441.6	148.88
441.822	123.88
442.043	136.88
442.264	130.88
442.486	126.88
442.707	134.88
442.928	144.88
443.149	140.88
443.371	144.88
443.592	134.88
443.813	131.88
444.034	143.88
444.255	154.88
444.476	133.88
444.698	138.88
444.919	140.88
445.14	230.88
445.361	194.88
445.582	149.88
445.803	140.88
446.024	139.88
446.245	127.88
446.466	144.88
446.687	150.88
446.908	154.88
447.129	154.88
447.35	154.88
447.571	131.88
447.792	132.88
448.013	141.88
448.234	140.88
448.455	147.88
448.675	131.88
448.896	123.88
449.117	131.88
449.338	131.88
449.559	151.88
449.779	128.88
450	131.88
450.221	123.88
450.442	136.88
450.662	135.88
450.883	126.88
451.104	131.88
451.324	138.88
451.545	118.88
451.766	132.88
451.986	130.88
452.207	121.88
452.428	129.88
452.648	139.88
452.869	116.88
453.089	120.88
453.31	104.88
453.53	98.88
453.751	112.88
453.971	104.88
454.192	112.88
454.412	114.88
454.633	111.88
454.853	111.88
455.073	123.88
455.294	117.88
455.514	132.88
455.734	116.88
455.955	119.88
456.175	122.88
456.395	114.88
456.616	96.88
456.836	118.88
457.056	113.88
457.276	92.88
457.497	104.88
457.717	79.88
457.937	103.88
458.157	107.88
458.377	102.88
458.598	107.88
458.818	96.88
459.038	81.88
459.258	90.88
459.478	83.88
459.698	93.88
459.918	105.88
460.138	96.88
460.358	111.88
460.578	129.88
460.798	104.88
461.018	107.88
461.238	121.88
461.458	115.88
461.678	105.88
461.898	114.88
462.118	119.88
462.338	106.88
462.558	99.88
462.777	92.88
462.997	110.88
463.217	118.88
463.437	127.88
463.657	103.88
463.876	115.88
464.096	95.88
464.316	101.88
464.536	107.88
464.755	104.88
464.975	119.88
465.195	103.88
465.414	112.88
465.634	108.88
465.854	119.88
466.073	111.88
466.293	134.88
466.512	131.88
466.732	131.88
466.951	132.88
467.171	137.88
467.391	128.88
467.61	139.88
467.829	134.88
468.049	120.88
468.268	133.88
468.488	137.88
468.707	136.88
468.927	132.88
469.146	137.88
469.365	140.88
469.585	134.88
469.804	136.88
470.023	136.88
470.243	135.88
470.462	124.88
470.681	134.88
470.901	150.88
471.12	140.88
471.339	147.88
471.558	135.88
471.777	147.88
471.997	141.88
472.216	132.88
472.435	121.88
472.654	104.88
472.873	104.88
473.092	115.88
473.311	126.88
473.53	129.88
473.749	124.88
473.968	123.88
474.187	124.88
474.406	113.88
474.625	132.88
474.844	124.88
475.063	119.88
475.282	120.88
475.501	120.88
475.72	126.88
475.939	122.88
476.158	126.88
476.377	114.88
476.596	112.88
476.814	115.88
477.033	115.88
477.252	120.88
477.471	120.88
477.69	130.88
477.908	134.88
478.127	130.88
478.346	137.88
478.564	138.88
478.783	122.88
479.002	160.88
479.22	136.88
479.439	135.88
479.658	129.88
479.876	132.88
480.095	113.88
480.313	118.88
480.532	106.88
480.751	105.88
480.969	103.88
481.188	82.88
481.406	84.88
481.624	79.88
481.843	85.88
482.061	96.88
482.28	102.88
482.498	102.88
482.717	111.88
482.935	121.88
483.153	129.88
483.372	167.88
483.59	143.88
483.808	118.88
484.027	134.88
484.245	129.88
484.463	130.88
484.681	153.88
484.9	155.88
485.118	143.88
485.336	113.88
485.554	110.88
485.772	106.88
485.99	108.88
486.209	120.88
486.427	104.88
486.645	111.88
486.863	130.88
487.081	146.88
487.299	134.88
487.517	144.88
487.735	171.88
487.953	168.88
488.171	183.88
488.389	161.88
488.607	152.88
488.825	139.88
489.043	133.88
489.261	111.88
489.479	139.88
489.696	136.88
489.914	133.88
490.132	157.88
490.35	144.88
490.568	140.88
490.786	179.88
491.003	179.88
491.221	183.88
491.439	189.88
491.657	190.88
491.874	198.88
492.092	213.88
492.31	217.88
492.527	215.88
492.745	206.88
492.963	192.88
493.18	189.88
493.398	188.88
493.615	171.88
493.833	177.88
494.05	174.88
494.268	168.88
494.485	187.88
494.703	160.88
494.92	168.88
495.138	175.88
495.355	171.88
495.573	180.88
495.79	169.88
496.008	150.88
496.225	161.88
496.442	165.88
496.66	166.88
496.877	164.88
497.094	168.88
497.312	156.88
497.529	155.88
497.746	167.88
497.963	140.88
498.181	123.88
498.398	121.88
498.615	126.88
498.832	103.88
499.049	128.88
499.267	136.88
499.484	118.88
499.701	136.88
499.918	135.88
500.135	138.88
500.352	140.88
500.569	144.88
500.786	134.88
501.003	138.88
501.22	134.88
501.437	135.88
501.654	131.88
501.871	136.88
502.088	140.88
502.305	112.88
502.522	139.88
502.739	126.88
502.956	131.88
503.172	122.88
503.389	118.88
503.606	122.88
503.823	121.88
504.04	121.88
504.256	114.88
504.473	123.88
504.69	100.88
504.907	119.88
505.123	122.88
505.34	108.88
505.557	117.88
505.773	125.88
505.99	128.88
506.207	120.88
506.423	120.88
506.64	118.88
506.856	124.88
507.073	112.88
507.289	110.88
507.506	107.88
507.722	113.88
507.939	118.88
508.155	111.88
508.372	94.88
508.588	112.88
508.805	117.88
509.021	115.88
509.238	103.88
509.454	110.88
509.67	107.88
509.887	102.88
510.103	86.88
510.319	96.88
510.536	86.88
510.752	85.88
510.968	83.88
511.184	87.88
511.401	90.88
511.617	89.88
511.833	82.88
512.049	82.88
512.265	97.88
512.481	103.88
512.698	104.88
512.914	120.88
513.13	84.88
513.346	89.88
513.562	86.88
513.778	84.88
513.994	105.88
514.21	104.88
514.426	99.88
514.642	90.88
514.858	82.88
515.074	75.88
515.29	100.88
515.506	94.88
515.721	79.88
515.937	88.88
516.153	81.88
516.369	96.88
516.585	85.88
516.801	84.88
517.016	90.88
517.232	76.88
517.448	84.88
517.664	86.88
517.879	74.88
518.095	98.88
518.311	91.88
518.527	95.88
518.742	95.88
518.958	104.88
519.173	98.88
519.389	106.88
519.605	105.88
519.82	110.88
520.036	106.88
520.251	91.88
520.467	83.88
520.682	113.88
520.898	103.88
521.113	86.88
521.329	90.88
521.544	85.88
521.76	87.88
521.975	94.88
522.19	106.88
522.406	99.88
522.621	103.88
522.836	118.88
523.052	101.88
523.267	110.88
523.482	116.88
523.698	111.88
523.913	119.88
524.128	101.88
524.343	126.88
524.559	112.88
524.774	103.88
524.989	114.88
525.204	102.88
525.419	109.88
525.634	113.88
525.849	100.88
526.064	105.88
526.28	107.88
526.495	86.88
526.71	99.88
526.925	97.88
527.14	95.88
527.355	78.88
527.57	80.88
527.785	90.88
527.999	97.88
528.214	117.88
528.429	116.88
528.644	116.88
528.859	116.88
529.074	143.88
529.289	149.88
529.503	148.88
529.718	140.88
529.933	131.88
530.148	105.88
530.363	74.88
530.577	87.88
530.792	86.88
531.007	83.88
531.221	106.88
531.436	88.88
531.651	84.88
531.865	81.88
532.08	73.88
532.295	80.88
532.509	81.88
532.724	82.88
532.938	84.88
533.153	99.88
533.367	118.88
533.582	129.88
533.796	118.88
534.011	113.88
534.225	104.88
534.44	75.88
534.654	92.88
534.868	91.88
535.083	88.88
535.297	102.88
535.511	108.88
535.726	110.88
535.94	102.88
536.154	96.88
536.369	89.88
536.583	89.88
536.797	92.88
537.011	80.88
537.225	81.88
537.44	88.88
537.654	91.88
537.868	92.88
538.082	95.88
538.296	99.88
538.51	101.88
538.724	119.88
538.938	98.88
539.153	128.88
539.367	130.88
539.581	103.88
539.795	102.88
540.009	108.88
540.222	103.88
540.436	106.88
540.65	107.88
540.864	130.88
541.078	122.88
541.292	136.88
541.506	150.88
541.72	161.88
541.934	184.88
542.147	183.88
542.361	181.88
542.575	164.88
542.789	144.88
543.002	134.88
543.216	107.88
543.43	134.88
543.644	132.88
543.857	141.88
544.071	153.88
544.285	148.88
544.498	168.88
544.712	150.88
544.925	165.88
545.139	171.88
545.352	155.88
545.566	156.88
545.779	170.88
545.993	163.88
546.206	152.88
546.42	152.88
546.633	168.88
546.847	174.88
547.06	158.88
547.274	161.88
547.487	158.88
547.7	164.88
547.914	163.88
548.127	153.88
548.34	166.88
548.554	155.88
548.767	159.88
548.98	138.88
549.193	152.88
549.407	145.88
549.62	144.88
549.833	146.88
550.046	153.88
550.259	139.88
550.473	155.88
550.686	153.88
550.899	151.88
551.112	136.88
551.325	138.88
551.538	124.88
551.751	136.88
551.964	111.88
552.177	128.88
552.39	127.88
552.603	153.88
552.816	141.88
553.029	156.88
553.242	165.88
553.455	159.88
553.667	151.88
553.88	140.88
554.093	156.88
554.306	143.88
554.519	135.88
554.732	149.88
554.944	136.88
555.157	144.88
555.37	129.88
555.583	135.88
555.795	139.88
556.008	136.88
556.221	122.88
556.433	130.88
556.646	137.88
556.859	132.88
557.071	137.88
557.284	131.88
557.496	138.88
557.709	141.88
557.921	151.88
558.134	134.88
558.346	125.88
558.559	136.88
558.771	136.88
558.984	140.88
559.196	130.88
559.409	154.88
559.621	124.88
559.833	127.88
560.046	132.88
560.258	146.88
560.47	135.88
560.683	123.88
560.895	121.88
561.107	128.88
561.32	128.88
561.532	132.88
561.744	127.88
561.956	139.88
562.168	125.88
562.381	118.88
562.593	130.88
562.805	138.88
563.017	127.88
563.229	112.88
563.441	117.88
563.653	126.88
563.865	130.88
564.077	117.88
564.289	123.88
564.501	117.88
564.713	119.88
564.925	123.88
565.137	113.88
565.349	103.88
565.561	120.88
565.773	114.88
565.985	128.88
566.197	124.88
566.408	113.88
566.62	110.88
566.832	118.88
567.044	123.88
567.255	94.88
567.467	104.88
567.679	108.88
567.891	115.88
568.102	112.88
568.314	87.88
568.526	89.88
568.737	76.88
568.949	91.88
569.161	94.88
569.372	87.88
569.584	82.88
569.795	98.88
570.007	94.88
570.218	73.88
570.43	96.88
570.641	83.88
570.853	94.88
571.064	98.88
571.276	102.88
571.487	104.88
571.698	96.88
571.91	109.88
572.121	112.88
572.333	106.88
572.544	99.88
572.755	91.88
572.966	100.88
573.178	103.88
573.389	83.88
573.6	81.88
573.811	82.88
574.023	78.88
574.234	84.88
574.445	91.88
574.656	91.88
574.867	87.88
575.078	74.88
575.289	96.88
575.501	95.88
575.712	87.88
575.923	92.88
576.134	100.88
576.345	104.88
576.556	103.88
576.767	86.88
576.978	92.88
577.188	102.88
577.399	108.88
577.61	90.88
577.821	104.88
578.032	93.88
578.243	101.88
578.454	87.88
578.665	77.88
578.875	96.88
579.086	91.88
579.297	81.88
579.508	74.88
579.718	78.88
579.929	82.88
580.14	83.88
580.35	78.88
580.561	69.88
580.772	79.88
580.982	86.88
581.193	89.88
581.403	86.88
581.614	86.88
581.825	81.88
582.035	96.88
582.246	80.88
582.456	87.88
582.667	88.88
582.877	106.88
583.087	89.88
583.298	75.88
583.508	84.88
583.719	90.88
583.929	82.88
584.139	75.88
584.35	79.88
584.56	80.88
584.77	83.88
584.981	81.88
585.191	70.88
585.401	82.88
585.611	92.88
585.821	93.88
586.032	81.88
586.242	92.88
586.452	82.88
586.662	77.88
586.872	81.88
587.082	77.88
587.292	83.88
587.502	80.88
587.713	88.88
587.923	73.88
588.133	90.88
588.343	77.88
588.553	76.88
588.762	74.88
588.972	76.88
589.182	91.88
589.392	72.88
589.602	84.88
589.812	79.88
590.022	92.88
590.232	83.88
590.441	91.88
590.651	89.88
590.861	95.88
591.071	94.88
591.281	77.88
591.49	57.88
591.7	82.88
591.91	91.88
592.119	82.88
592.329	89.88
592.539	84.88
592.748	70.88
592.958	82.88
593.167	76.88
593.377	76.88
593.587	86.88
593.796	81.88
594.006	80.88
594.215	94.88
594.424	86.88
594.634	88.88
594.843	89.88
595.053	88.88
595.262	83.88
595.472	84.88
595.681	97.88
595.89	95.88
596.1	86.88
596.309	83.88
596.518	80.88
596.727	95.88
596.937	97.88
597.146	100.88
597.355	98.88
597.564	84.88
597.774	89.88
597.983	94.88
598.192	96.88
598.401	94.88
598.61	89.88
598.819	88.88
599.028	95.88
599.237	86.88
599.446	97.88
599.655	86.88
599.864	100.88
600.073	76.88
600.282	72.88
600.491	88.88
600.7	98.88
600.909	90.88
601.118	107.88
601.327	108.88
601.536	103.88
601.745	100.88
601.953	103.88
602.162	103.88
602.371	104.88
602.58	104.88
602.789	114.88
602.997	114.88
603.206	111.88
603.415	118.88
603.623	115.88
603.832	109.88
604.041	106.88
604.249	95.88
604.458	94.88
604.666	99.88
604.875	85.88
605.084	97.88
605.292	107.88
605.501	110.88
605.709	122.88
605.918	104.88
606.126	99.88
606.334	119.88
606.543	118.88
606.751	124.88
606.96	102.88
607.168	122.88
607.376	100.88
607.585	105.88
607.793	117.88
608.001	117.88
608.21	116.88
608.418	110.88
608.626	117.88
608.834	124.88
609.043	113.88
609.251	120.88
609.459	101.88
609.667	105.88
609.875	107.88
610.083	114.88
610.291	103.88
610.499	111.88
610.707	110.88
610.916	102.88
611.124	108.88
611.332	116.88
611.54	120.88
611.748	93.88
611.955	119.88
612.163	113.88
612.371	115.88
612.579	116.88
612.787	103.88
612.995	114.88
613.203	126.88
613.411	116.88
613.618	112.88
613.826	93.88
614.034	100.88
614.242	110.88
614.449	100.88
614.657	107.88
614.865	122.88
615.072	122.88
615.28	111.88
615.488	115.88
615.695	121.88
615.903	107.88
616.111	106.88
616.318	106.88
616.526	112.88
616.733	114.88
616.941	111.88
617.148	110.88
617.356	106.88
617.563	109.88
617.771	102.88
617.978	102.88
618.185	103.88
618.393	104.88
618.6	118.88
618.807	104.88
619.015	100.88
619.222	107.88
619.429	106.88
619.637	114.88
619.844	95.88
620.051	86.88
620.258	99.88
620.466	111.88
620.673	101.88
620.88	107.88
621.087	104.88
621.294	104.88
621.501	110.88
621.708	101.88
621.915	94.88
622.122	95.88
622.329	92.88
622.536	101.88
622.743	106.88
622.95	96.88
623.157	138.88
623.364	114.88
623.571	92.88
623.778	108.88
623.985	104.88
624.192	122.88
624.399	107.88
624.606	121.88
624.812	105.88
625.019	89.88
625.226	110.88
625.433	93.88
625.639	110.88
625.846	97.88
626.053	112.88
626.259	100.88
626.466	104.88
626.673	90.88
626.879	91.88
627.086	80.88
627.293	101.88
627.499	95.88
627.706	105.88
627.912	92.88
628.119	114.88
628.325	102.88
628.532	107.88
628.738	99.88
628.945	104.88
629.151	93.88
629.357	113.88
629.564	101.88
629.77	110.88
629.976	83.88
630.183	95.88
630.389	100.88
630.595	105.88
630.802	92.88
631.008	107.88
631.214	100.88
631.42	106.88
631.627	99.88
631.833	110.88
632.039	100.88
632.245	97.88
632.451	98.88
632.657	106.88
632.863	100.88
633.069	106.88
633.275	105.88
633.481	97.88
633.688	120.88
633.893	96.88
634.099	89.88
634.305	92.88
634.511	99.88
634.717	101.88
634.923	91.88
635.129	89.88
635.335	84.88
635.541	90.88
635.747	104.88
635.952	100.88
636.158	108.88
636.364	99.88
636.57	95.88
636.775	106.88
636.981	87.88
637.187	108.88
637.392	104.88
637.598	104.88
637.804	100.88
638.009	106.88
638.215	119.88
638.421	97.88
638.626	96.88
638.832	111.88
639.037	87.88
639.243	97.88
639.448	104.88
639.654	99.88
639.859	97.88
640.065	90.88
640.27	100.88
640.475	97.88
640.681	95.88
640.886	107.88
641.091	89.88
641.297	91.88
641.502	98.88
641.707	108.88
641.913	108.88
642.118	89.88
642.323	99.88
642.528	105.88
642.733	96.88
642.939	92.88
643.144	96.88
643.349	97.88
643.554	103.88
643.759	93.88
643.964	105.88
644.169	103.88
644.374	95.88
644.579	118.88
644.784	103.88
644.989	85.88
645.194	96.88
645.399	90.88
645.604	91.88
645.809	105.88
646.014	111.88
646.219	92.88
646.423	100.88
646.628	93.88
646.833	95.88
647.038	96.88
647.243	94.88
647.447	106.88
647.652	114.88
647.857	100.88
648.062	102.88
648.266	92.88
648.471	88.88
648.676	95.88
648.88	91.88
649.085	95.88
649.289	107.88
649.494	94.88
649.698	95.88
649.903	100.88
650.107	112.88
650.312	106.88
650.516	107.88
650.721	94.88
650.925	92.88
651.13	91.88
651.334	82.88
651.539	98.88
651.743	83.88
651.947	90.88
652.152	101.88
652.356	95.88
652.56	115.88
652.764	79.88
652.969	88.88
653.173	69.88
653.377	75.88
653.581	81.88
653.785	107.88
653.99	92.88
654.194	87.88
654.398	75.88
654.602	89.88
654.806	74.88
655.01	68.88
655.214	93.88
655.418	98.88
655.622	86.88
655.826	71.88
656.03	88.88
656.234	95.88
656.438	83.88
656.642	79.88
656.846	83.88
657.049	76.88
657.253	102.88
657.457	83.88
657.661	91.88
657.865	92.88
658.068	87.88
658.272	76.88
658.476	80.88
658.68	80.88
658.883	84.88
659.087	83.88
659.291	87.88
659.494	76.88
659.698	83.88
659.901	76.88
660.105	86.88
660.309	73.88
660.512	81.88
660.716	80.88
660.919	79.88
661.123	96.88
661.326	71.88
661.53	87.88
661.733	82.88
661.936	100.88
662.14	84.88
662.343	81.88
662.546	64.88
662.75	88.88
662.953	101.88
663.156	75.88
663.36	77.88
663.563	73.88
663.766	78.88
663.969	87.88
664.173	74.88
664.376	78.88
664.579	91.88
664.782	85.88
664.985	77.88
665.188	98.88
665.391	80.88
665.594	82.88
665.797	72.88
666	87.88
666.203	82.88
666.406	82.88
666.609	81.88
666.812	75.88
667.015	79.88
667.218	72.88
667.421	75.88
667.624	100.88
667.827	87.88
668.03	80.88
668.232	83.88
668.435	82.88
668.638	80.88
668.841	74.88
669.043	81.88
669.246	70.88
669.449	79.88
669.651	73.88
669.854	86.88
670.057	81.88
670.259	74.88
670.462	84.88
670.665	75.88
670.867	85.88
671.07	73.88
671.272	76.88
671.475	87.88
671.677	81.88
671.88	88.88
672.082	87.88
672.284	76.88
672.487	82.88
672.689	71.88
672.892	76.88
