Data from Location2.07152019.Energy5.Lamp.07192019.3%Agarose_HRD10591_14-57-23-359.txt Node
Date: Fri Jul 19 14:57:23 EDT 2019
User: cochatt
Spectrometer: HR+D1059
Trigger mode: 1
Integration Time (sec): 1.000000E-1
Scans to average: 1
Electric dark correction enabled: true
Nonlinearity correction enabled: false
Boxcar width: 0
XAxis mode: Wavelengths
Number of Pixels in Spectrum: 2048
>>>>>Begin Spectral Data<<<<<
223.165	-7.25
223.4	-7.25
223.635	-7.25
223.869	-34.25
224.104	-36.25
224.338	-11.25
224.573	1.75
224.808	-7.25
225.042	0.75
225.277	-9.25
225.511	8.75
225.746	-11.25
225.98	6.75
226.215	31.75
226.449	12.75
226.683	6.75
226.918	25.75
227.152	21.75
227.387	32.75
227.621	40.75
227.856	45.75
228.09	40.75
228.324	40.75
228.559	62.75
228.793	59.75
229.027	43.75
229.262	68.75
229.496	52.75
229.73	69.75
229.964	63.75
230.199	68.75
230.433	60.75
230.667	54.75
230.901	80.75
231.136	76.75
231.37	70.75
231.604	85.75
231.838	77.75
232.072	94.75
232.306	69.75
232.541	82.75
232.775	82.75
233.009	81.75
233.243	76.75
233.477	71.75
233.711	87.75
233.945	72.75
234.179	82.75
234.413	72.75
234.647	72.75
234.881	70.75
235.115	77.75
235.349	90.75
235.583	72.75
235.817	73.75
236.051	79.75
236.285	83.75
236.519	90.75
236.753	82.75
236.987	72.75
237.221	68.75
237.455	62.75
237.689	68.75
237.922	77.75
238.156	74.75
238.39	73.75
238.624	78.75
238.858	69.75
239.091	71.75
239.325	80.75
239.559	87.75
239.793	72.75
240.027	82.75
240.26	82.75
240.494	80.75
240.728	55.75
240.961	74.75
241.195	70.75
241.429	74.75
241.662	78.75
241.896	68.75
242.13	76.75
242.363	74.75
242.597	88.75
242.83	71.75
243.064	84.75
243.298	65.75
243.531	77.75
243.765	67.75
243.998	81.75
244.232	75.75
244.465	81.75
244.699	69.75
244.932	78.75
245.166	89.75
245.399	78.75
245.633	67.75
245.866	78.75
246.099	79.75
246.333	76.75
246.566	93.75
246.8	79.75
247.033	87.75
247.266	77.75
247.5	88.75
247.733	66.75
247.966	75.75
248.2	85.75
248.433	78.75
248.666	83.75
248.899	81.75
249.133	78.75
249.366	89.75
249.599	74.75
249.832	70.75
250.066	76.75
250.299	71.75
250.532	74.75
250.765	72.75
250.998	77.75
251.231	78.75
251.465	82.75
251.698	61.75
251.931	67.75
252.164	74.75
252.397	79.75
252.63	87.75
252.863	73.75
253.096	84.75
253.329	82.75
253.562	85.75
253.795	81.75
254.028	71.75
254.261	73.75
254.494	79.75
254.727	64.75
254.96	78.75
255.193	91.75
255.426	71.75
255.659	81.75
255.892	88.75
256.124	76.75
256.357	74.75
256.59	73.75
256.823	89.75
257.056	78.75
257.289	84.75
257.521	71.75
257.754	73.75
257.987	82.75
258.22	95.75
258.452	87.75
258.685	85.75
258.918	77.75
259.151	65.75
259.383	88.75
259.616	57.75
259.849	88.75
260.081	66.75
260.314	88.75
260.547	79.75
260.779	70.75
261.012	72.75
261.244	80.75
261.477	81.75
261.71	94.75
261.942	81.75
262.175	80.75
262.407	94.75
262.64	76.75
262.872	74.75
263.105	76.75
263.337	72.75
263.57	87.75
263.802	90.75
264.035	79.75
264.267	72.75
264.499	72.75
264.732	78.75
264.964	77.75
265.197	78.75
265.429	81.75
265.661	71.75
265.894	78.75
266.126	75.75
266.358	68.75
266.591	86.75
266.823	71.75
267.055	69.75
267.287	88.75
267.52	84.75
267.752	68.75
267.984	94.75
268.216	71.75
268.448	92.75
268.681	77.75
268.913	75.75
269.145	97.75
269.377	83.75
269.609	71.75
269.841	87.75
270.073	71.75
270.306	93.75
270.538	74.75
270.77	68.75
271.002	78.75
271.234	92.75
271.466	61.75
271.698	72.75
271.93	87.75
272.162	85.75
272.394	89.75
272.626	87.75
272.858	95.75
273.09	87.75
273.322	80.75
273.553	85.75
273.785	88.75
274.017	73.75
274.249	72.75
274.481	89.75
274.713	73.75
274.945	82.75
275.176	83.75
275.408	81.75
275.64	77.75
275.872	74.75
276.104	72.75
276.335	80.75
276.567	81.75
276.799	88.75
277.031	84.75
277.262	84.75
277.494	85.75
277.726	73.75
277.957	85.75
278.189	84.75
278.421	86.75
278.652	83.75
278.884	73.75
279.115	78.75
279.347	81.75
279.579	84.75
279.81	81.75
280.042	78.75
280.273	75.75
280.505	73.75
280.736	75.75
280.968	72.75
281.199	81.75
281.431	89.75
281.662	73.75
281.894	77.75
282.125	80.75
282.356	95.75
282.588	80.75
282.819	79.75
283.051	85.75
283.282	83.75
283.513	89.75
283.745	78.75
283.976	69.75
284.207	78.75
284.439	95.75
284.67	77.75
284.901	82.75
285.132	74.75
285.364	76.75
285.595	87.75
285.826	98.75
286.057	84.75
286.288	92.75
286.52	81.75
286.751	84.75
286.982	97.75
287.213	81.75
287.444	79.75
287.675	80.75
287.906	83.75
288.138	86.75
288.369	81.75
288.6	95.75
288.831	85.75
289.062	88.75
289.293	88.75
289.524	90.75
289.755	81.75
289.986	77.75
290.217	77.75
290.448	82.75
290.679	86.75
290.91	73.75
291.141	93.75
291.371	88.75
291.602	90.75
291.833	60.75
292.064	68.75
292.295	78.75
292.526	71.75
292.757	78.75
292.987	76.75
293.218	77.75
293.449	97.75
293.68	94.75
293.91	68.75
294.141	89.75
294.372	94.75
294.603	87.75
294.833	84.75
295.064	79.75
295.295	89.75
295.525	68.75
295.756	93.75
295.987	79.75
296.217	76.75
296.448	68.75
296.679	78.75
296.909	80.75
297.14	91.75
297.37	79.75
297.601	89.75
297.831	82.75
298.062	92.75
298.292	81.75
298.523	89.75
298.753	86.75
298.984	81.75
299.214	82.75
299.445	74.75
299.675	85.75
299.905	75.75
300.136	81.75
300.366	83.75
300.597	87.75
300.827	94.75
301.057	71.75
301.288	77.75
301.518	84.75
301.748	87.75
301.979	80.75
302.209	82.75
302.439	94.75
302.669	88.75
302.9	84.75
303.13	89.75
303.36	74.75
303.59	84.75
303.82	89.75
304.051	87.75
304.281	93.75
304.511	86.75
304.741	82.75
304.971	93.75
305.201	84.75
305.431	86.75
305.661	86.75
305.891	85.75
306.121	84.75
306.352	100.75
306.582	89.75
306.812	78.75
307.042	97.75
307.272	95.75
307.502	68.75
307.731	74.75
307.961	85.75
308.191	76.75
308.421	87.75
308.651	85.75
308.881	87.75
309.111	83.75
309.341	85.75
309.571	69.75
309.8	74.75
310.03	65.75
310.26	79.75
310.49	85.75
310.72	67.75
310.949	76.75
311.179	93.75
311.409	75.75
311.639	92.75
311.868	78.75
312.098	88.75
312.328	90.75
312.557	67.75
312.787	91.75
313.017	70.75
313.246	86.75
313.476	107.75
313.706	72.75
313.935	90.75
314.165	89.75
314.394	76.75
314.624	66.75
314.853	83.75
315.083	84.75
315.312	82.75
315.542	80.75
315.771	81.75
316.001	79.75
316.23	73.75
316.46	74.75
316.689	79.75
316.919	91.75
317.148	56.75
317.377	75.75
317.607	77.75
317.836	86.75
318.065	80.75
318.295	86.75
318.524	79.75
318.753	83.75
318.983	57.75
319.212	83.75
319.441	89.75
319.67	82.75
319.9	81.75
320.129	93.75
320.358	76.75
320.587	81.75
320.816	94.75
321.046	93.75
321.275	79.75
321.504	87.75
321.733	76.75
321.962	88.75
322.191	66.75
322.42	86.75
322.649	85.75
322.878	81.75
323.108	86.75
323.337	87.75
323.566	87.75
323.795	81.75
324.024	68.75
324.253	84.75
324.482	78.75
324.71	74.75
324.939	86.75
325.168	85.75
325.397	83.75
325.626	83.75
325.855	81.75
326.084	79.75
326.313	82.75
326.542	81.75
326.77	69.75
326.999	78.75
327.228	92.75
327.457	75.75
327.686	84.75
327.914	82.75
328.143	101.75
328.372	73.75
328.6	81.75
328.829	81.75
329.058	89.75
329.287	84.75
329.515	91.75
329.744	89.75
329.972	77.75
330.201	88.75
330.43	85.75
330.658	70.75
330.887	73.75
331.115	84.75
331.344	82.75
331.572	80.75
331.801	82.75
332.03	90.75
332.258	77.75
332.486	88.75
332.715	90.75
332.943	91.75
333.172	79.75
333.4	79.75
333.629	80.75
333.857	87.75
334.085	73.75
334.314	84.75
334.542	93.75
334.771	73.75
334.999	77.75
335.227	92.75
335.455	82.75
335.684	88.75
335.912	92.75
336.14	81.75
336.369	87.75
336.597	67.75
336.825	73.75
337.053	83.75
337.281	80.75
337.51	72.75
337.738	81.75
337.966	83.75
338.194	77.75
338.422	82.75
338.65	79.75
338.878	75.75
339.106	86.75
339.334	81.75
339.562	74.75
339.79	76.75
340.018	94.75
340.246	86.75
340.474	83.75
340.702	92.75
340.93	80.75
341.158	85.75
341.386	65.75
341.614	78.75
341.842	88.75
342.07	80.75
342.298	85.75
342.526	77.75
342.754	92.75
342.981	82.75
343.209	80.75
343.437	78.75
343.665	79.75
343.893	90.75
344.12	100.75
344.348	96.75
344.576	81.75
344.804	74.75
345.031	89.75
345.259	85.75
345.487	80.75
345.714	89.75
345.942	70.75
346.17	99.75
346.397	84.75
346.625	74.75
346.853	72.75
347.08	88.75
347.308	88.75
347.535	86.75
347.763	69.75
347.99	86.75
348.218	74.75
348.445	81.75
348.673	90.75
348.9	80.75
349.128	78.75
349.355	84.75
349.583	87.75
349.81	85.75
350.037	64.75
350.265	94.75
350.492	86.75
350.72	81.75
350.947	79.75
351.174	82.75
351.402	70.75
351.629	89.75
351.856	82.75
352.083	74.75
352.311	89.75
352.538	72.75
352.765	85.75
352.992	82.75
353.22	87.75
353.447	78.75
353.674	89.75
353.901	84.75
354.128	93.75
354.355	88.75
354.583	99.75
354.81	81.75
355.037	87.75
355.264	83.75
355.491	93.75
355.718	77.75
355.945	83.75
356.172	88.75
356.399	89.75
356.626	82.75
356.853	78.75
357.08	81.75
357.307	83.75
357.534	76.75
357.761	82.75
357.988	67.75
358.215	95.75
358.441	64.75
358.668	87.75
358.895	76.75
359.122	90.75
359.349	77.75
359.576	87.75
359.802	70.75
360.029	86.75
360.256	90.75
360.483	70.75
360.709	78.75
360.936	77.75
361.163	66.75
361.39	81.75
361.616	83.75
361.843	77.75
362.07	87.75
362.296	102.75
362.523	99.75
362.749	88.75
362.976	80.75
363.203	81.75
363.429	74.75
363.656	88.75
363.882	77.75
364.109	81.75
364.335	78.75
364.562	86.75
364.788	79.75
365.015	82.75
365.241	85.75
365.468	78.75
365.694	76.75
365.92	78.75
366.147	82.75
366.373	77.75
366.599	93.75
366.826	83.75
367.052	88.75
367.278	83.75
367.505	95.75
367.731	95.75
367.957	93.75
368.184	90.75
368.41	88.75
368.636	85.75
368.862	87.75
369.089	81.75
369.315	74.75
369.541	82.75
369.767	95.75
369.993	90.75
370.219	82.75
370.445	90.75
370.672	94.75
370.898	86.75
371.124	75.75
371.35	85.75
371.576	85.75
371.802	85.75
372.028	91.75
372.254	94.75
372.48	95.75
372.706	100.75
372.932	86.75
373.158	92.75
373.384	68.75
373.61	93.75
373.835	92.75
374.061	90.75
374.287	99.75
374.513	77.75
374.739	100.75
374.965	88.75
375.191	93.75
375.416	88.75
375.642	92.75
375.868	85.75
376.094	101.75
376.319	101.75
376.545	79.75
376.771	90.75
376.997	87.75
377.222	101.75
377.448	93.75
377.674	88.75
377.899	92.75
378.125	96.75
378.35	92.75
378.576	94.75
378.802	80.75
379.027	84.75
379.253	89.75
379.478	82.75
379.704	88.75
379.929	94.75
380.155	85.75
380.38	90.75
380.606	86.75
380.831	87.75
381.057	97.75
381.282	88.75
381.507	91.75
381.733	98.75
381.958	108.75
382.184	88.75
382.409	82.75
382.634	88.75
382.86	96.75
383.085	102.75
383.31	90.75
383.535	107.75
383.761	100.75
383.986	90.75
384.211	75.75
384.436	86.75
384.662	81.75
384.887	100.75
385.112	109.75
385.337	88.75
385.562	110.75
385.787	112.75
386.013	113.75
386.238	101.75
386.463	108.75
386.688	82.75
386.913	97.75
387.138	109.75
387.363	105.75
387.588	93.75
387.813	98.75
388.038	106.75
388.263	105.75
388.488	96.75
388.713	106.75
388.938	87.75
389.163	100.75
389.387	103.75
389.612	93.75
389.837	113.75
390.062	107.75
390.287	98.75
390.512	98.75
390.736	101.75
390.961	85.75
391.186	96.75
391.411	97.75
391.636	92.75
391.86	103.75
392.085	97.75
392.31	104.75
392.534	119.75
392.759	106.75
392.984	109.75
393.208	96.75
393.433	88.75
393.658	100.75
393.882	97.75
394.107	93.75
394.331	95.75
394.556	101.75
394.78	106.75
395.005	111.75
395.229	106.75
395.454	97.75
395.678	98.75
395.903	102.75
396.127	110.75
396.352	117.75
396.576	105.75
396.801	116.75
397.025	118.75
397.249	101.75
397.474	82.75
397.698	107.75
397.922	108.75
398.147	104.75
398.371	107.75
398.595	96.75
398.82	112.75
399.044	104.75
399.268	110.75
399.492	102.75
399.717	114.75
399.941	116.75
400.165	105.75
400.389	108.75
400.613	105.75
400.837	105.75
401.062	108.75
401.286	126.75
401.51	110.75
401.734	100.75
401.958	99.75
402.182	112.75
402.406	116.75
402.63	114.75
402.854	112.75
403.078	121.75
403.302	104.75
403.526	122.75
403.75	126.75
403.974	118.75
404.198	106.75
404.422	101.75
404.645	110.75
404.869	103.75
405.093	116.75
405.317	117.75
405.541	104.75
405.765	111.75
405.988	117.75
406.212	124.75
406.436	132.75
406.66	122.75
406.883	121.75
407.107	96.75
407.331	116.75
407.555	109.75
407.778	119.75
408.002	131.75
408.226	112.75
408.449	99.75
408.673	102.75
408.896	130.75
409.12	112.75
409.344	118.75
409.567	119.75
409.791	125.75
410.014	108.75
410.238	120.75
410.461	128.75
410.685	124.75
410.908	116.75
411.132	122.75
411.355	114.75
411.578	132.75
411.802	118.75
412.025	117.75
412.249	109.75
412.472	120.75
412.695	117.75
412.919	120.75
413.142	109.75
413.365	119.75
413.589	110.75
413.812	111.75
414.035	129.75
414.258	123.75
414.482	113.75
414.705	110.75
414.928	132.75
415.151	114.75
415.374	126.75
415.597	125.75
415.821	136.75
416.044	115.75
416.267	129.75
416.49	125.75
416.713	124.75
416.936	131.75
417.159	138.75
417.382	130.75
417.605	114.75
417.828	123.75
418.051	125.75
418.274	127.75
418.497	132.75
418.72	120.75
418.943	117.75
419.166	122.75
419.389	131.75
419.611	138.75
419.834	118.75
420.057	125.75
420.28	128.75
420.503	126.75
420.726	120.75
420.948	140.75
421.171	128.75
421.394	126.75
421.617	139.75
421.839	139.75
422.062	142.75
422.285	131.75
422.507	116.75
422.73	120.75
422.953	117.75
423.175	121.75
423.398	133.75
423.621	121.75
423.843	126.75
424.066	128.75
424.288	145.75
424.511	130.75
424.733	146.75
424.956	134.75
425.178	135.75
425.401	145.75
425.623	129.75
425.846	139.75
426.068	128.75
426.291	110.75
426.513	116.75
426.735	130.75
426.958	138.75
427.18	127.75
427.402	123.75
427.625	120.75
427.847	125.75
428.069	126.75
428.292	129.75
428.514	120.75
428.736	133.75
428.958	133.75
429.181	136.75
429.403	125.75
429.625	127.75
429.847	126.75
430.069	113.75
430.292	120.75
430.514	126.75
430.736	126.75
430.958	133.75
431.18	134.75
431.402	106.75
431.624	127.75
431.846	97.75
432.068	98.75
432.29	92.75
432.512	118.75
432.734	115.75
432.956	131.75
433.178	124.75
433.4	134.75
433.622	135.75
433.844	119.75
434.066	118.75
434.287	113.75
434.509	105.75
434.731	111.75
434.953	121.75
435.175	105.75
435.397	119.75
435.618	96.75
435.84	117.75
436.062	118.75
436.284	117.75
436.505	137.75
436.727	132.75
436.949	137.75
437.17	136.75
437.392	116.75
437.614	124.75
437.835	111.75
438.057	104.75
438.278	100.75
438.5	114.75
438.721	138.75
438.943	121.75
439.165	132.75
439.386	137.75
439.608	136.75
439.829	145.75
440.05	138.75
440.272	129.75
440.493	149.75
440.715	136.75
440.936	131.75
441.158	131.75
441.379	143.75
441.6	144.75
441.822	136.75
442.043	136.75
442.264	134.75
442.486	132.75
442.707	138.75
442.928	123.75
443.149	166.75
443.371	148.75
443.592	146.75
443.813	138.75
444.034	142.75
444.255	138.75
444.476	131.75
444.698	149.75
444.919	130.75
445.14	270.75
445.361	209.75
445.582	144.75
445.803	133.75
446.024	138.75
446.245	144.75
446.466	160.75
446.687	149.75
446.908	144.75
447.129	156.75
447.35	159.75
447.571	156.75
447.792	151.75
448.013	144.75
448.234	132.75
448.455	118.75
448.675	136.75
448.896	136.75
449.117	121.75
449.338	125.75
449.559	136.75
449.779	134.75
450	133.75
450.221	125.75
450.442	117.75
450.662	147.75
450.883	127.75
451.104	134.75
451.324	141.75
451.545	122.75
451.766	118.75
451.986	118.75
452.207	127.75
452.428	133.75
452.648	126.75
452.869	120.75
453.089	119.75
453.31	102.75
453.53	101.75
453.751	94.75
453.971	98.75
454.192	111.75
454.412	105.75
454.633	128.75
454.853	116.75
455.073	116.75
455.294	118.75
455.514	105.75
455.734	102.75
455.955	116.75
456.175	121.75
456.395	118.75
456.616	118.75
456.836	95.75
457.056	112.75
457.276	106.75
457.497	102.75
457.717	104.75
457.937	83.75
458.157	105.75
458.377	103.75
458.598	94.75
458.818	90.75
459.038	100.75
459.258	84.75
459.478	90.75
459.698	88.75
459.918	87.75
460.138	101.75
460.358	111.75
460.578	108.75
460.798	113.75
461.018	105.75
461.238	110.75
461.458	110.75
461.678	112.75
461.898	130.75
462.118	118.75
462.338	117.75
462.558	113.75
462.777	116.75
462.997	118.75
463.217	97.75
463.437	101.75
463.657	99.75
463.876	111.75
464.096	110.75
464.316	103.75
464.536	97.75
464.755	108.75
464.975	99.75
465.195	112.75
465.414	110.75
465.634	126.75
465.854	113.75
466.073	107.75
466.293	111.75
466.512	118.75
466.732	121.75
466.951	120.75
467.171	129.75
467.391	120.75
467.61	120.75
467.829	137.75
468.049	126.75
468.268	136.75
468.488	117.75
468.707	120.75
468.927	126.75
469.146	142.75
469.365	128.75
469.585	131.75
469.804	138.75
470.023	133.75
470.243	146.75
470.462	138.75
470.681	130.75
470.901	140.75
471.12	128.75
471.339	142.75
471.558	140.75
471.777	148.75
471.997	136.75
472.216	132.75
472.435	101.75
472.654	104.75
472.873	106.75
473.092	117.75
473.311	121.75
473.53	118.75
473.749	125.75
473.968	138.75
474.187	134.75
474.406	119.75
474.625	124.75
474.844	120.75
475.063	119.75
475.282	128.75
475.501	111.75
475.72	131.75
475.939	129.75
476.158	108.75
476.377	139.75
476.596	121.75
476.814	112.75
477.033	93.75
477.252	116.75
477.471	118.75
477.69	133.75
477.908	145.75
478.127	134.75
478.346	132.75
478.564	128.75
478.783	114.75
479.002	137.75
479.22	134.75
479.439	130.75
479.658	124.75
479.876	126.75
480.095	117.75
480.313	105.75
480.532	114.75
480.751	101.75
480.969	94.75
481.188	86.75
481.406	82.75
481.624	82.75
481.843	80.75
482.061	85.75
482.28	110.75
482.498	115.75
482.717	101.75
482.935	116.75
483.153	143.75
483.372	141.75
483.59	142.75
483.808	133.75
484.027	128.75
484.245	122.75
484.463	149.75
484.681	152.75
484.9	132.75
485.118	126.75
485.336	136.75
485.554	112.75
485.772	91.75
485.99	104.75
486.209	112.75
486.427	124.75
486.645	115.75
486.863	148.75
487.081	144.75
487.299	136.75
487.517	133.75
487.735	159.75
487.953	184.75
488.171	184.75
488.389	169.75
488.607	144.75
488.825	151.75
489.043	142.75
489.261	130.75
489.479	133.75
489.696	148.75
489.914	121.75
490.132	142.75
490.35	160.75
490.568	159.75
490.786	162.75
491.003	169.75
491.221	183.75
491.439	184.75
491.657	177.75
491.874	210.75
492.092	216.75
492.31	220.75
492.527	216.75
492.745	214.75
492.963	176.75
493.18	180.75
493.398	175.75
493.615	176.75
493.833	181.75
494.05	181.75
494.268	174.75
494.485	173.75
494.703	171.75
494.92	178.75
495.138	156.75
495.355	174.75
495.573	166.75
495.79	169.75
496.008	161.75
496.225	172.75
496.442	168.75
496.66	165.75
496.877	168.75
497.094	158.75
497.312	159.75
497.529	164.75
497.746	154.75
497.963	120.75
498.181	134.75
498.398	122.75
498.615	104.75
498.832	119.75
499.049	112.75
499.267	118.75
499.484	125.75
499.701	118.75
499.918	136.75
500.135	134.75
500.352	143.75
500.569	144.75
500.786	133.75
501.003	150.75
501.22	155.75
501.437	133.75
501.654	152.75
501.871	132.75
502.088	108.75
502.305	110.75
502.522	125.75
502.739	134.75
502.956	135.75
503.172	135.75
503.389	119.75
503.606	107.75
503.823	126.75
504.04	121.75
504.256	129.75
504.473	98.75
504.69	132.75
504.907	120.75
505.123	112.75
505.34	112.75
505.557	117.75
505.773	118.75
505.99	112.75
506.207	133.75
506.423	112.75
506.64	111.75
506.856	121.75
507.073	100.75
507.289	118.75
507.506	135.75
507.722	121.75
507.939	122.75
508.155	124.75
508.372	124.75
508.588	132.75
508.805	111.75
509.021	110.75
509.238	106.75
509.454	98.75
509.67	98.75
509.887	91.75
510.103	87.75
510.319	97.75
510.536	90.75
510.752	83.75
510.968	80.75
511.184	80.75
511.401	93.75
511.617	88.75
511.833	76.75
512.049	76.75
512.265	90.75
512.481	105.75
512.698	97.75
512.914	97.75
513.13	99.75
513.346	87.75
513.562	84.75
513.778	90.75
513.994	97.75
514.21	98.75
514.426	75.75
514.642	90.75
514.858	95.75
515.074	78.75
515.29	85.75
515.506	75.75
515.721	87.75
515.937	99.75
516.153	97.75
516.369	98.75
516.585	87.75
516.801	83.75
517.016	89.75
517.232	82.75
517.448	93.75
517.664	91.75
517.879	72.75
518.095	84.75
518.311	97.75
518.527	98.75
518.742	95.75
518.958	103.75
519.173	113.75
519.389	96.75
519.605	87.75
519.82	105.75
520.036	103.75
520.251	99.75
520.467	89.75
520.682	90.75
520.898	96.75
521.113	88.75
521.329	90.75
521.544	96.75
521.76	99.75
521.975	94.75
522.19	87.75
522.406	92.75
522.621	99.75
522.836	106.75
523.052	113.75
523.267	103.75
523.482	111.75
523.698	110.75
523.913	108.75
524.128	115.75
524.343	106.75
524.559	112.75
524.774	124.75
524.989	119.75
525.204	112.75
525.419	125.75
525.634	113.75
525.849	121.75
526.064	99.75
526.28	104.75
526.495	83.75
526.71	90.75
526.925	72.75
527.14	90.75
527.355	76.75
527.57	80.75
527.785	87.75
527.999	86.75
528.214	95.75
528.429	97.75
528.644	123.75
528.859	124.75
529.074	135.75
529.289	158.75
529.503	141.75
529.718	118.75
529.933	101.75
530.148	99.75
530.363	93.75
530.577	92.75
530.792	91.75
531.007	89.75
531.221	83.75
531.436	81.75
531.651	75.75
531.865	77.75
532.08	89.75
532.295	77.75
532.509	83.75
532.724	94.75
532.938	92.75
533.153	108.75
533.367	119.75
533.582	103.75
533.796	114.75
534.011	113.75
534.225	86.75
534.44	79.75
534.654	81.75
534.868	79.75
535.083	97.75
535.297	100.75
535.511	98.75
535.726	114.75
535.94	101.75
536.154	94.75
536.369	90.75
536.583	89.75
536.797	83.75
537.011	78.75
537.225	89.75
537.44	81.75
537.654	84.75
537.868	95.75
538.082	103.75
538.296	97.75
538.51	111.75
538.724	118.75
538.938	120.75
539.153	122.75
539.367	128.75
539.581	114.75
539.795	93.75
540.009	108.75
540.222	99.75
540.436	98.75
540.65	124.75
540.864	130.75
541.078	131.75
541.292	144.75
541.506	162.75
541.72	189.75
541.934	192.75
542.147	184.75
542.361	172.75
542.575	153.75
542.789	130.75
543.002	134.75
543.216	126.75
543.43	139.75
543.644	130.75
543.857	156.75
544.071	153.75
544.285	160.75
544.498	152.75
544.712	145.75
544.925	143.75
545.139	161.75
545.352	158.75
545.566	146.75
545.779	160.75
545.993	159.75
546.206	162.75
546.42	152.75
546.633	155.75
546.847	156.75
547.06	158.75
547.274	157.75
547.487	167.75
547.7	180.75
547.914	145.75
548.127	165.75
548.34	166.75
548.554	165.75
548.767	184.75
548.98	160.75
549.193	153.75
549.407	158.75
549.62	153.75
549.833	147.75
550.046	130.75
550.259	146.75
550.473	139.75
550.686	161.75
550.899	157.75
551.112	140.75
551.325	139.75
551.538	132.75
551.751	117.75
551.964	119.75
552.177	134.75
552.39	125.75
552.603	146.75
552.816	145.75
553.029	157.75
553.242	144.75
553.455	146.75
553.667	144.75
553.88	151.75
554.093	149.75
554.306	154.75
554.519	145.75
554.732	141.75
554.944	131.75
555.157	124.75
555.37	148.75
555.583	144.75
555.795	147.75
556.008	135.75
556.221	135.75
556.433	132.75
556.646	134.75
556.859	125.75
557.071	129.75
557.284	127.75
557.496	134.75
557.709	121.75
557.921	141.75
558.134	140.75
558.346	146.75
558.559	130.75
558.771	132.75
558.984	135.75
559.196	142.75
559.409	140.75
559.621	139.75
559.833	143.75
560.046	134.75
560.258	118.75
560.47	132.75
560.683	123.75
560.895	125.75
561.107	128.75
561.32	146.75
561.532	139.75
561.744	127.75
561.956	124.75
562.168	142.75
562.381	116.75
562.593	118.75
562.805	139.75
563.017	126.75
563.229	141.75
563.441	128.75
563.653	129.75
563.865	125.75
564.077	113.75
564.289	121.75
564.501	113.75
564.713	108.75
564.925	122.75
565.137	120.75
565.349	113.75
565.561	105.75
565.773	122.75
565.985	120.75
566.197	122.75
566.408	121.75
566.62	118.75
566.832	122.75
567.044	105.75
567.255	122.75
567.467	115.75
567.679	103.75
567.891	112.75
568.102	104.75
568.314	88.75
568.526	92.75
568.737	89.75
568.949	88.75
569.161	74.75
569.372	68.75
569.584	77.75
569.795	95.75
570.007	74.75
570.218	80.75
570.43	89.75
570.641	99.75
570.853	104.75
571.064	98.75
571.276	100.75
571.487	107.75
571.698	95.75
571.91	108.75
572.121	98.75
572.333	95.75
572.544	90.75
572.755	96.75
572.966	91.75
573.178	81.75
573.389	76.75
573.6	65.75
573.811	93.75
574.023	81.75
574.234	76.75
574.445	83.75
574.656	91.75
574.867	94.75
575.078	92.75
575.289	105.75
575.501	83.75
575.712	92.75
575.923	85.75
576.134	92.75
576.345	97.75
576.556	102.75
576.767	90.75
576.978	91.75
577.188	99.75
577.399	78.75
577.61	101.75
577.821	96.75
578.032	80.75
578.243	74.75
578.454	100.75
578.665	85.75
578.875	81.75
579.086	92.75
579.297	85.75
579.508	86.75
579.718	87.75
579.929	98.75
580.14	82.75
580.35	89.75
580.561	79.75
580.772	83.75
580.982	90.75
581.193	99.75
581.403	93.75
581.614	110.75
581.825	99.75
582.035	88.75
582.246	83.75
582.456	88.75
582.667	87.75
582.877	90.75
583.087	87.75
583.298	78.75
583.508	96.75
583.719	88.75
583.929	103.75
584.139	84.75
584.35	78.75
584.56	84.75
584.77	83.75
584.981	89.75
585.191	80.75
585.401	95.75
585.611	98.75
585.821	79.75
586.032	87.75
586.242	89.75
586.452	81.75
586.662	72.75
586.872	86.75
587.082	76.75
587.292	84.75
587.502	86.75
587.713	87.75
587.923	79.75
588.133	93.75
588.343	94.75
588.553	83.75
588.762	87.75
588.972	79.75
589.182	71.75
589.392	93.75
589.602	86.75
589.812	94.75
590.022	84.75
590.232	81.75
590.441	96.75
590.651	76.75
590.861	82.75
591.071	82.75
591.281	83.75
591.49	73.75
591.7	90.75
591.91	84.75
592.119	90.75
592.329	85.75
592.539	85.75
592.748	83.75
592.958	79.75
593.167	78.75
593.377	85.75
593.587	88.75
593.796	72.75
594.006	79.75
594.215	80.75
594.424	69.75
594.634	92.75
594.843	100.75
595.053	98.75
595.262	95.75
595.472	96.75
595.681	103.75
595.89	84.75
596.1	80.75
596.309	111.75
596.518	79.75
596.727	90.75
596.937	85.75
597.146	83.75
597.355	111.75
597.564	80.75
597.774	90.75
597.983	78.75
598.192	93.75
598.401	89.75
598.61	70.75
598.819	97.75
599.028	97.75
599.237	95.75
599.446	99.75
599.655	96.75
599.864	80.75
600.073	85.75
600.282	104.75
600.491	108.75
600.7	97.75
600.909	89.75
601.118	111.75
601.327	85.75
601.536	109.75
601.745	110.75
601.953	103.75
602.162	114.75
602.371	112.75
602.58	111.75
602.789	108.75
602.997	116.75
603.206	103.75
603.415	109.75
603.623	101.75
603.832	117.75
604.041	104.75
604.249	104.75
604.458	109.75
604.666	95.75
604.875	87.75
605.084	100.75
605.292	108.75
605.501	110.75
605.709	122.75
605.918	104.75
606.126	114.75
606.334	114.75
606.543	117.75
606.751	109.75
606.96	99.75
607.168	95.75
607.376	117.75
607.585	97.75
607.793	113.75
608.001	116.75
608.21	118.75
608.418	114.75
608.626	115.75
608.834	119.75
609.043	113.75
609.251	100.75
609.459	117.75
609.667	122.75
609.875	113.75
610.083	117.75
610.291	121.75
610.499	117.75
610.707	104.75
610.916	104.75
611.124	106.75
611.332	100.75
611.54	129.75
611.748	113.75
611.955	115.75
612.163	114.75
612.371	111.75
612.579	116.75
612.787	123.75
612.995	106.75
613.203	102.75
613.411	118.75
613.618	108.75
613.826	104.75
614.034	117.75
614.242	119.75
614.449	120.75
614.657	106.75
614.865	130.75
615.072	115.75
615.28	100.75
615.488	98.75
615.695	110.75
615.903	112.75
616.111	114.75
616.318	103.75
616.526	106.75
616.733	103.75
616.941	102.75
617.148	118.75
617.356	112.75
617.563	114.75
617.771	119.75
617.978	105.75
618.185	108.75
618.393	115.75
618.6	115.75
618.807	121.75
619.015	106.75
619.222	93.75
619.429	110.75
619.637	88.75
619.844	97.75
620.051	89.75
620.258	105.75
620.466	109.75
620.673	113.75
620.88	95.75
621.087	112.75
621.294	89.75
621.501	85.75
621.708	88.75
621.915	110.75
622.122	107.75
622.329	98.75
622.536	94.75
622.743	116.75
622.95	106.75
623.157	118.75
623.364	99.75
623.571	103.75
623.778	110.75
623.985	116.75
624.192	95.75
624.399	112.75
624.606	128.75
624.812	122.75
625.019	109.75
625.226	103.75
625.433	94.75
625.639	77.75
625.846	91.75
626.053	102.75
626.259	105.75
626.466	93.75
626.673	89.75
626.879	96.75
627.086	112.75
627.293	78.75
627.499	93.75
627.706	101.75
627.912	100.75
628.119	103.75
628.325	118.75
628.532	101.75
628.738	108.75
628.945	112.75
629.151	112.75
629.357	100.75
629.564	101.75
629.77	94.75
629.976	102.75
630.183	112.75
630.389	108.75
630.595	92.75
630.802	104.75
631.008	95.75
631.214	106.75
631.42	89.75
631.627	103.75
631.833	104.75
632.039	98.75
632.245	96.75
632.451	98.75
632.657	100.75
632.863	98.75
633.069	90.75
633.275	91.75
633.481	93.75
633.688	96.75
633.893	98.75
634.099	100.75
634.305	95.75
634.511	100.75
634.717	95.75
634.923	97.75
635.129	105.75
635.335	96.75
635.541	90.75
635.747	90.75
635.952	111.75
636.158	101.75
636.364	118.75
636.57	102.75
636.775	102.75
636.981	88.75
637.187	103.75
637.392	111.75
637.598	90.75
637.804	98.75
638.009	106.75
638.215	104.75
638.421	114.75
638.626	113.75
638.832	95.75
639.037	102.75
639.243	101.75
639.448	104.75
639.654	117.75
639.859	103.75
640.065	95.75
640.27	101.75
640.475	90.75
640.681	98.75
640.886	103.75
641.091	106.75
641.297	96.75
641.502	92.75
641.707	77.75
641.913	101.75
642.118	92.75
642.323	91.75
642.528	103.75
642.733	96.75
642.939	88.75
643.144	96.75
643.349	93.75
643.554	108.75
643.759	101.75
643.964	87.75
644.169	96.75
644.374	101.75
644.579	100.75
644.784	105.75
644.989	94.75
645.194	89.75
645.399	92.75
645.604	96.75
645.809	100.75
646.014	104.75
646.219	86.75
646.423	99.75
646.628	99.75
646.833	93.75
647.038	98.75
647.243	109.75
647.447	95.75
647.652	89.75
647.857	97.75
648.062	114.75
648.266	94.75
648.471	105.75
648.676	94.75
648.88	92.75
649.085	98.75
649.289	77.75
649.494	106.75
649.698	94.75
649.903	95.75
650.107	94.75
650.312	109.75
650.516	97.75
650.721	94.75
650.925	85.75
651.13	111.75
651.334	89.75
651.539	105.75
651.743	97.75
651.947	97.75
652.152	88.75
652.356	87.75
652.56	99.75
652.764	104.75
652.969	93.75
653.173	93.75
653.377	73.75
653.581	98.75
653.785	90.75
653.99	93.75
654.194	87.75
654.398	77.75
654.602	79.75
654.806	96.75
655.01	93.75
655.214	90.75
655.418	103.75
655.622	98.75
655.826	83.75
656.03	100.75
656.234	86.75
656.438	84.75
656.642	75.75
656.846	89.75
657.049	80.75
657.253	86.75
657.457	83.75
657.661	84.75
657.865	90.75
658.068	91.75
658.272	80.75
658.476	78.75
658.68	91.75
658.883	85.75
659.087	82.75
659.291	73.75
659.494	85.75
659.698	83.75
659.901	93.75
660.105	92.75
660.309	62.75
660.512	101.75
660.716	67.75
660.919	87.75
661.123	84.75
661.326	84.75
661.53	79.75
661.733	80.75
661.936	100.75
662.14	83.75
662.343	74.75
662.546	70.75
662.75	93.75
662.953	93.75
663.156	79.75
663.36	70.75
663.563	85.75
663.766	73.75
663.969	78.75
664.173	86.75
664.376	76.75
664.579	83.75
664.782	91.75
664.985	85.75
665.188	80.75
665.391	88.75
665.594	83.75
665.797	83.75
666	71.75
666.203	73.75
666.406	89.75
666.609	79.75
666.812	79.75
667.015	79.75
667.218	90.75
667.421	85.75
667.624	88.75
667.827	82.75
668.03	86.75
668.232	85.75
668.435	82.75
668.638	78.75
668.841	81.75
669.043	84.75
669.246	80.75
669.449	88.75
669.651	79.75
669.854	85.75
670.057	69.75
670.259	65.75
670.462	74.75
670.665	84.75
670.867	77.75
671.07	73.75
671.272	85.75
671.475	75.75
671.677	85.75
671.88	89.75
672.082	69.75
672.284	83.75
672.487	74.75
672.689	66.75
672.892	59.75
