Data from Location2.07152019.Energy5.Lamp.07192019.3%Agarose_HRD10591_14-57-50-359.txt Node
Date: Fri Jul 19 14:57:50 EDT 2019
User: cochatt
Spectrometer: HR+D1059
Trigger mode: 1
Integration Time (sec): 1.000000E-1
Scans to average: 1
Electric dark correction enabled: true
Nonlinearity correction enabled: false
Boxcar width: 0
XAxis mode: Wavelengths
Number of Pixels in Spectrum: 2048
>>>>>Begin Spectral Data<<<<<
223.165	-22.94
223.4	-22.94
223.635	-22.94
223.869	-4.94
224.104	-19.94
224.338	-10.94
224.573	-29.94
224.808	-9.94
225.042	-1.94
225.277	-4.94
225.511	7.06
225.746	13.06
225.98	6.06
226.215	11.06
226.449	2.06
226.683	25.06
226.918	23.06
227.152	18.06
227.387	27.06
227.621	32.06
227.856	45.06
228.09	42.06
228.324	55.06
228.559	58.06
228.793	59.06
229.027	59.06
229.262	73.06
229.496	77.06
229.73	93.06
229.964	78.06
230.199	90.06
230.433	62.06
230.667	71.06
230.901	75.06
231.136	83.06
231.37	83.06
231.604	84.06
231.838	85.06
232.072	86.06
232.306	86.06
232.541	82.06
232.775	91.06
233.009	90.06
233.243	70.06
233.477	82.06
233.711	99.06
233.945	75.06
234.179	84.06
234.413	82.06
234.647	79.06
234.881	75.06
235.115	76.06
235.349	82.06
235.583	84.06
235.817	82.06
236.051	89.06
236.285	81.06
236.519	92.06
236.753	81.06
236.987	88.06
237.221	79.06
237.455	84.06
237.689	86.06
237.922	69.06
238.156	75.06
238.39	89.06
238.624	76.06
238.858	84.06
239.091	75.06
239.325	79.06
239.559	77.06
239.793	90.06
240.027	73.06
240.26	82.06
240.494	75.06
240.728	79.06
240.961	78.06
241.195	83.06
241.429	75.06
241.662	79.06
241.896	81.06
242.13	74.06
242.363	77.06
242.597	72.06
242.83	82.06
243.064	73.06
243.298	92.06
243.531	81.06
243.765	77.06
243.998	80.06
244.232	84.06
244.465	85.06
244.699	70.06
244.932	83.06
245.166	72.06
245.399	78.06
245.633	54.06
245.866	75.06
246.099	77.06
246.333	83.06
246.566	68.06
246.8	97.06
247.033	79.06
247.266	95.06
247.5	77.06
247.733	89.06
247.966	94.06
248.2	83.06
248.433	68.06
248.666	78.06
248.899	82.06
249.133	87.06
249.366	81.06
249.599	86.06
249.832	79.06
250.066	85.06
250.299	72.06
250.532	89.06
250.765	70.06
250.998	87.06
251.231	75.06
251.465	70.06
251.698	87.06
251.931	79.06
252.164	76.06
252.397	93.06
252.63	76.06
252.863	81.06
253.096	83.06
253.329	92.06
253.562	77.06
253.795	82.06
254.028	79.06
254.261	66.06
254.494	74.06
254.727	80.06
254.96	98.06
255.193	86.06
255.426	86.06
255.659	87.06
255.892	82.06
256.124	75.06
256.357	93.06
256.59	82.06
256.823	75.06
257.056	76.06
257.289	71.06
257.521	95.06
257.754	73.06
257.987	69.06
258.22	70.06
258.452	90.06
258.685	72.06
258.918	85.06
259.151	97.06
259.383	86.06
259.616	83.06
259.849	75.06
260.081	89.06
260.314	88.06
260.547	74.06
260.779	91.06
261.012	81.06
261.244	81.06
261.477	71.06
261.71	82.06
261.942	78.06
262.175	87.06
262.407	89.06
262.64	94.06
262.872	83.06
263.105	69.06
263.337	72.06
263.57	81.06
263.802	75.06
264.035	83.06
264.267	91.06
264.499	89.06
264.732	81.06
264.964	82.06
265.197	79.06
265.429	93.06
265.661	85.06
265.894	95.06
266.126	98.06
266.358	94.06
266.591	81.06
266.823	77.06
267.055	80.06
267.287	83.06
267.52	101.06
267.752	83.06
267.984	71.06
268.216	93.06
268.448	91.06
268.681	91.06
268.913	86.06
269.145	77.06
269.377	90.06
269.609	79.06
269.841	80.06
270.073	87.06
270.306	95.06
270.538	92.06
270.77	78.06
271.002	86.06
271.234	83.06
271.466	98.06
271.698	83.06
271.93	77.06
272.162	85.06
272.394	77.06
272.626	83.06
272.858	85.06
273.09	89.06
273.322	84.06
273.553	77.06
273.785	78.06
274.017	80.06
274.249	92.06
274.481	86.06
274.713	82.06
274.945	98.06
275.176	82.06
275.408	92.06
275.64	78.06
275.872	80.06
276.104	82.06
276.335	77.06
276.567	78.06
276.799	88.06
277.031	81.06
277.262	77.06
277.494	80.06
277.726	86.06
277.957	85.06
278.189	84.06
278.421	95.06
278.652	81.06
278.884	90.06
279.115	81.06
279.347	92.06
279.579	88.06
279.81	90.06
280.042	101.06
280.273	78.06
280.505	94.06
280.736	90.06
280.968	95.06
281.199	91.06
281.431	82.06
281.662	73.06
281.894	77.06
282.125	82.06
282.356	69.06
282.588	81.06
282.819	92.06
283.051	92.06
283.282	92.06
283.513	88.06
283.745	95.06
283.976	78.06
284.207	89.06
284.439	85.06
284.67	83.06
284.901	93.06
285.132	92.06
285.364	91.06
285.595	82.06
285.826	61.06
286.057	93.06
286.288	93.06
286.52	80.06
286.751	84.06
286.982	71.06
287.213	85.06
287.444	87.06
287.675	97.06
287.906	98.06
288.138	87.06
288.369	77.06
288.6	92.06
288.831	89.06
289.062	84.06
289.293	81.06
289.524	97.06
289.755	96.06
289.986	87.06
290.217	89.06
290.448	82.06
290.679	88.06
290.91	94.06
291.141	84.06
291.371	77.06
291.602	92.06
291.833	102.06
292.064	93.06
292.295	95.06
292.526	84.06
292.757	93.06
292.987	88.06
293.218	74.06
293.449	92.06
293.68	85.06
293.91	89.06
294.141	88.06
294.372	75.06
294.603	97.06
294.833	87.06
295.064	76.06
295.295	83.06
295.525	79.06
295.756	83.06
295.987	84.06
296.217	87.06
296.448	85.06
296.679	83.06
296.909	81.06
297.14	91.06
297.37	91.06
297.601	66.06
297.831	70.06
298.062	91.06
298.292	89.06
298.523	87.06
298.753	95.06
298.984	104.06
299.214	87.06
299.445	97.06
299.675	83.06
299.905	81.06
300.136	93.06
300.366	84.06
300.597	92.06
300.827	83.06
301.057	84.06
301.288	82.06
301.518	96.06
301.748	87.06
301.979	89.06
302.209	80.06
302.439	88.06
302.669	92.06
302.9	84.06
303.13	82.06
303.36	80.06
303.59	79.06
303.82	90.06
304.051	75.06
304.281	82.06
304.511	87.06
304.741	89.06
304.971	90.06
305.201	93.06
305.431	68.06
305.661	78.06
305.891	87.06
306.121	93.06
306.352	80.06
306.582	85.06
306.812	86.06
307.042	91.06
307.272	90.06
307.502	86.06
307.731	84.06
307.961	80.06
308.191	78.06
308.421	98.06
308.651	89.06
308.881	92.06
309.111	79.06
309.341	75.06
309.571	76.06
309.8	79.06
310.03	72.06
310.26	91.06
310.49	87.06
310.72	85.06
310.949	82.06
311.179	90.06
311.409	94.06
311.639	80.06
311.868	75.06
312.098	89.06
312.328	105.06
312.557	89.06
312.787	85.06
313.017	88.06
313.246	87.06
313.476	86.06
313.706	82.06
313.935	81.06
314.165	76.06
314.394	83.06
314.624	92.06
314.853	79.06
315.083	89.06
315.312	92.06
315.542	88.06
315.771	99.06
316.001	89.06
316.23	88.06
316.46	87.06
316.689	82.06
316.919	82.06
317.148	76.06
317.377	89.06
317.607	92.06
317.836	93.06
318.065	86.06
318.295	82.06
318.524	76.06
318.753	88.06
318.983	92.06
319.212	78.06
319.441	73.06
319.67	80.06
319.9	86.06
320.129	92.06
320.358	75.06
320.587	79.06
320.816	97.06
321.046	92.06
321.275	85.06
321.504	102.06
321.733	82.06
321.962	82.06
322.191	91.06
322.42	95.06
322.649	82.06
322.878	93.06
323.108	79.06
323.337	91.06
323.566	78.06
323.795	90.06
324.024	74.06
324.253	85.06
324.482	89.06
324.71	79.06
324.939	89.06
325.168	89.06
325.397	88.06
325.626	83.06
325.855	90.06
326.084	84.06
326.313	73.06
326.542	83.06
326.77	90.06
326.999	86.06
327.228	91.06
327.457	86.06
327.686	90.06
327.914	86.06
328.143	103.06
328.372	81.06
328.6	99.06
328.829	79.06
329.058	84.06
329.287	77.06
329.515	85.06
329.744	86.06
329.972	72.06
330.201	84.06
330.43	90.06
330.658	81.06
330.887	88.06
331.115	95.06
331.344	98.06
331.572	77.06
331.801	86.06
332.03	86.06
332.258	96.06
332.486	99.06
332.715	85.06
332.943	80.06
333.172	85.06
333.4	83.06
333.629	82.06
333.857	68.06
334.085	79.06
334.314	83.06
334.542	84.06
334.771	92.06
334.999	73.06
335.227	87.06
335.455	96.06
335.684	94.06
335.912	82.06
336.14	83.06
336.369	83.06
336.597	85.06
336.825	76.06
337.053	89.06
337.281	83.06
337.51	93.06
337.738	90.06
337.966	75.06
338.194	83.06
338.422	83.06
338.65	91.06
338.878	84.06
339.106	99.06
339.334	90.06
339.562	91.06
339.79	91.06
340.018	105.06
340.246	98.06
340.474	89.06
340.702	82.06
340.93	79.06
341.158	78.06
341.386	81.06
341.614	89.06
341.842	90.06
342.07	89.06
342.298	81.06
342.526	76.06
342.754	85.06
342.981	96.06
343.209	93.06
343.437	89.06
343.665	88.06
343.893	92.06
344.12	98.06
344.348	91.06
344.576	105.06
344.804	92.06
345.031	72.06
345.259	89.06
345.487	77.06
345.714	85.06
345.942	71.06
346.17	96.06
346.397	79.06
346.625	81.06
346.853	85.06
347.08	89.06
347.308	85.06
347.535	92.06
347.763	90.06
347.99	113.06
348.218	93.06
348.445	98.06
348.673	91.06
348.9	80.06
349.128	84.06
349.355	90.06
349.583	82.06
349.81	75.06
350.037	89.06
350.265	80.06
350.492	80.06
350.72	87.06
350.947	88.06
351.174	81.06
351.402	83.06
351.629	87.06
351.856	90.06
352.083	73.06
352.311	91.06
352.538	101.06
352.765	88.06
352.992	87.06
353.22	93.06
353.447	81.06
353.674	89.06
353.901	80.06
354.128	81.06
354.355	71.06
354.583	77.06
354.81	87.06
355.037	86.06
355.264	96.06
355.491	81.06
355.718	82.06
355.945	70.06
356.172	85.06
356.399	77.06
356.626	84.06
356.853	85.06
357.08	93.06
357.307	90.06
357.534	75.06
357.761	90.06
357.988	98.06
358.215	82.06
358.441	85.06
358.668	87.06
358.895	93.06
359.122	92.06
359.349	99.06
359.576	86.06
359.802	89.06
360.029	90.06
360.256	86.06
360.483	84.06
360.709	86.06
360.936	91.06
361.163	82.06
361.39	95.06
361.616	81.06
361.843	80.06
362.07	97.06
362.296	91.06
362.523	80.06
362.749	77.06
362.976	93.06
363.203	92.06
363.429	77.06
363.656	94.06
363.882	85.06
364.109	89.06
364.335	91.06
364.562	89.06
364.788	85.06
365.015	85.06
365.241	89.06
365.468	93.06
365.694	69.06
365.92	94.06
366.147	81.06
366.373	69.06
366.599	95.06
366.826	93.06
367.052	90.06
367.278	86.06
367.505	82.06
367.731	94.06
367.957	89.06
368.184	81.06
368.41	103.06
368.636	87.06
368.862	103.06
369.089	89.06
369.315	94.06
369.541	82.06
369.767	83.06
369.993	81.06
370.219	84.06
370.445	92.06
370.672	90.06
370.898	89.06
371.124	106.06
371.35	86.06
371.576	83.06
371.802	79.06
372.028	87.06
372.254	90.06
372.48	88.06
372.706	92.06
372.932	92.06
373.158	99.06
373.384	107.06
373.61	92.06
373.835	99.06
374.061	106.06
374.287	91.06
374.513	107.06
374.739	90.06
374.965	95.06
375.191	87.06
375.416	104.06
375.642	105.06
375.868	97.06
376.094	95.06
376.319	94.06
376.545	101.06
376.771	89.06
376.997	84.06
377.222	96.06
377.448	98.06
377.674	83.06
377.899	90.06
378.125	94.06
378.35	107.06
378.576	87.06
378.802	88.06
379.027	90.06
379.253	99.06
379.478	93.06
379.704	97.06
379.929	105.06
380.155	98.06
380.38	88.06
380.606	90.06
380.831	103.06
381.057	88.06
381.282	104.06
381.507	101.06
381.733	109.06
381.958	106.06
382.184	98.06
382.409	105.06
382.634	109.06
382.86	107.06
383.085	81.06
383.31	103.06
383.535	85.06
383.761	102.06
383.986	102.06
384.211	99.06
384.436	95.06
384.662	95.06
384.887	95.06
385.112	102.06
385.337	88.06
385.562	103.06
385.787	99.06
386.013	114.06
386.238	104.06
386.463	94.06
386.688	95.06
386.913	106.06
387.138	88.06
387.363	105.06
387.588	99.06
387.813	94.06
388.038	113.06
388.263	108.06
388.488	97.06
388.713	97.06
388.938	92.06
389.163	88.06
389.387	100.06
389.612	110.06
389.837	98.06
390.062	110.06
390.287	100.06
390.512	102.06
390.736	115.06
390.961	105.06
391.186	111.06
391.411	100.06
391.636	93.06
391.86	99.06
392.085	115.06
392.31	106.06
392.534	113.06
392.759	98.06
392.984	91.06
393.208	96.06
393.433	103.06
393.658	110.06
393.882	109.06
394.107	81.06
394.331	110.06
394.556	108.06
394.78	127.06
395.005	112.06
395.229	105.06
395.454	120.06
395.678	114.06
395.903	117.06
396.127	113.06
396.352	111.06
396.576	117.06
396.801	113.06
397.025	100.06
397.249	96.06
397.474	122.06
397.698	117.06
397.922	110.06
398.147	108.06
398.371	116.06
398.595	95.06
398.82	113.06
399.044	118.06
399.268	101.06
399.492	121.06
399.717	119.06
399.941	118.06
400.165	119.06
400.389	118.06
400.613	114.06
400.837	95.06
401.062	121.06
401.286	133.06
401.51	130.06
401.734	117.06
401.958	115.06
402.182	118.06
402.406	117.06
402.63	106.06
402.854	131.06
403.078	114.06
403.302	113.06
403.526	123.06
403.75	127.06
403.974	125.06
404.198	119.06
404.422	110.06
404.645	107.06
404.869	121.06
405.093	124.06
405.317	142.06
405.541	117.06
405.765	102.06
405.988	121.06
406.212	124.06
406.436	119.06
406.66	109.06
406.883	108.06
407.107	121.06
407.331	113.06
407.555	135.06
407.778	123.06
408.002	133.06
408.226	114.06
408.449	122.06
408.673	119.06
408.896	135.06
409.12	124.06
409.344	119.06
409.567	115.06
409.791	125.06
410.014	120.06
410.238	126.06
410.461	125.06
410.685	120.06
410.908	125.06
411.132	125.06
411.355	114.06
411.578	131.06
411.802	119.06
412.025	103.06
412.249	136.06
412.472	126.06
412.695	123.06
412.919	113.06
413.142	125.06
413.365	135.06
413.589	127.06
413.812	122.06
414.035	126.06
414.258	122.06
414.482	102.06
414.705	121.06
414.928	121.06
415.151	125.06
415.374	133.06
415.597	123.06
415.821	131.06
416.044	115.06
416.267	127.06
416.49	136.06
416.713	135.06
416.936	131.06
417.159	115.06
417.382	129.06
417.605	138.06
417.828	108.06
418.051	107.06
418.274	136.06
418.497	121.06
418.72	134.06
418.943	129.06
419.166	145.06
419.389	132.06
419.611	133.06
419.834	138.06
420.057	137.06
420.28	136.06
420.503	139.06
420.726	141.06
420.948	127.06
421.171	125.06
421.394	137.06
421.617	157.06
421.839	149.06
422.062	158.06
422.285	141.06
422.507	147.06
422.73	123.06
422.953	124.06
423.175	141.06
423.398	136.06
423.621	125.06
423.843	154.06
424.066	140.06
424.288	148.06
424.511	149.06
424.733	142.06
424.956	157.06
425.178	161.06
425.401	139.06
425.623	135.06
425.846	135.06
426.068	122.06
426.291	137.06
426.513	145.06
426.735	145.06
426.958	132.06
427.18	141.06
427.402	125.06
427.625	149.06
427.847	128.06
428.069	126.06
428.292	138.06
428.514	130.06
428.736	114.06
428.958	133.06
429.181	131.06
429.403	126.06
429.625	147.06
429.847	125.06
430.069	142.06
430.292	147.06
430.514	117.06
430.736	137.06
430.958	128.06
431.18	136.06
431.402	133.06
431.624	126.06
431.846	117.06
432.068	110.06
432.29	101.06
432.512	103.06
432.734	131.06
432.956	144.06
433.178	139.06
433.4	135.06
433.622	128.06
433.844	143.06
434.066	138.06
434.287	115.06
434.509	110.06
434.731	110.06
434.953	123.06
435.175	129.06
435.397	129.06
435.618	121.06
435.84	110.06
436.062	118.06
436.284	113.06
436.505	113.06
436.727	123.06
436.949	149.06
437.17	132.06
437.392	133.06
437.614	125.06
437.835	130.06
438.057	106.06
438.278	110.06
438.5	126.06
438.721	127.06
438.943	140.06
439.165	131.06
439.386	145.06
439.608	154.06
439.829	147.06
440.05	147.06
440.272	140.06
440.493	139.06
440.715	155.06
440.936	157.06
441.158	135.06
441.379	146.06
441.6	149.06
441.822	160.06
442.043	133.06
442.264	145.06
442.486	141.06
442.707	131.06
442.928	143.06
443.149	138.06
443.371	142.06
443.592	134.06
443.813	130.06
444.034	125.06
444.255	147.06
444.476	139.06
444.698	154.06
444.919	149.06
445.14	222.06
445.361	188.06
445.582	140.06
445.803	148.06
446.024	159.06
446.245	161.06
446.466	157.06
446.687	161.06
446.908	139.06
447.129	161.06
447.35	151.06
447.571	159.06
447.792	143.06
448.013	141.06
448.234	132.06
448.455	142.06
448.675	151.06
448.896	143.06
449.117	128.06
449.338	124.06
449.559	147.06
449.779	141.06
450	148.06
450.221	135.06
450.442	144.06
450.662	136.06
450.883	136.06
451.104	124.06
451.324	142.06
451.545	143.06
451.766	119.06
451.986	124.06
452.207	109.06
452.428	132.06
452.648	127.06
452.869	119.06
453.089	123.06
453.31	123.06
453.53	113.06
453.751	108.06
453.971	90.06
454.192	113.06
454.412	102.06
454.633	116.06
454.853	125.06
455.073	143.06
455.294	121.06
455.514	131.06
455.734	110.06
455.955	118.06
456.175	127.06
456.395	110.06
456.616	118.06
456.836	104.06
457.056	109.06
457.276	119.06
457.497	118.06
457.717	107.06
457.937	113.06
458.157	121.06
458.377	110.06
458.598	118.06
458.818	117.06
459.038	88.06
459.258	78.06
459.478	80.06
459.698	101.06
459.918	90.06
460.138	96.06
460.358	115.06
460.578	119.06
460.798	117.06
461.018	115.06
461.238	119.06
461.458	121.06
461.678	118.06
461.898	117.06
462.118	115.06
462.338	109.06
462.558	122.06
462.777	119.06
462.997	123.06
463.217	104.06
463.437	117.06
463.657	106.06
463.876	106.06
464.096	114.06
464.316	111.06
464.536	102.06
464.755	110.06
464.975	125.06
465.195	119.06
465.414	113.06
465.634	114.06
465.854	113.06
466.073	130.06
466.293	121.06
466.512	135.06
466.732	137.06
466.951	143.06
467.171	125.06
467.391	122.06
467.61	134.06
467.829	135.06
468.049	146.06
468.268	141.06
468.488	139.06
468.707	142.06
468.927	130.06
469.146	157.06
469.365	145.06
469.585	139.06
469.804	152.06
470.023	145.06
470.243	137.06
470.462	168.06
470.681	161.06
470.901	138.06
471.12	127.06
471.339	136.06
471.558	150.06
471.777	137.06
471.997	135.06
472.216	137.06
472.435	116.06
472.654	142.06
472.873	109.06
473.092	113.06
473.311	113.06
473.53	121.06
473.749	119.06
473.968	145.06
474.187	133.06
474.406	109.06
474.625	132.06
474.844	133.06
475.063	127.06
475.282	125.06
475.501	117.06
475.72	121.06
475.939	116.06
476.158	135.06
476.377	138.06
476.596	134.06
476.814	109.06
477.033	120.06
477.252	121.06
477.471	123.06
477.69	134.06
477.908	126.06
478.127	140.06
478.346	136.06
478.564	134.06
478.783	133.06
479.002	139.06
479.22	147.06
479.439	124.06
479.658	130.06
479.876	109.06
480.095	101.06
480.313	120.06
480.532	130.06
480.751	116.06
480.969	97.06
481.188	108.06
481.406	105.06
481.624	79.06
481.843	67.06
482.061	98.06
482.28	124.06
482.498	125.06
482.717	118.06
482.935	118.06
483.153	130.06
483.372	153.06
483.59	147.06
483.808	144.06
484.027	120.06
484.245	141.06
484.463	134.06
484.681	156.06
484.9	154.06
485.118	157.06
485.336	137.06
485.554	109.06
485.772	104.06
485.99	94.06
486.209	118.06
486.427	122.06
486.645	129.06
486.863	138.06
487.081	129.06
487.299	147.06
487.517	134.06
487.735	158.06
487.953	183.06
488.171	179.06
488.389	164.06
488.607	169.06
488.825	145.06
489.043	154.06
489.261	139.06
489.479	138.06
489.696	141.06
489.914	148.06
490.132	143.06
490.35	164.06
490.568	166.06
490.786	171.06
491.003	181.06
491.221	173.06
491.439	170.06
491.657	185.06
491.874	195.06
492.092	230.06
492.31	234.06
492.527	221.06
492.745	215.06
492.963	206.06
493.18	174.06
493.398	196.06
493.615	171.06
493.833	189.06
494.05	172.06
494.268	177.06
494.485	181.06
494.703	172.06
494.92	171.06
495.138	166.06
495.355	170.06
495.573	177.06
495.79	161.06
496.008	164.06
496.225	154.06
496.442	162.06
496.66	172.06
496.877	158.06
497.094	166.06
497.312	155.06
497.529	160.06
497.746	150.06
497.963	158.06
498.181	134.06
498.398	125.06
498.615	125.06
498.832	116.06
499.049	131.06
499.267	135.06
499.484	126.06
499.701	135.06
499.918	144.06
500.135	128.06
500.352	125.06
500.569	139.06
500.786	158.06
501.003	135.06
501.22	152.06
501.437	139.06
501.654	130.06
501.871	128.06
502.088	139.06
502.305	131.06
502.522	130.06
502.739	135.06
502.956	142.06
503.172	126.06
503.389	122.06
503.606	120.06
503.823	135.06
504.04	121.06
504.256	126.06
504.473	124.06
504.69	126.06
504.907	132.06
505.123	127.06
505.34	129.06
505.557	142.06
505.773	116.06
505.99	123.06
506.207	131.06
506.423	124.06
506.64	126.06
506.856	118.06
507.073	115.06
507.289	113.06
507.506	99.06
507.722	109.06
507.939	115.06
508.155	107.06
508.372	117.06
508.588	117.06
508.805	109.06
509.021	113.06
509.238	108.06
509.454	97.06
509.67	108.06
509.887	102.06
510.103	97.06
510.319	105.06
510.536	95.06
510.752	90.06
510.968	88.06
511.184	80.06
511.401	87.06
511.617	84.06
511.833	81.06
512.049	92.06
512.265	97.06
512.481	97.06
512.698	102.06
512.914	108.06
513.13	78.06
513.346	82.06
513.562	94.06
513.778	93.06
513.994	91.06
514.21	80.06
514.426	105.06
514.642	85.06
514.858	84.06
515.074	108.06
515.29	95.06
515.506	85.06
515.721	107.06
515.937	86.06
516.153	82.06
516.369	76.06
516.585	85.06
516.801	87.06
517.016	77.06
517.232	105.06
517.448	96.06
517.664	104.06
517.879	94.06
518.095	101.06
518.311	96.06
518.527	90.06
518.742	101.06
518.958	106.06
519.173	104.06
519.389	118.06
519.605	108.06
519.82	97.06
520.036	112.06
520.251	117.06
520.467	102.06
520.682	76.06
520.898	95.06
521.113	89.06
521.329	87.06
521.544	83.06
521.76	89.06
521.975	85.06
522.19	102.06
522.406	99.06
522.621	90.06
522.836	93.06
523.052	105.06
523.267	98.06
523.482	111.06
523.698	105.06
523.913	110.06
524.128	115.06
524.343	115.06
524.559	125.06
524.774	125.06
524.989	128.06
525.204	125.06
525.419	126.06
525.634	111.06
525.849	108.06
526.064	121.06
526.28	122.06
526.495	89.06
526.71	88.06
526.925	90.06
527.14	81.06
527.355	82.06
527.57	81.06
527.785	92.06
527.999	91.06
528.214	101.06
528.429	116.06
528.644	133.06
528.859	133.06
529.074	142.06
529.289	147.06
529.503	148.06
529.718	128.06
529.933	118.06
530.148	114.06
530.363	101.06
530.577	81.06
530.792	105.06
531.007	91.06
531.221	96.06
531.436	100.06
531.651	105.06
531.865	88.06
532.08	99.06
532.295	85.06
532.509	90.06
532.724	89.06
532.938	85.06
533.153	103.06
533.367	120.06
533.582	110.06
533.796	121.06
534.011	109.06
534.225	94.06
534.44	98.06
534.654	99.06
534.868	100.06
535.083	89.06
535.297	104.06
535.511	99.06
535.726	86.06
535.94	104.06
536.154	91.06
536.369	89.06
536.583	83.06
536.797	97.06
537.011	93.06
537.225	95.06
537.44	94.06
537.654	91.06
537.868	89.06
538.082	109.06
538.296	95.06
538.51	106.06
538.724	118.06
538.938	121.06
539.153	123.06
539.367	106.06
539.581	105.06
539.795	115.06
540.009	114.06
540.222	97.06
540.436	106.06
540.65	121.06
540.864	122.06
541.078	135.06
541.292	149.06
541.506	149.06
541.72	181.06
541.934	201.06
542.147	196.06
542.361	187.06
542.575	164.06
542.789	139.06
543.002	137.06
543.216	135.06
543.43	127.06
543.644	116.06
543.857	135.06
544.071	149.06
544.285	178.06
544.498	160.06
544.712	169.06
544.925	168.06
545.139	150.06
545.352	151.06
545.566	161.06
545.779	159.06
545.993	162.06
546.206	165.06
546.42	164.06
546.633	165.06
546.847	173.06
547.06	172.06
547.274	169.06
547.487	163.06
547.7	186.06
547.914	158.06
548.127	159.06
548.34	155.06
548.554	153.06
548.767	156.06
548.98	167.06
549.193	146.06
549.407	149.06
549.62	162.06
549.833	146.06
550.046	152.06
550.259	143.06
550.473	152.06
550.686	161.06
550.899	161.06
551.112	157.06
551.325	144.06
551.538	165.06
551.751	131.06
551.964	123.06
552.177	116.06
552.39	133.06
552.603	153.06
552.816	147.06
553.029	161.06
553.242	153.06
553.455	169.06
553.667	159.06
553.88	169.06
554.093	151.06
554.306	154.06
554.519	147.06
554.732	152.06
554.944	150.06
555.157	139.06
555.37	141.06
555.583	143.06
555.795	142.06
556.008	139.06
556.221	133.06
556.433	140.06
556.646	140.06
556.859	133.06
557.071	153.06
557.284	154.06
557.496	151.06
557.709	131.06
557.921	155.06
558.134	140.06
558.346	135.06
558.559	133.06
558.771	127.06
558.984	127.06
559.196	147.06
559.409	142.06
559.621	127.06
559.833	122.06
560.046	127.06
560.258	132.06
560.47	147.06
560.683	149.06
560.895	139.06
561.107	125.06
561.32	149.06
561.532	143.06
561.744	123.06
561.956	138.06
562.168	141.06
562.381	134.06
562.593	124.06
562.805	125.06
563.017	123.06
563.229	126.06
563.441	125.06
563.653	105.06
563.865	110.06
564.077	133.06
564.289	130.06
564.501	131.06
564.713	117.06
564.925	108.06
565.137	119.06
565.349	121.06
565.561	109.06
565.773	111.06
565.985	123.06
566.197	118.06
566.408	119.06
566.62	129.06
566.832	111.06
567.044	103.06
567.255	116.06
567.467	125.06
567.679	117.06
567.891	116.06
568.102	114.06
568.314	96.06
568.526	87.06
568.737	87.06
568.949	91.06
569.161	94.06
569.372	84.06
569.584	96.06
569.795	73.06
570.007	78.06
570.218	93.06
570.43	99.06
570.641	97.06
570.853	106.06
571.064	115.06
571.276	101.06
571.487	107.06
571.698	107.06
571.91	106.06
572.121	103.06
572.333	106.06
572.544	118.06
572.755	92.06
572.966	91.06
573.178	91.06
573.389	83.06
573.6	103.06
573.811	83.06
574.023	92.06
574.234	89.06
574.445	93.06
574.656	90.06
574.867	83.06
575.078	98.06
575.289	82.06
575.501	92.06
575.712	101.06
575.923	89.06
576.134	88.06
576.345	104.06
576.556	100.06
576.767	116.06
576.978	100.06
577.188	94.06
577.399	100.06
577.61	98.06
577.821	97.06
578.032	94.06
578.243	80.06
578.454	96.06
578.665	90.06
578.875	95.06
579.086	94.06
579.297	93.06
579.508	86.06
579.718	89.06
579.929	90.06
580.14	83.06
580.35	97.06
580.561	87.06
580.772	82.06
580.982	95.06
581.193	93.06
581.403	109.06
581.614	92.06
581.825	94.06
582.035	105.06
582.246	82.06
582.456	90.06
582.667	104.06
582.877	80.06
583.087	84.06
583.298	86.06
583.508	84.06
583.719	92.06
583.929	95.06
584.139	81.06
584.35	94.06
584.56	107.06
584.77	104.06
584.981	99.06
585.191	89.06
585.401	88.06
585.611	83.06
585.821	98.06
586.032	88.06
586.242	100.06
586.452	87.06
586.662	90.06
586.872	102.06
587.082	96.06
587.292	92.06
587.502	96.06
587.713	90.06
587.923	99.06
588.133	80.06
588.343	83.06
588.553	85.06
588.762	93.06
588.972	76.06
589.182	81.06
589.392	99.06
589.602	87.06
589.812	79.06
590.022	86.06
590.232	84.06
590.441	81.06
590.651	84.06
590.861	84.06
591.071	79.06
591.281	91.06
591.49	89.06
591.7	87.06
591.91	91.06
592.119	85.06
592.329	81.06
592.539	72.06
592.748	88.06
592.958	96.06
593.167	70.06
593.377	87.06
593.587	82.06
593.796	81.06
594.006	76.06
594.215	73.06
594.424	77.06
594.634	97.06
594.843	94.06
595.053	96.06
595.262	87.06
595.472	87.06
595.681	83.06
595.89	96.06
596.1	86.06
596.309	94.06
596.518	89.06
596.727	79.06
596.937	97.06
597.146	114.06
597.355	98.06
597.564	104.06
597.774	98.06
597.983	80.06
598.192	71.06
598.401	79.06
598.61	76.06
598.819	97.06
599.028	108.06
599.237	92.06
599.446	100.06
599.655	111.06
599.864	104.06
600.073	101.06
600.282	100.06
600.491	108.06
600.7	93.06
600.909	89.06
601.118	97.06
601.327	106.06
601.536	118.06
601.745	110.06
601.953	121.06
602.162	101.06
602.371	100.06
602.58	100.06
602.789	114.06
602.997	105.06
603.206	125.06
603.415	113.06
603.623	99.06
603.832	100.06
604.041	110.06
604.249	111.06
604.458	100.06
604.666	109.06
604.875	113.06
605.084	100.06
605.292	108.06
605.501	110.06
605.709	116.06
605.918	111.06
606.126	117.06
606.334	112.06
606.543	106.06
606.751	115.06
606.96	121.06
607.168	115.06
607.376	115.06
607.585	115.06
607.793	133.06
608.001	119.06
608.21	104.06
608.418	119.06
608.626	123.06
608.834	121.06
609.043	129.06
609.251	109.06
609.459	115.06
609.667	113.06
609.875	127.06
610.083	121.06
610.291	99.06
610.499	92.06
610.707	126.06
610.916	118.06
611.124	129.06
611.332	98.06
611.54	117.06
611.748	118.06
611.955	122.06
612.163	127.06
612.371	117.06
612.579	110.06
612.787	108.06
612.995	104.06
613.203	118.06
613.411	110.06
613.618	109.06
613.826	108.06
614.034	107.06
614.242	117.06
614.449	109.06
614.657	108.06
614.865	106.06
615.072	125.06
615.28	111.06
615.488	110.06
615.695	125.06
615.903	117.06
616.111	110.06
616.318	121.06
616.526	104.06
616.733	117.06
616.941	107.06
617.148	113.06
617.356	124.06
617.563	114.06
617.771	103.06
617.978	113.06
618.185	98.06
618.393	114.06
618.6	107.06
618.807	121.06
619.015	104.06
619.222	110.06
619.429	106.06
619.637	103.06
619.844	101.06
620.051	106.06
620.258	98.06
620.466	109.06
620.673	115.06
620.88	110.06
621.087	116.06
621.294	108.06
621.501	119.06
621.708	111.06
621.915	107.06
622.122	103.06
622.329	110.06
622.536	109.06
622.743	117.06
622.95	120.06
623.157	114.06
623.364	117.06
623.571	108.06
623.778	114.06
623.985	105.06
624.192	109.06
624.399	114.06
624.606	119.06
624.812	109.06
625.019	113.06
625.226	91.06
625.433	121.06
625.639	95.06
625.846	111.06
626.053	93.06
626.259	95.06
626.466	97.06
626.673	99.06
626.879	104.06
627.086	99.06
627.293	102.06
627.499	101.06
627.706	114.06
627.912	124.06
628.119	104.06
628.325	110.06
628.532	96.06
628.738	101.06
628.945	113.06
629.151	123.06
629.357	111.06
629.564	105.06
629.77	117.06
629.976	101.06
630.183	95.06
630.389	103.06
630.595	92.06
630.802	114.06
631.008	113.06
631.214	101.06
631.42	103.06
631.627	97.06
631.833	104.06
632.039	99.06
632.245	104.06
632.451	110.06
632.657	125.06
632.863	113.06
633.069	98.06
633.275	99.06
633.481	102.06
633.688	108.06
633.893	88.06
634.099	86.06
634.305	98.06
634.511	96.06
634.717	98.06
634.923	94.06
635.129	97.06
635.335	98.06
635.541	100.06
635.747	101.06
635.952	110.06
636.158	102.06
636.364	101.06
636.57	96.06
636.775	118.06
636.981	98.06
637.187	99.06
637.392	97.06
637.598	117.06
637.804	110.06
638.009	95.06
638.215	97.06
638.421	104.06
638.626	107.06
638.832	110.06
639.037	105.06
639.243	103.06
639.448	106.06
639.654	107.06
639.859	97.06
640.065	97.06
640.27	103.06
640.475	116.06
640.681	101.06
640.886	100.06
641.091	94.06
641.297	91.06
641.502	92.06
641.707	107.06
641.913	105.06
642.118	99.06
642.323	106.06
642.528	103.06
642.733	109.06
642.939	110.06
643.144	108.06
643.349	102.06
643.554	116.06
643.759	94.06
643.964	108.06
644.169	96.06
644.374	108.06
644.579	105.06
644.784	103.06
644.989	94.06
645.194	95.06
645.399	99.06
645.604	122.06
645.809	93.06
646.014	111.06
646.219	101.06
646.423	110.06
646.628	97.06
646.833	106.06
647.038	103.06
647.243	110.06
647.447	98.06
647.652	106.06
647.857	103.06
648.062	103.06
648.266	88.06
648.471	104.06
648.676	95.06
648.88	98.06
649.085	96.06
649.289	93.06
649.494	100.06
649.698	92.06
649.903	112.06
650.107	99.06
650.312	101.06
650.516	107.06
650.721	106.06
650.925	104.06
651.13	98.06
651.334	101.06
651.539	101.06
651.743	108.06
651.947	101.06
652.152	79.06
652.356	106.06
652.56	95.06
652.764	90.06
652.969	99.06
653.173	90.06
653.377	91.06
653.581	105.06
653.785	106.06
653.99	105.06
654.194	100.06
654.398	79.06
654.602	102.06
654.806	98.06
655.01	82.06
655.214	98.06
655.418	94.06
655.622	95.06
655.826	84.06
656.03	91.06
656.234	106.06
656.438	99.06
656.642	96.06
656.846	91.06
657.049	103.06
657.253	101.06
657.457	82.06
657.661	86.06
657.865	89.06
658.068	97.06
658.272	86.06
658.476	94.06
658.68	104.06
658.883	105.06
659.087	75.06
659.291	91.06
659.494	84.06
659.698	100.06
659.901	85.06
660.105	100.06
660.309	85.06
660.512	79.06
660.716	100.06
660.919	88.06
661.123	80.06
661.326	76.06
661.53	88.06
661.733	81.06
661.936	86.06
662.14	109.06
662.343	90.06
662.546	90.06
662.75	81.06
662.953	94.06
663.156	85.06
663.36	86.06
663.563	81.06
663.766	81.06
663.969	93.06
664.173	87.06
664.376	86.06
664.579	95.06
664.782	81.06
664.985	99.06
665.188	80.06
665.391	76.06
665.594	83.06
665.797	90.06
666	89.06
666.203	96.06
666.406	93.06
666.609	82.06
666.812	77.06
667.015	100.06
667.218	75.06
667.421	96.06
667.624	96.06
667.827	101.06
668.03	78.06
668.232	89.06
668.435	81.06
668.638	95.06
668.841	89.06
669.043	88.06
669.246	92.06
669.449	90.06
669.651	89.06
669.854	79.06
670.057	94.06
670.259	85.06
670.462	87.06
670.665	89.06
670.867	90.06
671.07	87.06
671.272	84.06
671.475	90.06
671.677	82.06
671.88	93.06
672.082	86.06
672.284	88.06
672.487	94.06
672.689	92.06
672.892	79.06
