Data from Location2.07152019.Energy5.Lamp.07192019.3%Agarose_HRD10591_14-57-03-358.txt Node
Date: Fri Jul 19 14:57:03 EDT 2019
User: cochatt
Spectrometer: HR+D1059
Trigger mode: 1
Integration Time (sec): 1.000000E-1
Scans to average: 1
Electric dark correction enabled: true
Nonlinearity correction enabled: false
Boxcar width: 0
XAxis mode: Wavelengths
Number of Pixels in Spectrum: 2048
>>>>>Begin Spectral Data<<<<<
223.165	-2.94
223.4	-2.94
223.635	-2.94
223.869	-25.94
224.104	-22.94
224.338	-13.94
224.573	-21.94
224.808	-6.94
225.042	-10.94
225.277	-8.94
225.511	1.06
225.746	-2.94
225.98	2.06
226.215	3.06
226.449	33.06
226.683	12.06
226.918	31.06
227.152	35.06
227.387	40.06
227.621	33.06
227.856	52.06
228.09	49.06
228.324	54.06
228.559	50.06
228.793	55.06
229.027	55.06
229.262	68.06
229.496	62.06
229.73	73.06
229.964	62.06
230.199	75.06
230.433	78.06
230.667	79.06
230.901	78.06
231.136	89.06
231.37	90.06
231.604	79.06
231.838	74.06
232.072	78.06
232.306	88.06
232.541	83.06
232.775	86.06
233.009	94.06
233.243	77.06
233.477	82.06
233.711	85.06
233.945	83.06
234.179	73.06
234.413	68.06
234.647	73.06
234.881	101.06
235.115	86.06
235.349	83.06
235.583	75.06
235.817	79.06
236.051	78.06
236.285	74.06
236.519	87.06
236.753	77.06
236.987	88.06
237.221	63.06
237.455	79.06
237.689	66.06
237.922	57.06
238.156	72.06
238.39	75.06
238.624	72.06
238.858	79.06
239.091	65.06
239.325	66.06
239.559	82.06
239.793	80.06
240.027	81.06
240.26	74.06
240.494	83.06
240.728	64.06
240.961	66.06
241.195	85.06
241.429	74.06
241.662	69.06
241.896	75.06
242.13	77.06
242.363	91.06
242.597	74.06
242.83	89.06
243.064	71.06
243.298	77.06
243.531	72.06
243.765	73.06
243.998	75.06
244.232	83.06
244.465	74.06
244.699	69.06
244.932	79.06
245.166	76.06
245.399	75.06
245.633	73.06
245.866	71.06
246.099	72.06
246.333	100.06
246.566	62.06
246.8	74.06
247.033	73.06
247.266	69.06
247.5	75.06
247.733	76.06
247.966	67.06
248.2	64.06
248.433	69.06
248.666	79.06
248.899	82.06
249.133	65.06
249.366	75.06
249.599	75.06
249.832	81.06
250.066	84.06
250.299	75.06
250.532	75.06
250.765	62.06
250.998	87.06
251.231	71.06
251.465	61.06
251.698	86.06
251.931	77.06
252.164	77.06
252.397	61.06
252.63	82.06
252.863	82.06
253.096	83.06
253.329	83.06
253.562	76.06
253.795	72.06
254.028	81.06
254.261	79.06
254.494	66.06
254.727	84.06
254.96	63.06
255.193	92.06
255.426	76.06
255.659	72.06
255.892	75.06
256.124	85.06
256.357	72.06
256.59	75.06
256.823	86.06
257.056	70.06
257.289	85.06
257.521	68.06
257.754	67.06
257.987	87.06
258.22	96.06
258.452	80.06
258.685	75.06
258.918	68.06
259.151	78.06
259.383	82.06
259.616	87.06
259.849	75.06
260.081	70.06
260.314	91.06
260.547	67.06
260.779	83.06
261.012	77.06
261.244	83.06
261.477	85.06
261.71	73.06
261.942	79.06
262.175	81.06
262.407	78.06
262.64	77.06
262.872	67.06
263.105	62.06
263.337	78.06
263.57	85.06
263.802	68.06
264.035	80.06
264.267	92.06
264.499	85.06
264.732	80.06
264.964	83.06
265.197	80.06
265.429	83.06
265.661	78.06
265.894	93.06
266.126	83.06
266.358	78.06
266.591	71.06
266.823	81.06
267.055	71.06
267.287	92.06
267.52	61.06
267.752	70.06
267.984	73.06
268.216	80.06
268.448	98.06
268.681	81.06
268.913	91.06
269.145	82.06
269.377	87.06
269.609	89.06
269.841	71.06
270.073	77.06
270.306	79.06
270.538	68.06
270.77	81.06
271.002	74.06
271.234	89.06
271.466	81.06
271.698	75.06
271.93	67.06
272.162	92.06
272.394	103.06
272.626	74.06
272.858	88.06
273.09	78.06
273.322	79.06
273.553	80.06
273.785	71.06
274.017	81.06
274.249	75.06
274.481	81.06
274.713	79.06
274.945	81.06
275.176	95.06
275.408	81.06
275.64	82.06
275.872	79.06
276.104	82.06
276.335	81.06
276.567	72.06
276.799	91.06
277.031	97.06
277.262	85.06
277.494	84.06
277.726	90.06
277.957	83.06
278.189	81.06
278.421	84.06
278.652	83.06
278.884	75.06
279.115	79.06
279.347	85.06
279.579	79.06
279.81	67.06
280.042	83.06
280.273	80.06
280.505	91.06
280.736	78.06
280.968	93.06
281.199	71.06
281.431	93.06
281.662	85.06
281.894	82.06
282.125	75.06
282.356	67.06
282.588	84.06
282.819	84.06
283.051	73.06
283.282	96.06
283.513	85.06
283.745	79.06
283.976	83.06
284.207	77.06
284.439	79.06
284.67	86.06
284.901	89.06
285.132	86.06
285.364	66.06
285.595	80.06
285.826	76.06
286.057	72.06
286.288	77.06
286.52	93.06
286.751	75.06
286.982	82.06
287.213	83.06
287.444	80.06
287.675	82.06
287.906	80.06
288.138	79.06
288.369	88.06
288.6	79.06
288.831	71.06
289.062	81.06
289.293	78.06
289.524	81.06
289.755	91.06
289.986	91.06
290.217	85.06
290.448	78.06
290.679	80.06
290.91	77.06
291.141	74.06
291.371	84.06
291.602	81.06
291.833	82.06
292.064	80.06
292.295	65.06
292.526	79.06
292.757	90.06
292.987	82.06
293.218	90.06
293.449	85.06
293.68	87.06
293.91	93.06
294.141	82.06
294.372	77.06
294.603	84.06
294.833	76.06
295.064	83.06
295.295	74.06
295.525	96.06
295.756	75.06
295.987	78.06
296.217	89.06
296.448	76.06
296.679	78.06
296.909	76.06
297.14	80.06
297.37	72.06
297.601	93.06
297.831	66.06
298.062	91.06
298.292	105.06
298.523	81.06
298.753	80.06
298.984	82.06
299.214	76.06
299.445	84.06
299.675	78.06
299.905	77.06
300.136	68.06
300.366	74.06
300.597	75.06
300.827	83.06
301.057	86.06
301.288	87.06
301.518	89.06
301.748	75.06
301.979	70.06
302.209	71.06
302.439	80.06
302.669	57.06
302.9	86.06
303.13	75.06
303.36	81.06
303.59	90.06
303.82	66.06
304.051	72.06
304.281	78.06
304.511	84.06
304.741	70.06
304.971	83.06
305.201	89.06
305.431	81.06
305.661	94.06
305.891	69.06
306.121	65.06
306.352	70.06
306.582	73.06
306.812	88.06
307.042	90.06
307.272	85.06
307.502	65.06
307.731	77.06
307.961	78.06
308.191	76.06
308.421	80.06
308.651	88.06
308.881	80.06
309.111	83.06
309.341	84.06
309.571	87.06
309.8	85.06
310.03	88.06
310.26	71.06
310.49	91.06
310.72	90.06
310.949	80.06
311.179	81.06
311.409	87.06
311.639	81.06
311.868	85.06
312.098	74.06
312.328	91.06
312.557	90.06
312.787	84.06
313.017	71.06
313.246	75.06
313.476	85.06
313.706	72.06
313.935	71.06
314.165	102.06
314.394	93.06
314.624	74.06
314.853	90.06
315.083	85.06
315.312	81.06
315.542	74.06
315.771	78.06
316.001	99.06
316.23	84.06
316.46	79.06
316.689	90.06
316.919	92.06
317.148	83.06
317.377	84.06
317.607	100.06
317.836	82.06
318.065	87.06
318.295	79.06
318.524	80.06
318.753	100.06
318.983	82.06
319.212	84.06
319.441	78.06
319.67	82.06
319.9	84.06
320.129	87.06
320.358	90.06
320.587	81.06
320.816	87.06
321.046	81.06
321.275	78.06
321.504	86.06
321.733	86.06
321.962	83.06
322.191	80.06
322.42	84.06
322.649	86.06
322.878	91.06
323.108	103.06
323.337	74.06
323.566	82.06
323.795	85.06
324.024	81.06
324.253	81.06
324.482	80.06
324.71	86.06
324.939	81.06
325.168	77.06
325.397	83.06
325.626	88.06
325.855	94.06
326.084	87.06
326.313	69.06
326.542	82.06
326.77	86.06
326.999	80.06
327.228	69.06
327.457	82.06
327.686	90.06
327.914	85.06
328.143	69.06
328.372	94.06
328.6	87.06
328.829	81.06
329.058	73.06
329.287	81.06
329.515	90.06
329.744	86.06
329.972	92.06
330.201	80.06
330.43	94.06
330.658	87.06
330.887	85.06
331.115	96.06
331.344	81.06
331.572	84.06
331.801	82.06
332.03	78.06
332.258	87.06
332.486	87.06
332.715	73.06
332.943	84.06
333.172	87.06
333.4	94.06
333.629	91.06
333.857	83.06
334.085	82.06
334.314	87.06
334.542	81.06
334.771	73.06
334.999	90.06
335.227	94.06
335.455	62.06
335.684	83.06
335.912	81.06
336.14	94.06
336.369	86.06
336.597	85.06
336.825	87.06
337.053	80.06
337.281	95.06
337.51	76.06
337.738	79.06
337.966	76.06
338.194	74.06
338.422	77.06
338.65	79.06
338.878	74.06
339.106	88.06
339.334	88.06
339.562	99.06
339.79	101.06
340.018	83.06
340.246	79.06
340.474	82.06
340.702	83.06
340.93	79.06
341.158	72.06
341.386	74.06
341.614	95.06
341.842	86.06
342.07	84.06
342.298	69.06
342.526	87.06
342.754	82.06
342.981	86.06
343.209	86.06
343.437	91.06
343.665	78.06
343.893	70.06
344.12	70.06
344.348	93.06
344.576	91.06
344.804	77.06
345.031	79.06
345.259	83.06
345.487	71.06
345.714	79.06
345.942	84.06
346.17	80.06
346.397	85.06
346.625	63.06
346.853	65.06
347.08	89.06
347.308	82.06
347.535	89.06
347.763	81.06
347.99	96.06
348.218	89.06
348.445	86.06
348.673	79.06
348.9	90.06
349.128	90.06
349.355	89.06
349.583	90.06
349.81	71.06
350.037	78.06
350.265	72.06
350.492	87.06
350.72	81.06
350.947	74.06
351.174	91.06
351.402	82.06
351.629	86.06
351.856	88.06
352.083	82.06
352.311	85.06
352.538	87.06
352.765	75.06
352.992	85.06
353.22	71.06
353.447	88.06
353.674	90.06
353.901	101.06
354.128	85.06
354.355	88.06
354.583	93.06
354.81	85.06
355.037	63.06
355.264	75.06
355.491	75.06
355.718	74.06
355.945	77.06
356.172	94.06
356.399	77.06
356.626	74.06
356.853	76.06
357.08	78.06
357.307	102.06
357.534	87.06
357.761	78.06
357.988	89.06
358.215	70.06
358.441	73.06
358.668	85.06
358.895	91.06
359.122	74.06
359.349	85.06
359.576	69.06
359.802	73.06
360.029	85.06
360.256	77.06
360.483	85.06
360.709	88.06
360.936	92.06
361.163	83.06
361.39	82.06
361.616	86.06
361.843	83.06
362.07	85.06
362.296	83.06
362.523	89.06
362.749	78.06
362.976	76.06
363.203	89.06
363.429	93.06
363.656	71.06
363.882	78.06
364.109	95.06
364.335	82.06
364.562	81.06
364.788	88.06
365.015	70.06
365.241	79.06
365.468	91.06
365.694	76.06
365.92	79.06
366.147	91.06
366.373	86.06
366.599	77.06
366.826	96.06
367.052	82.06
367.278	81.06
367.505	75.06
367.731	84.06
367.957	78.06
368.184	86.06
368.41	96.06
368.636	97.06
368.862	80.06
369.089	79.06
369.315	72.06
369.541	97.06
369.767	95.06
369.993	88.06
370.219	90.06
370.445	93.06
370.672	88.06
370.898	93.06
371.124	85.06
371.35	80.06
371.576	85.06
371.802	93.06
372.028	88.06
372.254	89.06
372.48	85.06
372.706	81.06
372.932	82.06
373.158	91.06
373.384	88.06
373.61	86.06
373.835	92.06
374.061	102.06
374.287	86.06
374.513	91.06
374.739	91.06
374.965	99.06
375.191	87.06
375.416	94.06
375.642	76.06
375.868	80.06
376.094	93.06
376.319	88.06
376.545	97.06
376.771	87.06
376.997	101.06
377.222	88.06
377.448	80.06
377.674	80.06
377.899	80.06
378.125	88.06
378.35	96.06
378.576	95.06
378.802	86.06
379.027	109.06
379.253	98.06
379.478	85.06
379.704	95.06
379.929	82.06
380.155	103.06
380.38	93.06
380.606	79.06
380.831	93.06
381.057	101.06
381.282	102.06
381.507	101.06
381.733	86.06
381.958	79.06
382.184	99.06
382.409	80.06
382.634	103.06
382.86	95.06
383.085	106.06
383.31	97.06
383.535	75.06
383.761	78.06
383.986	89.06
384.211	98.06
384.436	101.06
384.662	90.06
384.887	95.06
385.112	85.06
385.337	90.06
385.562	90.06
385.787	88.06
386.013	128.06
386.238	95.06
386.463	102.06
386.688	106.06
386.913	86.06
387.138	92.06
387.363	90.06
387.588	99.06
387.813	95.06
388.038	107.06
388.263	101.06
388.488	96.06
388.713	85.06
388.938	91.06
389.163	96.06
389.387	93.06
389.612	92.06
389.837	98.06
390.062	86.06
390.287	95.06
390.512	98.06
390.736	97.06
390.961	101.06
391.186	104.06
391.411	77.06
391.636	99.06
391.86	95.06
392.085	104.06
392.31	107.06
392.534	113.06
392.759	98.06
392.984	98.06
393.208	91.06
393.433	91.06
393.658	112.06
393.882	99.06
394.107	104.06
394.331	119.06
394.556	100.06
394.78	100.06
395.005	104.06
395.229	99.06
395.454	99.06
395.678	93.06
395.903	132.06
396.127	99.06
396.352	93.06
396.576	105.06
396.801	110.06
397.025	99.06
397.249	103.06
397.474	117.06
397.698	115.06
397.922	113.06
398.147	104.06
398.371	108.06
398.595	117.06
398.82	115.06
399.044	91.06
399.268	113.06
399.492	110.06
399.717	109.06
399.941	106.06
400.165	108.06
400.389	110.06
400.613	102.06
400.837	114.06
401.062	112.06
401.286	100.06
401.51	112.06
401.734	112.06
401.958	115.06
402.182	116.06
402.406	113.06
402.63	100.06
402.854	113.06
403.078	119.06
403.302	110.06
403.526	103.06
403.75	100.06
403.974	112.06
404.198	111.06
404.422	107.06
404.645	118.06
404.869	110.06
405.093	109.06
405.317	115.06
405.541	113.06
405.765	117.06
405.988	113.06
406.212	130.06
406.436	118.06
406.66	99.06
406.883	124.06
407.107	117.06
407.331	109.06
407.555	115.06
407.778	118.06
408.002	125.06
408.226	113.06
408.449	119.06
408.673	115.06
408.896	129.06
409.12	117.06
409.344	109.06
409.567	123.06
409.791	119.06
410.014	126.06
410.238	125.06
410.461	128.06
410.685	124.06
410.908	126.06
411.132	127.06
411.355	123.06
411.578	127.06
411.802	130.06
412.025	115.06
412.249	110.06
412.472	108.06
412.695	111.06
412.919	129.06
413.142	121.06
413.365	101.06
413.589	121.06
413.812	109.06
414.035	130.06
414.258	121.06
414.482	120.06
414.705	133.06
414.928	117.06
415.151	105.06
415.374	119.06
415.597	133.06
415.821	119.06
416.044	116.06
416.267	125.06
416.49	138.06
416.713	134.06
416.936	122.06
417.159	122.06
417.382	118.06
417.605	112.06
417.828	131.06
418.051	129.06
418.274	116.06
418.497	129.06
418.72	141.06
418.943	135.06
419.166	137.06
419.389	147.06
419.611	139.06
419.834	133.06
420.057	131.06
420.28	145.06
420.503	121.06
420.726	125.06
420.948	130.06
421.171	126.06
421.394	137.06
421.617	128.06
421.839	133.06
422.062	130.06
422.285	119.06
422.507	133.06
422.73	139.06
422.953	132.06
423.175	122.06
423.398	122.06
423.621	121.06
423.843	125.06
424.066	125.06
424.288	139.06
424.511	142.06
424.733	140.06
424.956	145.06
425.178	134.06
425.401	124.06
425.623	133.06
425.846	125.06
426.068	119.06
426.291	119.06
426.513	129.06
426.735	141.06
426.958	135.06
427.18	144.06
427.402	119.06
427.625	121.06
427.847	129.06
428.069	113.06
428.292	127.06
428.514	125.06
428.736	115.06
428.958	139.06
429.181	125.06
429.403	121.06
429.625	137.06
429.847	121.06
430.069	123.06
430.292	123.06
430.514	122.06
430.736	121.06
430.958	117.06
431.18	127.06
431.402	118.06
431.624	133.06
431.846	113.06
432.068	101.06
432.29	97.06
432.512	115.06
432.734	122.06
432.956	118.06
433.178	125.06
433.4	150.06
433.622	134.06
433.844	135.06
434.066	125.06
434.287	103.06
434.509	113.06
434.731	105.06
434.953	116.06
435.175	119.06
435.397	131.06
435.618	122.06
435.84	126.06
436.062	112.06
436.284	117.06
436.505	125.06
436.727	122.06
436.949	125.06
437.17	129.06
437.392	119.06
437.614	103.06
437.835	107.06
438.057	99.06
438.278	103.06
438.5	144.06
438.721	136.06
438.943	115.06
439.165	131.06
439.386	128.06
439.608	142.06
439.829	125.06
440.05	124.06
440.272	131.06
440.493	147.06
440.715	135.06
440.936	143.06
441.158	147.06
441.379	148.06
441.6	138.06
441.822	145.06
442.043	141.06
442.264	141.06
442.486	137.06
442.707	136.06
442.928	125.06
443.149	136.06
443.371	137.06
443.592	134.06
443.813	127.06
444.034	121.06
444.255	131.06
444.476	136.06
444.698	156.06
444.919	122.06
445.14	283.06
445.361	191.06
445.582	157.06
445.803	134.06
446.024	151.06
446.245	145.06
446.466	151.06
446.687	144.06
446.908	155.06
447.129	161.06
447.35	142.06
447.571	157.06
447.792	150.06
448.013	137.06
448.234	136.06
448.455	128.06
448.675	122.06
448.896	134.06
449.117	155.06
449.338	140.06
449.559	145.06
449.779	139.06
450	121.06
450.221	143.06
450.442	124.06
450.662	132.06
450.883	131.06
451.104	130.06
451.324	134.06
451.545	128.06
451.766	138.06
451.986	125.06
452.207	123.06
452.428	105.06
452.648	127.06
452.869	121.06
453.089	108.06
453.31	106.06
453.53	117.06
453.751	109.06
453.971	110.06
454.192	103.06
454.412	112.06
454.633	129.06
454.853	112.06
455.073	117.06
455.294	130.06
455.514	117.06
455.734	126.06
455.955	106.06
456.175	114.06
456.395	121.06
456.616	102.06
456.836	101.06
457.056	113.06
457.276	92.06
457.497	110.06
457.717	93.06
457.937	110.06
458.157	118.06
458.377	101.06
458.598	109.06
458.818	101.06
459.038	91.06
459.258	81.06
459.478	94.06
459.698	82.06
459.918	107.06
460.138	107.06
460.358	108.06
460.578	123.06
460.798	118.06
461.018	107.06
461.238	117.06
461.458	96.06
461.678	103.06
461.898	116.06
462.118	117.06
462.338	121.06
462.558	107.06
462.777	118.06
462.997	101.06
463.217	92.06
463.437	114.06
463.657	113.06
463.876	97.06
464.096	102.06
464.316	94.06
464.536	127.06
464.755	118.06
464.975	117.06
465.195	113.06
465.414	113.06
465.634	107.06
465.854	94.06
466.073	125.06
466.293	118.06
466.512	127.06
466.732	138.06
466.951	127.06
467.171	127.06
467.391	123.06
467.61	117.06
467.829	114.06
468.049	113.06
468.268	116.06
468.488	113.06
468.707	136.06
468.927	135.06
469.146	127.06
469.365	134.06
469.585	136.06
469.804	154.06
470.023	152.06
470.243	147.06
470.462	137.06
470.681	131.06
470.901	134.06
471.12	147.06
471.339	131.06
471.558	145.06
471.777	136.06
471.997	119.06
472.216	130.06
472.435	120.06
472.654	104.06
472.873	102.06
473.092	111.06
473.311	121.06
473.53	125.06
473.749	134.06
473.968	129.06
474.187	118.06
474.406	122.06
474.625	129.06
474.844	119.06
475.063	130.06
475.282	105.06
475.501	101.06
475.72	116.06
475.939	117.06
476.158	129.06
476.377	118.06
476.596	125.06
476.814	129.06
477.033	93.06
477.252	113.06
477.471	125.06
477.69	128.06
477.908	147.06
478.127	138.06
478.346	138.06
478.564	125.06
478.783	122.06
479.002	131.06
479.22	128.06
479.439	127.06
479.658	121.06
479.876	125.06
480.095	109.06
480.313	120.06
480.532	114.06
480.751	121.06
480.969	97.06
481.188	95.06
481.406	99.06
481.624	90.06
481.843	83.06
482.061	79.06
482.28	104.06
482.498	111.06
482.717	99.06
482.935	120.06
483.153	137.06
483.372	149.06
483.59	145.06
483.808	133.06
484.027	133.06
484.245	123.06
484.463	131.06
484.681	161.06
484.9	153.06
485.118	138.06
485.336	129.06
485.554	99.06
485.772	91.06
485.99	111.06
486.209	100.06
486.427	119.06
486.645	107.06
486.863	128.06
487.081	143.06
487.299	127.06
487.517	132.06
487.735	150.06
487.953	167.06
488.171	187.06
488.389	163.06
488.607	161.06
488.825	134.06
489.043	138.06
489.261	116.06
489.479	138.06
489.696	150.06
489.914	133.06
490.132	137.06
490.35	163.06
490.568	161.06
490.786	165.06
491.003	175.06
491.221	182.06
491.439	178.06
491.657	177.06
491.874	179.06
492.092	216.06
492.31	224.06
492.527	229.06
492.745	200.06
492.963	196.06
493.18	184.06
493.398	194.06
493.615	157.06
493.833	165.06
494.05	179.06
494.268	184.06
494.485	167.06
494.703	193.06
494.92	164.06
495.138	173.06
495.355	183.06
495.573	163.06
495.79	169.06
496.008	167.06
496.225	167.06
496.442	169.06
496.66	182.06
496.877	179.06
497.094	172.06
497.312	157.06
497.529	161.06
497.746	142.06
497.963	138.06
498.181	121.06
498.398	119.06
498.615	120.06
498.832	111.06
499.049	110.06
499.267	118.06
499.484	117.06
499.701	114.06
499.918	129.06
500.135	139.06
500.352	139.06
500.569	129.06
500.786	147.06
501.003	147.06
501.22	136.06
501.437	149.06
501.654	133.06
501.871	129.06
502.088	129.06
502.305	121.06
502.522	145.06
502.739	129.06
502.956	133.06
503.172	131.06
503.389	115.06
503.606	127.06
503.823	123.06
504.04	123.06
504.256	118.06
504.473	115.06
504.69	120.06
504.907	131.06
505.123	123.06
505.34	117.06
505.557	123.06
505.773	122.06
505.99	115.06
506.207	128.06
506.423	110.06
506.64	121.06
506.856	109.06
507.073	125.06
507.289	115.06
507.506	106.06
507.722	123.06
507.939	121.06
508.155	116.06
508.372	117.06
508.588	112.06
508.805	97.06
509.021	115.06
509.238	92.06
509.454	94.06
509.67	99.06
509.887	119.06
510.103	87.06
510.319	86.06
510.536	93.06
510.752	79.06
510.968	79.06
511.184	91.06
511.401	79.06
511.617	103.06
511.833	80.06
512.049	83.06
512.265	89.06
512.481	95.06
512.698	89.06
512.914	90.06
513.13	96.06
513.346	107.06
513.562	85.06
513.778	90.06
513.994	85.06
514.21	91.06
514.426	83.06
514.642	85.06
514.858	102.06
515.074	87.06
515.29	95.06
515.506	74.06
515.721	90.06
515.937	99.06
516.153	92.06
516.369	94.06
516.585	89.06
516.801	89.06
517.016	93.06
517.232	91.06
517.448	96.06
517.664	89.06
517.879	81.06
518.095	91.06
518.311	98.06
518.527	99.06
518.742	97.06
518.958	95.06
519.173	104.06
519.389	94.06
519.605	105.06
519.82	98.06
520.036	105.06
520.251	96.06
520.467	97.06
520.682	85.06
520.898	95.06
521.113	89.06
521.329	90.06
521.544	76.06
521.76	78.06
521.975	77.06
522.19	77.06
522.406	101.06
522.621	99.06
522.836	107.06
523.052	114.06
523.267	109.06
523.482	125.06
523.698	103.06
523.913	116.06
524.128	105.06
524.343	113.06
524.559	122.06
524.774	121.06
524.989	114.06
525.204	129.06
525.419	122.06
525.634	108.06
525.849	98.06
526.064	101.06
526.28	99.06
526.495	91.06
526.71	105.06
526.925	85.06
527.14	83.06
527.355	85.06
527.57	91.06
527.785	85.06
527.999	105.06
528.214	106.06
528.429	105.06
528.644	113.06
528.859	113.06
529.074	135.06
529.289	145.06
529.503	156.06
529.718	133.06
529.933	118.06
530.148	103.06
530.363	92.06
530.577	73.06
530.792	96.06
531.007	78.06
531.221	89.06
531.436	91.06
531.651	85.06
531.865	85.06
532.08	77.06
532.295	87.06
532.509	89.06
532.724	89.06
532.938	82.06
533.153	97.06
533.367	109.06
533.582	118.06
533.796	118.06
534.011	115.06
534.225	93.06
534.44	77.06
534.654	87.06
534.868	86.06
535.083	93.06
535.297	102.06
535.511	97.06
535.726	94.06
535.94	103.06
536.154	99.06
536.369	75.06
536.583	70.06
536.797	78.06
537.011	81.06
537.225	88.06
537.44	94.06
537.654	88.06
537.868	94.06
538.082	98.06
538.296	97.06
538.51	102.06
538.724	99.06
538.938	110.06
539.153	105.06
539.367	118.06
539.581	106.06
539.795	104.06
540.009	100.06
540.222	99.06
540.436	108.06
540.65	91.06
540.864	139.06
541.078	139.06
541.292	137.06
541.506	139.06
541.72	167.06
541.934	162.06
542.147	189.06
542.361	189.06
542.575	150.06
542.789	141.06
543.002	136.06
543.216	132.06
543.43	122.06
543.644	134.06
543.857	151.06
544.071	143.06
544.285	166.06
544.498	167.06
544.712	143.06
544.925	169.06
545.139	164.06
545.352	154.06
545.566	158.06
545.779	153.06
545.993	161.06
546.206	155.06
546.42	155.06
546.633	161.06
546.847	154.06
547.06	175.06
547.274	167.06
547.487	175.06
547.7	168.06
547.914	175.06
548.127	171.06
548.34	149.06
548.554	162.06
548.767	146.06
548.98	145.06
549.193	150.06
549.407	158.06
549.62	148.06
549.833	145.06
550.046	149.06
550.259	135.06
550.473	134.06
550.686	141.06
550.899	145.06
551.112	139.06
551.325	129.06
551.538	143.06
551.751	123.06
551.964	131.06
552.177	130.06
552.39	136.06
552.603	129.06
552.816	133.06
553.029	150.06
553.242	151.06
553.455	149.06
553.667	161.06
553.88	152.06
554.093	132.06
554.306	139.06
554.519	146.06
554.732	159.06
554.944	152.06
555.157	141.06
555.37	138.06
555.583	135.06
555.795	137.06
556.008	139.06
556.221	151.06
556.433	139.06
556.646	121.06
556.859	132.06
557.071	148.06
557.284	129.06
557.496	125.06
557.709	135.06
557.921	140.06
558.134	137.06
558.346	158.06
558.559	134.06
558.771	126.06
558.984	132.06
559.196	139.06
559.409	130.06
559.621	141.06
559.833	128.06
560.046	133.06
560.258	125.06
560.47	119.06
560.683	134.06
560.895	123.06
561.107	127.06
561.32	125.06
561.532	125.06
561.744	123.06
561.956	133.06
562.168	128.06
562.381	125.06
562.593	136.06
562.805	127.06
563.017	117.06
563.229	119.06
563.441	136.06
563.653	129.06
563.865	115.06
564.077	128.06
564.289	115.06
564.501	121.06
564.713	118.06
564.925	119.06
565.137	109.06
565.349	118.06
565.561	130.06
565.773	127.06
565.985	109.06
566.197	107.06
566.408	121.06
566.62	111.06
566.832	119.06
567.044	100.06
567.255	101.06
567.467	113.06
567.679	91.06
567.891	88.06
568.102	95.06
568.314	103.06
568.526	86.06
568.737	93.06
568.949	92.06
569.161	99.06
569.372	73.06
569.584	95.06
569.795	91.06
570.007	94.06
570.218	93.06
570.43	87.06
570.641	87.06
570.853	72.06
571.064	104.06
571.276	110.06
571.487	99.06
571.698	94.06
571.91	101.06
572.121	93.06
572.333	100.06
572.544	82.06
572.755	104.06
572.966	80.06
573.178	82.06
573.389	85.06
573.6	85.06
573.811	84.06
574.023	83.06
574.234	84.06
574.445	84.06
574.656	88.06
574.867	82.06
575.078	96.06
575.289	95.06
575.501	104.06
575.712	90.06
575.923	94.06
576.134	114.06
576.345	104.06
576.556	98.06
576.767	102.06
576.978	106.06
577.188	96.06
577.399	89.06
577.61	103.06
577.821	88.06
578.032	86.06
578.243	80.06
578.454	82.06
578.665	90.06
578.875	86.06
579.086	87.06
579.297	75.06
579.508	94.06
579.718	89.06
579.929	85.06
580.14	69.06
580.35	74.06
580.561	99.06
580.772	91.06
580.982	90.06
581.193	97.06
581.403	104.06
581.614	98.06
581.825	96.06
582.035	93.06
582.246	98.06
582.456	79.06
582.667	93.06
582.877	79.06
583.087	83.06
583.298	86.06
583.508	96.06
583.719	82.06
583.929	90.06
584.139	72.06
584.35	65.06
584.56	78.06
584.77	94.06
584.981	81.06
585.191	88.06
585.401	87.06
585.611	78.06
585.821	91.06
586.032	77.06
586.242	84.06
586.452	81.06
586.662	95.06
586.872	82.06
587.082	83.06
587.292	84.06
587.502	97.06
587.713	86.06
587.923	79.06
588.133	82.06
588.343	87.06
588.553	83.06
588.762	88.06
588.972	66.06
589.182	80.06
589.392	77.06
589.602	89.06
589.812	82.06
590.022	88.06
590.232	95.06
590.441	97.06
590.651	84.06
590.861	75.06
591.071	88.06
591.281	82.06
591.49	74.06
591.7	98.06
591.91	101.06
592.119	91.06
592.329	86.06
592.539	88.06
592.748	88.06
592.958	85.06
593.167	96.06
593.377	89.06
593.587	87.06
593.796	87.06
594.006	85.06
594.215	90.06
594.424	106.06
594.634	99.06
594.843	99.06
595.053	105.06
595.262	113.06
595.472	86.06
595.681	81.06
595.89	85.06
596.1	96.06
596.309	93.06
596.518	90.06
596.727	90.06
596.937	95.06
597.146	103.06
597.355	72.06
597.564	101.06
597.774	95.06
597.983	89.06
598.192	84.06
598.401	82.06
598.61	90.06
598.819	95.06
599.028	87.06
599.237	88.06
599.446	71.06
599.655	78.06
599.864	86.06
600.073	87.06
600.282	93.06
600.491	91.06
600.7	96.06
600.909	94.06
601.118	75.06
601.327	97.06
601.536	101.06
601.745	93.06
601.953	110.06
602.162	97.06
602.371	104.06
602.58	100.06
602.789	97.06
602.997	102.06
603.206	125.06
603.415	117.06
603.623	104.06
603.832	95.06
604.041	113.06
604.249	92.06
604.458	82.06
604.666	85.06
604.875	101.06
605.084	103.06
605.292	101.06
605.501	98.06
605.709	114.06
605.918	126.06
606.126	115.06
606.334	107.06
606.543	105.06
606.751	108.06
606.96	118.06
607.168	101.06
607.376	99.06
607.585	94.06
607.793	120.06
608.001	115.06
608.21	113.06
608.418	114.06
608.626	111.06
608.834	109.06
609.043	99.06
609.251	116.06
609.459	106.06
609.667	111.06
609.875	106.06
610.083	104.06
610.291	126.06
610.499	97.06
610.707	120.06
610.916	109.06
611.124	102.06
611.332	93.06
611.54	109.06
611.748	93.06
611.955	109.06
612.163	95.06
612.371	105.06
612.579	105.06
612.787	111.06
612.995	117.06
613.203	94.06
613.411	98.06
613.618	115.06
613.826	109.06
614.034	107.06
614.242	119.06
614.449	104.06
614.657	99.06
614.865	125.06
615.072	109.06
615.28	94.06
615.488	110.06
615.695	107.06
615.903	109.06
616.111	110.06
616.318	120.06
616.526	119.06
616.733	114.06
616.941	112.06
617.148	121.06
617.356	117.06
617.563	103.06
617.771	86.06
617.978	97.06
618.185	111.06
618.393	115.06
618.6	110.06
618.807	106.06
619.015	100.06
619.222	111.06
619.429	111.06
619.637	105.06
619.844	93.06
620.051	101.06
620.258	99.06
620.466	118.06
620.673	103.06
620.88	115.06
621.087	99.06
621.294	104.06
621.501	88.06
621.708	89.06
621.915	96.06
622.122	105.06
622.329	114.06
622.536	113.06
622.743	100.06
622.95	104.06
623.157	108.06
623.364	121.06
623.571	95.06
623.778	102.06
623.985	109.06
624.192	100.06
624.399	109.06
624.606	105.06
624.812	120.06
625.019	106.06
625.226	109.06
625.433	100.06
625.639	101.06
625.846	97.06
626.053	94.06
626.259	90.06
626.466	88.06
626.673	99.06
626.879	99.06
627.086	83.06
627.293	98.06
627.499	109.06
627.706	102.06
627.912	99.06
628.119	91.06
628.325	110.06
628.532	105.06
628.738	112.06
628.945	109.06
629.151	106.06
629.357	104.06
629.564	101.06
629.77	91.06
629.976	109.06
630.183	88.06
630.389	108.06
630.595	98.06
630.802	100.06
631.008	100.06
631.214	110.06
631.42	111.06
631.627	102.06
631.833	85.06
632.039	96.06
632.245	95.06
632.451	98.06
632.657	109.06
632.863	111.06
633.069	105.06
633.275	99.06
633.481	109.06
633.688	103.06
633.893	109.06
634.099	103.06
634.305	83.06
634.511	94.06
634.717	91.06
634.923	95.06
635.129	92.06
635.335	97.06
635.541	98.06
635.747	103.06
635.952	89.06
636.158	101.06
636.364	104.06
636.57	101.06
636.775	90.06
636.981	96.06
637.187	110.06
637.392	103.06
637.598	109.06
637.804	102.06
638.009	87.06
638.215	84.06
638.421	95.06
638.626	93.06
638.832	93.06
639.037	99.06
639.243	99.06
639.448	110.06
639.654	93.06
639.859	102.06
640.065	103.06
640.27	115.06
640.475	106.06
640.681	95.06
640.886	109.06
641.091	99.06
641.297	101.06
641.502	98.06
641.707	115.06
641.913	96.06
642.118	98.06
642.323	96.06
642.528	97.06
642.733	102.06
642.939	96.06
643.144	95.06
643.349	115.06
643.554	98.06
643.759	84.06
643.964	97.06
644.169	104.06
644.374	88.06
644.579	90.06
644.784	109.06
644.989	95.06
645.194	103.06
645.399	107.06
645.604	89.06
645.809	102.06
646.014	82.06
646.219	91.06
646.423	80.06
646.628	97.06
646.833	99.06
647.038	95.06
647.243	100.06
647.447	83.06
647.652	92.06
647.857	93.06
648.062	91.06
648.266	97.06
648.471	80.06
648.676	90.06
648.88	93.06
649.085	100.06
649.289	103.06
649.494	98.06
649.698	96.06
649.903	93.06
650.107	94.06
650.312	121.06
650.516	88.06
650.721	98.06
650.925	97.06
651.13	84.06
651.334	98.06
651.539	103.06
651.743	99.06
651.947	86.06
652.152	91.06
652.356	103.06
652.56	98.06
652.764	89.06
652.969	89.06
653.173	80.06
653.377	94.06
653.581	75.06
653.785	94.06
653.99	82.06
654.194	86.06
654.398	73.06
654.602	86.06
654.806	87.06
655.01	81.06
655.214	104.06
655.418	105.06
655.622	91.06
655.826	94.06
656.03	93.06
656.234	76.06
656.438	89.06
656.642	80.06
656.846	79.06
657.049	89.06
657.253	78.06
657.457	95.06
657.661	89.06
657.865	93.06
658.068	94.06
658.272	72.06
658.476	71.06
658.68	79.06
658.883	85.06
659.087	89.06
659.291	90.06
659.494	83.06
659.698	93.06
659.901	97.06
660.105	77.06
660.309	90.06
660.512	81.06
660.716	87.06
660.919	90.06
661.123	91.06
661.326	93.06
661.53	79.06
661.733	89.06
661.936	85.06
662.14	83.06
662.343	65.06
662.546	68.06
662.75	80.06
662.953	74.06
663.156	83.06
663.36	79.06
663.563	80.06
663.766	72.06
663.969	95.06
664.173	75.06
664.376	83.06
664.579	75.06
664.782	68.06
664.985	84.06
665.188	73.06
665.391	77.06
665.594	88.06
665.797	79.06
666	74.06
666.203	97.06
666.406	72.06
666.609	86.06
666.812	79.06
667.015	78.06
667.218	85.06
667.421	79.06
667.624	80.06
667.827	86.06
668.03	91.06
668.232	85.06
668.435	79.06
668.638	95.06
668.841	89.06
669.043	69.06
669.246	77.06
669.449	82.06
669.651	67.06
669.854	85.06
670.057	87.06
670.259	80.06
670.462	86.06
670.665	92.06
670.867	78.06
671.07	83.06
671.272	70.06
671.475	83.06
671.677	73.06
671.88	67.06
672.082	75.06
672.284	76.06
672.487	71.06
672.689	70.06
672.892	82.06
