Data from Location2.07152019.Energy5.Lamp.07192019.3%Agarose_HRD10591_14-58-17-360.txt Node
Date: Fri Jul 19 14:58:17 EDT 2019
User: cochatt
Spectrometer: HR+D1059
Trigger mode: 1
Integration Time (sec): 1.000000E-1
Scans to average: 1
Electric dark correction enabled: true
Nonlinearity correction enabled: false
Boxcar width: 0
XAxis mode: Wavelengths
Number of Pixels in Spectrum: 2048
>>>>>Begin Spectral Data<<<<<
223.165	-7.31
223.4	-7.31
223.635	-7.31
223.869	3.69
224.104	-4.31
224.338	-18.31
224.573	-14.31
224.808	-4.31
225.042	-21.31
225.277	-12.31
225.511	-12.31
225.746	-8.31
225.98	1.69
226.215	10.69
226.449	11.69
226.683	19.69
226.918	23.69
227.152	31.69
227.387	30.69
227.621	34.69
227.856	41.69
228.09	40.69
228.324	55.69
228.559	66.69
228.793	60.69
229.027	58.69
229.262	63.69
229.496	74.69
229.73	59.69
229.964	71.69
230.199	80.69
230.433	66.69
230.667	71.69
230.901	68.69
231.136	77.69
231.37	87.69
231.604	72.69
231.838	82.69
232.072	89.69
232.306	92.69
232.541	83.69
232.775	72.69
233.009	79.69
233.243	79.69
233.477	82.69
233.711	75.69
233.945	85.69
234.179	88.69
234.413	82.69
234.647	73.69
234.881	83.69
235.115	90.69
235.349	85.69
235.583	68.69
235.817	88.69
236.051	79.69
236.285	88.69
236.519	64.69
236.753	83.69
236.987	67.69
237.221	75.69
237.455	78.69
237.689	75.69
237.922	78.69
238.156	70.69
238.39	82.69
238.624	67.69
238.858	77.69
239.091	83.69
239.325	77.69
239.559	79.69
239.793	86.69
240.027	76.69
240.26	74.69
240.494	71.69
240.728	80.69
240.961	75.69
241.195	82.69
241.429	69.69
241.662	87.69
241.896	99.69
242.13	85.69
242.363	75.69
242.597	67.69
242.83	77.69
243.064	67.69
243.298	70.69
243.531	77.69
243.765	85.69
243.998	73.69
244.232	78.69
244.465	78.69
244.699	87.69
244.932	95.69
245.166	77.69
245.399	66.69
245.633	73.69
245.866	67.69
246.099	66.69
246.333	79.69
246.566	79.69
246.8	75.69
247.033	85.69
247.266	65.69
247.5	68.69
247.733	80.69
247.966	76.69
248.2	83.69
248.433	81.69
248.666	79.69
248.899	72.69
249.133	72.69
249.366	79.69
249.599	88.69
249.832	83.69
250.066	73.69
250.299	85.69
250.532	88.69
250.765	84.69
250.998	97.69
251.231	84.69
251.465	83.69
251.698	85.69
251.931	69.69
252.164	82.69
252.397	77.69
252.63	80.69
252.863	75.69
253.096	88.69
253.329	77.69
253.562	65.69
253.795	89.69
254.028	74.69
254.261	80.69
254.494	74.69
254.727	68.69
254.96	74.69
255.193	86.69
255.426	97.69
255.659	87.69
255.892	89.69
256.124	77.69
256.357	92.69
256.59	98.69
256.823	72.69
257.056	96.69
257.289	88.69
257.521	82.69
257.754	69.69
257.987	82.69
258.22	81.69
258.452	96.69
258.685	90.69
258.918	92.69
259.151	98.69
259.383	81.69
259.616	90.69
259.849	82.69
260.081	69.69
260.314	87.69
260.547	81.69
260.779	88.69
261.012	93.69
261.244	90.69
261.477	88.69
261.71	77.69
261.942	80.69
262.175	82.69
262.407	80.69
262.64	73.69
262.872	81.69
263.105	88.69
263.337	91.69
263.57	70.69
263.802	82.69
264.035	88.69
264.267	71.69
264.499	84.69
264.732	78.69
264.964	81.69
265.197	88.69
265.429	67.69
265.661	88.69
265.894	68.69
266.126	83.69
266.358	91.69
266.591	73.69
266.823	70.69
267.055	92.69
267.287	75.69
267.52	87.69
267.752	82.69
267.984	91.69
268.216	73.69
268.448	102.69
268.681	81.69
268.913	85.69
269.145	95.69
269.377	87.69
269.609	81.69
269.841	71.69
270.073	89.69
270.306	87.69
270.538	74.69
270.77	70.69
271.002	85.69
271.234	86.69
271.466	72.69
271.698	82.69
271.93	94.69
272.162	69.69
272.394	72.69
272.626	82.69
272.858	65.69
273.09	81.69
273.322	93.69
273.553	79.69
273.785	79.69
274.017	92.69
274.249	87.69
274.481	72.69
274.713	82.69
274.945	73.69
275.176	90.69
275.408	70.69
275.64	77.69
275.872	74.69
276.104	92.69
276.335	87.69
276.567	84.69
276.799	76.69
277.031	76.69
277.262	72.69
277.494	96.69
277.726	87.69
277.957	84.69
278.189	93.69
278.421	81.69
278.652	92.69
278.884	77.69
279.115	69.69
279.347	86.69
279.579	63.69
279.81	90.69
280.042	72.69
280.273	97.69
280.505	76.69
280.736	95.69
280.968	81.69
281.199	87.69
281.431	82.69
281.662	83.69
281.894	82.69
282.125	72.69
282.356	62.69
282.588	84.69
282.819	76.69
283.051	90.69
283.282	86.69
283.513	78.69
283.745	86.69
283.976	82.69
284.207	84.69
284.439	76.69
284.67	75.69
284.901	84.69
285.132	71.69
285.364	78.69
285.595	86.69
285.826	88.69
286.057	65.69
286.288	70.69
286.52	69.69
286.751	73.69
286.982	85.69
287.213	84.69
287.444	86.69
287.675	86.69
287.906	89.69
288.138	71.69
288.369	86.69
288.6	79.69
288.831	85.69
289.062	86.69
289.293	75.69
289.524	76.69
289.755	76.69
289.986	73.69
290.217	83.69
290.448	83.69
290.679	83.69
290.91	89.69
291.141	71.69
291.371	63.69
291.602	82.69
291.833	95.69
292.064	92.69
292.295	76.69
292.526	75.69
292.757	68.69
292.987	89.69
293.218	87.69
293.449	89.69
293.68	87.69
293.91	74.69
294.141	82.69
294.372	70.69
294.603	87.69
294.833	76.69
295.064	92.69
295.295	84.69
295.525	79.69
295.756	77.69
295.987	75.69
296.217	92.69
296.448	91.69
296.679	75.69
296.909	73.69
297.14	78.69
297.37	92.69
297.601	88.69
297.831	82.69
298.062	75.69
298.292	87.69
298.523	87.69
298.753	86.69
298.984	81.69
299.214	80.69
299.445	87.69
299.675	74.69
299.905	76.69
300.136	76.69
300.366	88.69
300.597	84.69
300.827	85.69
301.057	82.69
301.288	74.69
301.518	92.69
301.748	68.69
301.979	80.69
302.209	82.69
302.439	83.69
302.669	89.69
302.9	89.69
303.13	107.69
303.36	76.69
303.59	87.69
303.82	77.69
304.051	77.69
304.281	75.69
304.511	81.69
304.741	86.69
304.971	85.69
305.201	92.69
305.431	89.69
305.661	87.69
305.891	65.69
306.121	89.69
306.352	75.69
306.582	86.69
306.812	81.69
307.042	75.69
307.272	71.69
307.502	77.69
307.731	83.69
307.961	79.69
308.191	84.69
308.421	88.69
308.651	89.69
308.881	79.69
309.111	91.69
309.341	76.69
309.571	87.69
309.8	87.69
310.03	87.69
310.26	71.69
310.49	71.69
310.72	81.69
310.949	82.69
311.179	98.69
311.409	75.69
311.639	84.69
311.868	83.69
312.098	85.69
312.328	87.69
312.557	81.69
312.787	84.69
313.017	89.69
313.246	80.69
313.476	76.69
313.706	71.69
313.935	89.69
314.165	82.69
314.394	69.69
314.624	74.69
314.853	76.69
315.083	98.69
315.312	80.69
315.542	87.69
315.771	84.69
316.001	83.69
316.23	89.69
316.46	68.69
316.689	86.69
316.919	86.69
317.148	86.69
317.377	81.69
317.607	86.69
317.836	75.69
318.065	84.69
318.295	71.69
318.524	70.69
318.753	83.69
318.983	77.69
319.212	92.69
319.441	95.69
319.67	86.69
319.9	78.69
320.129	83.69
320.358	86.69
320.587	79.69
320.816	83.69
321.046	89.69
321.275	98.69
321.504	81.69
321.733	75.69
321.962	87.69
322.191	86.69
322.42	89.69
322.649	85.69
322.878	81.69
323.108	87.69
323.337	70.69
323.566	74.69
323.795	102.69
324.024	93.69
324.253	77.69
324.482	78.69
324.71	79.69
324.939	92.69
325.168	87.69
325.397	79.69
325.626	84.69
325.855	93.69
326.084	88.69
326.313	86.69
326.542	79.69
326.77	85.69
326.999	89.69
327.228	82.69
327.457	75.69
327.686	90.69
327.914	104.69
328.143	100.69
328.372	78.69
328.6	80.69
328.829	81.69
329.058	79.69
329.287	104.69
329.515	81.69
329.744	85.69
329.972	76.69
330.201	92.69
330.43	90.69
330.658	98.69
330.887	67.69
331.115	84.69
331.344	83.69
331.572	86.69
331.801	84.69
332.03	84.69
332.258	83.69
332.486	90.69
332.715	84.69
332.943	86.69
333.172	80.69
333.4	86.69
333.629	85.69
333.857	76.69
334.085	73.69
334.314	78.69
334.542	81.69
334.771	86.69
334.999	84.69
335.227	94.69
335.455	88.69
335.684	83.69
335.912	78.69
336.14	83.69
336.369	80.69
336.597	73.69
336.825	76.69
337.053	89.69
337.281	95.69
337.51	71.69
337.738	84.69
337.966	87.69
338.194	84.69
338.422	88.69
338.65	97.69
338.878	98.69
339.106	80.69
339.334	87.69
339.562	82.69
339.79	80.69
340.018	85.69
340.246	88.69
340.474	87.69
340.702	100.69
340.93	89.69
341.158	88.69
341.386	87.69
341.614	74.69
341.842	87.69
342.07	82.69
342.298	78.69
342.526	84.69
342.754	92.69
342.981	83.69
343.209	84.69
343.437	81.69
343.665	83.69
343.893	83.69
344.12	87.69
344.348	82.69
344.576	80.69
344.804	91.69
345.031	84.69
345.259	88.69
345.487	101.69
345.714	77.69
345.942	79.69
346.17	88.69
346.397	90.69
346.625	73.69
346.853	86.69
347.08	82.69
347.308	105.69
347.535	85.69
347.763	84.69
347.99	87.69
348.218	85.69
348.445	93.69
348.673	82.69
348.9	80.69
349.128	86.69
349.355	80.69
349.583	89.69
349.81	97.69
350.037	74.69
350.265	76.69
350.492	83.69
350.72	77.69
350.947	93.69
351.174	92.69
351.402	75.69
351.629	92.69
351.856	92.69
352.083	93.69
352.311	77.69
352.538	84.69
352.765	92.69
352.992	86.69
353.22	77.69
353.447	78.69
353.674	73.69
353.901	74.69
354.128	89.69
354.355	82.69
354.583	60.69
354.81	82.69
355.037	78.69
355.264	92.69
355.491	80.69
355.718	78.69
355.945	80.69
356.172	85.69
356.399	88.69
356.626	86.69
356.853	92.69
357.08	88.69
357.307	80.69
357.534	88.69
357.761	84.69
357.988	87.69
358.215	78.69
358.441	89.69
358.668	83.69
358.895	85.69
359.122	81.69
359.349	72.69
359.576	75.69
359.802	66.69
360.029	73.69
360.256	86.69
360.483	83.69
360.709	78.69
360.936	90.69
361.163	90.69
361.39	89.69
361.616	88.69
361.843	96.69
362.07	76.69
362.296	68.69
362.523	86.69
362.749	87.69
362.976	85.69
363.203	84.69
363.429	97.69
363.656	72.69
363.882	78.69
364.109	85.69
364.335	79.69
364.562	80.69
364.788	79.69
365.015	83.69
365.241	81.69
365.468	76.69
365.694	71.69
365.92	73.69
366.147	87.69
366.373	85.69
366.599	81.69
366.826	74.69
367.052	92.69
367.278	89.69
367.505	99.69
367.731	83.69
367.957	85.69
368.184	84.69
368.41	85.69
368.636	97.69
368.862	69.69
369.089	87.69
369.315	85.69
369.541	98.69
369.767	91.69
369.993	89.69
370.219	88.69
370.445	92.69
370.672	91.69
370.898	87.69
371.124	93.69
371.35	86.69
371.576	89.69
371.802	91.69
372.028	111.69
372.254	102.69
372.48	88.69
372.706	87.69
372.932	83.69
373.158	84.69
373.384	94.69
373.61	90.69
373.835	91.69
374.061	85.69
374.287	89.69
374.513	93.69
374.739	82.69
374.965	101.69
375.191	78.69
375.416	100.69
375.642	93.69
375.868	93.69
376.094	96.69
376.319	95.69
376.545	100.69
376.771	87.69
376.997	95.69
377.222	101.69
377.448	82.69
377.674	80.69
377.899	101.69
378.125	108.69
378.35	86.69
378.576	99.69
378.802	92.69
379.027	108.69
379.253	92.69
379.478	88.69
379.704	93.69
379.929	101.69
380.155	82.69
380.38	87.69
380.606	91.69
380.831	100.69
381.057	109.69
381.282	110.69
381.507	91.69
381.733	90.69
381.958	102.69
382.184	95.69
382.409	95.69
382.634	98.69
382.86	89.69
383.085	91.69
383.31	88.69
383.535	87.69
383.761	90.69
383.986	96.69
384.211	98.69
384.436	108.69
384.662	87.69
384.887	96.69
385.112	99.69
385.337	84.69
385.562	98.69
385.787	84.69
386.013	99.69
386.238	94.69
386.463	98.69
386.688	85.69
386.913	91.69
387.138	102.69
387.363	99.69
387.588	90.69
387.813	102.69
388.038	102.69
388.263	86.69
388.488	89.69
388.713	99.69
388.938	105.69
389.163	98.69
389.387	106.69
389.612	95.69
389.837	103.69
390.062	102.69
390.287	113.69
390.512	87.69
390.736	86.69
390.961	104.69
391.186	99.69
391.411	102.69
391.636	107.69
391.86	112.69
392.085	94.69
392.31	112.69
392.534	100.69
392.759	104.69
392.984	111.69
393.208	103.69
393.433	104.69
393.658	104.69
393.882	99.69
394.107	94.69
394.331	108.69
394.556	105.69
394.78	103.69
395.005	119.69
395.229	115.69
395.454	105.69
395.678	105.69
395.903	105.69
396.127	102.69
396.352	111.69
396.576	118.69
396.801	132.69
397.025	107.69
397.249	98.69
397.474	114.69
397.698	108.69
397.922	120.69
398.147	95.69
398.371	99.69
398.595	96.69
398.82	107.69
399.044	102.69
399.268	116.69
399.492	116.69
399.717	104.69
399.941	108.69
400.165	107.69
400.389	109.69
400.613	120.69
400.837	119.69
401.062	101.69
401.286	117.69
401.51	110.69
401.734	119.69
401.958	113.69
402.182	103.69
402.406	117.69
402.63	106.69
402.854	112.69
403.078	122.69
403.302	114.69
403.526	105.69
403.75	116.69
403.974	112.69
404.198	113.69
404.422	110.69
404.645	122.69
404.869	121.69
405.093	93.69
405.317	120.69
405.541	121.69
405.765	121.69
405.988	104.69
406.212	101.69
406.436	125.69
406.66	112.69
406.883	122.69
407.107	119.69
407.331	115.69
407.555	124.69
407.778	126.69
408.002	112.69
408.226	122.69
408.449	120.69
408.673	104.69
408.896	102.69
409.12	131.69
409.344	118.69
409.567	123.69
409.791	111.69
410.014	110.69
410.238	119.69
410.461	111.69
410.685	110.69
410.908	127.69
411.132	132.69
411.355	117.69
411.578	127.69
411.802	124.69
412.025	122.69
412.249	117.69
412.472	119.69
412.695	108.69
412.919	112.69
413.142	129.69
413.365	118.69
413.589	126.69
413.812	123.69
414.035	128.69
414.258	110.69
414.482	129.69
414.705	122.69
414.928	129.69
415.151	121.69
415.374	124.69
415.597	126.69
415.821	119.69
416.044	122.69
416.267	126.69
416.49	116.69
416.713	134.69
416.936	130.69
417.159	118.69
417.382	132.69
417.605	126.69
417.828	128.69
418.051	138.69
418.274	138.69
418.497	125.69
418.72	133.69
418.943	127.69
419.166	132.69
419.389	127.69
419.611	138.69
419.834	122.69
420.057	128.69
420.28	124.69
420.503	132.69
420.726	119.69
420.948	131.69
421.171	131.69
421.394	127.69
421.617	127.69
421.839	136.69
422.062	138.69
422.285	122.69
422.507	133.69
422.73	126.69
422.953	128.69
423.175	135.69
423.398	130.69
423.621	131.69
423.843	131.69
424.066	131.69
424.288	140.69
424.511	142.69
424.733	145.69
424.956	145.69
425.178	132.69
425.401	125.69
425.623	120.69
425.846	139.69
426.068	149.69
426.291	136.69
426.513	136.69
426.735	133.69
426.958	137.69
427.18	114.69
427.402	118.69
427.625	135.69
427.847	126.69
428.069	131.69
428.292	116.69
428.514	123.69
428.736	128.69
428.958	118.69
429.181	126.69
429.403	137.69
429.625	136.69
429.847	126.69
430.069	124.69
430.292	134.69
430.514	135.69
430.736	136.69
430.958	138.69
431.18	124.69
431.402	125.69
431.624	120.69
431.846	111.69
432.068	116.69
432.29	102.69
432.512	110.69
432.734	119.69
432.956	124.69
433.178	126.69
433.4	132.69
433.622	142.69
433.844	123.69
434.066	120.69
434.287	115.69
434.509	99.69
434.731	106.69
434.953	106.69
435.175	124.69
435.397	126.69
435.618	136.69
435.84	113.69
436.062	123.69
436.284	128.69
436.505	128.69
436.727	129.69
436.949	137.69
437.17	138.69
437.392	129.69
437.614	124.69
437.835	127.69
438.057	120.69
438.278	104.69
438.5	120.69
438.721	138.69
438.943	134.69
439.165	104.69
439.386	142.69
439.608	139.69
439.829	130.69
440.05	146.69
440.272	134.69
440.493	142.69
440.715	132.69
440.936	142.69
441.158	130.69
441.379	143.69
441.6	154.69
441.822	130.69
442.043	140.69
442.264	142.69
442.486	147.69
442.707	144.69
442.928	141.69
443.149	140.69
443.371	136.69
443.592	144.69
443.813	124.69
444.034	132.69
444.255	122.69
444.476	147.69
444.698	136.69
444.919	128.69
445.14	278.69
445.361	197.69
445.582	127.69
445.803	148.69
446.024	151.69
446.245	160.69
446.466	142.69
446.687	136.69
446.908	164.69
447.129	161.69
447.35	160.69
447.571	164.69
447.792	138.69
448.013	151.69
448.234	142.69
448.455	130.69
448.675	139.69
448.896	135.69
449.117	142.69
449.338	134.69
449.559	132.69
449.779	136.69
450	131.69
450.221	140.69
450.442	152.69
450.662	135.69
450.883	140.69
451.104	131.69
451.324	125.69
451.545	132.69
451.766	142.69
451.986	120.69
452.207	127.69
452.428	147.69
452.648	131.69
452.869	124.69
453.089	110.69
453.31	104.69
453.53	92.69
453.751	111.69
453.971	118.69
454.192	89.69
454.412	116.69
454.633	98.69
454.853	122.69
455.073	119.69
455.294	122.69
455.514	128.69
455.734	136.69
455.955	122.69
456.175	117.69
456.395	123.69
456.616	121.69
456.836	106.69
457.056	105.69
457.276	83.69
457.497	107.69
457.717	118.69
457.937	113.69
458.157	131.69
458.377	108.69
458.598	114.69
458.818	103.69
459.038	92.69
459.258	95.69
459.478	101.69
459.698	89.69
459.918	82.69
460.138	119.69
460.358	111.69
460.578	119.69
460.798	107.69
461.018	114.69
461.238	123.69
461.458	104.69
461.678	121.69
461.898	124.69
462.118	113.69
462.338	123.69
462.558	112.69
462.777	105.69
462.997	98.69
463.217	108.69
463.437	100.69
463.657	105.69
463.876	114.69
464.096	124.69
464.316	100.69
464.536	101.69
464.755	116.69
464.975	117.69
465.195	107.69
465.414	120.69
465.634	126.69
465.854	124.69
466.073	120.69
466.293	121.69
466.512	112.69
466.732	127.69
466.951	137.69
467.171	141.69
467.391	133.69
467.61	123.69
467.829	132.69
468.049	141.69
468.268	119.69
468.488	119.69
468.707	125.69
468.927	142.69
469.146	136.69
469.365	134.69
469.585	135.69
469.804	134.69
470.023	138.69
470.243	158.69
470.462	140.69
470.681	137.69
470.901	131.69
471.12	143.69
471.339	141.69
471.558	147.69
471.777	130.69
471.997	128.69
472.216	121.69
472.435	122.69
472.654	98.69
472.873	124.69
473.092	120.69
473.311	129.69
473.53	124.69
473.749	133.69
473.968	132.69
474.187	107.69
474.406	116.69
474.625	116.69
474.844	131.69
475.063	120.69
475.282	126.69
475.501	123.69
475.72	120.69
475.939	122.69
476.158	114.69
476.377	120.69
476.596	116.69
476.814	123.69
477.033	105.69
477.252	105.69
477.471	118.69
477.69	119.69
477.908	137.69
478.127	146.69
478.346	140.69
478.564	112.69
478.783	141.69
479.002	166.69
479.22	146.69
479.439	143.69
479.658	120.69
479.876	114.69
480.095	120.69
480.313	122.69
480.532	124.69
480.751	122.69
480.969	97.69
481.188	95.69
481.406	85.69
481.624	101.69
481.843	95.69
482.061	92.69
482.28	105.69
482.498	102.69
482.717	116.69
482.935	117.69
483.153	135.69
483.372	144.69
483.59	139.69
483.808	132.69
484.027	143.69
484.245	126.69
484.463	127.69
484.681	158.69
484.9	139.69
485.118	152.69
485.336	134.69
485.554	112.69
485.772	111.69
485.99	118.69
486.209	103.69
486.427	106.69
486.645	121.69
486.863	131.69
487.081	129.69
487.299	133.69
487.517	147.69
487.735	166.69
487.953	180.69
488.171	189.69
488.389	166.69
488.607	149.69
488.825	132.69
489.043	133.69
489.261	142.69
489.479	125.69
489.696	128.69
489.914	141.69
490.132	151.69
490.35	159.69
490.568	167.69
490.786	167.69
491.003	167.69
491.221	166.69
491.439	184.69
491.657	180.69
491.874	203.69
492.092	204.69
492.31	222.69
492.527	214.69
492.745	207.69
492.963	178.69
493.18	186.69
493.398	174.69
493.615	187.69
493.833	167.69
494.05	170.69
494.268	164.69
494.485	174.69
494.703	154.69
494.92	171.69
495.138	170.69
495.355	168.69
495.573	178.69
495.79	171.69
496.008	171.69
496.225	165.69
496.442	180.69
496.66	185.69
496.877	158.69
497.094	161.69
497.312	163.69
497.529	144.69
497.746	137.69
497.963	126.69
498.181	147.69
498.398	119.69
498.615	115.69
498.832	120.69
499.049	129.69
499.267	130.69
499.484	140.69
499.701	132.69
499.918	152.69
500.135	142.69
500.352	145.69
500.569	146.69
500.786	146.69
501.003	136.69
501.22	154.69
501.437	147.69
501.654	123.69
501.871	126.69
502.088	130.69
502.305	130.69
502.522	145.69
502.739	138.69
502.956	132.69
503.172	121.69
503.389	129.69
503.606	123.69
503.823	136.69
504.04	124.69
504.256	123.69
504.473	130.69
504.69	119.69
504.907	122.69
505.123	118.69
505.34	118.69
505.557	129.69
505.773	116.69
505.99	124.69
506.207	111.69
506.423	117.69
506.64	121.69
506.856	120.69
507.073	122.69
507.289	116.69
507.506	116.69
507.722	116.69
507.939	130.69
508.155	133.69
508.372	120.69
508.588	100.69
508.805	124.69
509.021	110.69
509.238	109.69
509.454	102.69
509.67	100.69
509.887	96.69
510.103	98.69
510.319	90.69
510.536	84.69
510.752	81.69
510.968	78.69
511.184	92.69
511.401	89.69
511.617	110.69
511.833	96.69
512.049	99.69
512.265	98.69
512.481	91.69
512.698	84.69
512.914	100.69
513.13	89.69
513.346	86.69
513.562	88.69
513.778	106.69
513.994	90.69
514.21	98.69
514.426	101.69
514.642	97.69
514.858	93.69
515.074	102.69
515.29	90.69
515.506	80.69
515.721	98.69
515.937	75.69
516.153	88.69
516.369	78.69
516.585	103.69
516.801	93.69
517.016	107.69
517.232	102.69
517.448	93.69
517.664	91.69
517.879	85.69
518.095	114.69
518.311	95.69
518.527	95.69
518.742	86.69
518.958	93.69
519.173	113.69
519.389	130.69
519.605	105.69
519.82	112.69
520.036	114.69
520.251	104.69
520.467	94.69
520.682	98.69
520.898	108.69
521.113	89.69
521.329	87.69
521.544	77.69
521.76	95.69
521.975	98.69
522.19	94.69
522.406	105.69
522.621	113.69
522.836	97.69
523.052	100.69
523.267	95.69
523.482	110.69
523.698	112.69
523.913	97.69
524.128	119.69
524.343	123.69
524.559	113.69
524.774	125.69
524.989	131.69
525.204	130.69
525.419	122.69
525.634	116.69
525.849	91.69
526.064	106.69
526.28	96.69
526.495	89.69
526.71	86.69
526.925	88.69
527.14	84.69
527.355	80.69
527.57	91.69
527.785	80.69
527.999	98.69
528.214	103.69
528.429	110.69
528.644	120.69
528.859	118.69
529.074	148.69
529.289	157.69
529.503	151.69
529.718	134.69
529.933	130.69
530.148	114.69
530.363	117.69
530.577	86.69
530.792	80.69
531.007	76.69
531.221	94.69
531.436	90.69
531.651	83.69
531.865	96.69
532.08	85.69
532.295	92.69
532.509	81.69
532.724	74.69
532.938	90.69
533.153	99.69
533.367	114.69
533.582	118.69
533.796	111.69
534.011	116.69
534.225	87.69
534.44	82.69
534.654	102.69
534.868	100.69
535.083	89.69
535.297	102.69
535.511	105.69
535.726	105.69
535.94	108.69
536.154	99.69
536.369	96.69
536.583	97.69
536.797	83.69
537.011	90.69
537.225	97.69
537.44	99.69
537.654	90.69
537.868	84.69
538.082	100.69
538.296	88.69
538.51	91.69
538.724	105.69
538.938	132.69
539.153	136.69
539.367	123.69
539.581	116.69
539.795	97.69
540.009	95.69
540.222	110.69
540.436	93.69
540.65	104.69
540.864	132.69
541.078	139.69
541.292	149.69
541.506	161.69
541.72	162.69
541.934	182.69
542.147	204.69
542.361	170.69
542.575	161.69
542.789	150.69
543.002	140.69
543.216	138.69
543.43	140.69
543.644	134.69
543.857	150.69
544.071	156.69
544.285	145.69
544.498	177.69
544.712	143.69
544.925	147.69
545.139	166.69
545.352	150.69
545.566	159.69
545.779	166.69
545.993	146.69
546.206	163.69
546.42	181.69
546.633	156.69
546.847	155.69
547.06	181.69
547.274	168.69
547.487	177.69
547.7	162.69
547.914	163.69
548.127	159.69
548.34	155.69
548.554	164.69
548.767	158.69
548.98	167.69
549.193	157.69
549.407	159.69
549.62	154.69
549.833	166.69
550.046	160.69
550.259	154.69
550.473	149.69
550.686	159.69
550.899	144.69
551.112	168.69
551.325	138.69
551.538	143.69
551.751	138.69
551.964	114.69
552.177	121.69
552.39	128.69
552.603	137.69
552.816	141.69
553.029	162.69
553.242	163.69
553.455	151.69
553.667	147.69
553.88	159.69
554.093	153.69
554.306	158.69
554.519	147.69
554.732	151.69
554.944	151.69
555.157	143.69
555.37	150.69
555.583	132.69
555.795	136.69
556.008	126.69
556.221	140.69
556.433	122.69
556.646	139.69
556.859	132.69
557.071	129.69
557.284	134.69
557.496	152.69
557.709	150.69
557.921	131.69
558.134	132.69
558.346	136.69
558.559	128.69
558.771	133.69
558.984	129.69
559.196	134.69
559.409	140.69
559.621	134.69
559.833	116.69
560.046	128.69
560.258	126.69
560.47	128.69
560.683	133.69
560.895	123.69
561.107	117.69
561.32	138.69
561.532	120.69
561.744	154.69
561.956	123.69
562.168	124.69
562.381	144.69
562.593	121.69
562.805	127.69
563.017	134.69
563.229	121.69
563.441	111.69
563.653	116.69
563.865	105.69
564.077	122.69
564.289	115.69
564.501	119.69
564.713	105.69
564.925	114.69
565.137	117.69
565.349	121.69
565.561	114.69
565.773	107.69
565.985	112.69
566.197	118.69
566.408	115.69
566.62	128.69
566.832	120.69
567.044	110.69
567.255	117.69
567.467	120.69
567.679	106.69
567.891	106.69
568.102	102.69
568.314	97.69
568.526	104.69
568.737	80.69
568.949	71.69
569.161	88.69
569.372	82.69
569.584	96.69
569.795	80.69
570.007	85.69
570.218	87.69
570.43	102.69
570.641	98.69
570.853	95.69
571.064	96.69
571.276	104.69
571.487	99.69
571.698	111.69
571.91	107.69
572.121	93.69
572.333	99.69
572.544	101.69
572.755	99.69
572.966	94.69
573.178	95.69
573.389	84.69
573.6	85.69
573.811	84.69
574.023	89.69
574.234	73.69
574.445	79.69
574.656	89.69
574.867	85.69
575.078	90.69
575.289	91.69
575.501	104.69
575.712	97.69
575.923	82.69
576.134	107.69
576.345	101.69
576.556	89.69
576.767	101.69
576.978	100.69
577.188	85.69
577.399	87.69
577.61	97.69
577.821	94.69
578.032	97.69
578.243	100.69
578.454	82.69
578.665	89.69
578.875	88.69
579.086	93.69
579.297	78.69
579.508	91.69
579.718	80.69
579.929	88.69
580.14	94.69
580.35	95.69
580.561	79.69
580.772	81.69
580.982	90.69
581.193	95.69
581.403	94.69
581.614	83.69
581.825	94.69
582.035	91.69
582.246	97.69
582.456	94.69
582.667	96.69
582.877	91.69
583.087	85.69
583.298	79.69
583.508	75.69
583.719	93.69
583.929	90.69
584.139	94.69
584.35	88.69
584.56	98.69
584.77	81.69
584.981	95.69
585.191	83.69
585.401	87.69
585.611	81.69
585.821	74.69
586.032	76.69
586.242	89.69
586.452	93.69
586.662	77.69
586.872	69.69
587.082	82.69
587.292	109.69
587.502	72.69
587.713	94.69
587.923	83.69
588.133	69.69
588.343	84.69
588.553	71.69
588.762	89.69
588.972	82.69
589.182	80.69
589.392	80.69
589.602	85.69
589.812	84.69
590.022	89.69
590.232	83.69
590.441	88.69
590.651	80.69
590.861	75.69
591.071	68.69
591.281	80.69
591.49	81.69
591.7	86.69
591.91	82.69
592.119	81.69
592.329	88.69
592.539	95.69
592.748	72.69
592.958	76.69
593.167	69.69
593.377	73.69
593.587	84.69
593.796	79.69
594.006	82.69
594.215	79.69
594.424	95.69
594.634	85.69
594.843	101.69
595.053	85.69
595.262	95.69
595.472	99.69
595.681	85.69
595.89	101.69
596.1	87.69
596.309	76.69
596.518	85.69
596.727	109.69
596.937	106.69
597.146	104.69
597.355	98.69
597.564	98.69
597.774	90.69
597.983	86.69
598.192	95.69
598.401	103.69
598.61	91.69
598.819	87.69
599.028	86.69
599.237	89.69
599.446	84.69
599.655	88.69
599.864	98.69
600.073	100.69
600.282	91.69
600.491	99.69
600.7	90.69
600.909	86.69
601.118	103.69
601.327	110.69
601.536	92.69
601.745	112.69
601.953	124.69
602.162	120.69
602.371	111.69
602.58	99.69
602.789	104.69
602.997	99.69
603.206	128.69
603.415	113.69
603.623	99.69
603.832	105.69
604.041	111.69
604.249	93.69
604.458	97.69
604.666	99.69
604.875	90.69
605.084	89.69
605.292	97.69
605.501	118.69
605.709	116.69
605.918	103.69
606.126	125.69
606.334	122.69
606.543	108.69
606.751	104.69
606.96	102.69
607.168	129.69
607.376	106.69
607.585	117.69
607.793	107.69
608.001	89.69
608.21	103.69
608.418	115.69
608.626	99.69
608.834	107.69
609.043	122.69
609.251	108.69
609.459	114.69
609.667	103.69
609.875	114.69
610.083	126.69
610.291	116.69
610.499	116.69
610.707	113.69
610.916	104.69
611.124	120.69
611.332	119.69
611.54	98.69
611.748	115.69
611.955	104.69
612.163	119.69
612.371	125.69
612.579	117.69
612.787	107.69
612.995	114.69
613.203	108.69
613.411	103.69
613.618	126.69
613.826	105.69
614.034	112.69
614.242	120.69
614.449	107.69
614.657	107.69
614.865	112.69
615.072	111.69
615.28	103.69
615.488	112.69
615.695	122.69
615.903	110.69
616.111	116.69
616.318	103.69
616.526	107.69
616.733	103.69
616.941	106.69
617.148	114.69
617.356	112.69
617.563	101.69
617.771	104.69
617.978	100.69
618.185	116.69
618.393	106.69
618.6	103.69
618.807	117.69
619.015	110.69
619.222	105.69
619.429	120.69
619.637	116.69
619.844	105.69
620.051	115.69
620.258	116.69
620.466	97.69
620.673	113.69
620.88	114.69
621.087	101.69
621.294	97.69
621.501	103.69
621.708	111.69
621.915	120.69
622.122	103.69
622.329	118.69
622.536	117.69
622.743	120.69
622.95	104.69
623.157	97.69
623.364	99.69
623.571	112.69
623.778	113.69
623.985	106.69
624.192	101.69
624.399	111.69
624.606	112.69
624.812	115.69
625.019	101.69
625.226	88.69
625.433	111.69
625.639	90.69
625.846	111.69
626.053	106.69
626.259	104.69
626.466	103.69
626.673	88.69
626.879	94.69
627.086	81.69
627.293	99.69
627.499	106.69
627.706	103.69
627.912	106.69
628.119	89.69
628.325	95.69
628.532	94.69
628.738	106.69
628.945	104.69
629.151	98.69
629.357	110.69
629.564	110.69
629.77	93.69
629.976	91.69
630.183	101.69
630.389	73.69
630.595	104.69
630.802	95.69
631.008	106.69
631.214	91.69
631.42	107.69
631.627	110.69
631.833	108.69
632.039	106.69
632.245	95.69
632.451	104.69
632.657	112.69
632.863	107.69
633.069	101.69
633.275	99.69
633.481	110.69
633.688	110.69
633.893	120.69
634.099	87.69
634.305	101.69
634.511	91.69
634.717	104.69
634.923	106.69
635.129	104.69
635.335	102.69
635.541	101.69
635.747	96.69
635.952	96.69
636.158	107.69
636.364	103.69
636.57	109.69
636.775	110.69
636.981	99.69
637.187	105.69
637.392	95.69
637.598	114.69
637.804	101.69
638.009	104.69
638.215	104.69
638.421	96.69
638.626	94.69
638.832	100.69
639.037	102.69
639.243	104.69
639.448	86.69
639.654	113.69
639.859	101.69
640.065	99.69
640.27	87.69
640.475	85.69
640.681	92.69
640.886	95.69
641.091	96.69
641.297	128.69
641.502	99.69
641.707	105.69
641.913	94.69
642.118	107.69
642.323	99.69
642.528	111.69
642.733	116.69
642.939	97.69
643.144	92.69
643.349	89.69
643.554	90.69
643.759	97.69
643.964	88.69
644.169	84.69
644.374	97.69
644.579	112.69
644.784	101.69
644.989	94.69
645.194	100.69
645.399	85.69
645.604	99.69
645.809	112.69
646.014	111.69
646.219	112.69
646.423	96.69
646.628	89.69
646.833	92.69
647.038	107.69
647.243	96.69
647.447	100.69
647.652	113.69
647.857	101.69
648.062	103.69
648.266	91.69
648.471	91.69
648.676	93.69
648.88	101.69
649.085	82.69
649.289	105.69
649.494	99.69
649.698	115.69
649.903	106.69
650.107	96.69
650.312	82.69
650.516	87.69
650.721	97.69
650.925	86.69
651.13	76.69
651.334	90.69
651.539	105.69
651.743	104.69
651.947	102.69
652.152	89.69
652.356	90.69
652.56	105.69
652.764	97.69
652.969	84.69
653.173	94.69
653.377	91.69
653.581	86.69
653.785	107.69
653.99	106.69
654.194	99.69
654.398	95.69
654.602	79.69
654.806	81.69
655.01	88.69
655.214	88.69
655.418	88.69
655.622	88.69
655.826	89.69
656.03	81.69
656.234	81.69
656.438	103.69
656.642	87.69
656.846	87.69
657.049	101.69
657.253	87.69
657.457	93.69
657.661	84.69
657.865	82.69
658.068	94.69
658.272	84.69
658.476	90.69
658.68	90.69
658.883	87.69
659.087	80.69
659.291	84.69
659.494	79.69
659.698	88.69
659.901	86.69
660.105	87.69
660.309	84.69
660.512	90.69
660.716	80.69
660.919	88.69
661.123	96.69
661.326	67.69
661.53	85.69
661.733	80.69
661.936	93.69
662.14	77.69
662.343	82.69
662.546	87.69
662.75	86.69
662.953	93.69
663.156	81.69
663.36	85.69
663.563	87.69
663.766	84.69
663.969	76.69
664.173	75.69
664.376	74.69
664.579	62.69
664.782	80.69
664.985	89.69
665.188	76.69
665.391	92.69
665.594	85.69
665.797	90.69
666	77.69
666.203	67.69
666.406	67.69
666.609	79.69
666.812	94.69
667.015	82.69
667.218	88.69
667.421	74.69
667.624	72.69
667.827	80.69
668.03	80.69
668.232	81.69
668.435	87.69
668.638	79.69
668.841	87.69
669.043	77.69
669.246	75.69
669.449	102.69
669.651	84.69
669.854	83.69
670.057	76.69
670.259	88.69
670.462	86.69
670.665	93.69
670.867	95.69
671.07	64.69
671.272	83.69
671.475	87.69
671.677	87.69
671.88	87.69
672.082	70.69
672.284	75.69
672.487	73.69
672.689	74.69
672.892	89.69
