Data from Location2.07152019.Energy5.Lamp.07192019.3%Agarose_HRD10591_14-56-58-358.txt Node
Date: Fri Jul 19 14:56:58 EDT 2019
User: cochatt
Spectrometer: HR+D1059
Trigger mode: 1
Integration Time (sec): 1.000000E-1
Scans to average: 1
Electric dark correction enabled: true
Nonlinearity correction enabled: false
Boxcar width: 0
XAxis mode: Wavelengths
Number of Pixels in Spectrum: 2048
>>>>>Begin Spectral Data<<<<<
223.165	-20.25
223.4	-20.25
223.635	-20.25
223.869	-17.25
224.104	-18.25
224.338	-9.25
224.573	-34.25
224.808	-8.25
225.042	-7.25
225.277	4.75
225.511	2.75
225.746	1.75
225.98	11.75
226.215	4.75
226.449	21.75
226.683	31.75
226.918	11.75
227.152	23.75
227.387	28.75
227.621	42.75
227.856	45.75
228.09	45.75
228.324	56.75
228.559	36.75
228.793	65.75
229.027	36.75
229.262	62.75
229.496	56.75
229.73	67.75
229.964	80.75
230.199	73.75
230.433	67.75
230.667	79.75
230.901	79.75
231.136	78.75
231.37	93.75
231.604	87.75
231.838	74.75
232.072	76.75
232.306	77.75
232.541	88.75
232.775	77.75
233.009	69.75
233.243	76.75
233.477	73.75
233.711	64.75
233.945	90.75
234.179	76.75
234.413	82.75
234.647	68.75
234.881	68.75
235.115	79.75
235.349	69.75
235.583	80.75
235.817	67.75
236.051	91.75
236.285	74.75
236.519	66.75
236.753	69.75
236.987	74.75
237.221	70.75
237.455	82.75
237.689	67.75
237.922	67.75
238.156	74.75
238.39	84.75
238.624	69.75
238.858	85.75
239.091	75.75
239.325	83.75
239.559	85.75
239.793	72.75
240.027	72.75
240.26	70.75
240.494	84.75
240.728	84.75
240.961	73.75
241.195	62.75
241.429	78.75
241.662	80.75
241.896	79.75
242.13	78.75
242.363	85.75
242.597	79.75
242.83	84.75
243.064	66.75
243.298	76.75
243.531	86.75
243.765	82.75
243.998	85.75
244.232	84.75
244.465	88.75
244.699	99.75
244.932	70.75
245.166	76.75
245.399	79.75
245.633	56.75
245.866	83.75
246.099	107.75
246.333	75.75
246.566	79.75
246.8	86.75
247.033	74.75
247.266	68.75
247.5	76.75
247.733	81.75
247.966	84.75
248.2	81.75
248.433	73.75
248.666	76.75
248.899	76.75
249.133	70.75
249.366	77.75
249.599	82.75
249.832	76.75
250.066	85.75
250.299	88.75
250.532	74.75
250.765	75.75
250.998	82.75
251.231	73.75
251.465	86.75
251.698	83.75
251.931	64.75
252.164	80.75
252.397	67.75
252.63	74.75
252.863	86.75
253.096	82.75
253.329	83.75
253.562	91.75
253.795	73.75
254.028	76.75
254.261	89.75
254.494	63.75
254.727	84.75
254.96	78.75
255.193	91.75
255.426	73.75
255.659	79.75
255.892	88.75
256.124	88.75
256.357	78.75
256.59	99.75
256.823	88.75
257.056	80.75
257.289	89.75
257.521	83.75
257.754	90.75
257.987	80.75
258.22	78.75
258.452	70.75
258.685	73.75
258.918	75.75
259.151	70.75
259.383	82.75
259.616	97.75
259.849	75.75
260.081	91.75
260.314	96.75
260.547	99.75
260.779	72.75
261.012	79.75
261.244	80.75
261.477	95.75
261.71	89.75
261.942	84.75
262.175	81.75
262.407	75.75
262.64	70.75
262.872	86.75
263.105	86.75
263.337	81.75
263.57	76.75
263.802	85.75
264.035	72.75
264.267	73.75
264.499	82.75
264.732	85.75
264.964	97.75
265.197	83.75
265.429	82.75
265.661	80.75
265.894	84.75
266.126	72.75
266.358	89.75
266.591	96.75
266.823	72.75
267.055	83.75
267.287	88.75
267.52	90.75
267.752	83.75
267.984	89.75
268.216	90.75
268.448	84.75
268.681	88.75
268.913	90.75
269.145	87.75
269.377	75.75
269.609	85.75
269.841	93.75
270.073	76.75
270.306	82.75
270.538	73.75
270.77	84.75
271.002	81.75
271.234	96.75
271.466	94.75
271.698	81.75
271.93	77.75
272.162	88.75
272.394	91.75
272.626	69.75
272.858	69.75
273.09	86.75
273.322	76.75
273.553	71.75
273.785	100.75
274.017	93.75
274.249	70.75
274.481	71.75
274.713	69.75
274.945	89.75
275.176	86.75
275.408	87.75
275.64	73.75
275.872	84.75
276.104	80.75
276.335	84.75
276.567	76.75
276.799	97.75
277.031	80.75
277.262	76.75
277.494	85.75
277.726	82.75
277.957	84.75
278.189	88.75
278.421	96.75
278.652	89.75
278.884	93.75
279.115	87.75
279.347	82.75
279.579	72.75
279.81	75.75
280.042	88.75
280.273	80.75
280.505	71.75
280.736	85.75
280.968	83.75
281.199	77.75
281.431	76.75
281.662	84.75
281.894	90.75
282.125	75.75
282.356	90.75
282.588	84.75
282.819	84.75
283.051	88.75
283.282	83.75
283.513	79.75
283.745	100.75
283.976	93.75
284.207	92.75
284.439	82.75
284.67	91.75
284.901	83.75
285.132	79.75
285.364	72.75
285.595	93.75
285.826	87.75
286.057	69.75
286.288	86.75
286.52	76.75
286.751	83.75
286.982	76.75
287.213	93.75
287.444	96.75
287.675	84.75
287.906	76.75
288.138	70.75
288.369	74.75
288.6	89.75
288.831	76.75
289.062	85.75
289.293	84.75
289.524	90.75
289.755	90.75
289.986	81.75
290.217	94.75
290.448	83.75
290.679	80.75
290.91	90.75
291.141	89.75
291.371	90.75
291.602	83.75
291.833	93.75
292.064	78.75
292.295	93.75
292.526	72.75
292.757	79.75
292.987	92.75
293.218	99.75
293.449	89.75
293.68	77.75
293.91	78.75
294.141	81.75
294.372	88.75
294.603	99.75
294.833	89.75
295.064	93.75
295.295	81.75
295.525	90.75
295.756	96.75
295.987	96.75
296.217	81.75
296.448	86.75
296.679	78.75
296.909	79.75
297.14	82.75
297.37	91.75
297.601	71.75
297.831	86.75
298.062	93.75
298.292	88.75
298.523	84.75
298.753	77.75
298.984	82.75
299.214	68.75
299.445	103.75
299.675	97.75
299.905	86.75
300.136	81.75
300.366	75.75
300.597	75.75
300.827	75.75
301.057	88.75
301.288	72.75
301.518	85.75
301.748	68.75
301.979	89.75
302.209	76.75
302.439	68.75
302.669	93.75
302.9	93.75
303.13	78.75
303.36	87.75
303.59	81.75
303.82	66.75
304.051	74.75
304.281	88.75
304.511	83.75
304.741	92.75
304.971	95.75
305.201	110.75
305.431	74.75
305.661	97.75
305.891	94.75
306.121	87.75
306.352	78.75
306.582	84.75
306.812	88.75
307.042	81.75
307.272	74.75
307.502	91.75
307.731	85.75
307.961	84.75
308.191	98.75
308.421	79.75
308.651	88.75
308.881	86.75
309.111	93.75
309.341	94.75
309.571	77.75
309.8	91.75
310.03	85.75
310.26	85.75
310.49	70.75
310.72	68.75
310.949	86.75
311.179	88.75
311.409	80.75
311.639	81.75
311.868	88.75
312.098	100.75
312.328	86.75
312.557	95.75
312.787	90.75
313.017	90.75
313.246	106.75
313.476	89.75
313.706	96.75
313.935	95.75
314.165	64.75
314.394	76.75
314.624	98.75
314.853	78.75
315.083	92.75
315.312	90.75
315.542	91.75
315.771	78.75
316.001	85.75
316.23	90.75
316.46	78.75
316.689	80.75
316.919	83.75
317.148	78.75
317.377	92.75
317.607	93.75
317.836	80.75
318.065	78.75
318.295	84.75
318.524	71.75
318.753	81.75
318.983	86.75
319.212	105.75
319.441	91.75
319.67	81.75
319.9	77.75
320.129	87.75
320.358	72.75
320.587	77.75
320.816	107.75
321.046	76.75
321.275	77.75
321.504	89.75
321.733	105.75
321.962	100.75
322.191	79.75
322.42	87.75
322.649	75.75
322.878	89.75
323.108	94.75
323.337	90.75
323.566	65.75
323.795	89.75
324.024	92.75
324.253	90.75
324.482	80.75
324.71	103.75
324.939	75.75
325.168	99.75
325.397	97.75
325.626	80.75
325.855	88.75
326.084	94.75
326.313	89.75
326.542	85.75
326.77	84.75
326.999	104.75
327.228	78.75
327.457	80.75
327.686	95.75
327.914	77.75
328.143	101.75
328.372	89.75
328.6	78.75
328.829	70.75
329.058	84.75
329.287	86.75
329.515	83.75
329.744	75.75
329.972	87.75
330.201	86.75
330.43	81.75
330.658	80.75
330.887	96.75
331.115	81.75
331.344	77.75
331.572	86.75
331.801	89.75
332.03	78.75
332.258	86.75
332.486	78.75
332.715	88.75
332.943	84.75
333.172	87.75
333.4	81.75
333.629	93.75
333.857	84.75
334.085	69.75
334.314	81.75
334.542	87.75
334.771	77.75
334.999	91.75
335.227	78.75
335.455	75.75
335.684	81.75
335.912	93.75
336.14	76.75
336.369	88.75
336.597	77.75
336.825	75.75
337.053	94.75
337.281	92.75
337.51	88.75
337.738	84.75
337.966	84.75
338.194	67.75
338.422	91.75
338.65	93.75
338.878	83.75
339.106	91.75
339.334	75.75
339.562	97.75
339.79	82.75
340.018	89.75
340.246	76.75
340.474	77.75
340.702	80.75
340.93	83.75
341.158	90.75
341.386	93.75
341.614	92.75
341.842	85.75
342.07	84.75
342.298	82.75
342.526	73.75
342.754	92.75
342.981	61.75
343.209	102.75
343.437	85.75
343.665	87.75
343.893	90.75
344.12	95.75
344.348	89.75
344.576	75.75
344.804	91.75
345.031	97.75
345.259	85.75
345.487	83.75
345.714	86.75
345.942	96.75
346.17	72.75
346.397	87.75
346.625	82.75
346.853	84.75
347.08	103.75
347.308	82.75
347.535	88.75
347.763	86.75
347.99	93.75
348.218	96.75
348.445	98.75
348.673	80.75
348.9	92.75
349.128	79.75
349.355	83.75
349.583	86.75
349.81	75.75
350.037	86.75
350.265	92.75
350.492	77.75
350.72	81.75
350.947	81.75
351.174	88.75
351.402	79.75
351.629	89.75
351.856	87.75
352.083	77.75
352.311	88.75
352.538	71.75
352.765	82.75
352.992	88.75
353.22	81.75
353.447	85.75
353.674	77.75
353.901	72.75
354.128	90.75
354.355	74.75
354.583	83.75
354.81	72.75
355.037	84.75
355.264	75.75
355.491	85.75
355.718	80.75
355.945	95.75
356.172	78.75
356.399	73.75
356.626	81.75
356.853	78.75
357.08	84.75
357.307	90.75
357.534	77.75
357.761	93.75
357.988	79.75
358.215	87.75
358.441	85.75
358.668	77.75
358.895	88.75
359.122	85.75
359.349	83.75
359.576	75.75
359.802	89.75
360.029	80.75
360.256	74.75
360.483	76.75
360.709	83.75
360.936	71.75
361.163	81.75
361.39	101.75
361.616	83.75
361.843	87.75
362.07	82.75
362.296	89.75
362.523	96.75
362.749	74.75
362.976	87.75
363.203	89.75
363.429	75.75
363.656	92.75
363.882	91.75
364.109	78.75
364.335	74.75
364.562	87.75
364.788	81.75
365.015	92.75
365.241	83.75
365.468	62.75
365.694	79.75
365.92	87.75
366.147	99.75
366.373	97.75
366.599	100.75
366.826	80.75
367.052	92.75
367.278	84.75
367.505	93.75
367.731	98.75
367.957	91.75
368.184	97.75
368.41	102.75
368.636	86.75
368.862	78.75
369.089	84.75
369.315	84.75
369.541	90.75
369.767	74.75
369.993	95.75
370.219	92.75
370.445	89.75
370.672	90.75
370.898	83.75
371.124	79.75
371.35	87.75
371.576	93.75
371.802	90.75
372.028	96.75
372.254	89.75
372.48	99.75
372.706	93.75
372.932	82.75
373.158	88.75
373.384	88.75
373.61	87.75
373.835	84.75
374.061	90.75
374.287	85.75
374.513	88.75
374.739	92.75
374.965	96.75
375.191	83.75
375.416	100.75
375.642	97.75
375.868	96.75
376.094	91.75
376.319	90.75
376.545	89.75
376.771	93.75
376.997	93.75
377.222	84.75
377.448	90.75
377.674	90.75
377.899	97.75
378.125	90.75
378.35	94.75
378.576	95.75
378.802	97.75
379.027	88.75
379.253	102.75
379.478	85.75
379.704	90.75
379.929	89.75
380.155	107.75
380.38	96.75
380.606	93.75
380.831	102.75
381.057	91.75
381.282	88.75
381.507	93.75
381.733	95.75
381.958	102.75
382.184	84.75
382.409	96.75
382.634	97.75
382.86	101.75
383.085	108.75
383.31	96.75
383.535	92.75
383.761	99.75
383.986	92.75
384.211	90.75
384.436	100.75
384.662	92.75
384.887	92.75
385.112	81.75
385.337	95.75
385.562	91.75
385.787	85.75
386.013	91.75
386.238	90.75
386.463	106.75
386.688	93.75
386.913	95.75
387.138	92.75
387.363	94.75
387.588	104.75
387.813	100.75
388.038	90.75
388.263	102.75
388.488	99.75
388.713	92.75
388.938	85.75
389.163	102.75
389.387	96.75
389.612	88.75
389.837	88.75
390.062	108.75
390.287	89.75
390.512	84.75
390.736	105.75
390.961	114.75
391.186	92.75
391.411	88.75
391.636	106.75
391.86	107.75
392.085	90.75
392.31	81.75
392.534	102.75
392.759	117.75
392.984	96.75
393.208	94.75
393.433	108.75
393.658	110.75
393.882	103.75
394.107	107.75
394.331	112.75
394.556	107.75
394.78	101.75
395.005	118.75
395.229	105.75
395.454	100.75
395.678	100.75
395.903	101.75
396.127	95.75
396.352	100.75
396.576	100.75
396.801	114.75
397.025	92.75
397.249	90.75
397.474	122.75
397.698	88.75
397.922	116.75
398.147	107.75
398.371	106.75
398.595	113.75
398.82	108.75
399.044	107.75
399.268	109.75
399.492	109.75
399.717	126.75
399.941	119.75
400.165	125.75
400.389	106.75
400.613	120.75
400.837	102.75
401.062	112.75
401.286	107.75
401.51	113.75
401.734	107.75
401.958	100.75
402.182	103.75
402.406	110.75
402.63	105.75
402.854	106.75
403.078	102.75
403.302	131.75
403.526	112.75
403.75	118.75
403.974	114.75
404.198	103.75
404.422	106.75
404.645	113.75
404.869	115.75
405.093	113.75
405.317	100.75
405.541	116.75
405.765	107.75
405.988	122.75
406.212	120.75
406.436	119.75
406.66	124.75
406.883	109.75
407.107	112.75
407.331	124.75
407.555	121.75
407.778	121.75
408.002	124.75
408.226	108.75
408.449	128.75
408.673	119.75
408.896	121.75
409.12	125.75
409.344	124.75
409.567	111.75
409.791	106.75
410.014	110.75
410.238	122.75
410.461	123.75
410.685	104.75
410.908	113.75
411.132	117.75
411.355	118.75
411.578	113.75
411.802	117.75
412.025	118.75
412.249	125.75
412.472	122.75
412.695	113.75
412.919	122.75
413.142	114.75
413.365	112.75
413.589	120.75
413.812	97.75
414.035	119.75
414.258	123.75
414.482	124.75
414.705	126.75
414.928	124.75
415.151	137.75
415.374	138.75
415.597	128.75
415.821	140.75
416.044	135.75
416.267	129.75
416.49	131.75
416.713	125.75
416.936	128.75
417.159	117.75
417.382	119.75
417.605	129.75
417.828	121.75
418.051	128.75
418.274	132.75
418.497	126.75
418.72	128.75
418.943	132.75
419.166	140.75
419.389	138.75
419.611	126.75
419.834	133.75
420.057	139.75
420.28	152.75
420.503	132.75
420.726	141.75
420.948	146.75
421.171	119.75
421.394	132.75
421.617	148.75
421.839	155.75
422.062	141.75
422.285	124.75
422.507	128.75
422.73	118.75
422.953	115.75
423.175	128.75
423.398	127.75
423.621	128.75
423.843	125.75
424.066	131.75
424.288	141.75
424.511	130.75
424.733	140.75
424.956	140.75
425.178	137.75
425.401	134.75
425.623	134.75
425.846	131.75
426.068	125.75
426.291	130.75
426.513	123.75
426.735	130.75
426.958	140.75
427.18	139.75
427.402	122.75
427.625	128.75
427.847	114.75
428.069	115.75
428.292	135.75
428.514	122.75
428.736	140.75
428.958	118.75
429.181	132.75
429.403	130.75
429.625	117.75
429.847	120.75
430.069	124.75
430.292	138.75
430.514	128.75
430.736	130.75
430.958	120.75
431.18	126.75
431.402	119.75
431.624	119.75
431.846	100.75
432.068	86.75
432.29	93.75
432.512	108.75
432.734	113.75
432.956	124.75
433.178	130.75
433.4	136.75
433.622	136.75
433.844	132.75
434.066	121.75
434.287	128.75
434.509	100.75
434.731	106.75
434.953	109.75
435.175	106.75
435.397	127.75
435.618	115.75
435.84	115.75
436.062	135.75
436.284	118.75
436.505	125.75
436.727	118.75
436.949	127.75
437.17	116.75
437.392	134.75
437.614	128.75
437.835	119.75
438.057	119.75
438.278	106.75
438.5	120.75
438.721	133.75
438.943	137.75
439.165	128.75
439.386	136.75
439.608	145.75
439.829	140.75
440.05	134.75
440.272	137.75
440.493	135.75
440.715	133.75
440.936	140.75
441.158	141.75
441.379	135.75
441.6	142.75
441.822	130.75
442.043	139.75
442.264	140.75
442.486	143.75
442.707	108.75
442.928	139.75
443.149	132.75
443.371	133.75
443.592	145.75
443.813	130.75
444.034	136.75
444.255	147.75
444.476	150.75
444.698	136.75
444.919	150.75
445.14	277.75
445.361	206.75
445.582	156.75
445.803	138.75
446.024	142.75
446.245	157.75
446.466	155.75
446.687	161.75
446.908	143.75
447.129	151.75
447.35	140.75
447.571	136.75
447.792	149.75
448.013	148.75
448.234	138.75
448.455	135.75
448.675	132.75
448.896	131.75
449.117	135.75
449.338	145.75
449.559	151.75
449.779	152.75
450	131.75
450.221	142.75
450.442	135.75
450.662	144.75
450.883	128.75
451.104	134.75
451.324	119.75
451.545	117.75
451.766	132.75
451.986	124.75
452.207	136.75
452.428	131.75
452.648	126.75
452.869	114.75
453.089	104.75
453.31	96.75
453.53	100.75
453.751	112.75
453.971	108.75
454.192	117.75
454.412	111.75
454.633	109.75
454.853	114.75
455.073	124.75
455.294	136.75
455.514	118.75
455.734	116.75
455.955	113.75
456.175	128.75
456.395	113.75
456.616	101.75
456.836	113.75
457.056	111.75
457.276	93.75
457.497	116.75
457.717	106.75
457.937	102.75
458.157	92.75
458.377	113.75
458.598	102.75
458.818	88.75
459.038	89.75
459.258	76.75
459.478	82.75
459.698	99.75
459.918	109.75
460.138	101.75
460.358	117.75
460.578	110.75
460.798	109.75
461.018	116.75
461.238	125.75
461.458	116.75
461.678	93.75
461.898	122.75
462.118	124.75
462.338	103.75
462.558	108.75
462.777	123.75
462.997	113.75
463.217	124.75
463.437	112.75
463.657	130.75
463.876	101.75
464.096	109.75
464.316	118.75
464.536	105.75
464.755	103.75
464.975	133.75
465.195	114.75
465.414	118.75
465.634	117.75
465.854	124.75
466.073	116.75
466.293	127.75
466.512	128.75
466.732	129.75
466.951	128.75
467.171	129.75
467.391	127.75
467.61	142.75
467.829	142.75
468.049	134.75
468.268	136.75
468.488	125.75
468.707	142.75
468.927	135.75
469.146	136.75
469.365	137.75
469.585	130.75
469.804	140.75
470.023	136.75
470.243	137.75
470.462	147.75
470.681	133.75
470.901	127.75
471.12	143.75
471.339	149.75
471.558	140.75
471.777	130.75
471.997	151.75
472.216	140.75
472.435	104.75
472.654	106.75
472.873	97.75
473.092	116.75
473.311	115.75
473.53	121.75
473.749	112.75
473.968	140.75
474.187	123.75
474.406	115.75
474.625	117.75
474.844	124.75
475.063	132.75
475.282	119.75
475.501	120.75
475.72	127.75
475.939	132.75
476.158	137.75
476.377	113.75
476.596	119.75
476.814	107.75
477.033	101.75
477.252	107.75
477.471	129.75
477.69	146.75
477.908	140.75
478.127	144.75
478.346	131.75
478.564	125.75
478.783	135.75
479.002	138.75
479.22	137.75
479.439	142.75
479.658	137.75
479.876	109.75
480.095	118.75
480.313	122.75
480.532	118.75
480.751	92.75
480.969	96.75
481.188	94.75
481.406	86.75
481.624	97.75
481.843	85.75
482.061	106.75
482.28	97.75
482.498	116.75
482.717	108.75
482.935	140.75
483.153	133.75
483.372	166.75
483.59	161.75
483.808	135.75
484.027	123.75
484.245	124.75
484.463	121.75
484.681	157.75
484.9	138.75
485.118	148.75
485.336	141.75
485.554	113.75
485.772	90.75
485.99	100.75
486.209	105.75
486.427	124.75
486.645	120.75
486.863	123.75
487.081	135.75
487.299	146.75
487.517	134.75
487.735	161.75
487.953	193.75
488.171	179.75
488.389	167.75
488.607	172.75
488.825	151.75
489.043	123.75
489.261	132.75
489.479	147.75
489.696	155.75
489.914	141.75
490.132	138.75
490.35	150.75
490.568	151.75
490.786	158.75
491.003	190.75
491.221	177.75
491.439	195.75
491.657	178.75
491.874	197.75
492.092	216.75
492.31	225.75
492.527	208.75
492.745	194.75
492.963	192.75
493.18	185.75
493.398	186.75
493.615	170.75
493.833	164.75
494.05	173.75
494.268	188.75
494.485	173.75
494.703	166.75
494.92	172.75
495.138	163.75
495.355	179.75
495.573	162.75
495.79	170.75
496.008	168.75
496.225	181.75
496.442	172.75
496.66	170.75
496.877	152.75
497.094	159.75
497.312	157.75
497.529	167.75
497.746	151.75
497.963	149.75
498.181	131.75
498.398	130.75
498.615	124.75
498.832	112.75
499.049	103.75
499.267	109.75
499.484	117.75
499.701	134.75
499.918	144.75
500.135	145.75
500.352	135.75
500.569	136.75
500.786	149.75
501.003	147.75
501.22	149.75
501.437	150.75
501.654	139.75
501.871	138.75
502.088	133.75
502.305	129.75
502.522	129.75
502.739	130.75
502.956	126.75
503.172	113.75
503.389	109.75
503.606	124.75
503.823	112.75
504.04	119.75
504.256	116.75
504.473	130.75
504.69	131.75
504.907	132.75
505.123	127.75
505.34	124.75
505.557	112.75
505.773	120.75
505.99	119.75
506.207	115.75
506.423	128.75
506.64	129.75
506.856	120.75
507.073	117.75
507.289	119.75
507.506	133.75
507.722	124.75
507.939	104.75
508.155	112.75
508.372	116.75
508.588	122.75
508.805	104.75
509.021	116.75
509.238	96.75
509.454	100.75
509.67	117.75
509.887	96.75
510.103	104.75
510.319	105.75
510.536	95.75
510.752	89.75
510.968	89.75
511.184	99.75
511.401	78.75
511.617	78.75
511.833	79.75
512.049	80.75
512.265	99.75
512.481	105.75
512.698	94.75
512.914	100.75
513.13	89.75
513.346	87.75
513.562	87.75
513.778	91.75
513.994	96.75
514.21	106.75
514.426	94.75
514.642	92.75
514.858	93.75
515.074	108.75
515.29	90.75
515.506	78.75
515.721	85.75
515.937	85.75
516.153	91.75
516.369	98.75
516.585	94.75
516.801	82.75
517.016	86.75
517.232	92.75
517.448	96.75
517.664	93.75
517.879	86.75
518.095	82.75
518.311	90.75
518.527	101.75
518.742	101.75
518.958	95.75
519.173	104.75
519.389	107.75
519.605	110.75
519.82	103.75
520.036	106.75
520.251	107.75
520.467	101.75
520.682	99.75
520.898	98.75
521.113	77.75
521.329	92.75
521.544	94.75
521.76	73.75
521.975	84.75
522.19	87.75
522.406	94.75
522.621	100.75
522.836	100.75
523.052	96.75
523.267	113.75
523.482	114.75
523.698	113.75
523.913	109.75
524.128	119.75
524.343	116.75
524.559	120.75
524.774	122.75
524.989	130.75
525.204	121.75
525.419	112.75
525.634	110.75
525.849	115.75
526.064	107.75
526.28	97.75
526.495	92.75
526.71	75.75
526.925	98.75
527.14	78.75
527.355	78.75
527.57	87.75
527.785	97.75
527.999	86.75
528.214	99.75
528.429	116.75
528.644	115.75
528.859	142.75
529.074	134.75
529.289	138.75
529.503	143.75
529.718	141.75
529.933	130.75
530.148	118.75
530.363	97.75
530.577	94.75
530.792	90.75
531.007	78.75
531.221	87.75
531.436	90.75
531.651	77.75
531.865	93.75
532.08	78.75
532.295	91.75
532.509	89.75
532.724	89.75
532.938	86.75
533.153	90.75
533.367	116.75
533.582	118.75
533.796	113.75
534.011	109.75
534.225	97.75
534.44	95.75
534.654	100.75
534.868	102.75
535.083	108.75
535.297	103.75
535.511	103.75
535.726	90.75
535.94	108.75
536.154	72.75
536.369	93.75
536.583	95.75
536.797	90.75
537.011	90.75
537.225	75.75
537.44	84.75
537.654	100.75
537.868	89.75
538.082	100.75
538.296	105.75
538.51	98.75
538.724	119.75
538.938	120.75
539.153	123.75
539.367	131.75
539.581	102.75
539.795	112.75
540.009	111.75
540.222	98.75
540.436	95.75
540.65	108.75
540.864	119.75
541.078	132.75
541.292	145.75
541.506	130.75
541.72	175.75
541.934	178.75
542.147	192.75
542.361	184.75
542.575	159.75
542.789	142.75
543.002	124.75
543.216	116.75
543.43	119.75
543.644	142.75
543.857	134.75
544.071	156.75
544.285	169.75
544.498	157.75
544.712	167.75
544.925	165.75
545.139	162.75
545.352	149.75
545.566	169.75
545.779	160.75
545.993	177.75
546.206	166.75
546.42	160.75
546.633	152.75
546.847	155.75
547.06	160.75
547.274	159.75
547.487	192.75
547.7	168.75
547.914	153.75
548.127	170.75
548.34	164.75
548.554	155.75
548.767	162.75
548.98	148.75
549.193	150.75
549.407	158.75
549.62	156.75
549.833	162.75
550.046	147.75
550.259	150.75
550.473	147.75
550.686	160.75
550.899	153.75
551.112	139.75
551.325	141.75
551.538	114.75
551.751	127.75
551.964	117.75
552.177	130.75
552.39	147.75
552.603	144.75
552.816	152.75
553.029	155.75
553.242	138.75
553.455	146.75
553.667	152.75
553.88	151.75
554.093	151.75
554.306	140.75
554.519	153.75
554.732	150.75
554.944	148.75
555.157	129.75
555.37	156.75
555.583	166.75
555.795	156.75
556.008	143.75
556.221	128.75
556.433	133.75
556.646	121.75
556.859	141.75
557.071	136.75
557.284	155.75
557.496	126.75
557.709	126.75
557.921	135.75
558.134	138.75
558.346	147.75
558.559	132.75
558.771	122.75
558.984	133.75
559.196	130.75
559.409	143.75
559.621	130.75
559.833	118.75
560.046	136.75
560.258	138.75
560.47	114.75
560.683	132.75
560.895	145.75
561.107	125.75
561.32	126.75
561.532	129.75
561.744	133.75
561.956	151.75
562.168	138.75
562.381	126.75
562.593	128.75
562.805	118.75
563.017	120.75
563.229	117.75
563.441	123.75
563.653	112.75
563.865	125.75
564.077	126.75
564.289	130.75
564.501	117.75
564.713	114.75
564.925	100.75
565.137	131.75
565.349	122.75
565.561	134.75
565.773	126.75
565.985	118.75
566.197	123.75
566.408	114.75
566.62	125.75
566.832	122.75
567.044	126.75
567.255	121.75
567.467	105.75
567.679	110.75
567.891	121.75
568.102	108.75
568.314	99.75
568.526	93.75
568.737	82.75
568.949	78.75
569.161	92.75
569.372	90.75
569.584	91.75
569.795	96.75
570.007	76.75
570.218	85.75
570.43	89.75
570.641	88.75
570.853	98.75
571.064	108.75
571.276	98.75
571.487	113.75
571.698	118.75
571.91	92.75
572.121	105.75
572.333	113.75
572.544	98.75
572.755	92.75
572.966	92.75
573.178	75.75
573.389	99.75
573.6	84.75
573.811	89.75
574.023	89.75
574.234	91.75
574.445	87.75
574.656	103.75
574.867	106.75
575.078	89.75
575.289	89.75
575.501	91.75
575.712	117.75
575.923	103.75
576.134	120.75
576.345	99.75
576.556	96.75
576.767	84.75
576.978	105.75
577.188	110.75
577.399	87.75
577.61	94.75
577.821	97.75
578.032	89.75
578.243	84.75
578.454	86.75
578.665	83.75
578.875	85.75
579.086	81.75
579.297	81.75
579.508	95.75
579.718	94.75
579.929	75.75
580.14	83.75
580.35	71.75
580.561	89.75
580.772	97.75
580.982	86.75
581.193	84.75
581.403	91.75
581.614	99.75
581.825	88.75
582.035	90.75
582.246	92.75
582.456	88.75
582.667	94.75
582.877	79.75
583.087	90.75
583.298	81.75
583.508	78.75
583.719	86.75
583.929	92.75
584.139	83.75
584.35	86.75
584.56	95.75
584.77	81.75
584.981	78.75
585.191	84.75
585.401	100.75
585.611	79.75
585.821	71.75
586.032	92.75
586.242	71.75
586.452	73.75
586.662	90.75
586.872	75.75
587.082	88.75
587.292	89.75
587.502	63.75
587.713	76.75
587.923	86.75
588.133	72.75
588.343	84.75
588.553	85.75
588.762	89.75
588.972	92.75
589.182	85.75
589.392	85.75
589.602	90.75
589.812	87.75
590.022	80.75
590.232	88.75
590.441	97.75
590.651	96.75
590.861	69.75
591.071	81.75
591.281	85.75
591.49	70.75
591.7	82.75
591.91	92.75
592.119	86.75
592.329	92.75
592.539	99.75
592.748	81.75
592.958	85.75
593.167	100.75
593.377	85.75
593.587	79.75
593.796	89.75
594.006	85.75
594.215	83.75
594.424	93.75
594.634	89.75
594.843	92.75
595.053	93.75
595.262	98.75
595.472	98.75
595.681	102.75
595.89	109.75
596.1	82.75
596.309	87.75
596.518	91.75
596.727	93.75
596.937	93.75
597.146	87.75
597.355	90.75
597.564	93.75
597.774	86.75
597.983	85.75
598.192	95.75
598.401	93.75
598.61	92.75
598.819	78.75
599.028	95.75
599.237	89.75
599.446	102.75
599.655	96.75
599.864	88.75
600.073	81.75
600.282	98.75
600.491	106.75
600.7	94.75
600.909	93.75
601.118	102.75
601.327	108.75
601.536	119.75
601.745	106.75
601.953	106.75
602.162	98.75
602.371	104.75
602.58	108.75
602.789	116.75
602.997	96.75
603.206	118.75
603.415	104.75
603.623	101.75
603.832	106.75
604.041	123.75
604.249	106.75
604.458	96.75
604.666	97.75
604.875	111.75
605.084	106.75
605.292	96.75
605.501	109.75
605.709	114.75
605.918	118.75
606.126	124.75
606.334	102.75
606.543	118.75
606.751	126.75
606.96	121.75
607.168	112.75
607.376	114.75
607.585	108.75
607.793	106.75
608.001	111.75
608.21	89.75
608.418	108.75
608.626	115.75
608.834	121.75
609.043	108.75
609.251	100.75
609.459	108.75
609.667	120.75
609.875	109.75
610.083	119.75
610.291	115.75
610.499	108.75
610.707	128.75
610.916	110.75
611.124	118.75
611.332	106.75
611.54	117.75
611.748	91.75
611.955	107.75
612.163	118.75
612.371	112.75
612.579	112.75
612.787	105.75
612.995	109.75
613.203	116.75
613.411	112.75
613.618	112.75
613.826	106.75
614.034	98.75
614.242	110.75
614.449	106.75
614.657	121.75
614.865	110.75
615.072	112.75
615.28	113.75
615.488	104.75
615.695	105.75
615.903	106.75
616.111	121.75
616.318	115.75
616.526	120.75
616.733	106.75
616.941	110.75
617.148	110.75
617.356	113.75
617.563	108.75
617.771	105.75
617.978	114.75
618.185	114.75
618.393	110.75
618.6	115.75
618.807	106.75
619.015	118.75
619.222	127.75
619.429	107.75
619.637	106.75
619.844	101.75
620.051	90.75
620.258	104.75
620.466	93.75
620.673	104.75
620.88	117.75
621.087	108.75
621.294	101.75
621.501	114.75
621.708	94.75
621.915	100.75
622.122	101.75
622.329	96.75
622.536	111.75
622.743	112.75
622.95	103.75
623.157	115.75
623.364	115.75
623.571	109.75
623.778	106.75
623.985	109.75
624.192	108.75
624.399	100.75
624.606	113.75
624.812	112.75
625.019	114.75
625.226	89.75
625.433	107.75
625.639	121.75
625.846	102.75
626.053	86.75
626.259	86.75
626.466	103.75
626.673	90.75
626.879	89.75
627.086	99.75
627.293	118.75
627.499	105.75
627.706	105.75
627.912	95.75
628.119	94.75
628.325	97.75
628.532	101.75
628.738	107.75
628.945	95.75
629.151	113.75
629.357	103.75
629.564	91.75
629.77	95.75
629.976	105.75
630.183	105.75
630.389	94.75
630.595	97.75
630.802	105.75
631.008	93.75
631.214	96.75
631.42	105.75
631.627	106.75
631.833	113.75
632.039	92.75
632.245	104.75
632.451	107.75
632.657	108.75
632.863	92.75
633.069	96.75
633.275	101.75
633.481	98.75
633.688	103.75
633.893	101.75
634.099	104.75
634.305	103.75
634.511	93.75
634.717	102.75
634.923	89.75
635.129	96.75
635.335	98.75
635.541	112.75
635.747	112.75
635.952	89.75
636.158	114.75
636.364	99.75
636.57	92.75
636.775	117.75
636.981	108.75
637.187	96.75
637.392	96.75
637.598	103.75
637.804	107.75
638.009	96.75
638.215	110.75
638.421	100.75
638.626	109.75
638.832	104.75
639.037	96.75
639.243	106.75
639.448	113.75
639.654	85.75
639.859	101.75
640.065	101.75
640.27	98.75
640.475	74.75
640.681	89.75
640.886	109.75
641.091	97.75
641.297	81.75
641.502	94.75
641.707	103.75
641.913	113.75
642.118	115.75
642.323	100.75
642.528	99.75
642.733	101.75
642.939	95.75
643.144	92.75
643.349	103.75
643.554	100.75
643.759	92.75
643.964	102.75
644.169	88.75
644.374	107.75
644.579	105.75
644.784	82.75
644.989	97.75
645.194	103.75
645.399	120.75
645.604	78.75
645.809	97.75
646.014	99.75
646.219	103.75
646.423	113.75
646.628	105.75
646.833	94.75
647.038	96.75
647.243	95.75
647.447	97.75
647.652	96.75
647.857	109.75
648.062	93.75
648.266	98.75
648.471	98.75
648.676	97.75
648.88	90.75
649.085	88.75
649.289	104.75
649.494	93.75
649.698	74.75
649.903	103.75
650.107	93.75
650.312	88.75
650.516	102.75
650.721	104.75
650.925	102.75
651.13	102.75
651.334	104.75
651.539	93.75
651.743	103.75
651.947	94.75
652.152	73.75
652.356	91.75
652.56	102.75
652.764	94.75
652.969	92.75
653.173	92.75
653.377	93.75
653.581	91.75
653.785	99.75
653.99	96.75
654.194	105.75
654.398	94.75
654.602	96.75
654.806	82.75
655.01	97.75
655.214	97.75
655.418	91.75
655.622	82.75
655.826	85.75
656.03	100.75
656.234	89.75
656.438	90.75
656.642	87.75
656.846	86.75
657.049	88.75
657.253	90.75
657.457	82.75
657.661	95.75
657.865	88.75
658.068	74.75
658.272	84.75
658.476	81.75
658.68	93.75
658.883	85.75
659.087	84.75
659.291	93.75
659.494	88.75
659.698	84.75
659.901	85.75
660.105	96.75
660.309	78.75
660.512	77.75
660.716	90.75
660.919	86.75
661.123	87.75
661.326	93.75
661.53	82.75
661.733	99.75
661.936	89.75
662.14	96.75
662.343	101.75
662.546	82.75
662.75	78.75
662.953	77.75
663.156	98.75
663.36	92.75
663.563	80.75
663.766	85.75
663.969	78.75
664.173	97.75
664.376	92.75
664.579	73.75
664.782	85.75
664.985	84.75
665.188	77.75
665.391	76.75
665.594	84.75
665.797	94.75
666	82.75
666.203	72.75
666.406	73.75
666.609	93.75
666.812	90.75
667.015	76.75
667.218	85.75
667.421	77.75
667.624	79.75
667.827	90.75
668.03	92.75
668.232	82.75
668.435	82.75
668.638	77.75
668.841	83.75
669.043	95.75
669.246	100.75
669.449	85.75
669.651	82.75
669.854	75.75
670.057	83.75
670.259	73.75
670.462	78.75
670.665	87.75
670.867	78.75
671.07	79.75
671.272	93.75
671.475	85.75
671.677	82.75
671.88	80.75
672.082	72.75
672.284	81.75
672.487	74.75
672.689	90.75
672.892	74.75
