Data from Location2.07152019.Energy5.Lamp.07192019.3%Agarose_HRD10591_14-56-15-359.txt Node
Date: Fri Jul 19 14:56:15 EDT 2019
User: cochatt
Spectrometer: HR+D1059
Trigger mode: 1
Integration Time (sec): 1.000000E-1
Scans to average: 1
Electric dark correction enabled: true
Nonlinearity correction enabled: false
Boxcar width: 0
XAxis mode: Wavelengths
Number of Pixels in Spectrum: 2048
>>>>>Begin Spectral Data<<<<<
223.165	-12.12
223.4	-12.12
223.635	-12.12
223.869	-3.12
224.104	-25.12
224.338	-23.12
224.573	-9.12
224.808	-3.12
225.042	-0.12
225.277	-10.12
225.511	-3.12
225.746	6.88
225.98	11.88
226.215	3.88
226.449	17.88
226.683	16.88
226.918	12.88
227.152	18.88
227.387	33.88
227.621	39.88
227.856	43.88
228.09	36.88
228.324	36.88
228.559	55.88
228.793	43.88
229.027	61.88
229.262	63.88
229.496	57.88
229.73	68.88
229.964	62.88
230.199	68.88
230.433	63.88
230.667	82.88
230.901	79.88
231.136	86.88
231.37	66.88
231.604	74.88
231.838	76.88
232.072	79.88
232.306	81.88
232.541	79.88
232.775	69.88
233.009	78.88
233.243	73.88
233.477	86.88
233.711	79.88
233.945	79.88
234.179	63.88
234.413	82.88
234.647	86.88
234.881	68.88
235.115	66.88
235.349	88.88
235.583	63.88
235.817	71.88
236.051	69.88
236.285	75.88
236.519	62.88
236.753	76.88
236.987	73.88
237.221	76.88
237.455	75.88
237.689	73.88
237.922	61.88
238.156	67.88
238.39	72.88
238.624	77.88
238.858	76.88
239.091	85.88
239.325	71.88
239.559	67.88
239.793	70.88
240.027	78.88
240.26	71.88
240.494	68.88
240.728	75.88
240.961	65.88
241.195	79.88
241.429	69.88
241.662	72.88
241.896	74.88
242.13	71.88
242.363	61.88
242.597	78.88
242.83	69.88
243.064	69.88
243.298	66.88
243.531	65.88
243.765	60.88
243.998	69.88
244.232	67.88
244.465	74.88
244.699	79.88
244.932	76.88
245.166	84.88
245.399	76.88
245.633	73.88
245.866	67.88
246.099	56.88
246.333	75.88
246.566	74.88
246.8	62.88
247.033	84.88
247.266	69.88
247.5	70.88
247.733	90.88
247.966	80.88
248.2	64.88
248.433	71.88
248.666	82.88
248.899	75.88
249.133	85.88
249.366	74.88
249.599	68.88
249.832	67.88
250.066	92.88
250.299	66.88
250.532	80.88
250.765	72.88
250.998	89.88
251.231	82.88
251.465	62.88
251.698	76.88
251.931	88.88
252.164	78.88
252.397	85.88
252.63	76.88
252.863	86.88
253.096	68.88
253.329	62.88
253.562	58.88
253.795	63.88
254.028	76.88
254.261	71.88
254.494	86.88
254.727	81.88
254.96	76.88
255.193	69.88
255.426	72.88
255.659	60.88
255.892	73.88
256.124	76.88
256.357	73.88
256.59	80.88
256.823	83.88
257.056	91.88
257.289	74.88
257.521	79.88
257.754	74.88
257.987	77.88
258.22	78.88
258.452	72.88
258.685	79.88
258.918	72.88
259.151	84.88
259.383	75.88
259.616	73.88
259.849	73.88
260.081	73.88
260.314	69.88
260.547	68.88
260.779	71.88
261.012	76.88
261.244	79.88
261.477	87.88
261.71	70.88
261.942	68.88
262.175	67.88
262.407	76.88
262.64	80.88
262.872	73.88
263.105	80.88
263.337	82.88
263.57	80.88
263.802	77.88
264.035	78.88
264.267	86.88
264.499	75.88
264.732	83.88
264.964	80.88
265.197	79.88
265.429	83.88
265.661	73.88
265.894	60.88
266.126	83.88
266.358	79.88
266.591	72.88
266.823	70.88
267.055	80.88
267.287	77.88
267.52	88.88
267.752	80.88
267.984	78.88
268.216	70.88
268.448	86.88
268.681	80.88
268.913	63.88
269.145	72.88
269.377	76.88
269.609	76.88
269.841	79.88
270.073	84.88
270.306	85.88
270.538	84.88
270.77	85.88
271.002	81.88
271.234	72.88
271.466	81.88
271.698	70.88
271.93	83.88
272.162	80.88
272.394	76.88
272.626	79.88
272.858	76.88
273.09	96.88
273.322	86.88
273.553	81.88
273.785	92.88
274.017	95.88
274.249	73.88
274.481	75.88
274.713	84.88
274.945	82.88
275.176	80.88
275.408	77.88
275.64	75.88
275.872	66.88
276.104	75.88
276.335	83.88
276.567	87.88
276.799	74.88
277.031	84.88
277.262	79.88
277.494	83.88
277.726	79.88
277.957	73.88
278.189	84.88
278.421	73.88
278.652	70.88
278.884	79.88
279.115	93.88
279.347	86.88
279.579	81.88
279.81	78.88
280.042	78.88
280.273	74.88
280.505	93.88
280.736	85.88
280.968	78.88
281.199	76.88
281.431	84.88
281.662	84.88
281.894	81.88
282.125	69.88
282.356	70.88
282.588	79.88
282.819	79.88
283.051	87.88
283.282	86.88
283.513	79.88
283.745	77.88
283.976	89.88
284.207	79.88
284.439	84.88
284.67	85.88
284.901	78.88
285.132	83.88
285.364	82.88
285.595	72.88
285.826	83.88
286.057	78.88
286.288	77.88
286.52	81.88
286.751	81.88
286.982	83.88
287.213	71.88
287.444	81.88
287.675	92.88
287.906	85.88
288.138	79.88
288.369	82.88
288.6	96.88
288.831	92.88
289.062	88.88
289.293	89.88
289.524	86.88
289.755	80.88
289.986	76.88
290.217	98.88
290.448	77.88
290.679	85.88
290.91	75.88
291.141	81.88
291.371	73.88
291.602	87.88
291.833	81.88
292.064	97.88
292.295	69.88
292.526	80.88
292.757	84.88
292.987	91.88
293.218	93.88
293.449	88.88
293.68	72.88
293.91	81.88
294.141	79.88
294.372	82.88
294.603	81.88
294.833	87.88
295.064	86.88
295.295	71.88
295.525	72.88
295.756	92.88
295.987	78.88
296.217	51.88
296.448	69.88
296.679	85.88
296.909	82.88
297.14	90.88
297.37	81.88
297.601	66.88
297.831	74.88
298.062	93.88
298.292	83.88
298.523	82.88
298.753	59.88
298.984	72.88
299.214	88.88
299.445	85.88
299.675	73.88
299.905	85.88
300.136	71.88
300.366	76.88
300.597	92.88
300.827	80.88
301.057	103.88
301.288	97.88
301.518	59.88
301.748	75.88
301.979	76.88
302.209	65.88
302.439	93.88
302.669	81.88
302.9	81.88
303.13	92.88
303.36	97.88
303.59	84.88
303.82	83.88
304.051	92.88
304.281	86.88
304.511	73.88
304.741	88.88
304.971	76.88
305.201	88.88
305.431	81.88
305.661	86.88
305.891	92.88
306.121	79.88
306.352	89.88
306.582	79.88
306.812	72.88
307.042	84.88
307.272	78.88
307.502	80.88
307.731	81.88
307.961	83.88
308.191	72.88
308.421	78.88
308.651	84.88
308.881	80.88
309.111	83.88
309.341	84.88
309.571	82.88
309.8	83.88
310.03	79.88
310.26	81.88
310.49	92.88
310.72	77.88
310.949	87.88
311.179	80.88
311.409	81.88
311.639	83.88
311.868	100.88
312.098	92.88
312.328	96.88
312.557	84.88
312.787	78.88
313.017	81.88
313.246	81.88
313.476	87.88
313.706	81.88
313.935	65.88
314.165	79.88
314.394	80.88
314.624	89.88
314.853	76.88
315.083	69.88
315.312	73.88
315.542	88.88
315.771	75.88
316.001	97.88
316.23	64.88
316.46	92.88
316.689	102.88
316.919	91.88
317.148	92.88
317.377	94.88
317.607	71.88
317.836	89.88
318.065	72.88
318.295	71.88
318.524	83.88
318.753	62.88
318.983	82.88
319.212	83.88
319.441	86.88
319.67	76.88
319.9	74.88
320.129	74.88
320.358	72.88
320.587	84.88
320.816	87.88
321.046	87.88
321.275	85.88
321.504	90.88
321.733	87.88
321.962	79.88
322.191	73.88
322.42	79.88
322.649	79.88
322.878	85.88
323.108	88.88
323.337	85.88
323.566	76.88
323.795	79.88
324.024	77.88
324.253	71.88
324.482	79.88
324.71	85.88
324.939	77.88
325.168	83.88
325.397	78.88
325.626	84.88
325.855	75.88
326.084	78.88
326.313	87.88
326.542	75.88
326.77	87.88
326.999	84.88
327.228	79.88
327.457	76.88
327.686	85.88
327.914	76.88
328.143	83.88
328.372	78.88
328.6	77.88
328.829	83.88
329.058	72.88
329.287	86.88
329.515	87.88
329.744	87.88
329.972	86.88
330.201	79.88
330.43	82.88
330.658	86.88
330.887	70.88
331.115	85.88
331.344	76.88
331.572	79.88
331.801	82.88
332.03	71.88
332.258	70.88
332.486	72.88
332.715	97.88
332.943	98.88
333.172	92.88
333.4	76.88
333.629	80.88
333.857	79.88
334.085	84.88
334.314	94.88
334.542	75.88
334.771	86.88
334.999	84.88
335.227	96.88
335.455	80.88
335.684	65.88
335.912	82.88
336.14	66.88
336.369	94.88
336.597	92.88
336.825	90.88
337.053	71.88
337.281	89.88
337.51	83.88
337.738	81.88
337.966	80.88
338.194	80.88
338.422	88.88
338.65	79.88
338.878	88.88
339.106	77.88
339.334	77.88
339.562	93.88
339.79	73.88
340.018	83.88
340.246	74.88
340.474	86.88
340.702	84.88
340.93	81.88
341.158	63.88
341.386	88.88
341.614	84.88
341.842	75.88
342.07	78.88
342.298	70.88
342.526	83.88
342.754	70.88
342.981	93.88
343.209	73.88
343.437	86.88
343.665	99.88
343.893	80.88
344.12	84.88
344.348	76.88
344.576	87.88
344.804	84.88
345.031	76.88
345.259	70.88
345.487	81.88
345.714	85.88
345.942	64.88
346.17	81.88
346.397	80.88
346.625	67.88
346.853	76.88
347.08	77.88
347.308	75.88
347.535	79.88
347.763	71.88
347.99	77.88
348.218	91.88
348.445	85.88
348.673	87.88
348.9	79.88
349.128	76.88
349.355	86.88
349.583	86.88
349.81	78.88
350.037	84.88
350.265	87.88
350.492	72.88
350.72	93.88
350.947	73.88
351.174	82.88
351.402	78.88
351.629	77.88
351.856	85.88
352.083	70.88
352.311	92.88
352.538	79.88
352.765	73.88
352.992	87.88
353.22	81.88
353.447	83.88
353.674	83.88
353.901	73.88
354.128	84.88
354.355	65.88
354.583	97.88
354.81	81.88
355.037	78.88
355.264	83.88
355.491	69.88
355.718	89.88
355.945	99.88
356.172	88.88
356.399	86.88
356.626	76.88
356.853	74.88
357.08	75.88
357.307	63.88
357.534	84.88
357.761	83.88
357.988	69.88
358.215	93.88
358.441	79.88
358.668	78.88
358.895	82.88
359.122	95.88
359.349	83.88
359.576	85.88
359.802	82.88
360.029	77.88
360.256	87.88
360.483	62.88
360.709	82.88
360.936	81.88
361.163	91.88
361.39	92.88
361.616	89.88
361.843	74.88
362.07	70.88
362.296	92.88
362.523	85.88
362.749	90.88
362.976	70.88
363.203	77.88
363.429	76.88
363.656	61.88
363.882	83.88
364.109	69.88
364.335	78.88
364.562	91.88
364.788	77.88
365.015	85.88
365.241	86.88
365.468	87.88
365.694	69.88
365.92	79.88
366.147	81.88
366.373	80.88
366.599	82.88
366.826	87.88
367.052	76.88
367.278	80.88
367.505	85.88
367.731	85.88
367.957	92.88
368.184	91.88
368.41	98.88
368.636	86.88
368.862	96.88
369.089	78.88
369.315	86.88
369.541	88.88
369.767	88.88
369.993	100.88
370.219	107.88
370.445	89.88
370.672	87.88
370.898	79.88
371.124	86.88
371.35	89.88
371.576	107.88
371.802	77.88
372.028	94.88
372.254	87.88
372.48	83.88
372.706	101.88
372.932	104.88
373.158	83.88
373.384	91.88
373.61	96.88
373.835	77.88
374.061	87.88
374.287	109.88
374.513	102.88
374.739	93.88
374.965	77.88
375.191	96.88
375.416	91.88
375.642	86.88
375.868	90.88
376.094	85.88
376.319	102.88
376.545	93.88
376.771	87.88
376.997	92.88
377.222	81.88
377.448	87.88
377.674	77.88
377.899	85.88
378.125	94.88
378.35	97.88
378.576	77.88
378.802	96.88
379.027	82.88
379.253	85.88
379.478	86.88
379.704	73.88
379.929	83.88
380.155	92.88
380.38	94.88
380.606	97.88
380.831	101.88
381.057	85.88
381.282	99.88
381.507	85.88
381.733	100.88
381.958	95.88
382.184	90.88
382.409	90.88
382.634	105.88
382.86	88.88
383.085	101.88
383.31	105.88
383.535	94.88
383.761	85.88
383.986	88.88
384.211	98.88
384.436	93.88
384.662	91.88
384.887	99.88
385.112	97.88
385.337	105.88
385.562	108.88
385.787	88.88
386.013	100.88
386.238	81.88
386.463	104.88
386.688	93.88
386.913	94.88
387.138	88.88
387.363	117.88
387.588	89.88
387.813	108.88
388.038	100.88
388.263	94.88
388.488	101.88
388.713	98.88
388.938	81.88
389.163	86.88
389.387	101.88
389.612	111.88
389.837	88.88
390.062	118.88
390.287	100.88
390.512	92.88
390.736	104.88
390.961	101.88
391.186	102.88
391.411	91.88
391.636	91.88
391.86	94.88
392.085	102.88
392.31	103.88
392.534	115.88
392.759	100.88
392.984	107.88
393.208	101.88
393.433	114.88
393.658	78.88
393.882	90.88
394.107	104.88
394.331	105.88
394.556	95.88
394.78	88.88
395.005	107.88
395.229	107.88
395.454	102.88
395.678	101.88
395.903	92.88
396.127	92.88
396.352	80.88
396.576	106.88
396.801	88.88
397.025	91.88
397.249	89.88
397.474	112.88
397.698	107.88
397.922	108.88
398.147	88.88
398.371	109.88
398.595	105.88
398.82	115.88
399.044	97.88
399.268	103.88
399.492	107.88
399.717	124.88
399.941	98.88
400.165	105.88
400.389	105.88
400.613	117.88
400.837	104.88
401.062	107.88
401.286	114.88
401.51	106.88
401.734	115.88
401.958	108.88
402.182	108.88
402.406	95.88
402.63	121.88
402.854	124.88
403.078	104.88
403.302	111.88
403.526	112.88
403.75	112.88
403.974	114.88
404.198	105.88
404.422	96.88
404.645	113.88
404.869	108.88
405.093	123.88
405.317	100.88
405.541	111.88
405.765	123.88
405.988	114.88
406.212	127.88
406.436	115.88
406.66	104.88
406.883	119.88
407.107	117.88
407.331	113.88
407.555	134.88
407.778	102.88
408.002	109.88
408.226	105.88
408.449	105.88
408.673	116.88
408.896	111.88
409.12	114.88
409.344	109.88
409.567	123.88
409.791	112.88
410.014	117.88
410.238	121.88
410.461	120.88
410.685	123.88
410.908	117.88
411.132	122.88
411.355	124.88
411.578	116.88
411.802	120.88
412.025	128.88
412.249	115.88
412.472	111.88
412.695	124.88
412.919	117.88
413.142	107.88
413.365	112.88
413.589	113.88
413.812	120.88
414.035	119.88
414.258	107.88
414.482	132.88
414.705	130.88
414.928	127.88
415.151	127.88
415.374	128.88
415.597	118.88
415.821	121.88
416.044	127.88
416.267	125.88
416.49	117.88
416.713	126.88
416.936	120.88
417.159	111.88
417.382	121.88
417.605	119.88
417.828	128.88
418.051	137.88
418.274	131.88
418.497	133.88
418.72	131.88
418.943	119.88
419.166	135.88
419.389	132.88
419.611	124.88
419.834	128.88
420.057	128.88
420.28	116.88
420.503	119.88
420.726	129.88
420.948	135.88
421.171	128.88
421.394	123.88
421.617	146.88
421.839	136.88
422.062	138.88
422.285	126.88
422.507	113.88
422.73	125.88
422.953	126.88
423.175	123.88
423.398	132.88
423.621	120.88
423.843	119.88
424.066	127.88
424.288	120.88
424.511	130.88
424.733	142.88
424.956	124.88
425.178	133.88
425.401	161.88
425.623	154.88
425.846	148.88
426.068	135.88
426.291	118.88
426.513	136.88
426.735	119.88
426.958	132.88
427.18	120.88
427.402	126.88
427.625	129.88
427.847	125.88
428.069	109.88
428.292	140.88
428.514	132.88
428.736	127.88
428.958	138.88
429.181	131.88
429.403	122.88
429.625	115.88
429.847	127.88
430.069	123.88
430.292	129.88
430.514	133.88
430.736	124.88
430.958	126.88
431.18	119.88
431.402	127.88
431.624	113.88
431.846	102.88
432.068	99.88
432.29	86.88
432.512	111.88
432.734	116.88
432.956	128.88
433.178	130.88
433.4	121.88
433.622	141.88
433.844	135.88
434.066	119.88
434.287	101.88
434.509	81.88
434.731	107.88
434.953	125.88
435.175	113.88
435.397	135.88
435.618	112.88
435.84	105.88
436.062	117.88
436.284	115.88
436.505	119.88
436.727	121.88
436.949	131.88
437.17	128.88
437.392	123.88
437.614	125.88
437.835	113.88
438.057	101.88
438.278	117.88
438.5	123.88
438.721	128.88
438.943	113.88
439.165	118.88
439.386	130.88
439.608	138.88
439.829	147.88
440.05	144.88
440.272	145.88
440.493	145.88
440.715	155.88
440.936	142.88
441.158	133.88
441.379	140.88
441.6	157.88
441.822	130.88
442.043	138.88
442.264	142.88
442.486	139.88
442.707	141.88
442.928	137.88
443.149	131.88
443.371	149.88
443.592	148.88
443.813	132.88
444.034	144.88
444.255	132.88
444.476	136.88
444.698	137.88
444.919	136.88
445.14	270.88
445.361	188.88
445.582	155.88
445.803	129.88
446.024	136.88
446.245	127.88
446.466	137.88
446.687	137.88
446.908	149.88
447.129	150.88
447.35	147.88
447.571	148.88
447.792	128.88
448.013	146.88
448.234	135.88
448.455	143.88
448.675	136.88
448.896	128.88
449.117	137.88
449.338	129.88
449.559	135.88
449.779	143.88
450	127.88
450.221	131.88
450.442	141.88
450.662	116.88
450.883	123.88
451.104	126.88
451.324	127.88
451.545	125.88
451.766	126.88
451.986	117.88
452.207	131.88
452.428	126.88
452.648	130.88
452.869	112.88
453.089	101.88
453.31	103.88
453.53	113.88
453.751	113.88
453.971	112.88
454.192	110.88
454.412	104.88
454.633	109.88
454.853	123.88
455.073	115.88
455.294	131.88
455.514	120.88
455.734	121.88
455.955	116.88
456.175	104.88
456.395	119.88
456.616	113.88
456.836	104.88
457.056	117.88
457.276	99.88
457.497	110.88
457.717	97.88
457.937	89.88
458.157	106.88
458.377	99.88
458.598	101.88
458.818	96.88
459.038	87.88
459.258	90.88
459.478	81.88
459.698	73.88
459.918	90.88
460.138	104.88
460.358	112.88
460.578	100.88
460.798	114.88
461.018	113.88
461.238	109.88
461.458	111.88
461.678	111.88
461.898	114.88
462.118	93.88
462.338	108.88
462.558	103.88
462.777	114.88
462.997	113.88
463.217	105.88
463.437	100.88
463.657	109.88
463.876	99.88
464.096	107.88
464.316	105.88
464.536	107.88
464.755	119.88
464.975	101.88
465.195	121.88
465.414	111.88
465.634	111.88
465.854	103.88
466.073	115.88
466.293	125.88
466.512	122.88
466.732	129.88
466.951	132.88
467.171	122.88
467.391	131.88
467.61	129.88
467.829	123.88
468.049	122.88
468.268	120.88
468.488	133.88
468.707	131.88
468.927	133.88
469.146	128.88
469.365	133.88
469.585	130.88
469.804	139.88
470.023	136.88
470.243	125.88
470.462	137.88
470.681	145.88
470.901	156.88
471.12	129.88
471.339	119.88
471.558	127.88
471.777	134.88
471.997	128.88
472.216	122.88
472.435	94.88
472.654	102.88
472.873	112.88
473.092	114.88
473.311	111.88
473.53	131.88
473.749	119.88
473.968	131.88
474.187	102.88
474.406	113.88
474.625	117.88
474.844	131.88
475.063	121.88
475.282	123.88
475.501	115.88
475.72	122.88
475.939	118.88
476.158	123.88
476.377	123.88
476.596	113.88
476.814	113.88
477.033	112.88
477.252	117.88
477.471	121.88
477.69	140.88
477.908	140.88
478.127	131.88
478.346	124.88
478.564	121.88
478.783	131.88
479.002	137.88
479.22	130.88
479.439	121.88
479.658	113.88
479.876	127.88
480.095	123.88
480.313	119.88
480.532	118.88
480.751	115.88
480.969	92.88
481.188	78.88
481.406	76.88
481.624	89.88
481.843	98.88
482.061	93.88
482.28	100.88
482.498	116.88
482.717	110.88
482.935	107.88
483.153	145.88
483.372	126.88
483.59	151.88
483.808	148.88
484.027	127.88
484.245	119.88
484.463	127.88
484.681	135.88
484.9	152.88
485.118	121.88
485.336	128.88
485.554	101.88
485.772	100.88
485.99	91.88
486.209	104.88
486.427	107.88
486.645	115.88
486.863	130.88
487.081	126.88
487.299	121.88
487.517	117.88
487.735	162.88
487.953	175.88
488.171	179.88
488.389	183.88
488.607	159.88
488.825	147.88
489.043	125.88
489.261	136.88
489.479	121.88
489.696	136.88
489.914	131.88
490.132	149.88
490.35	136.88
490.568	152.88
490.786	158.88
491.003	173.88
491.221	171.88
491.439	195.88
491.657	191.88
491.874	190.88
492.092	201.88
492.31	205.88
492.527	221.88
492.745	189.88
492.963	195.88
493.18	181.88
493.398	180.88
493.615	177.88
493.833	182.88
494.05	157.88
494.268	168.88
494.485	163.88
494.703	159.88
494.92	157.88
495.138	179.88
495.355	175.88
495.573	177.88
495.79	162.88
496.008	163.88
496.225	172.88
496.442	171.88
496.66	159.88
496.877	155.88
497.094	164.88
497.312	160.88
497.529	155.88
497.746	153.88
497.963	119.88
498.181	127.88
498.398	112.88
498.615	111.88
498.832	114.88
499.049	118.88
499.267	126.88
499.484	120.88
499.701	125.88
499.918	123.88
500.135	117.88
500.352	129.88
500.569	143.88
500.786	135.88
501.003	138.88
501.22	147.88
501.437	143.88
501.654	129.88
501.871	127.88
502.088	119.88
502.305	119.88
502.522	128.88
502.739	115.88
502.956	126.88
503.172	119.88
503.389	131.88
503.606	126.88
503.823	119.88
504.04	118.88
504.256	108.88
504.473	116.88
504.69	109.88
504.907	115.88
505.123	114.88
505.34	121.88
505.557	114.88
505.773	113.88
505.99	124.88
506.207	115.88
506.423	121.88
506.64	105.88
506.856	117.88
507.073	104.88
507.289	121.88
507.506	113.88
507.722	110.88
507.939	117.88
508.155	116.88
508.372	104.88
508.588	108.88
508.805	105.88
509.021	101.88
509.238	102.88
509.454	100.88
509.67	82.88
509.887	86.88
510.103	98.88
510.319	99.88
510.536	85.88
510.752	70.88
510.968	80.88
511.184	60.88
511.401	73.88
511.617	98.88
511.833	91.88
512.049	86.88
512.265	88.88
512.481	99.88
512.698	92.88
512.914	100.88
513.13	89.88
513.346	66.88
513.562	100.88
513.778	95.88
513.994	78.88
514.21	103.88
514.426	94.88
514.642	89.88
514.858	83.88
515.074	88.88
515.29	77.88
515.506	84.88
515.721	98.88
515.937	82.88
516.153	88.88
516.369	75.88
516.585	81.88
516.801	76.88
517.016	94.88
517.232	87.88
517.448	83.88
517.664	92.88
517.879	89.88
518.095	93.88
518.311	91.88
518.527	112.88
518.742	95.88
518.958	98.88
519.173	107.88
519.389	94.88
519.605	105.88
519.82	84.88
520.036	101.88
520.251	97.88
520.467	88.88
520.682	91.88
520.898	83.88
521.113	94.88
521.329	88.88
521.544	95.88
521.76	95.88
521.975	56.88
522.19	83.88
522.406	71.88
522.621	96.88
522.836	99.88
523.052	103.88
523.267	89.88
523.482	112.88
523.698	102.88
523.913	119.88
524.128	110.88
524.343	126.88
524.559	113.88
524.774	110.88
524.989	121.88
525.204	133.88
525.419	110.88
525.634	100.88
525.849	109.88
526.064	115.88
526.28	96.88
526.495	77.88
526.71	86.88
526.925	87.88
527.14	81.88
527.355	96.88
527.57	96.88
527.785	84.88
527.999	84.88
528.214	104.88
528.429	112.88
528.644	114.88
528.859	114.88
529.074	136.88
529.289	144.88
529.503	149.88
529.718	141.88
529.933	114.88
530.148	97.88
530.363	94.88
530.577	100.88
530.792	75.88
531.007	79.88
531.221	77.88
531.436	83.88
531.651	82.88
531.865	80.88
532.08	83.88
532.295	111.88
532.509	82.88
532.724	75.88
532.938	88.88
533.153	101.88
533.367	111.88
533.582	121.88
533.796	120.88
534.011	110.88
534.225	96.88
534.44	84.88
534.654	101.88
534.868	98.88
535.083	97.88
535.297	103.88
535.511	99.88
535.726	108.88
535.94	104.88
536.154	104.88
536.369	80.88
536.583	80.88
536.797	77.88
537.011	84.88
537.225	74.88
537.44	80.88
537.654	99.88
537.868	87.88
538.082	70.88
538.296	84.88
538.51	112.88
538.724	107.88
538.938	103.88
539.153	113.88
539.367	115.88
539.581	110.88
539.795	108.88
540.009	92.88
540.222	90.88
540.436	107.88
540.65	110.88
540.864	125.88
541.078	137.88
541.292	132.88
541.506	156.88
541.72	169.88
541.934	190.88
542.147	197.88
542.361	169.88
542.575	155.88
542.789	140.88
543.002	120.88
543.216	129.88
543.43	127.88
543.644	116.88
543.857	141.88
544.071	143.88
544.285	158.88
544.498	155.88
544.712	153.88
544.925	143.88
545.139	162.88
545.352	161.88
545.566	159.88
545.779	157.88
545.993	147.88
546.206	165.88
546.42	151.88
546.633	144.88
546.847	163.88
547.06	175.88
547.274	159.88
547.487	165.88
547.7	180.88
547.914	161.88
548.127	161.88
548.34	168.88
548.554	158.88
548.767	144.88
548.98	151.88
549.193	146.88
549.407	143.88
549.62	150.88
549.833	131.88
550.046	151.88
550.259	145.88
550.473	140.88
550.686	135.88
550.899	143.88
551.112	148.88
551.325	141.88
551.538	139.88
551.751	108.88
551.964	124.88
552.177	118.88
552.39	139.88
552.603	141.88
552.816	148.88
553.029	154.88
553.242	173.88
553.455	149.88
553.667	148.88
553.88	132.88
554.093	165.88
554.306	140.88
554.519	159.88
554.732	133.88
554.944	138.88
555.157	139.88
555.37	145.88
555.583	145.88
555.795	137.88
556.008	140.88
556.221	112.88
556.433	137.88
556.646	143.88
556.859	133.88
557.071	141.88
557.284	139.88
557.496	129.88
557.709	127.88
557.921	149.88
558.134	137.88
558.346	144.88
558.559	142.88
558.771	131.88
558.984	127.88
559.196	135.88
559.409	130.88
559.621	122.88
559.833	128.88
560.046	106.88
560.258	115.88
560.47	130.88
560.683	134.88
560.895	117.88
561.107	133.88
561.32	119.88
561.532	121.88
561.744	131.88
561.956	132.88
562.168	146.88
562.381	113.88
562.593	127.88
562.805	124.88
563.017	108.88
563.229	131.88
563.441	116.88
563.653	128.88
563.865	123.88
564.077	114.88
564.289	107.88
564.501	111.88
564.713	133.88
564.925	112.88
565.137	119.88
565.349	130.88
565.561	133.88
565.773	141.88
565.985	118.88
566.197	109.88
566.408	118.88
566.62	111.88
566.832	116.88
567.044	111.88
567.255	116.88
567.467	106.88
567.679	108.88
567.891	104.88
568.102	110.88
568.314	95.88
568.526	90.88
568.737	86.88
568.949	88.88
569.161	78.88
569.372	73.88
569.584	72.88
569.795	82.88
570.007	78.88
570.218	79.88
570.43	99.88
570.641	94.88
570.853	87.88
571.064	92.88
571.276	101.88
571.487	91.88
571.698	88.88
571.91	92.88
572.121	91.88
572.333	87.88
572.544	92.88
572.755	93.88
572.966	103.88
573.178	92.88
573.389	89.88
573.6	64.88
573.811	78.88
574.023	79.88
574.234	74.88
574.445	84.88
574.656	86.88
574.867	74.88
575.078	93.88
575.289	87.88
575.501	96.88
575.712	96.88
575.923	70.88
576.134	94.88
576.345	86.88
576.556	95.88
576.767	104.88
576.978	93.88
577.188	95.88
577.399	109.88
577.61	101.88
577.821	104.88
578.032	95.88
578.243	97.88
578.454	111.88
578.665	93.88
578.875	77.88
579.086	84.88
579.297	88.88
579.508	85.88
579.718	87.88
579.929	95.88
580.14	78.88
580.35	87.88
580.561	86.88
580.772	89.88
580.982	91.88
581.193	83.88
581.403	85.88
581.614	97.88
581.825	85.88
582.035	90.88
582.246	87.88
582.456	85.88
582.667	95.88
582.877	96.88
583.087	78.88
583.298	91.88
583.508	91.88
583.719	77.88
583.929	87.88
584.139	87.88
584.35	82.88
584.56	89.88
584.77	92.88
584.981	98.88
585.191	86.88
585.401	94.88
585.611	84.88
585.821	88.88
586.032	84.88
586.242	87.88
586.452	84.88
586.662	76.88
586.872	80.88
587.082	81.88
587.292	74.88
587.502	96.88
587.713	69.88
587.923	93.88
588.133	71.88
588.343	81.88
588.553	84.88
588.762	73.88
588.972	82.88
589.182	81.88
589.392	85.88
589.602	92.88
589.812	88.88
590.022	91.88
590.232	73.88
590.441	103.88
590.651	88.88
590.861	70.88
591.071	76.88
591.281	72.88
591.49	76.88
591.7	86.88
591.91	75.88
592.119	84.88
592.329	93.88
592.539	91.88
592.748	86.88
592.958	72.88
593.167	81.88
593.377	80.88
593.587	73.88
593.796	91.88
594.006	83.88
594.215	92.88
594.424	92.88
594.634	84.88
594.843	88.88
595.053	95.88
595.262	92.88
595.472	94.88
595.681	82.88
595.89	89.88
596.1	96.88
596.309	87.88
596.518	74.88
596.727	83.88
596.937	92.88
597.146	85.88
597.355	82.88
597.564	81.88
597.774	77.88
597.983	81.88
598.192	81.88
598.401	75.88
598.61	94.88
598.819	73.88
599.028	84.88
599.237	82.88
599.446	82.88
599.655	99.88
599.864	93.88
600.073	87.88
600.282	92.88
600.491	94.88
600.7	72.88
600.909	86.88
601.118	96.88
601.327	95.88
601.536	108.88
601.745	107.88
601.953	117.88
602.162	105.88
602.371	99.88
602.58	112.88
602.789	118.88
602.997	101.88
603.206	102.88
603.415	109.88
603.623	92.88
603.832	102.88
604.041	103.88
604.249	96.88
604.458	102.88
604.666	103.88
604.875	91.88
605.084	96.88
605.292	96.88
605.501	100.88
605.709	103.88
605.918	117.88
606.126	101.88
606.334	110.88
606.543	119.88
606.751	102.88
606.96	100.88
607.168	91.88
607.376	114.88
607.585	93.88
607.793	103.88
608.001	108.88
608.21	107.88
608.418	116.88
608.626	110.88
608.834	106.88
609.043	113.88
609.251	109.88
609.459	109.88
609.667	103.88
609.875	118.88
610.083	109.88
610.291	99.88
610.499	104.88
610.707	104.88
610.916	92.88
611.124	112.88
611.332	109.88
611.54	117.88
611.748	123.88
611.955	91.88
612.163	113.88
612.371	112.88
612.579	118.88
612.787	115.88
612.995	116.88
613.203	105.88
613.411	118.88
613.618	109.88
613.826	99.88
614.034	105.88
614.242	113.88
614.449	101.88
614.657	105.88
614.865	104.88
615.072	109.88
615.28	107.88
615.488	111.88
615.695	113.88
615.903	93.88
616.111	103.88
616.318	112.88
616.526	107.88
616.733	109.88
616.941	107.88
617.148	100.88
617.356	118.88
617.563	106.88
617.771	96.88
617.978	97.88
618.185	107.88
618.393	104.88
618.6	102.88
618.807	107.88
619.015	120.88
619.222	97.88
619.429	109.88
619.637	109.88
619.844	88.88
620.051	101.88
620.258	101.88
620.466	107.88
620.673	116.88
620.88	99.88
621.087	95.88
621.294	101.88
621.501	88.88
621.708	93.88
621.915	111.88
622.122	108.88
622.329	97.88
622.536	101.88
622.743	107.88
622.95	103.88
623.157	106.88
623.364	105.88
623.571	97.88
623.778	105.88
623.985	105.88
624.192	118.88
624.399	105.88
624.606	113.88
624.812	103.88
625.019	90.88
625.226	104.88
625.433	102.88
625.639	104.88
625.846	98.88
626.053	95.88
626.259	93.88
626.466	100.88
626.673	98.88
626.879	88.88
627.086	97.88
627.293	97.88
627.499	93.88
627.706	99.88
627.912	102.88
628.119	91.88
628.325	104.88
628.532	96.88
628.738	98.88
628.945	94.88
629.151	101.88
629.357	91.88
629.564	102.88
629.77	109.88
629.976	99.88
630.183	87.88
630.389	96.88
630.595	108.88
630.802	88.88
631.008	114.88
631.214	102.88
631.42	107.88
631.627	107.88
631.833	99.88
632.039	83.88
632.245	94.88
632.451	107.88
632.657	98.88
632.863	101.88
633.069	114.88
633.275	119.88
633.481	88.88
633.688	116.88
633.893	100.88
634.099	99.88
634.305	94.88
634.511	88.88
634.717	94.88
634.923	95.88
635.129	92.88
635.335	109.88
635.541	96.88
635.747	100.88
635.952	99.88
636.158	88.88
636.364	98.88
636.57	104.88
636.775	95.88
636.981	97.88
637.187	117.88
637.392	102.88
637.598	104.88
637.804	90.88
638.009	92.88
638.215	99.88
638.421	95.88
638.626	83.88
638.832	95.88
639.037	102.88
639.243	108.88
639.448	101.88
639.654	94.88
639.859	93.88
640.065	89.88
640.27	104.88
640.475	95.88
640.681	92.88
640.886	109.88
641.091	104.88
641.297	95.88
641.502	100.88
641.707	107.88
641.913	111.88
642.118	107.88
642.323	103.88
642.528	111.88
642.733	104.88
642.939	91.88
643.144	111.88
643.349	93.88
643.554	98.88
643.759	103.88
643.964	97.88
644.169	98.88
644.374	86.88
644.579	98.88
644.784	96.88
644.989	91.88
645.194	88.88
645.399	79.88
645.604	102.88
645.809	98.88
646.014	99.88
646.219	82.88
646.423	84.88
646.628	90.88
646.833	91.88
647.038	100.88
647.243	97.88
647.447	94.88
647.652	91.88
647.857	92.88
648.062	100.88
648.266	93.88
648.471	91.88
648.676	95.88
648.88	102.88
649.085	99.88
649.289	94.88
649.494	94.88
649.698	94.88
649.903	92.88
650.107	92.88
650.312	87.88
650.516	92.88
650.721	91.88
650.925	103.88
651.13	94.88
651.334	90.88
651.539	98.88
651.743	107.88
651.947	103.88
652.152	79.88
652.356	91.88
652.56	89.88
652.764	94.88
652.969	79.88
653.173	93.88
653.377	105.88
653.581	99.88
653.785	98.88
653.99	90.88
654.194	96.88
654.398	92.88
654.602	74.88
654.806	72.88
655.01	83.88
655.214	87.88
655.418	92.88
655.622	91.88
655.826	89.88
656.03	89.88
656.234	89.88
656.438	78.88
656.642	99.88
656.846	90.88
657.049	76.88
657.253	83.88
657.457	93.88
657.661	87.88
657.865	93.88
658.068	78.88
658.272	89.88
658.476	90.88
658.68	78.88
658.883	94.88
659.087	77.88
659.291	80.88
659.494	81.88
659.698	95.88
659.901	89.88
660.105	88.88
660.309	81.88
660.512	84.88
660.716	88.88
660.919	79.88
661.123	67.88
661.326	80.88
661.53	88.88
661.733	72.88
661.936	87.88
662.14	77.88
662.343	82.88
662.546	71.88
662.75	69.88
662.953	78.88
663.156	85.88
663.36	92.88
663.563	68.88
663.766	70.88
663.969	78.88
664.173	71.88
664.376	76.88
664.579	71.88
664.782	75.88
664.985	77.88
665.188	84.88
665.391	83.88
665.594	79.88
665.797	91.88
666	67.88
666.203	93.88
666.406	77.88
666.609	84.88
666.812	81.88
667.015	81.88
667.218	73.88
667.421	76.88
667.624	80.88
667.827	72.88
668.03	70.88
668.232	81.88
668.435	78.88
668.638	68.88
668.841	81.88
669.043	90.88
669.246	102.88
669.449	80.88
669.651	94.88
669.854	76.88
670.057	80.88
670.259	91.88
670.462	84.88
670.665	71.88
670.867	76.88
671.07	72.88
671.272	77.88
671.475	91.88
671.677	83.88
671.88	81.88
672.082	86.88
672.284	80.88
672.487	73.88
672.689	76.88
672.892	84.88
