Data from Location6.07152019.Energy5.Lamp.07192019.3%Agarose_HRD10591_16-10-53-394.txt Node
Date: Fri Jul 19 16:10:53 EDT 2019
User: cochatt
Spectrometer: HR+D1059
Trigger mode: 1
Integration Time (sec): 1.000000E-1
Scans to average: 1
Electric dark correction enabled: true
Nonlinearity correction enabled: false
Boxcar width: 0
XAxis mode: Wavelengths
Number of Pixels in Spectrum: 2048
>>>>>Begin Spectral Data<<<<<
223.165	-16.31
223.4	-16.31
223.635	-16.31
223.869	-14.31
224.104	-19.31
224.338	-6.31
224.573	-15.31
224.808	2.69
225.042	-10.31
225.277	-8.31
225.511	-4.31
225.746	-9.31
225.98	-2.31
226.215	5.69
226.449	13.69
226.683	27.69
226.918	31.69
227.152	24.69
227.387	36.69
227.621	42.69
227.856	39.69
228.09	50.69
228.324	53.69
228.559	49.69
228.793	65.69
229.027	70.69
229.262	69.69
229.496	63.69
229.73	71.69
229.964	60.69
230.199	65.69
230.433	71.69
230.667	69.69
230.901	91.69
231.136	77.69
231.37	64.69
231.604	84.69
231.838	75.69
232.072	83.69
232.306	82.69
232.541	79.69
232.775	74.69
233.009	78.69
233.243	87.69
233.477	86.69
233.711	84.69
233.945	84.69
234.179	82.69
234.413	81.69
234.647	59.69
234.881	92.69
235.115	87.69
235.349	87.69
235.583	89.69
235.817	84.69
236.051	70.69
236.285	87.69
236.519	71.69
236.753	70.69
236.987	70.69
237.221	75.69
237.455	88.69
237.689	80.69
237.922	68.69
238.156	66.69
238.39	68.69
238.624	85.69
238.858	85.69
239.091	68.69
239.325	75.69
239.559	77.69
239.793	76.69
240.027	73.69
240.26	82.69
240.494	82.69
240.728	80.69
240.961	76.69
241.195	73.69
241.429	83.69
241.662	74.69
241.896	88.69
242.13	75.69
242.363	78.69
242.597	59.69
242.83	73.69
243.064	73.69
243.298	66.69
243.531	84.69
243.765	71.69
243.998	77.69
244.232	72.69
244.465	76.69
244.699	86.69
244.932	76.69
245.166	75.69
245.399	64.69
245.633	70.69
245.866	76.69
246.099	82.69
246.333	77.69
246.566	76.69
246.8	77.69
247.033	61.69
247.266	82.69
247.5	67.69
247.733	71.69
247.966	70.69
248.2	67.69
248.433	72.69
248.666	82.69
248.899	99.69
249.133	90.69
249.366	78.69
249.599	77.69
249.832	91.69
250.066	88.69
250.299	71.69
250.532	84.69
250.765	85.69
250.998	83.69
251.231	67.69
251.465	86.69
251.698	89.69
251.931	84.69
252.164	77.69
252.397	65.69
252.63	96.69
252.863	77.69
253.096	82.69
253.329	66.69
253.562	90.69
253.795	78.69
254.028	77.69
254.261	78.69
254.494	87.69
254.727	81.69
254.96	73.69
255.193	75.69
255.426	76.69
255.659	95.69
255.892	101.69
256.124	60.69
256.357	80.69
256.59	79.69
256.823	74.69
257.056	77.69
257.289	73.69
257.521	84.69
257.754	76.69
257.987	81.69
258.22	92.69
258.452	91.69
258.685	90.69
258.918	79.69
259.151	73.69
259.383	85.69
259.616	72.69
259.849	84.69
260.081	85.69
260.314	83.69
260.547	85.69
260.779	80.69
261.012	78.69
261.244	85.69
261.477	76.69
261.71	96.69
261.942	89.69
262.175	79.69
262.407	92.69
262.64	70.69
262.872	85.69
263.105	76.69
263.337	88.69
263.57	100.69
263.802	77.69
264.035	81.69
264.267	89.69
264.499	80.69
264.732	85.69
264.964	86.69
265.197	84.69
265.429	87.69
265.661	83.69
265.894	82.69
266.126	82.69
266.358	95.69
266.591	92.69
266.823	88.69
267.055	83.69
267.287	81.69
267.52	86.69
267.752	82.69
267.984	103.69
268.216	82.69
268.448	92.69
268.681	83.69
268.913	94.69
269.145	89.69
269.377	81.69
269.609	74.69
269.841	72.69
270.073	68.69
270.306	74.69
270.538	84.69
270.77	87.69
271.002	87.69
271.234	85.69
271.466	79.69
271.698	88.69
271.93	79.69
272.162	76.69
272.394	94.69
272.626	89.69
272.858	81.69
273.09	91.69
273.322	71.69
273.553	97.69
273.785	93.69
274.017	90.69
274.249	77.69
274.481	81.69
274.713	81.69
274.945	90.69
275.176	87.69
275.408	86.69
275.64	76.69
275.872	79.69
276.104	82.69
276.335	75.69
276.567	95.69
276.799	80.69
277.031	87.69
277.262	97.69
277.494	72.69
277.726	88.69
277.957	91.69
278.189	85.69
278.421	80.69
278.652	92.69
278.884	87.69
279.115	86.69
279.347	73.69
279.579	85.69
279.81	79.69
280.042	88.69
280.273	76.69
280.505	80.69
280.736	92.69
280.968	81.69
281.199	85.69
281.431	92.69
281.662	79.69
281.894	87.69
282.125	82.69
282.356	91.69
282.588	83.69
282.819	85.69
283.051	93.69
283.282	82.69
283.513	88.69
283.745	81.69
283.976	74.69
284.207	86.69
284.439	80.69
284.67	89.69
284.901	76.69
285.132	98.69
285.364	74.69
285.595	84.69
285.826	83.69
286.057	78.69
286.288	88.69
286.52	80.69
286.751	84.69
286.982	90.69
287.213	83.69
287.444	79.69
287.675	76.69
287.906	86.69
288.138	85.69
288.369	79.69
288.6	91.69
288.831	85.69
289.062	80.69
289.293	80.69
289.524	76.69
289.755	87.69
289.986	86.69
290.217	89.69
290.448	88.69
290.679	87.69
290.91	85.69
291.141	87.69
291.371	76.69
291.602	77.69
291.833	81.69
292.064	83.69
292.295	77.69
292.526	81.69
292.757	81.69
292.987	88.69
293.218	76.69
293.449	92.69
293.68	84.69
293.91	87.69
294.141	82.69
294.372	88.69
294.603	87.69
294.833	94.69
295.064	86.69
295.295	90.69
295.525	96.69
295.756	91.69
295.987	85.69
296.217	79.69
296.448	78.69
296.679	70.69
296.909	96.69
297.14	84.69
297.37	83.69
297.601	98.69
297.831	84.69
298.062	93.69
298.292	85.69
298.523	85.69
298.753	89.69
298.984	81.69
299.214	80.69
299.445	89.69
299.675	86.69
299.905	89.69
300.136	87.69
300.366	86.69
300.597	76.69
300.827	90.69
301.057	87.69
301.288	86.69
301.518	75.69
301.748	88.69
301.979	88.69
302.209	74.69
302.439	80.69
302.669	78.69
302.9	88.69
303.13	91.69
303.36	92.69
303.59	77.69
303.82	83.69
304.051	83.69
304.281	88.69
304.511	93.69
304.741	88.69
304.971	87.69
305.201	91.69
305.431	83.69
305.661	82.69
305.891	87.69
306.121	87.69
306.352	89.69
306.582	79.69
306.812	97.69
307.042	91.69
307.272	80.69
307.502	84.69
307.731	89.69
307.961	84.69
308.191	83.69
308.421	84.69
308.651	87.69
308.881	86.69
309.111	100.69
309.341	91.69
309.571	93.69
309.8	87.69
310.03	85.69
310.26	94.69
310.49	87.69
310.72	82.69
310.949	83.69
311.179	73.69
311.409	95.69
311.639	93.69
311.868	96.69
312.098	84.69
312.328	72.69
312.557	73.69
312.787	83.69
313.017	79.69
313.246	84.69
313.476	88.69
313.706	81.69
313.935	95.69
314.165	88.69
314.394	89.69
314.624	73.69
314.853	75.69
315.083	85.69
315.312	88.69
315.542	89.69
315.771	85.69
316.001	73.69
316.23	89.69
316.46	92.69
316.689	85.69
316.919	82.69
317.148	77.69
317.377	77.69
317.607	76.69
317.836	85.69
318.065	105.69
318.295	75.69
318.524	77.69
318.753	80.69
318.983	91.69
319.212	74.69
319.441	91.69
319.67	89.69
319.9	73.69
320.129	73.69
320.358	86.69
320.587	95.69
320.816	95.69
321.046	83.69
321.275	95.69
321.504	99.69
321.733	75.69
321.962	80.69
322.191	107.69
322.42	71.69
322.649	101.69
322.878	91.69
323.108	101.69
323.337	91.69
323.566	88.69
323.795	83.69
324.024	81.69
324.253	73.69
324.482	83.69
324.71	80.69
324.939	106.69
325.168	69.69
325.397	84.69
325.626	86.69
325.855	91.69
326.084	83.69
326.313	74.69
326.542	92.69
326.77	94.69
326.999	79.69
327.228	72.69
327.457	75.69
327.686	84.69
327.914	70.69
328.143	100.69
328.372	78.69
328.6	82.69
328.829	83.69
329.058	88.69
329.287	99.69
329.515	100.69
329.744	87.69
329.972	101.69
330.201	83.69
330.43	85.69
330.658	72.69
330.887	84.69
331.115	82.69
331.344	86.69
331.572	92.69
331.801	67.69
332.03	88.69
332.258	90.69
332.486	89.69
332.715	80.69
332.943	69.69
333.172	85.69
333.4	89.69
333.629	82.69
333.857	92.69
334.085	94.69
334.314	93.69
334.542	90.69
334.771	87.69
334.999	95.69
335.227	90.69
335.455	91.69
335.684	77.69
335.912	85.69
336.14	81.69
336.369	83.69
336.597	76.69
336.825	93.69
337.053	97.69
337.281	79.69
337.51	80.69
337.738	92.69
337.966	73.69
338.194	83.69
338.422	83.69
338.65	80.69
338.878	76.69
339.106	78.69
339.334	94.69
339.562	73.69
339.79	96.69
340.018	89.69
340.246	84.69
340.474	92.69
340.702	87.69
340.93	75.69
341.158	76.69
341.386	79.69
341.614	86.69
341.842	89.69
342.07	92.69
342.298	91.69
342.526	96.69
342.754	92.69
342.981	96.69
343.209	72.69
343.437	90.69
343.665	86.69
343.893	88.69
344.12	93.69
344.348	92.69
344.576	79.69
344.804	87.69
345.031	76.69
345.259	80.69
345.487	84.69
345.714	94.69
345.942	85.69
346.17	77.69
346.397	86.69
346.625	95.69
346.853	88.69
347.08	91.69
347.308	87.69
347.535	82.69
347.763	95.69
347.99	85.69
348.218	83.69
348.445	85.69
348.673	84.69
348.9	81.69
349.128	95.69
349.355	81.69
349.583	83.69
349.81	89.69
350.037	87.69
350.265	76.69
350.492	80.69
350.72	84.69
350.947	80.69
351.174	63.69
351.402	82.69
351.629	81.69
351.856	80.69
352.083	88.69
352.311	84.69
352.538	75.69
352.765	94.69
352.992	77.69
353.22	84.69
353.447	89.69
353.674	75.69
353.901	81.69
354.128	78.69
354.355	85.69
354.583	91.69
354.81	84.69
355.037	90.69
355.264	90.69
355.491	85.69
355.718	69.69
355.945	77.69
356.172	80.69
356.399	96.69
356.626	87.69
356.853	83.69
357.08	82.69
357.307	86.69
357.534	88.69
357.761	92.69
357.988	76.69
358.215	95.69
358.441	90.69
358.668	76.69
358.895	91.69
359.122	81.69
359.349	84.69
359.576	74.69
359.802	90.69
360.029	105.69
360.256	89.69
360.483	86.69
360.709	68.69
360.936	83.69
361.163	82.69
361.39	82.69
361.616	77.69
361.843	86.69
362.07	89.69
362.296	83.69
362.523	90.69
362.749	92.69
362.976	85.69
363.203	93.69
363.429	85.69
363.656	88.69
363.882	83.69
364.109	84.69
364.335	90.69
364.562	88.69
364.788	82.69
365.015	82.69
365.241	86.69
365.468	82.69
365.694	70.69
365.92	76.69
366.147	82.69
366.373	101.69
366.599	87.69
366.826	92.69
367.052	76.69
367.278	87.69
367.505	92.69
367.731	88.69
367.957	93.69
368.184	88.69
368.41	95.69
368.636	90.69
368.862	96.69
369.089	87.69
369.315	85.69
369.541	86.69
369.767	85.69
369.993	91.69
370.219	84.69
370.445	82.69
370.672	98.69
370.898	84.69
371.124	95.69
371.35	80.69
371.576	92.69
371.802	104.69
372.028	97.69
372.254	104.69
372.48	100.69
372.706	89.69
372.932	100.69
373.158	98.69
373.384	88.69
373.61	89.69
373.835	99.69
374.061	93.69
374.287	100.69
374.513	97.69
374.739	87.69
374.965	101.69
375.191	86.69
375.416	96.69
375.642	112.69
375.868	91.69
376.094	85.69
376.319	94.69
376.545	90.69
376.771	99.69
376.997	96.69
377.222	90.69
377.448	103.69
377.674	107.69
377.899	88.69
378.125	100.69
378.35	94.69
378.576	95.69
378.802	113.69
379.027	84.69
379.253	95.69
379.478	107.69
379.704	89.69
379.929	92.69
380.155	89.69
380.38	99.69
380.606	100.69
380.831	113.69
381.057	99.69
381.282	100.69
381.507	85.69
381.733	103.69
381.958	112.69
382.184	116.69
382.409	87.69
382.634	93.69
382.86	103.69
383.085	117.69
383.31	90.69
383.535	100.69
383.761	104.69
383.986	98.69
384.211	102.69
384.436	98.69
384.662	100.69
384.887	87.69
385.112	89.69
385.337	96.69
385.562	108.69
385.787	99.69
386.013	97.69
386.238	95.69
386.463	102.69
386.688	90.69
386.913	95.69
387.138	98.69
387.363	104.69
387.588	101.69
387.813	105.69
388.038	107.69
388.263	97.69
388.488	117.69
388.713	101.69
388.938	88.69
389.163	91.69
389.387	100.69
389.612	103.69
389.837	96.69
390.062	106.69
390.287	92.69
390.512	104.69
390.736	100.69
390.961	99.69
391.186	111.69
391.411	89.69
391.636	102.69
391.86	109.69
392.085	100.69
392.31	107.69
392.534	112.69
392.759	92.69
392.984	119.69
393.208	101.69
393.433	107.69
393.658	95.69
393.882	123.69
394.107	118.69
394.331	125.69
394.556	119.69
394.78	107.69
395.005	108.69
395.229	111.69
395.454	114.69
395.678	115.69
395.903	95.69
396.127	107.69
396.352	119.69
396.576	97.69
396.801	106.69
397.025	99.69
397.249	113.69
397.474	121.69
397.698	121.69
397.922	122.69
398.147	107.69
398.371	97.69
398.595	124.69
398.82	111.69
399.044	108.69
399.268	109.69
399.492	113.69
399.717	119.69
399.941	107.69
400.165	113.69
400.389	116.69
400.613	119.69
400.837	124.69
401.062	105.69
401.286	119.69
401.51	132.69
401.734	109.69
401.958	115.69
402.182	121.69
402.406	111.69
402.63	114.69
402.854	109.69
403.078	123.69
403.302	121.69
403.526	120.69
403.75	119.69
403.974	116.69
404.198	121.69
404.422	113.69
404.645	128.69
404.869	118.69
405.093	111.69
405.317	122.69
405.541	129.69
405.765	121.69
405.988	123.69
406.212	137.69
406.436	112.69
406.66	132.69
406.883	120.69
407.107	133.69
407.331	118.69
407.555	109.69
407.778	131.69
408.002	118.69
408.226	132.69
408.449	125.69
408.673	124.69
408.896	125.69
409.12	112.69
409.344	123.69
409.567	121.69
409.791	102.69
410.014	111.69
410.238	138.69
410.461	136.69
410.685	124.69
410.908	117.69
411.132	128.69
411.355	122.69
411.578	125.69
411.802	118.69
412.025	118.69
412.249	121.69
412.472	117.69
412.695	123.69
412.919	129.69
413.142	128.69
413.365	131.69
413.589	120.69
413.812	120.69
414.035	124.69
414.258	124.69
414.482	126.69
414.705	121.69
414.928	122.69
415.151	135.69
415.374	121.69
415.597	128.69
415.821	121.69
416.044	128.69
416.267	131.69
416.49	137.69
416.713	129.69
416.936	130.69
417.159	121.69
417.382	131.69
417.605	119.69
417.828	108.69
418.051	135.69
418.274	131.69
418.497	122.69
418.72	123.69
418.943	149.69
419.166	138.69
419.389	137.69
419.611	135.69
419.834	127.69
420.057	138.69
420.28	139.69
420.503	133.69
420.726	143.69
420.948	136.69
421.171	137.69
421.394	138.69
421.617	170.69
421.839	144.69
422.062	137.69
422.285	121.69
422.507	133.69
422.73	127.69
422.953	124.69
423.175	142.69
423.398	139.69
423.621	147.69
423.843	147.69
424.066	129.69
424.288	147.69
424.511	146.69
424.733	146.69
424.956	147.69
425.178	142.69
425.401	137.69
425.623	139.69
425.846	131.69
426.068	130.69
426.291	132.69
426.513	120.69
426.735	136.69
426.958	139.69
427.18	133.69
427.402	139.69
427.625	129.69
427.847	130.69
428.069	127.69
428.292	139.69
428.514	133.69
428.736	126.69
428.958	133.69
429.181	122.69
429.403	135.69
429.625	127.69
429.847	133.69
430.069	123.69
430.292	148.69
430.514	129.69
430.736	129.69
430.958	147.69
431.18	130.69
431.402	130.69
431.624	128.69
431.846	111.69
432.068	104.69
432.29	94.69
432.512	117.69
432.734	139.69
432.956	157.69
433.178	132.69
433.4	158.69
433.622	158.69
433.844	146.69
434.066	139.69
434.287	121.69
434.509	100.69
434.731	91.69
434.953	94.69
435.175	119.69
435.397	131.69
435.618	130.69
435.84	108.69
436.062	117.69
436.284	125.69
436.505	131.69
436.727	127.69
436.949	128.69
437.17	137.69
437.392	139.69
437.614	110.69
437.835	119.69
438.057	110.69
438.278	120.69
438.5	147.69
438.721	136.69
438.943	129.69
439.165	137.69
439.386	144.69
439.608	141.69
439.829	160.69
440.05	156.69
440.272	149.69
440.493	152.69
440.715	151.69
440.936	153.69
441.158	159.69
441.379	145.69
441.6	157.69
441.822	164.69
442.043	139.69
442.264	139.69
442.486	142.69
442.707	129.69
442.928	147.69
443.149	131.69
443.371	144.69
443.592	144.69
443.813	140.69
444.034	134.69
444.255	135.69
444.476	136.69
444.698	156.69
444.919	153.69
445.14	262.69
445.361	211.69
445.582	151.69
445.803	149.69
446.024	146.69
446.245	165.69
446.466	143.69
446.687	151.69
446.908	170.69
447.129	172.69
447.35	153.69
447.571	156.69
447.792	164.69
448.013	145.69
448.234	145.69
448.455	138.69
448.675	163.69
448.896	137.69
449.117	147.69
449.338	145.69
449.559	137.69
449.779	129.69
450	133.69
450.221	131.69
450.442	119.69
450.662	131.69
450.883	127.69
451.104	133.69
451.324	132.69
451.545	141.69
451.766	129.69
451.986	133.69
452.207	140.69
452.428	137.69
452.648	141.69
452.869	127.69
453.089	119.69
453.31	112.69
453.53	116.69
453.751	107.69
453.971	101.69
454.192	103.69
454.412	109.69
454.633	131.69
454.853	137.69
455.073	125.69
455.294	128.69
455.514	120.69
455.734	124.69
455.955	125.69
456.175	116.69
456.395	125.69
456.616	117.69
456.836	124.69
457.056	120.69
457.276	116.69
457.497	109.69
457.717	115.69
457.937	111.69
458.157	119.69
458.377	127.69
458.598	118.69
458.818	101.69
459.038	93.69
459.258	99.69
459.478	108.69
459.698	96.69
459.918	100.69
460.138	92.69
460.358	122.69
460.578	102.69
460.798	113.69
461.018	129.69
461.238	120.69
461.458	124.69
461.678	104.69
461.898	131.69
462.118	118.69
462.338	113.69
462.558	122.69
462.777	109.69
462.997	122.69
463.217	113.69
463.437	104.69
463.657	107.69
463.876	108.69
464.096	111.69
464.316	116.69
464.536	100.69
464.755	112.69
464.975	116.69
465.195	126.69
465.414	111.69
465.634	120.69
465.854	131.69
466.073	115.69
466.293	121.69
466.512	121.69
466.732	123.69
466.951	127.69
467.171	122.69
467.391	148.69
467.61	136.69
467.829	151.69
468.049	135.69
468.268	149.69
468.488	139.69
468.707	133.69
468.927	145.69
469.146	157.69
469.365	165.69
469.585	151.69
469.804	147.69
470.023	146.69
470.243	146.69
470.462	142.69
470.681	151.69
470.901	140.69
471.12	151.69
471.339	155.69
471.558	161.69
471.777	152.69
471.997	147.69
472.216	138.69
472.435	121.69
472.654	120.69
472.873	97.69
473.092	125.69
473.311	125.69
473.53	125.69
473.749	129.69
473.968	129.69
474.187	111.69
474.406	119.69
474.625	135.69
474.844	137.69
475.063	140.69
475.282	120.69
475.501	129.69
475.72	132.69
475.939	120.69
476.158	130.69
476.377	118.69
476.596	124.69
476.814	128.69
477.033	115.69
477.252	116.69
477.471	121.69
477.69	141.69
477.908	151.69
478.127	147.69
478.346	135.69
478.564	131.69
478.783	139.69
479.002	140.69
479.22	148.69
479.439	153.69
479.658	139.69
479.876	139.69
480.095	116.69
480.313	121.69
480.532	129.69
480.751	117.69
480.969	91.69
481.188	82.69
481.406	91.69
481.624	80.69
481.843	89.69
482.061	107.69
482.28	109.69
482.498	132.69
482.717	109.69
482.935	135.69
483.153	149.69
483.372	143.69
483.59	154.69
483.808	139.69
484.027	140.69
484.245	128.69
484.463	152.69
484.681	169.69
484.9	143.69
485.118	147.69
485.336	139.69
485.554	115.69
485.772	120.69
485.99	101.69
486.209	118.69
486.427	107.69
486.645	131.69
486.863	145.69
487.081	150.69
487.299	137.69
487.517	134.69
487.735	172.69
487.953	181.69
488.171	178.69
488.389	172.69
488.607	177.69
488.825	157.69
489.043	130.69
489.261	132.69
489.479	143.69
489.696	141.69
489.914	141.69
490.132	164.69
490.35	169.69
490.568	156.69
490.786	184.69
491.003	191.69
491.221	200.69
491.439	213.69
491.657	218.69
491.874	215.69
492.092	260.69
492.31	235.69
492.527	218.69
492.745	202.69
492.963	209.69
493.18	206.69
493.398	194.69
493.615	205.69
493.833	193.69
494.05	175.69
494.268	162.69
494.485	171.69
494.703	193.69
494.92	188.69
495.138	199.69
495.355	179.69
495.573	181.69
495.79	172.69
496.008	199.69
496.225	171.69
496.442	173.69
496.66	175.69
496.877	176.69
497.094	180.69
497.312	167.69
497.529	175.69
497.746	155.69
497.963	147.69
498.181	147.69
498.398	130.69
498.615	123.69
498.832	124.69
499.049	125.69
499.267	119.69
499.484	145.69
499.701	138.69
499.918	138.69
500.135	157.69
500.352	137.69
500.569	146.69
500.786	149.69
501.003	147.69
501.22	134.69
501.437	156.69
501.654	133.69
501.871	133.69
502.088	152.69
502.305	143.69
502.522	132.69
502.739	150.69
502.956	125.69
503.172	122.69
503.389	131.69
503.606	131.69
503.823	128.69
504.04	117.69
504.256	113.69
504.473	144.69
504.69	131.69
504.907	131.69
505.123	127.69
505.34	126.69
505.557	129.69
505.773	145.69
505.99	110.69
506.207	123.69
506.423	135.69
506.64	124.69
506.856	120.69
507.073	132.69
507.289	136.69
507.506	138.69
507.722	116.69
507.939	131.69
508.155	124.69
508.372	110.69
508.588	113.69
508.805	117.69
509.021	113.69
509.238	105.69
509.454	112.69
509.67	115.69
509.887	101.69
510.103	99.69
510.319	99.69
510.536	93.69
510.752	95.69
510.968	85.69
511.184	68.69
511.401	100.69
511.617	94.69
511.833	96.69
512.049	98.69
512.265	98.69
512.481	109.69
512.698	96.69
512.914	104.69
513.13	86.69
513.346	89.69
513.562	97.69
513.778	84.69
513.994	99.69
514.21	92.69
514.426	100.69
514.642	95.69
514.858	86.69
515.074	90.69
515.29	88.69
515.506	90.69
515.721	105.69
515.937	95.69
516.153	104.69
516.369	89.69
516.585	92.69
516.801	87.69
517.016	96.69
517.232	89.69
517.448	100.69
517.664	88.69
517.879	102.69
518.095	100.69
518.311	106.69
518.527	109.69
518.742	99.69
518.958	103.69
519.173	115.69
519.389	125.69
519.605	112.69
519.82	97.69
520.036	106.69
520.251	110.69
520.467	114.69
520.682	118.69
520.898	108.69
521.113	92.69
521.329	97.69
521.544	102.69
521.76	99.69
521.975	96.69
522.19	107.69
522.406	98.69
522.621	103.69
522.836	109.69
523.052	103.69
523.267	121.69
523.482	114.69
523.698	133.69
523.913	119.69
524.128	118.69
524.343	119.69
524.559	129.69
524.774	121.69
524.989	128.69
525.204	121.69
525.419	111.69
525.634	114.69
525.849	127.69
526.064	111.69
526.28	123.69
526.495	104.69
526.71	98.69
526.925	83.69
527.14	88.69
527.355	73.69
527.57	93.69
527.785	94.69
527.999	103.69
528.214	106.69
528.429	127.69
528.644	124.69
528.859	147.69
529.074	148.69
529.289	170.69
529.503	162.69
529.718	141.69
529.933	135.69
530.148	122.69
530.363	95.69
530.577	95.69
530.792	83.69
531.007	92.69
531.221	89.69
531.436	84.69
531.651	92.69
531.865	89.69
532.08	90.69
532.295	83.69
532.509	101.69
532.724	80.69
532.938	91.69
533.153	76.69
533.367	117.69
533.582	126.69
533.796	140.69
534.011	118.69
534.225	94.69
534.44	91.69
534.654	106.69
534.868	83.69
535.083	93.69
535.297	99.69
535.511	111.69
535.726	103.69
535.94	120.69
536.154	102.69
536.369	91.69
536.583	91.69
536.797	103.69
537.011	93.69
537.225	89.69
537.44	95.69
537.654	79.69
537.868	106.69
538.082	120.69
538.296	96.69
538.51	113.69
538.724	132.69
538.938	96.69
539.153	141.69
539.367	123.69
539.581	115.69
539.795	99.69
540.009	89.69
540.222	104.69
540.436	100.69
540.65	111.69
540.864	119.69
541.078	148.69
541.292	149.69
541.506	168.69
541.72	170.69
541.934	202.69
542.147	211.69
542.361	200.69
542.575	171.69
542.789	169.69
543.002	149.69
543.216	127.69
543.43	142.69
543.644	149.69
543.857	148.69
544.071	166.69
544.285	161.69
544.498	160.69
544.712	176.69
544.925	148.69
545.139	164.69
545.352	162.69
545.566	165.69
545.779	164.69
545.993	167.69
546.206	167.69
546.42	170.69
546.633	183.69
546.847	163.69
547.06	170.69
547.274	170.69
547.487	171.69
547.7	187.69
547.914	172.69
548.127	156.69
548.34	177.69
548.554	140.69
548.767	154.69
548.98	158.69
549.193	161.69
549.407	169.69
549.62	165.69
549.833	167.69
550.046	155.69
550.259	157.69
550.473	142.69
550.686	168.69
550.899	167.69
551.112	138.69
551.325	175.69
551.538	151.69
551.751	135.69
551.964	135.69
552.177	138.69
552.39	135.69
552.603	145.69
552.816	162.69
553.029	162.69
553.242	164.69
553.455	167.69
553.667	164.69
553.88	168.69
554.093	146.69
554.306	155.69
554.519	151.69
554.732	157.69
554.944	139.69
555.157	159.69
555.37	144.69
555.583	162.69
555.795	139.69
556.008	144.69
556.221	149.69
556.433	135.69
556.646	137.69
556.859	150.69
557.071	155.69
557.284	164.69
557.496	146.69
557.709	157.69
557.921	164.69
558.134	129.69
558.346	149.69
558.559	136.69
558.771	144.69
558.984	139.69
559.196	145.69
559.409	145.69
559.621	140.69
559.833	127.69
560.046	147.69
560.258	146.69
560.47	125.69
560.683	134.69
560.895	135.69
561.107	154.69
561.32	151.69
561.532	140.69
561.744	127.69
561.956	143.69
562.168	137.69
562.381	137.69
562.593	138.69
562.805	137.69
563.017	153.69
563.229	124.69
563.441	122.69
563.653	127.69
563.865	126.69
564.077	139.69
564.289	131.69
564.501	127.69
564.713	118.69
564.925	126.69
565.137	143.69
565.349	133.69
565.561	127.69
565.773	131.69
565.985	120.69
566.197	119.69
566.408	111.69
566.62	131.69
566.832	113.69
567.044	125.69
567.255	116.69
567.467	118.69
567.679	97.69
567.891	119.69
568.102	91.69
568.314	102.69
568.526	93.69
568.737	91.69
568.949	87.69
569.161	82.69
569.372	90.69
569.584	78.69
569.795	97.69
570.007	101.69
570.218	68.69
570.43	89.69
570.641	88.69
570.853	92.69
571.064	99.69
571.276	91.69
571.487	101.69
571.698	102.69
571.91	91.69
572.121	104.69
572.333	101.69
572.544	117.69
572.755	96.69
572.966	87.69
573.178	88.69
573.389	87.69
573.6	87.69
573.811	86.69
574.023	99.69
574.234	85.69
574.445	78.69
574.656	104.69
574.867	95.69
575.078	97.69
575.289	104.69
575.501	91.69
575.712	96.69
575.923	107.69
576.134	101.69
576.345	101.69
576.556	109.69
576.767	96.69
576.978	97.69
577.188	93.69
577.399	104.69
577.61	85.69
577.821	91.69
578.032	95.69
578.243	112.69
578.454	86.69
578.665	96.69
578.875	78.69
579.086	82.69
579.297	85.69
579.508	79.69
579.718	95.69
579.929	99.69
580.14	90.69
580.35	70.69
580.561	91.69
580.772	90.69
580.982	92.69
581.193	102.69
581.403	93.69
581.614	88.69
581.825	93.69
582.035	97.69
582.246	101.69
582.456	99.69
582.667	93.69
582.877	91.69
583.087	85.69
583.298	83.69
583.508	84.69
583.719	91.69
583.929	84.69
584.139	83.69
584.35	80.69
584.56	96.69
584.77	92.69
584.981	96.69
585.191	89.69
585.401	91.69
585.611	89.69
585.821	96.69
586.032	96.69
586.242	90.69
586.452	96.69
586.662	98.69
586.872	88.69
587.082	87.69
587.292	77.69
587.502	89.69
587.713	92.69
587.923	82.69
588.133	91.69
588.343	82.69
588.553	90.69
588.762	91.69
588.972	98.69
589.182	97.69
589.392	93.69
589.602	92.69
589.812	88.69
590.022	92.69
590.232	92.69
590.441	82.69
590.651	91.69
590.861	102.69
591.071	87.69
591.281	83.69
591.49	87.69
591.7	76.69
591.91	102.69
592.119	77.69
592.329	71.69
592.539	89.69
592.748	90.69
592.958	88.69
593.167	80.69
593.377	91.69
593.587	102.69
593.796	91.69
594.006	83.69
594.215	92.69
594.424	85.69
594.634	98.69
594.843	103.69
595.053	100.69
595.262	94.69
595.472	105.69
595.681	94.69
595.89	105.69
596.1	85.69
596.309	92.69
596.518	97.69
596.727	80.69
596.937	97.69
597.146	85.69
597.355	92.69
597.564	91.69
597.774	89.69
597.983	89.69
598.192	97.69
598.401	83.69
598.61	89.69
598.819	95.69
599.028	93.69
599.237	93.69
599.446	104.69
599.655	85.69
599.864	88.69
600.073	88.69
600.282	88.69
600.491	99.69
600.7	87.69
600.909	98.69
601.118	91.69
601.327	108.69
601.536	108.69
601.745	114.69
601.953	105.69
602.162	114.69
602.371	119.69
602.58	114.69
602.789	108.69
602.997	104.69
603.206	113.69
603.415	121.69
603.623	117.69
603.832	103.69
604.041	94.69
604.249	110.69
604.458	101.69
604.666	102.69
604.875	109.69
605.084	122.69
605.292	123.69
605.501	109.69
605.709	121.69
605.918	112.69
606.126	113.69
606.334	109.69
606.543	118.69
606.751	99.69
606.96	123.69
607.168	107.69
607.376	118.69
607.585	121.69
607.793	107.69
608.001	105.69
608.21	120.69
608.418	118.69
608.626	124.69
608.834	103.69
609.043	112.69
609.251	118.69
609.459	117.69
609.667	117.69
609.875	115.69
610.083	121.69
610.291	109.69
610.499	116.69
610.707	114.69
610.916	108.69
611.124	133.69
611.332	113.69
611.54	103.69
611.748	123.69
611.955	115.69
612.163	115.69
612.371	117.69
612.579	111.69
612.787	107.69
612.995	119.69
613.203	133.69
613.411	124.69
613.618	119.69
613.826	105.69
614.034	100.69
614.242	124.69
614.449	107.69
614.657	118.69
614.865	125.69
615.072	116.69
615.28	104.69
615.488	113.69
615.695	130.69
615.903	123.69
616.111	121.69
616.318	122.69
616.526	117.69
616.733	107.69
616.941	111.69
617.148	131.69
617.356	129.69
617.563	120.69
617.771	110.69
617.978	105.69
618.185	109.69
618.393	112.69
618.6	124.69
618.807	106.69
619.015	128.69
619.222	129.69
619.429	128.69
619.637	115.69
619.844	109.69
620.051	105.69
620.258	101.69
620.466	113.69
620.673	105.69
620.88	111.69
621.087	115.69
621.294	100.69
621.501	97.69
621.708	108.69
621.915	104.69
622.122	98.69
622.329	106.69
622.536	107.69
622.743	115.69
622.95	100.69
623.157	105.69
623.364	109.69
623.571	113.69
623.778	115.69
623.985	99.69
624.192	117.69
624.399	113.69
624.606	106.69
624.812	103.69
625.019	109.69
625.226	96.69
625.433	111.69
625.639	113.69
625.846	114.69
626.053	97.69
626.259	94.69
626.466	107.69
626.673	90.69
626.879	93.69
627.086	99.69
627.293	108.69
627.499	107.69
627.706	119.69
627.912	114.69
628.119	113.69
628.325	117.69
628.532	113.69
628.738	97.69
628.945	101.69
629.151	112.69
629.357	95.69
629.564	99.69
629.77	108.69
629.976	104.69
630.183	96.69
630.389	99.69
630.595	105.69
630.802	121.69
631.008	104.69
631.214	110.69
631.42	111.69
631.627	102.69
631.833	106.69
632.039	97.69
632.245	102.69
632.451	106.69
632.657	93.69
632.863	103.69
633.069	96.69
633.275	104.69
633.481	99.69
633.688	89.69
633.893	119.69
634.099	89.69
634.305	101.69
634.511	95.69
634.717	74.69
634.923	92.69
635.129	100.69
635.335	102.69
635.541	99.69
635.747	111.69
635.952	100.69
636.158	104.69
636.364	97.69
636.57	112.69
636.775	111.69
636.981	116.69
637.187	104.69
637.392	110.69
637.598	108.69
637.804	108.69
638.009	105.69
638.215	104.69
638.421	88.69
638.626	97.69
638.832	81.69
639.037	113.69
639.243	92.69
639.448	101.69
639.654	107.69
639.859	101.69
640.065	85.69
640.27	106.69
640.475	87.69
640.681	98.69
640.886	94.69
641.091	99.69
641.297	106.69
641.502	112.69
641.707	120.69
641.913	83.69
642.118	97.69
642.323	106.69
642.528	104.69
642.733	113.69
642.939	96.69
643.144	98.69
643.349	99.69
643.554	84.69
643.759	96.69
643.964	100.69
644.169	101.69
644.374	102.69
644.579	101.69
644.784	94.69
644.989	102.69
645.194	103.69
645.399	104.69
645.604	95.69
645.809	118.69
646.014	106.69
646.219	99.69
646.423	100.69
646.628	98.69
646.833	88.69
647.038	99.69
647.243	114.69
647.447	94.69
647.652	101.69
647.857	96.69
648.062	99.69
648.266	98.69
648.471	112.69
648.676	104.69
648.88	111.69
649.085	91.69
649.289	96.69
649.494	82.69
649.698	100.69
649.903	113.69
650.107	109.69
650.312	89.69
650.516	108.69
650.721	96.69
650.925	102.69
651.13	94.69
651.334	92.69
651.539	88.69
651.743	93.69
651.947	105.69
652.152	102.69
652.356	88.69
652.56	96.69
652.764	106.69
652.969	88.69
653.173	96.69
653.377	97.69
653.581	83.69
653.785	103.69
653.99	91.69
654.194	91.69
654.398	100.69
654.602	90.69
654.806	90.69
655.01	87.69
655.214	86.69
655.418	103.69
655.622	95.69
655.826	98.69
656.03	90.69
656.234	106.69
656.438	97.69
656.642	112.69
656.846	91.69
657.049	92.69
657.253	85.69
657.457	89.69
657.661	85.69
657.865	84.69
658.068	89.69
658.272	84.69
658.476	97.69
658.68	83.69
658.883	80.69
659.087	90.69
659.291	71.69
659.494	91.69
659.698	102.69
659.901	76.69
660.105	89.69
660.309	96.69
660.512	88.69
660.716	99.69
660.919	77.69
661.123	96.69
661.326	95.69
661.53	79.69
661.733	79.69
661.936	81.69
662.14	81.69
662.343	76.69
662.546	90.69
662.75	84.69
662.953	91.69
663.156	84.69
663.36	73.69
663.563	79.69
663.766	66.69
663.969	94.69
664.173	75.69
664.376	79.69
664.579	71.69
664.782	66.69
664.985	72.69
665.188	75.69
665.391	87.69
665.594	83.69
665.797	85.69
666	74.69
666.203	79.69
666.406	85.69
666.609	82.69
666.812	75.69
667.015	81.69
667.218	84.69
667.421	85.69
667.624	77.69
667.827	75.69
668.03	72.69
668.232	73.69
668.435	70.69
668.638	80.69
668.841	83.69
669.043	92.69
669.246	83.69
669.449	85.69
669.651	90.69
669.854	89.69
670.057	84.69
670.259	91.69
670.462	81.69
670.665	81.69
670.867	82.69
671.07	77.69
671.272	75.69
671.475	75.69
671.677	82.69
671.88	104.69
672.082	85.69
672.284	81.69
672.487	82.69
672.689	75.69
672.892	67.69
