Data from Location6.07152019.Energy5.Lamp.07192019.3%Agarose_HRD10591_16-11-37-394.txt Node
Date: Fri Jul 19 16:11:37 EDT 2019
User: cochatt
Spectrometer: HR+D1059
Trigger mode: 1
Integration Time (sec): 1.000000E-1
Scans to average: 1
Electric dark correction enabled: true
Nonlinearity correction enabled: false
Boxcar width: 0
XAxis mode: Wavelengths
Number of Pixels in Spectrum: 2048
>>>>>Begin Spectral Data<<<<<
223.165	-5.62
223.4	-5.62
223.635	-5.62
223.869	-25.62
224.104	-15.62
224.338	-18.62
224.573	-15.62
224.808	-17.62
225.042	-14.62
225.277	-3.62
225.511	-7.62
225.746	-3.62
225.98	9.38
226.215	24.38
226.449	22.38
226.683	17.38
226.918	22.38
227.152	32.38
227.387	32.38
227.621	30.38
227.856	34.38
228.09	49.38
228.324	39.38
228.559	63.38
228.793	56.38
229.027	61.38
229.262	74.38
229.496	52.38
229.73	81.38
229.964	78.38
230.199	69.38
230.433	87.38
230.667	79.38
230.901	77.38
231.136	76.38
231.37	79.38
231.604	79.38
231.838	85.38
232.072	73.38
232.306	87.38
232.541	75.38
232.775	84.38
233.009	86.38
233.243	72.38
233.477	89.38
233.711	58.38
233.945	85.38
234.179	92.38
234.413	85.38
234.647	82.38
234.881	81.38
235.115	86.38
235.349	88.38
235.583	90.38
235.817	78.38
236.051	80.38
236.285	73.38
236.519	78.38
236.753	82.38
236.987	80.38
237.221	77.38
237.455	79.38
237.689	70.38
237.922	85.38
238.156	67.38
238.39	79.38
238.624	92.38
238.858	86.38
239.091	82.38
239.325	74.38
239.559	73.38
239.793	74.38
240.027	74.38
240.26	69.38
240.494	81.38
240.728	71.38
240.961	67.38
241.195	77.38
241.429	77.38
241.662	74.38
241.896	68.38
242.13	95.38
242.363	72.38
242.597	80.38
242.83	85.38
243.064	85.38
243.298	81.38
243.531	80.38
243.765	73.38
243.998	87.38
244.232	72.38
244.465	71.38
244.699	77.38
244.932	83.38
245.166	60.38
245.399	76.38
245.633	83.38
245.866	69.38
246.099	69.38
246.333	82.38
246.566	82.38
246.8	80.38
247.033	88.38
247.266	70.38
247.5	87.38
247.733	86.38
247.966	77.38
248.2	84.38
248.433	75.38
248.666	85.38
248.899	83.38
249.133	77.38
249.366	94.38
249.599	75.38
249.832	77.38
250.066	74.38
250.299	81.38
250.532	83.38
250.765	85.38
250.998	103.38
251.231	79.38
251.465	89.38
251.698	83.38
251.931	84.38
252.164	81.38
252.397	76.38
252.63	77.38
252.863	83.38
253.096	83.38
253.329	80.38
253.562	73.38
253.795	75.38
254.028	84.38
254.261	85.38
254.494	80.38
254.727	72.38
254.96	93.38
255.193	75.38
255.426	73.38
255.659	76.38
255.892	72.38
256.124	75.38
256.357	82.38
256.59	71.38
256.823	97.38
257.056	85.38
257.289	77.38
257.521	78.38
257.754	78.38
257.987	77.38
258.22	100.38
258.452	93.38
258.685	82.38
258.918	82.38
259.151	82.38
259.383	67.38
259.616	70.38
259.849	81.38
260.081	83.38
260.314	81.38
260.547	91.38
260.779	104.38
261.012	68.38
261.244	97.38
261.477	95.38
261.71	109.38
261.942	81.38
262.175	79.38
262.407	83.38
262.64	88.38
262.872	85.38
263.105	78.38
263.337	91.38
263.57	89.38
263.802	84.38
264.035	97.38
264.267	85.38
264.499	69.38
264.732	88.38
264.964	88.38
265.197	92.38
265.429	91.38
265.661	80.38
265.894	83.38
266.126	86.38
266.358	77.38
266.591	71.38
266.823	90.38
267.055	101.38
267.287	79.38
267.52	87.38
267.752	81.38
267.984	79.38
268.216	96.38
268.448	90.38
268.681	100.38
268.913	77.38
269.145	92.38
269.377	78.38
269.609	69.38
269.841	90.38
270.073	82.38
270.306	70.38
270.538	94.38
270.77	80.38
271.002	85.38
271.234	68.38
271.466	82.38
271.698	92.38
271.93	88.38
272.162	91.38
272.394	85.38
272.626	78.38
272.858	76.38
273.09	81.38
273.322	75.38
273.553	82.38
273.785	85.38
274.017	69.38
274.249	86.38
274.481	70.38
274.713	94.38
274.945	73.38
275.176	77.38
275.408	87.38
275.64	91.38
275.872	70.38
276.104	93.38
276.335	99.38
276.567	82.38
276.799	87.38
277.031	86.38
277.262	89.38
277.494	88.38
277.726	76.38
277.957	84.38
278.189	79.38
278.421	88.38
278.652	99.38
278.884	76.38
279.115	80.38
279.347	84.38
279.579	77.38
279.81	72.38
280.042	86.38
280.273	84.38
280.505	94.38
280.736	81.38
280.968	81.38
281.199	87.38
281.431	66.38
281.662	85.38
281.894	74.38
282.125	86.38
282.356	90.38
282.588	89.38
282.819	75.38
283.051	71.38
283.282	57.38
283.513	84.38
283.745	92.38
283.976	76.38
284.207	93.38
284.439	82.38
284.67	84.38
284.901	92.38
285.132	84.38
285.364	90.38
285.595	83.38
285.826	62.38
286.057	70.38
286.288	85.38
286.52	104.38
286.751	82.38
286.982	87.38
287.213	67.38
287.444	83.38
287.675	100.38
287.906	89.38
288.138	88.38
288.369	88.38
288.6	82.38
288.831	97.38
289.062	83.38
289.293	89.38
289.524	96.38
289.755	81.38
289.986	78.38
290.217	101.38
290.448	90.38
290.679	86.38
290.91	97.38
291.141	94.38
291.371	89.38
291.602	84.38
291.833	85.38
292.064	96.38
292.295	84.38
292.526	78.38
292.757	89.38
292.987	90.38
293.218	85.38
293.449	83.38
293.68	85.38
293.91	89.38
294.141	74.38
294.372	76.38
294.603	67.38
294.833	87.38
295.064	86.38
295.295	81.38
295.525	94.38
295.756	84.38
295.987	82.38
296.217	89.38
296.448	81.38
296.679	84.38
296.909	81.38
297.14	82.38
297.37	96.38
297.601	88.38
297.831	93.38
298.062	79.38
298.292	78.38
298.523	86.38
298.753	85.38
298.984	90.38
299.214	77.38
299.445	76.38
299.675	98.38
299.905	90.38
300.136	86.38
300.366	92.38
300.597	86.38
300.827	78.38
301.057	82.38
301.288	94.38
301.518	77.38
301.748	89.38
301.979	83.38
302.209	78.38
302.439	74.38
302.669	103.38
302.9	84.38
303.13	70.38
303.36	77.38
303.59	85.38
303.82	86.38
304.051	85.38
304.281	90.38
304.511	84.38
304.741	90.38
304.971	95.38
305.201	93.38
305.431	89.38
305.661	90.38
305.891	74.38
306.121	91.38
306.352	86.38
306.582	84.38
306.812	84.38
307.042	88.38
307.272	85.38
307.502	82.38
307.731	77.38
307.961	82.38
308.191	69.38
308.421	94.38
308.651	91.38
308.881	83.38
309.111	94.38
309.341	90.38
309.571	101.38
309.8	86.38
310.03	88.38
310.26	90.38
310.49	82.38
310.72	87.38
310.949	92.38
311.179	82.38
311.409	78.38
311.639	85.38
311.868	78.38
312.098	79.38
312.328	92.38
312.557	76.38
312.787	83.38
313.017	92.38
313.246	89.38
313.476	88.38
313.706	91.38
313.935	86.38
314.165	88.38
314.394	70.38
314.624	78.38
314.853	86.38
315.083	90.38
315.312	81.38
315.542	81.38
315.771	83.38
316.001	73.38
316.23	74.38
316.46	69.38
316.689	91.38
316.919	87.38
317.148	78.38
317.377	101.38
317.607	85.38
317.836	86.38
318.065	90.38
318.295	81.38
318.524	93.38
318.753	76.38
318.983	69.38
319.212	89.38
319.441	86.38
319.67	84.38
319.9	81.38
320.129	89.38
320.358	77.38
320.587	98.38
320.816	85.38
321.046	80.38
321.275	88.38
321.504	90.38
321.733	99.38
321.962	93.38
322.191	91.38
322.42	91.38
322.649	78.38
322.878	73.38
323.108	94.38
323.337	82.38
323.566	86.38
323.795	86.38
324.024	85.38
324.253	90.38
324.482	101.38
324.71	79.38
324.939	89.38
325.168	97.38
325.397	87.38
325.626	81.38
325.855	84.38
326.084	88.38
326.313	94.38
326.542	69.38
326.77	76.38
326.999	82.38
327.228	80.38
327.457	80.38
327.686	90.38
327.914	97.38
328.143	85.38
328.372	80.38
328.6	88.38
328.829	93.38
329.058	87.38
329.287	91.38
329.515	85.38
329.744	85.38
329.972	92.38
330.201	83.38
330.43	81.38
330.658	93.38
330.887	84.38
331.115	97.38
331.344	89.38
331.572	100.38
331.801	83.38
332.03	82.38
332.258	84.38
332.486	65.38
332.715	76.38
332.943	86.38
333.172	88.38
333.4	86.38
333.629	96.38
333.857	75.38
334.085	85.38
334.314	84.38
334.542	98.38
334.771	81.38
334.999	78.38
335.227	79.38
335.455	93.38
335.684	83.38
335.912	89.38
336.14	75.38
336.369	93.38
336.597	92.38
336.825	98.38
337.053	71.38
337.281	96.38
337.51	98.38
337.738	93.38
337.966	75.38
338.194	87.38
338.422	78.38
338.65	86.38
338.878	90.38
339.106	80.38
339.334	99.38
339.562	82.38
339.79	70.38
340.018	79.38
340.246	84.38
340.474	89.38
340.702	98.38
340.93	89.38
341.158	85.38
341.386	78.38
341.614	87.38
341.842	83.38
342.07	83.38
342.298	100.38
342.526	93.38
342.754	83.38
342.981	97.38
343.209	86.38
343.437	87.38
343.665	89.38
343.893	87.38
344.12	83.38
344.348	72.38
344.576	94.38
344.804	89.38
345.031	101.38
345.259	89.38
345.487	88.38
345.714	76.38
345.942	86.38
346.17	83.38
346.397	90.38
346.625	83.38
346.853	88.38
347.08	94.38
347.308	92.38
347.535	78.38
347.763	87.38
347.99	97.38
348.218	97.38
348.445	89.38
348.673	82.38
348.9	93.38
349.128	88.38
349.355	82.38
349.583	104.38
349.81	90.38
350.037	82.38
350.265	82.38
350.492	92.38
350.72	86.38
350.947	73.38
351.174	80.38
351.402	89.38
351.629	85.38
351.856	84.38
352.083	74.38
352.311	80.38
352.538	83.38
352.765	97.38
352.992	68.38
353.22	77.38
353.447	95.38
353.674	83.38
353.901	91.38
354.128	90.38
354.355	89.38
354.583	74.38
354.81	88.38
355.037	85.38
355.264	84.38
355.491	92.38
355.718	82.38
355.945	76.38
356.172	100.38
356.399	98.38
356.626	96.38
356.853	81.38
357.08	92.38
357.307	85.38
357.534	79.38
357.761	84.38
357.988	84.38
358.215	98.38
358.441	87.38
358.668	87.38
358.895	84.38
359.122	87.38
359.349	71.38
359.576	73.38
359.802	79.38
360.029	80.38
360.256	93.38
360.483	109.38
360.709	89.38
360.936	93.38
361.163	86.38
361.39	78.38
361.616	73.38
361.843	82.38
362.07	68.38
362.296	91.38
362.523	75.38
362.749	74.38
362.976	78.38
363.203	88.38
363.429	83.38
363.656	95.38
363.882	85.38
364.109	90.38
364.335	92.38
364.562	86.38
364.788	82.38
365.015	92.38
365.241	85.38
365.468	93.38
365.694	86.38
365.92	85.38
366.147	88.38
366.373	85.38
366.599	75.38
366.826	80.38
367.052	101.38
367.278	96.38
367.505	87.38
367.731	103.38
367.957	91.38
368.184	93.38
368.41	89.38
368.636	89.38
368.862	87.38
369.089	87.38
369.315	88.38
369.541	91.38
369.767	95.38
369.993	85.38
370.219	90.38
370.445	93.38
370.672	88.38
370.898	94.38
371.124	100.38
371.35	100.38
371.576	94.38
371.802	95.38
372.028	98.38
372.254	89.38
372.48	92.38
372.706	97.38
372.932	99.38
373.158	95.38
373.384	97.38
373.61	89.38
373.835	84.38
374.061	104.38
374.287	100.38
374.513	95.38
374.739	103.38
374.965	104.38
375.191	91.38
375.416	89.38
375.642	96.38
375.868	99.38
376.094	92.38
376.319	80.38
376.545	83.38
376.771	88.38
376.997	95.38
377.222	104.38
377.448	103.38
377.674	97.38
377.899	88.38
378.125	97.38
378.35	101.38
378.576	93.38
378.802	94.38
379.027	103.38
379.253	105.38
379.478	100.38
379.704	99.38
379.929	90.38
380.155	92.38
380.38	90.38
380.606	85.38
380.831	92.38
381.057	109.38
381.282	96.38
381.507	101.38
381.733	97.38
381.958	116.38
382.184	101.38
382.409	98.38
382.634	98.38
382.86	96.38
383.085	101.38
383.31	100.38
383.535	81.38
383.761	86.38
383.986	96.38
384.211	103.38
384.436	87.38
384.662	93.38
384.887	93.38
385.112	106.38
385.337	94.38
385.562	95.38
385.787	99.38
386.013	108.38
386.238	105.38
386.463	102.38
386.688	105.38
386.913	101.38
387.138	107.38
387.363	100.38
387.588	116.38
387.813	109.38
388.038	117.38
388.263	103.38
388.488	109.38
388.713	117.38
388.938	108.38
389.163	105.38
389.387	96.38
389.612	107.38
389.837	94.38
390.062	103.38
390.287	114.38
390.512	99.38
390.736	116.38
390.961	103.38
391.186	94.38
391.411	103.38
391.636	106.38
391.86	105.38
392.085	108.38
392.31	112.38
392.534	100.38
392.759	118.38
392.984	114.38
393.208	103.38
393.433	101.38
393.658	109.38
393.882	109.38
394.107	84.38
394.331	107.38
394.556	112.38
394.78	94.38
395.005	100.38
395.229	121.38
395.454	110.38
395.678	105.38
395.903	115.38
396.127	117.38
396.352	119.38
396.576	109.38
396.801	121.38
397.025	106.38
397.249	101.38
397.474	126.38
397.698	118.38
397.922	99.38
398.147	104.38
398.371	108.38
398.595	123.38
398.82	123.38
399.044	106.38
399.268	112.38
399.492	126.38
399.717	108.38
399.941	107.38
400.165	114.38
400.389	114.38
400.613	107.38
400.837	121.38
401.062	109.38
401.286	114.38
401.51	107.38
401.734	125.38
401.958	124.38
402.182	124.38
402.406	114.38
402.63	116.38
402.854	120.38
403.078	122.38
403.302	103.38
403.526	112.38
403.75	118.38
403.974	119.38
404.198	117.38
404.422	123.38
404.645	118.38
404.869	113.38
405.093	124.38
405.317	116.38
405.541	118.38
405.765	125.38
405.988	112.38
406.212	126.38
406.436	106.38
406.66	112.38
406.883	126.38
407.107	125.38
407.331	117.38
407.555	122.38
407.778	118.38
408.002	124.38
408.226	109.38
408.449	118.38
408.673	104.38
408.896	114.38
409.12	124.38
409.344	136.38
409.567	141.38
409.791	133.38
410.014	133.38
410.238	115.38
410.461	118.38
410.685	134.38
410.908	125.38
411.132	125.38
411.355	124.38
411.578	119.38
411.802	120.38
412.025	143.38
412.249	125.38
412.472	124.38
412.695	110.38
412.919	126.38
413.142	127.38
413.365	128.38
413.589	133.38
413.812	122.38
414.035	128.38
414.258	132.38
414.482	116.38
414.705	133.38
414.928	132.38
415.151	117.38
415.374	130.38
415.597	127.38
415.821	134.38
416.044	139.38
416.267	135.38
416.49	118.38
416.713	130.38
416.936	135.38
417.159	125.38
417.382	128.38
417.605	112.38
417.828	130.38
418.051	128.38
418.274	140.38
418.497	128.38
418.72	147.38
418.943	132.38
419.166	143.38
419.389	142.38
419.611	147.38
419.834	139.38
420.057	141.38
420.28	146.38
420.503	147.38
420.726	153.38
420.948	149.38
421.171	138.38
421.394	132.38
421.617	148.38
421.839	150.38
422.062	143.38
422.285	140.38
422.507	122.38
422.73	132.38
422.953	132.38
423.175	138.38
423.398	155.38
423.621	142.38
423.843	131.38
424.066	129.38
424.288	156.38
424.511	150.38
424.733	137.38
424.956	143.38
425.178	147.38
425.401	149.38
425.623	141.38
425.846	128.38
426.068	133.38
426.291	142.38
426.513	146.38
426.735	139.38
426.958	137.38
427.18	133.38
427.402	137.38
427.625	133.38
427.847	136.38
428.069	135.38
428.292	142.38
428.514	134.38
428.736	141.38
428.958	128.38
429.181	134.38
429.403	137.38
429.625	138.38
429.847	138.38
430.069	140.38
430.292	150.38
430.514	121.38
430.736	125.38
430.958	129.38
431.18	138.38
431.402	135.38
431.624	132.38
431.846	107.38
432.068	100.38
432.29	95.38
432.512	105.38
432.734	124.38
432.956	127.38
433.178	141.38
433.4	132.38
433.622	147.38
433.844	140.38
434.066	133.38
434.287	124.38
434.509	91.38
434.731	94.38
434.953	140.38
435.175	142.38
435.397	129.38
435.618	123.38
435.84	123.38
436.062	122.38
436.284	142.38
436.505	118.38
436.727	146.38
436.949	143.38
437.17	127.38
437.392	141.38
437.614	122.38
437.835	116.38
438.057	102.38
438.278	119.38
438.5	148.38
438.721	143.38
438.943	150.38
439.165	148.38
439.386	128.38
439.608	146.38
439.829	151.38
440.05	150.38
440.272	153.38
440.493	139.38
440.715	148.38
440.936	157.38
441.158	148.38
441.379	154.38
441.6	157.38
441.822	150.38
442.043	152.38
442.264	138.38
442.486	137.38
442.707	143.38
442.928	159.38
443.149	149.38
443.371	143.38
443.592	140.38
443.813	146.38
444.034	132.38
444.255	149.38
444.476	158.38
444.698	140.38
444.919	151.38
445.14	288.38
445.361	210.38
445.582	161.38
445.803	144.38
446.024	153.38
446.245	161.38
446.466	142.38
446.687	165.38
446.908	152.38
447.129	164.38
447.35	158.38
447.571	150.38
447.792	160.38
448.013	142.38
448.234	148.38
448.455	146.38
448.675	157.38
448.896	161.38
449.117	142.38
449.338	140.38
449.559	149.38
449.779	120.38
450	152.38
450.221	141.38
450.442	140.38
450.662	132.38
450.883	140.38
451.104	157.38
451.324	155.38
451.545	136.38
451.766	127.38
451.986	132.38
452.207	142.38
452.428	132.38
452.648	121.38
452.869	138.38
453.089	122.38
453.31	114.38
453.53	110.38
453.751	106.38
453.971	110.38
454.192	114.38
454.412	124.38
454.633	118.38
454.853	128.38
455.073	126.38
455.294	138.38
455.514	123.38
455.734	132.38
455.955	112.38
456.175	125.38
456.395	118.38
456.616	122.38
456.836	120.38
457.056	124.38
457.276	125.38
457.497	120.38
457.717	116.38
457.937	113.38
458.157	96.38
458.377	107.38
458.598	114.38
458.818	109.38
459.038	105.38
459.258	114.38
459.478	92.38
459.698	108.38
459.918	93.38
460.138	102.38
460.358	110.38
460.578	118.38
460.798	132.38
461.018	121.38
461.238	133.38
461.458	130.38
461.678	131.38
461.898	122.38
462.118	116.38
462.338	124.38
462.558	127.38
462.777	112.38
462.997	109.38
463.217	120.38
463.437	109.38
463.657	105.38
463.876	109.38
464.096	108.38
464.316	99.38
464.536	104.38
464.755	104.38
464.975	124.38
465.195	117.38
465.414	115.38
465.634	121.38
465.854	124.38
466.073	123.38
466.293	129.38
466.512	129.38
466.732	147.38
466.951	144.38
467.171	146.38
467.391	131.38
467.61	142.38
467.829	138.38
468.049	140.38
468.268	152.38
468.488	131.38
468.707	134.38
468.927	152.38
469.146	133.38
469.365	151.38
469.585	148.38
469.804	143.38
470.023	146.38
470.243	132.38
470.462	148.38
470.681	148.38
470.901	141.38
471.12	137.38
471.339	157.38
471.558	154.38
471.777	146.38
471.997	137.38
472.216	139.38
472.435	109.38
472.654	112.38
472.873	122.38
473.092	124.38
473.311	128.38
473.53	138.38
473.749	143.38
473.968	133.38
474.187	116.38
474.406	132.38
474.625	142.38
474.844	133.38
475.063	131.38
475.282	127.38
475.501	123.38
475.72	132.38
475.939	150.38
476.158	140.38
476.377	122.38
476.596	125.38
476.814	122.38
477.033	118.38
477.252	123.38
477.471	135.38
477.69	138.38
477.908	142.38
478.127	157.38
478.346	141.38
478.564	149.38
478.783	150.38
479.002	138.38
479.22	148.38
479.439	156.38
479.658	138.38
479.876	119.38
480.095	128.38
480.313	115.38
480.532	120.38
480.751	104.38
480.969	86.38
481.188	81.38
481.406	94.38
481.624	82.38
481.843	101.38
482.061	106.38
482.28	125.38
482.498	121.38
482.717	116.38
482.935	117.38
483.153	141.38
483.372	157.38
483.59	162.38
483.808	147.38
484.027	146.38
484.245	144.38
484.463	167.38
484.681	178.38
484.9	150.38
485.118	147.38
485.336	130.38
485.554	112.38
485.772	110.38
485.99	112.38
486.209	108.38
486.427	118.38
486.645	109.38
486.863	144.38
487.081	152.38
487.299	132.38
487.517	137.38
487.735	179.38
487.953	217.38
488.171	200.38
488.389	186.38
488.607	178.38
488.825	174.38
489.043	146.38
489.261	136.38
489.479	145.38
489.696	136.38
489.914	132.38
490.132	156.38
490.35	158.38
490.568	163.38
490.786	186.38
491.003	184.38
491.221	203.38
491.439	192.38
491.657	197.38
491.874	216.38
492.092	235.38
492.31	258.38
492.527	250.38
492.745	236.38
492.963	215.38
493.18	206.38
493.398	200.38
493.615	204.38
493.833	191.38
494.05	179.38
494.268	189.38
494.485	177.38
494.703	185.38
494.92	171.38
495.138	184.38
495.355	192.38
495.573	181.38
495.79	182.38
496.008	167.38
496.225	176.38
496.442	171.38
496.66	173.38
496.877	176.38
497.094	171.38
497.312	190.38
497.529	165.38
497.746	173.38
497.963	150.38
498.181	138.38
498.398	126.38
498.615	123.38
498.832	128.38
499.049	125.38
499.267	128.38
499.484	134.38
499.701	140.38
499.918	142.38
500.135	148.38
500.352	148.38
500.569	149.38
500.786	146.38
501.003	136.38
501.22	138.38
501.437	145.38
501.654	132.38
501.871	128.38
502.088	143.38
502.305	120.38
502.522	141.38
502.739	131.38
502.956	123.38
503.172	126.38
503.389	127.38
503.606	120.38
503.823	130.38
504.04	120.38
504.256	130.38
504.473	127.38
504.69	113.38
504.907	141.38
505.123	131.38
505.34	122.38
505.557	133.38
505.773	124.38
505.99	130.38
506.207	129.38
506.423	127.38
506.64	118.38
506.856	109.38
507.073	127.38
507.289	125.38
507.506	135.38
507.722	134.38
507.939	113.38
508.155	125.38
508.372	114.38
508.588	108.38
508.805	116.38
509.021	124.38
509.238	119.38
509.454	106.38
509.67	91.38
509.887	102.38
510.103	98.38
510.319	93.38
510.536	105.38
510.752	91.38
510.968	77.38
511.184	89.38
511.401	81.38
511.617	97.38
511.833	89.38
512.049	94.38
512.265	90.38
512.481	96.38
512.698	98.38
512.914	88.38
513.13	105.38
513.346	89.38
513.562	89.38
513.778	97.38
513.994	91.38
514.21	88.38
514.426	96.38
514.642	101.38
514.858	82.38
515.074	80.38
515.29	89.38
515.506	78.38
515.721	81.38
515.937	98.38
516.153	92.38
516.369	92.38
516.585	99.38
516.801	97.38
517.016	95.38
517.232	85.38
517.448	86.38
517.664	82.38
517.879	98.38
518.095	97.38
518.311	99.38
518.527	93.38
518.742	105.38
518.958	107.38
519.173	117.38
519.389	103.38
519.605	100.38
519.82	105.38
520.036	108.38
520.251	105.38
520.467	105.38
520.682	99.38
520.898	88.38
521.113	95.38
521.329	90.38
521.544	76.38
521.76	82.38
521.975	93.38
522.19	109.38
522.406	93.38
522.621	108.38
522.836	98.38
523.052	115.38
523.267	114.38
523.482	104.38
523.698	128.38
523.913	112.38
524.128	120.38
524.343	126.38
524.559	122.38
524.774	142.38
524.989	123.38
525.204	121.38
525.419	124.38
525.634	118.38
525.849	107.38
526.064	108.38
526.28	94.38
526.495	89.38
526.71	99.38
526.925	81.38
527.14	73.38
527.355	85.38
527.57	88.38
527.785	105.38
527.999	99.38
528.214	108.38
528.429	109.38
528.644	105.38
528.859	147.38
529.074	150.38
529.289	167.38
529.503	163.38
529.718	144.38
529.933	134.38
530.148	105.38
530.363	94.38
530.577	99.38
530.792	94.38
531.007	91.38
531.221	88.38
531.436	81.38
531.651	92.38
531.865	78.38
532.08	87.38
532.295	93.38
532.509	91.38
532.724	98.38
532.938	84.38
533.153	104.38
533.367	102.38
533.582	122.38
533.796	120.38
534.011	118.38
534.225	98.38
534.44	96.38
534.654	102.38
534.868	99.38
535.083	104.38
535.297	101.38
535.511	114.38
535.726	107.38
535.94	116.38
536.154	101.38
536.369	86.38
536.583	100.38
536.797	89.38
537.011	84.38
537.225	84.38
537.44	90.38
537.654	98.38
537.868	86.38
538.082	96.38
538.296	99.38
538.51	117.38
538.724	109.38
538.938	125.38
539.153	145.38
539.367	113.38
539.581	108.38
539.795	106.38
540.009	95.38
540.222	106.38
540.436	104.38
540.65	114.38
540.864	130.38
541.078	142.38
541.292	164.38
541.506	163.38
541.72	180.38
541.934	197.38
542.147	232.38
542.361	203.38
542.575	171.38
542.789	146.38
543.002	128.38
543.216	112.38
543.43	142.38
543.644	140.38
543.857	143.38
544.071	172.38
544.285	153.38
544.498	155.38
544.712	161.38
544.925	154.38
545.139	168.38
545.352	181.38
545.566	164.38
545.779	165.38
545.993	173.38
546.206	164.38
546.42	184.38
546.633	162.38
546.847	167.38
547.06	168.38
547.274	165.38
547.487	178.38
547.7	171.38
547.914	171.38
548.127	165.38
548.34	170.38
548.554	153.38
548.767	165.38
548.98	181.38
549.193	154.38
549.407	164.38
549.62	161.38
549.833	171.38
550.046	158.38
550.259	160.38
550.473	163.38
550.686	146.38
550.899	160.38
551.112	151.38
551.325	156.38
551.538	136.38
551.751	130.38
551.964	131.38
552.177	130.38
552.39	142.38
552.603	159.38
552.816	150.38
553.029	149.38
553.242	160.38
553.455	174.38
553.667	155.38
553.88	162.38
554.093	154.38
554.306	166.38
554.519	139.38
554.732	157.38
554.944	151.38
555.157	134.38
555.37	153.38
555.583	154.38
555.795	141.38
556.008	149.38
556.221	136.38
556.433	132.38
556.646	153.38
556.859	120.38
557.071	147.38
557.284	141.38
557.496	150.38
557.709	145.38
557.921	143.38
558.134	153.38
558.346	125.38
558.559	141.38
558.771	141.38
558.984	133.38
559.196	145.38
559.409	147.38
559.621	121.38
559.833	126.38
560.046	139.38
560.258	139.38
560.47	140.38
560.683	141.38
560.895	133.38
561.107	148.38
561.32	136.38
561.532	120.38
561.744	133.38
561.956	117.38
562.168	137.38
562.381	128.38
562.593	125.38
562.805	142.38
563.017	140.38
563.229	133.38
563.441	128.38
563.653	141.38
563.865	119.38
564.077	118.38
564.289	123.38
564.501	132.38
564.713	126.38
564.925	124.38
565.137	112.38
565.349	134.38
565.561	114.38
565.773	118.38
565.985	117.38
566.197	114.38
566.408	122.38
566.62	121.38
566.832	124.38
567.044	122.38
567.255	126.38
567.467	114.38
567.679	113.38
567.891	104.38
568.102	105.38
568.314	104.38
568.526	109.38
568.737	93.38
568.949	84.38
569.161	90.38
569.372	93.38
569.584	87.38
569.795	72.38
570.007	76.38
570.218	85.38
570.43	78.38
570.641	96.38
570.853	108.38
571.064	101.38
571.276	106.38
571.487	99.38
571.698	114.38
571.91	113.38
572.121	118.38
572.333	109.38
572.544	105.38
572.755	94.38
572.966	97.38
573.178	90.38
573.389	92.38
573.6	73.38
573.811	80.38
574.023	91.38
574.234	87.38
574.445	106.38
574.656	85.38
574.867	86.38
575.078	105.38
575.289	98.38
575.501	92.38
575.712	100.38
575.923	91.38
576.134	88.38
576.345	98.38
576.556	111.38
576.767	100.38
576.978	100.38
577.188	91.38
577.399	97.38
577.61	91.38
577.821	92.38
578.032	89.38
578.243	112.38
578.454	85.38
578.665	92.38
578.875	97.38
579.086	100.38
579.297	89.38
579.508	98.38
579.718	83.38
579.929	92.38
580.14	85.38
580.35	101.38
580.561	95.38
580.772	72.38
580.982	86.38
581.193	92.38
581.403	96.38
581.614	104.38
581.825	88.38
582.035	99.38
582.246	84.38
582.456	94.38
582.667	101.38
582.877	101.38
583.087	103.38
583.298	99.38
583.508	91.38
583.719	83.38
583.929	84.38
584.139	84.38
584.35	81.38
584.56	94.38
584.77	88.38
584.981	101.38
585.191	104.38
585.401	82.38
585.611	84.38
585.821	90.38
586.032	101.38
586.242	98.38
586.452	90.38
586.662	74.38
586.872	88.38
587.082	79.38
587.292	90.38
587.502	89.38
587.713	83.38
587.923	77.38
588.133	92.38
588.343	84.38
588.553	87.38
588.762	77.38
588.972	95.38
589.182	82.38
589.392	80.38
589.602	90.38
589.812	75.38
590.022	94.38
590.232	82.38
590.441	89.38
590.651	86.38
590.861	80.38
591.071	78.38
591.281	74.38
591.49	72.38
591.7	90.38
591.91	100.38
592.119	84.38
592.329	81.38
592.539	85.38
592.748	89.38
592.958	82.38
593.167	84.38
593.377	72.38
593.587	85.38
593.796	80.38
594.006	85.38
594.215	76.38
594.424	86.38
594.634	94.38
594.843	103.38
595.053	90.38
595.262	89.38
595.472	107.38
595.681	87.38
595.89	75.38
596.1	94.38
596.309	101.38
596.518	109.38
596.727	94.38
596.937	105.38
597.146	95.38
597.355	108.38
597.564	98.38
597.774	94.38
597.983	92.38
598.192	85.38
598.401	77.38
598.61	99.38
598.819	94.38
599.028	81.38
599.237	91.38
599.446	96.38
599.655	89.38
599.864	79.38
600.073	86.38
600.282	94.38
600.491	102.38
600.7	107.38
600.909	105.38
601.118	97.38
601.327	85.38
601.536	108.38
601.745	103.38
601.953	123.38
602.162	109.38
602.371	114.38
602.58	106.38
602.789	116.38
602.997	120.38
603.206	108.38
603.415	101.38
603.623	120.38
603.832	108.38
604.041	102.38
604.249	100.38
604.458	112.38
604.666	115.38
604.875	101.38
605.084	99.38
605.292	111.38
605.501	106.38
605.709	126.38
605.918	118.38
606.126	110.38
606.334	121.38
606.543	111.38
606.751	129.38
606.96	129.38
607.168	99.38
607.376	120.38
607.585	102.38
607.793	109.38
608.001	115.38
608.21	112.38
608.418	114.38
608.626	103.38
608.834	120.38
609.043	116.38
609.251	114.38
609.459	122.38
609.667	125.38
609.875	135.38
610.083	119.38
610.291	113.38
610.499	99.38
610.707	108.38
610.916	114.38
611.124	115.38
611.332	116.38
611.54	98.38
611.748	125.38
611.955	108.38
612.163	126.38
612.371	122.38
612.579	109.38
612.787	119.38
612.995	116.38
613.203	104.38
613.411	122.38
613.618	124.38
613.826	112.38
614.034	112.38
614.242	102.38
614.449	115.38
614.657	114.38
614.865	141.38
615.072	117.38
615.28	116.38
615.488	105.38
615.695	117.38
615.903	106.38
616.111	107.38
616.318	116.38
616.526	117.38
616.733	116.38
616.941	113.38
617.148	110.38
617.356	102.38
617.563	117.38
617.771	113.38
617.978	95.38
618.185	119.38
618.393	106.38
618.6	115.38
618.807	122.38
619.015	122.38
619.222	131.38
619.429	107.38
619.637	104.38
619.844	97.38
620.051	104.38
620.258	109.38
620.466	110.38
620.673	113.38
620.88	94.38
621.087	113.38
621.294	106.38
621.501	104.38
621.708	114.38
621.915	99.38
622.122	116.38
622.329	112.38
622.536	119.38
622.743	96.38
622.95	108.38
623.157	110.38
623.364	119.38
623.571	124.38
623.778	124.38
623.985	98.38
624.192	112.38
624.399	115.38
624.606	93.38
624.812	119.38
625.019	118.38
625.226	106.38
625.433	106.38
625.639	115.38
625.846	112.38
626.053	99.38
626.259	105.38
626.466	116.38
626.673	98.38
626.879	94.38
627.086	99.38
627.293	113.38
627.499	115.38
627.706	113.38
627.912	107.38
628.119	124.38
628.325	101.38
628.532	109.38
628.738	108.38
628.945	117.38
629.151	109.38
629.357	119.38
629.564	97.38
629.77	109.38
629.976	92.38
630.183	89.38
630.389	94.38
630.595	117.38
630.802	98.38
631.008	108.38
631.214	97.38
631.42	104.38
631.627	111.38
631.833	100.38
632.039	105.38
632.245	106.38
632.451	118.38
632.657	92.38
632.863	103.38
633.069	92.38
633.275	98.38
633.481	104.38
633.688	114.38
633.893	116.38
634.099	92.38
634.305	96.38
634.511	96.38
634.717	95.38
634.923	98.38
635.129	99.38
635.335	99.38
635.541	106.38
635.747	105.38
635.952	90.38
636.158	98.38
636.364	113.38
636.57	92.38
636.775	104.38
636.981	102.38
637.187	111.38
637.392	95.38
637.598	96.38
637.804	95.38
638.009	92.38
638.215	104.38
638.421	103.38
638.626	104.38
638.832	112.38
639.037	110.38
639.243	92.38
639.448	96.38
639.654	103.38
639.859	95.38
640.065	89.38
640.27	104.38
640.475	106.38
640.681	103.38
640.886	106.38
641.091	91.38
641.297	113.38
641.502	94.38
641.707	100.38
641.913	106.38
642.118	110.38
642.323	104.38
642.528	103.38
642.733	103.38
642.939	90.38
643.144	103.38
643.349	96.38
643.554	103.38
643.759	109.38
643.964	120.38
644.169	98.38
644.374	106.38
644.579	105.38
644.784	106.38
644.989	104.38
645.194	93.38
645.399	107.38
645.604	112.38
645.809	106.38
646.014	100.38
646.219	99.38
646.423	87.38
646.628	109.38
646.833	84.38
647.038	106.38
647.243	100.38
647.447	98.38
647.652	93.38
647.857	108.38
648.062	103.38
648.266	100.38
648.471	112.38
648.676	109.38
648.88	109.38
649.085	108.38
649.289	106.38
649.494	97.38
649.698	102.38
649.903	111.38
650.107	107.38
650.312	109.38
650.516	100.38
650.721	98.38
650.925	86.38
651.13	86.38
651.334	108.38
651.539	107.38
651.743	89.38
651.947	93.38
652.152	90.38
652.356	99.38
652.56	105.38
652.764	88.38
652.969	94.38
653.173	105.38
653.377	91.38
653.581	91.38
653.785	99.38
653.99	96.38
654.194	96.38
654.398	100.38
654.602	105.38
654.806	91.38
655.01	93.38
655.214	85.38
655.418	101.38
655.622	88.38
655.826	99.38
656.03	101.38
656.234	93.38
656.438	93.38
656.642	92.38
656.846	76.38
657.049	76.38
657.253	106.38
657.457	100.38
657.661	95.38
657.865	99.38
658.068	101.38
658.272	75.38
658.476	94.38
658.68	85.38
658.883	90.38
659.087	88.38
659.291	84.38
659.494	86.38
659.698	96.38
659.901	72.38
660.105	90.38
660.309	86.38
660.512	78.38
660.716	103.38
660.919	101.38
661.123	81.38
661.326	78.38
661.53	87.38
661.733	85.38
661.936	85.38
662.14	69.38
662.343	102.38
662.546	90.38
662.75	85.38
662.953	97.38
663.156	76.38
663.36	92.38
663.563	91.38
663.766	82.38
663.969	88.38
664.173	70.38
664.376	76.38
664.579	68.38
664.782	85.38
664.985	86.38
665.188	77.38
665.391	81.38
665.594	72.38
665.797	93.38
666	96.38
666.203	65.38
666.406	88.38
666.609	90.38
666.812	97.38
667.015	73.38
667.218	89.38
667.421	89.38
667.624	75.38
667.827	98.38
668.03	81.38
668.232	73.38
668.435	78.38
668.638	81.38
668.841	81.38
669.043	83.38
669.246	89.38
669.449	89.38
669.651	84.38
669.854	70.38
670.057	88.38
670.259	86.38
670.462	80.38
670.665	81.38
670.867	85.38
671.07	78.38
671.272	95.38
671.475	90.38
671.677	81.38
671.88	84.38
672.082	70.38
672.284	90.38
672.487	90.38
672.689	86.38
672.892	101.38
