Data from Location6.07152019.Energy5.Lamp.07192019.3%Agarose_HRD10591_16-13-28-396.txt Node
Date: Fri Jul 19 16:13:28 EDT 2019
User: cochatt
Spectrometer: HR+D1059
Trigger mode: 1
Integration Time (sec): 1.000000E-1
Scans to average: 1
Electric dark correction enabled: true
Nonlinearity correction enabled: false
Boxcar width: 0
XAxis mode: Wavelengths
Number of Pixels in Spectrum: 2048
>>>>>Begin Spectral Data<<<<<
223.165	-11.31
223.4	-11.31
223.635	-11.31
223.869	-5.31
224.104	-1.31
224.338	-20.31
224.573	-18.31
224.808	-5.31
225.042	-23.31
225.277	-13.31
225.511	5.69
225.746	-9.31
225.98	10.69
226.215	16.69
226.449	-2.31
226.683	11.69
226.918	29.69
227.152	35.69
227.387	41.69
227.621	38.69
227.856	33.69
228.09	31.69
228.324	39.69
228.559	51.69
228.793	54.69
229.027	62.69
229.262	67.69
229.496	66.69
229.73	67.69
229.964	67.69
230.199	70.69
230.433	57.69
230.667	75.69
230.901	78.69
231.136	57.69
231.37	65.69
231.604	81.69
231.838	65.69
232.072	82.69
232.306	73.69
232.541	93.69
232.775	83.69
233.009	80.69
233.243	77.69
233.477	67.69
233.711	81.69
233.945	70.69
234.179	72.69
234.413	81.69
234.647	85.69
234.881	93.69
235.115	76.69
235.349	74.69
235.583	93.69
235.817	58.69
236.051	77.69
236.285	79.69
236.519	67.69
236.753	57.69
236.987	75.69
237.221	63.69
237.455	53.69
237.689	81.69
237.922	66.69
238.156	64.69
238.39	64.69
238.624	74.69
238.858	86.69
239.091	77.69
239.325	74.69
239.559	65.69
239.793	94.69
240.027	59.69
240.26	83.69
240.494	73.69
240.728	88.69
240.961	91.69
241.195	77.69
241.429	70.69
241.662	72.69
241.896	79.69
242.13	70.69
242.363	73.69
242.597	69.69
242.83	90.69
243.064	78.69
243.298	61.69
243.531	63.69
243.765	64.69
243.998	69.69
244.232	69.69
244.465	82.69
244.699	59.69
244.932	69.69
245.166	69.69
245.399	73.69
245.633	83.69
245.866	76.69
246.099	75.69
246.333	75.69
246.566	69.69
246.8	86.69
247.033	69.69
247.266	78.69
247.5	74.69
247.733	82.69
247.966	73.69
248.2	62.69
248.433	77.69
248.666	77.69
248.899	85.69
249.133	82.69
249.366	76.69
249.599	86.69
249.832	87.69
250.066	81.69
250.299	73.69
250.532	78.69
250.765	78.69
250.998	75.69
251.231	75.69
251.465	72.69
251.698	71.69
251.931	90.69
252.164	87.69
252.397	75.69
252.63	78.69
252.863	71.69
253.096	91.69
253.329	69.69
253.562	58.69
253.795	69.69
254.028	77.69
254.261	79.69
254.494	75.69
254.727	76.69
254.96	84.69
255.193	77.69
255.426	68.69
255.659	89.69
255.892	77.69
256.124	81.69
256.357	81.69
256.59	86.69
256.823	75.69
257.056	65.69
257.289	76.69
257.521	79.69
257.754	85.69
257.987	74.69
258.22	80.69
258.452	65.69
258.685	77.69
258.918	79.69
259.151	84.69
259.383	83.69
259.616	87.69
259.849	68.69
260.081	75.69
260.314	80.69
260.547	66.69
260.779	79.69
261.012	79.69
261.244	82.69
261.477	67.69
261.71	62.69
261.942	78.69
262.175	79.69
262.407	72.69
262.64	68.69
262.872	80.69
263.105	67.69
263.337	93.69
263.57	91.69
263.802	85.69
264.035	72.69
264.267	73.69
264.499	83.69
264.732	89.69
264.964	73.69
265.197	62.69
265.429	70.69
265.661	90.69
265.894	67.69
266.126	74.69
266.358	71.69
266.591	75.69
266.823	69.69
267.055	83.69
267.287	74.69
267.52	75.69
267.752	97.69
267.984	78.69
268.216	98.69
268.448	81.69
268.681	86.69
268.913	74.69
269.145	71.69
269.377	93.69
269.609	97.69
269.841	94.69
270.073	88.69
270.306	83.69
270.538	82.69
270.77	83.69
271.002	80.69
271.234	77.69
271.466	87.69
271.698	70.69
271.93	70.69
272.162	85.69
272.394	77.69
272.626	84.69
272.858	87.69
273.09	79.69
273.322	78.69
273.553	82.69
273.785	85.69
274.017	85.69
274.249	85.69
274.481	83.69
274.713	84.69
274.945	79.69
275.176	95.69
275.408	81.69
275.64	90.69
275.872	74.69
276.104	76.69
276.335	74.69
276.567	85.69
276.799	80.69
277.031	73.69
277.262	75.69
277.494	65.69
277.726	80.69
277.957	85.69
278.189	75.69
278.421	73.69
278.652	73.69
278.884	83.69
279.115	69.69
279.347	65.69
279.579	94.69
279.81	74.69
280.042	86.69
280.273	96.69
280.505	79.69
280.736	93.69
280.968	79.69
281.199	71.69
281.431	64.69
281.662	65.69
281.894	78.69
282.125	77.69
282.356	80.69
282.588	81.69
282.819	80.69
283.051	73.69
283.282	75.69
283.513	91.69
283.745	72.69
283.976	77.69
284.207	89.69
284.439	71.69
284.67	83.69
284.901	86.69
285.132	90.69
285.364	85.69
285.595	83.69
285.826	71.69
286.057	85.69
286.288	82.69
286.52	91.69
286.751	75.69
286.982	84.69
287.213	77.69
287.444	88.69
287.675	82.69
287.906	92.69
288.138	96.69
288.369	98.69
288.6	78.69
288.831	80.69
289.062	77.69
289.293	100.69
289.524	84.69
289.755	70.69
289.986	73.69
290.217	76.69
290.448	96.69
290.679	85.69
290.91	68.69
291.141	82.69
291.371	93.69
291.602	96.69
291.833	90.69
292.064	78.69
292.295	80.69
292.526	88.69
292.757	81.69
292.987	89.69
293.218	82.69
293.449	80.69
293.68	88.69
293.91	88.69
294.141	90.69
294.372	86.69
294.603	64.69
294.833	76.69
295.064	85.69
295.295	71.69
295.525	85.69
295.756	89.69
295.987	79.69
296.217	82.69
296.448	85.69
296.679	87.69
296.909	74.69
297.14	77.69
297.37	79.69
297.601	78.69
297.831	90.69
298.062	71.69
298.292	90.69
298.523	78.69
298.753	75.69
298.984	83.69
299.214	74.69
299.445	93.69
299.675	85.69
299.905	88.69
300.136	82.69
300.366	89.69
300.597	82.69
300.827	68.69
301.057	61.69
301.288	67.69
301.518	84.69
301.748	82.69
301.979	77.69
302.209	79.69
302.439	85.69
302.669	89.69
302.9	86.69
303.13	75.69
303.36	79.69
303.59	80.69
303.82	81.69
304.051	88.69
304.281	90.69
304.511	98.69
304.741	79.69
304.971	80.69
305.201	89.69
305.431	77.69
305.661	71.69
305.891	87.69
306.121	75.69
306.352	78.69
306.582	81.69
306.812	88.69
307.042	79.69
307.272	79.69
307.502	78.69
307.731	88.69
307.961	86.69
308.191	72.69
308.421	81.69
308.651	91.69
308.881	78.69
309.111	66.69
309.341	98.69
309.571	86.69
309.8	84.69
310.03	79.69
310.26	84.69
310.49	75.69
310.72	88.69
310.949	70.69
311.179	81.69
311.409	82.69
311.639	79.69
311.868	86.69
312.098	96.69
312.328	76.69
312.557	83.69
312.787	81.69
313.017	85.69
313.246	83.69
313.476	94.69
313.706	88.69
313.935	82.69
314.165	101.69
314.394	80.69
314.624	88.69
314.853	79.69
315.083	87.69
315.312	82.69
315.542	85.69
315.771	87.69
316.001	82.69
316.23	87.69
316.46	90.69
316.689	88.69
316.919	87.69
317.148	78.69
317.377	81.69
317.607	74.69
317.836	81.69
318.065	88.69
318.295	65.69
318.524	80.69
318.753	72.69
318.983	69.69
319.212	85.69
319.441	91.69
319.67	80.69
319.9	82.69
320.129	74.69
320.358	82.69
320.587	83.69
320.816	90.69
321.046	82.69
321.275	72.69
321.504	82.69
321.733	84.69
321.962	92.69
322.191	79.69
322.42	95.69
322.649	94.69
322.878	84.69
323.108	71.69
323.337	91.69
323.566	89.69
323.795	82.69
324.024	85.69
324.253	72.69
324.482	77.69
324.71	96.69
324.939	100.69
325.168	83.69
325.397	80.69
325.626	95.69
325.855	85.69
326.084	89.69
326.313	86.69
326.542	68.69
326.77	85.69
326.999	86.69
327.228	83.69
327.457	79.69
327.686	84.69
327.914	83.69
328.143	97.69
328.372	89.69
328.6	78.69
328.829	84.69
329.058	91.69
329.287	82.69
329.515	85.69
329.744	89.69
329.972	78.69
330.201	72.69
330.43	82.69
330.658	75.69
330.887	63.69
331.115	79.69
331.344	83.69
331.572	78.69
331.801	89.69
332.03	96.69
332.258	95.69
332.486	87.69
332.715	75.69
332.943	82.69
333.172	86.69
333.4	81.69
333.629	82.69
333.857	79.69
334.085	74.69
334.314	101.69
334.542	83.69
334.771	85.69
334.999	103.69
335.227	85.69
335.455	82.69
335.684	98.69
335.912	72.69
336.14	106.69
336.369	90.69
336.597	88.69
336.825	77.69
337.053	87.69
337.281	89.69
337.51	79.69
337.738	90.69
337.966	87.69
338.194	82.69
338.422	81.69
338.65	77.69
338.878	79.69
339.106	71.69
339.334	87.69
339.562	87.69
339.79	69.69
340.018	81.69
340.246	74.69
340.474	74.69
340.702	73.69
340.93	87.69
341.158	86.69
341.386	82.69
341.614	80.69
341.842	93.69
342.07	63.69
342.298	71.69
342.526	79.69
342.754	87.69
342.981	79.69
343.209	82.69
343.437	82.69
343.665	91.69
343.893	69.69
344.12	77.69
344.348	85.69
344.576	88.69
344.804	78.69
345.031	80.69
345.259	73.69
345.487	88.69
345.714	93.69
345.942	80.69
346.17	66.69
346.397	89.69
346.625	96.69
346.853	88.69
347.08	94.69
347.308	73.69
347.535	89.69
347.763	91.69
347.99	72.69
348.218	86.69
348.445	87.69
348.673	85.69
348.9	97.69
349.128	90.69
349.355	74.69
349.583	79.69
349.81	76.69
350.037	75.69
350.265	85.69
350.492	82.69
350.72	89.69
350.947	81.69
351.174	83.69
351.402	70.69
351.629	89.69
351.856	87.69
352.083	86.69
352.311	77.69
352.538	80.69
352.765	99.69
352.992	79.69
353.22	78.69
353.447	77.69
353.674	68.69
353.901	92.69
354.128	83.69
354.355	76.69
354.583	89.69
354.81	88.69
355.037	83.69
355.264	84.69
355.491	90.69
355.718	73.69
355.945	91.69
356.172	96.69
356.399	81.69
356.626	93.69
356.853	75.69
357.08	85.69
357.307	95.69
357.534	82.69
357.761	64.69
357.988	72.69
358.215	86.69
358.441	77.69
358.668	83.69
358.895	88.69
359.122	76.69
359.349	86.69
359.576	82.69
359.802	69.69
360.029	77.69
360.256	83.69
360.483	90.69
360.709	71.69
360.936	102.69
361.163	88.69
361.39	80.69
361.616	69.69
361.843	73.69
362.07	95.69
362.296	84.69
362.523	82.69
362.749	80.69
362.976	90.69
363.203	91.69
363.429	93.69
363.656	97.69
363.882	74.69
364.109	75.69
364.335	93.69
364.562	77.69
364.788	75.69
365.015	95.69
365.241	83.69
365.468	94.69
365.694	81.69
365.92	85.69
366.147	80.69
366.373	78.69
366.599	70.69
366.826	73.69
367.052	80.69
367.278	85.69
367.505	86.69
367.731	98.69
367.957	81.69
368.184	91.69
368.41	78.69
368.636	93.69
368.862	90.69
369.089	88.69
369.315	87.69
369.541	77.69
369.767	83.69
369.993	95.69
370.219	94.69
370.445	99.69
370.672	105.69
370.898	93.69
371.124	86.69
371.35	86.69
371.576	85.69
371.802	94.69
372.028	105.69
372.254	100.69
372.48	91.69
372.706	98.69
372.932	85.69
373.158	93.69
373.384	86.69
373.61	92.69
373.835	84.69
374.061	97.69
374.287	103.69
374.513	95.69
374.739	101.69
374.965	81.69
375.191	81.69
375.416	87.69
375.642	91.69
375.868	67.69
376.094	98.69
376.319	87.69
376.545	89.69
376.771	80.69
376.997	85.69
377.222	92.69
377.448	96.69
377.674	94.69
377.899	84.69
378.125	89.69
378.35	102.69
378.576	85.69
378.802	103.69
379.027	100.69
379.253	91.69
379.478	100.69
379.704	92.69
379.929	94.69
380.155	93.69
380.38	98.69
380.606	93.69
380.831	81.69
381.057	96.69
381.282	96.69
381.507	97.69
381.733	101.69
381.958	97.69
382.184	98.69
382.409	92.69
382.634	115.69
382.86	91.69
383.085	112.69
383.31	93.69
383.535	96.69
383.761	113.69
383.986	110.69
384.211	106.69
384.436	105.69
384.662	112.69
384.887	98.69
385.112	93.69
385.337	96.69
385.562	88.69
385.787	97.69
386.013	103.69
386.238	99.69
386.463	97.69
386.688	106.69
386.913	93.69
387.138	94.69
387.363	89.69
387.588	108.69
387.813	122.69
388.038	101.69
388.263	105.69
388.488	103.69
388.713	93.69
388.938	99.69
389.163	104.69
389.387	101.69
389.612	101.69
389.837	94.69
390.062	99.69
390.287	101.69
390.512	107.69
390.736	105.69
390.961	110.69
391.186	98.69
391.411	100.69
391.636	94.69
391.86	103.69
392.085	91.69
392.31	114.69
392.534	97.69
392.759	110.69
392.984	104.69
393.208	115.69
393.433	104.69
393.658	96.69
393.882	111.69
394.107	100.69
394.331	107.69
394.556	125.69
394.78	102.69
395.005	113.69
395.229	107.69
395.454	101.69
395.678	110.69
395.903	121.69
396.127	111.69
396.352	102.69
396.576	112.69
396.801	102.69
397.025	109.69
397.249	110.69
397.474	115.69
397.698	118.69
397.922	95.69
398.147	110.69
398.371	107.69
398.595	114.69
398.82	103.69
399.044	97.69
399.268	104.69
399.492	120.69
399.717	111.69
399.941	101.69
400.165	106.69
400.389	109.69
400.613	113.69
400.837	111.69
401.062	123.69
401.286	118.69
401.51	106.69
401.734	107.69
401.958	110.69
402.182	122.69
402.406	121.69
402.63	110.69
402.854	112.69
403.078	115.69
403.302	117.69
403.526	121.69
403.75	109.69
403.974	119.69
404.198	118.69
404.422	109.69
404.645	121.69
404.869	125.69
405.093	123.69
405.317	119.69
405.541	122.69
405.765	117.69
405.988	121.69
406.212	112.69
406.436	125.69
406.66	130.69
406.883	117.69
407.107	113.69
407.331	118.69
407.555	118.69
407.778	119.69
408.002	123.69
408.226	129.69
408.449	124.69
408.673	124.69
408.896	103.69
409.12	105.69
409.344	112.69
409.567	113.69
409.791	122.69
410.014	125.69
410.238	127.69
410.461	131.69
410.685	121.69
410.908	136.69
411.132	126.69
411.355	119.69
411.578	130.69
411.802	122.69
412.025	110.69
412.249	130.69
412.472	125.69
412.695	112.69
412.919	117.69
413.142	137.69
413.365	120.69
413.589	125.69
413.812	132.69
414.035	131.69
414.258	121.69
414.482	122.69
414.705	139.69
414.928	126.69
415.151	116.69
415.374	119.69
415.597	117.69
415.821	116.69
416.044	126.69
416.267	111.69
416.49	129.69
416.713	133.69
416.936	121.69
417.159	125.69
417.382	132.69
417.605	123.69
417.828	125.69
418.051	138.69
418.274	138.69
418.497	130.69
418.72	130.69
418.943	132.69
419.166	136.69
419.389	134.69
419.611	124.69
419.834	146.69
420.057	159.69
420.28	141.69
420.503	140.69
420.726	140.69
420.948	125.69
421.171	128.69
421.394	140.69
421.617	143.69
421.839	173.69
422.062	137.69
422.285	125.69
422.507	138.69
422.73	121.69
422.953	123.69
423.175	122.69
423.398	123.69
423.621	131.69
423.843	134.69
424.066	152.69
424.288	133.69
424.511	163.69
424.733	155.69
424.956	147.69
425.178	141.69
425.401	141.69
425.623	145.69
425.846	139.69
426.068	127.69
426.291	131.69
426.513	126.69
426.735	123.69
426.958	137.69
427.18	136.69
427.402	134.69
427.625	137.69
427.847	148.69
428.069	141.69
428.292	138.69
428.514	129.69
428.736	135.69
428.958	123.69
429.181	136.69
429.403	127.69
429.625	123.69
429.847	129.69
430.069	131.69
430.292	136.69
430.514	134.69
430.736	133.69
430.958	122.69
431.18	119.69
431.402	134.69
431.624	129.69
431.846	112.69
432.068	101.69
432.29	103.69
432.512	110.69
432.734	137.69
432.956	152.69
433.178	145.69
433.4	138.69
433.622	139.69
433.844	124.69
434.066	124.69
434.287	118.69
434.509	110.69
434.731	99.69
434.953	122.69
435.175	118.69
435.397	122.69
435.618	107.69
435.84	106.69
436.062	121.69
436.284	122.69
436.505	127.69
436.727	133.69
436.949	129.69
437.17	131.69
437.392	126.69
437.614	131.69
437.835	116.69
438.057	121.69
438.278	121.69
438.5	122.69
438.721	144.69
438.943	123.69
439.165	131.69
439.386	138.69
439.608	145.69
439.829	145.69
440.05	141.69
440.272	140.69
440.493	155.69
440.715	142.69
440.936	145.69
441.158	146.69
441.379	153.69
441.6	145.69
441.822	153.69
442.043	151.69
442.264	160.69
442.486	135.69
442.707	126.69
442.928	153.69
443.149	149.69
443.371	151.69
443.592	138.69
443.813	146.69
444.034	142.69
444.255	151.69
444.476	151.69
444.698	136.69
444.919	138.69
445.14	280.69
445.361	203.69
445.582	161.69
445.803	155.69
446.024	154.69
446.245	160.69
446.466	166.69
446.687	170.69
446.908	175.69
447.129	153.69
447.35	165.69
447.571	158.69
447.792	133.69
448.013	154.69
448.234	133.69
448.455	139.69
448.675	126.69
448.896	160.69
449.117	135.69
449.338	136.69
449.559	142.69
449.779	133.69
450	129.69
450.221	138.69
450.442	143.69
450.662	151.69
450.883	130.69
451.104	141.69
451.324	131.69
451.545	139.69
451.766	132.69
451.986	133.69
452.207	152.69
452.428	121.69
452.648	130.69
452.869	123.69
453.089	110.69
453.31	115.69
453.53	128.69
453.751	110.69
453.971	103.69
454.192	121.69
454.412	135.69
454.633	120.69
454.853	125.69
455.073	113.69
455.294	116.69
455.514	129.69
455.734	120.69
455.955	113.69
456.175	102.69
456.395	113.69
456.616	97.69
456.836	103.69
457.056	103.69
457.276	102.69
457.497	113.69
457.717	117.69
457.937	104.69
458.157	114.69
458.377	121.69
458.598	105.69
458.818	99.69
459.038	78.69
459.258	78.69
459.478	75.69
459.698	91.69
459.918	111.69
460.138	114.69
460.358	106.69
460.578	103.69
460.798	124.69
461.018	118.69
461.238	124.69
461.458	113.69
461.678	116.69
461.898	113.69
462.118	117.69
462.338	110.69
462.558	100.69
462.777	103.69
462.997	94.69
463.217	99.69
463.437	118.69
463.657	110.69
463.876	101.69
464.096	127.69
464.316	105.69
464.536	115.69
464.755	125.69
464.975	110.69
465.195	125.69
465.414	109.69
465.634	111.69
465.854	113.69
466.073	128.69
466.293	122.69
466.512	139.69
466.732	142.69
466.951	143.69
467.171	138.69
467.391	121.69
467.61	129.69
467.829	134.69
468.049	134.69
468.268	133.69
468.488	134.69
468.707	129.69
468.927	128.69
469.146	143.69
469.365	147.69
469.585	150.69
469.804	139.69
470.023	142.69
470.243	152.69
470.462	148.69
470.681	143.69
470.901	133.69
471.12	156.69
471.339	143.69
471.558	140.69
471.777	146.69
471.997	148.69
472.216	138.69
472.435	120.69
472.654	109.69
472.873	104.69
473.092	113.69
473.311	131.69
473.53	127.69
473.749	137.69
473.968	131.69
474.187	129.69
474.406	114.69
474.625	125.69
474.844	118.69
475.063	137.69
475.282	146.69
475.501	125.69
475.72	125.69
475.939	137.69
476.158	125.69
476.377	136.69
476.596	123.69
476.814	115.69
477.033	120.69
477.252	113.69
477.471	114.69
477.69	138.69
477.908	130.69
478.127	139.69
478.346	139.69
478.564	143.69
478.783	131.69
479.002	145.69
479.22	138.69
479.439	139.69
479.658	119.69
479.876	114.69
480.095	115.69
480.313	113.69
480.532	106.69
480.751	121.69
480.969	109.69
481.188	81.69
481.406	81.69
481.624	78.69
481.843	86.69
482.061	112.69
482.28	121.69
482.498	121.69
482.717	116.69
482.935	131.69
483.153	150.69
483.372	149.69
483.59	165.69
483.808	157.69
484.027	137.69
484.245	141.69
484.463	147.69
484.681	198.69
484.9	153.69
485.118	135.69
485.336	122.69
485.554	112.69
485.772	103.69
485.99	106.69
486.209	116.69
486.427	106.69
486.645	123.69
486.863	128.69
487.081	151.69
487.299	137.69
487.517	139.69
487.735	172.69
487.953	198.69
488.171	199.69
488.389	178.69
488.607	158.69
488.825	146.69
489.043	151.69
489.261	137.69
489.479	163.69
489.696	153.69
489.914	141.69
490.132	136.69
490.35	157.69
490.568	164.69
490.786	177.69
491.003	182.69
491.221	196.69
491.439	184.69
491.657	195.69
491.874	212.69
492.092	246.69
492.31	258.69
492.527	259.69
492.745	216.69
492.963	207.69
493.18	195.69
493.398	203.69
493.615	201.69
493.833	187.69
494.05	185.69
494.268	159.69
494.485	177.69
494.703	172.69
494.92	174.69
495.138	187.69
495.355	173.69
495.573	168.69
495.79	171.69
496.008	188.69
496.225	165.69
496.442	168.69
496.66	177.69
496.877	157.69
497.094	181.69
497.312	166.69
497.529	168.69
497.746	149.69
497.963	145.69
498.181	147.69
498.398	128.69
498.615	116.69
498.832	109.69
499.049	115.69
499.267	126.69
499.484	117.69
499.701	146.69
499.918	141.69
500.135	144.69
500.352	142.69
500.569	154.69
500.786	137.69
501.003	152.69
501.22	135.69
501.437	133.69
501.654	140.69
501.871	133.69
502.088	135.69
502.305	131.69
502.522	147.69
502.739	121.69
502.956	113.69
503.172	123.69
503.389	122.69
503.606	119.69
503.823	117.69
504.04	117.69
504.256	116.69
504.473	130.69
504.69	116.69
504.907	125.69
505.123	117.69
505.34	115.69
505.557	137.69
505.773	131.69
505.99	130.69
506.207	120.69
506.423	125.69
506.64	119.69
506.856	124.69
507.073	115.69
507.289	118.69
507.506	119.69
507.722	134.69
507.939	121.69
508.155	117.69
508.372	120.69
508.588	125.69
508.805	133.69
509.021	111.69
509.238	111.69
509.454	119.69
509.67	101.69
509.887	111.69
510.103	116.69
510.319	101.69
510.536	84.69
510.752	90.69
510.968	85.69
511.184	96.69
511.401	93.69
511.617	102.69
511.833	96.69
512.049	87.69
512.265	77.69
512.481	104.69
512.698	111.69
512.914	95.69
513.13	98.69
513.346	93.69
513.562	77.69
513.778	91.69
513.994	95.69
514.21	93.69
514.426	97.69
514.642	81.69
514.858	84.69
515.074	98.69
515.29	78.69
515.506	94.69
515.721	81.69
515.937	98.69
516.153	76.69
516.369	75.69
516.585	97.69
516.801	82.69
517.016	89.69
517.232	100.69
517.448	79.69
517.664	96.69
517.879	90.69
518.095	105.69
518.311	103.69
518.527	72.69
518.742	93.69
518.958	93.69
519.173	116.69
519.389	106.69
519.605	107.69
519.82	115.69
520.036	119.69
520.251	111.69
520.467	94.69
520.682	93.69
520.898	88.69
521.113	103.69
521.329	99.69
521.544	90.69
521.76	94.69
521.975	90.69
522.19	81.69
522.406	102.69
522.621	111.69
522.836	107.69
523.052	121.69
523.267	97.69
523.482	101.69
523.698	105.69
523.913	127.69
524.128	118.69
524.343	111.69
524.559	110.69
524.774	105.69
524.989	125.69
525.204	114.69
525.419	110.69
525.634	113.69
525.849	100.69
526.064	104.69
526.28	117.69
526.495	79.69
526.71	84.69
526.925	79.69
527.14	83.69
527.355	88.69
527.57	89.69
527.785	99.69
527.999	102.69
528.214	106.69
528.429	107.69
528.644	126.69
528.859	121.69
529.074	133.69
529.289	182.69
529.503	166.69
529.718	139.69
529.933	114.69
530.148	101.69
530.363	91.69
530.577	83.69
530.792	81.69
531.007	74.69
531.221	74.69
531.436	80.69
531.651	83.69
531.865	74.69
532.08	83.69
532.295	85.69
532.509	70.69
532.724	78.69
532.938	90.69
533.153	97.69
533.367	114.69
533.582	123.69
533.796	130.69
534.011	114.69
534.225	96.69
534.44	93.69
534.654	102.69
534.868	91.69
535.083	99.69
535.297	106.69
535.511	92.69
535.726	99.69
535.94	109.69
536.154	102.69
536.369	95.69
536.583	85.69
536.797	80.69
537.011	86.69
537.225	102.69
537.44	88.69
537.654	94.69
537.868	102.69
538.082	86.69
538.296	112.69
538.51	113.69
538.724	110.69
538.938	119.69
539.153	139.69
539.367	122.69
539.581	125.69
539.795	109.69
540.009	101.69
540.222	102.69
540.436	111.69
540.65	125.69
540.864	134.69
541.078	141.69
541.292	140.69
541.506	159.69
541.72	164.69
541.934	189.69
542.147	219.69
542.361	197.69
542.575	187.69
542.789	144.69
543.002	143.69
543.216	136.69
543.43	136.69
543.644	146.69
543.857	147.69
544.071	168.69
544.285	181.69
544.498	163.69
544.712	173.69
544.925	159.69
545.139	160.69
545.352	163.69
545.566	156.69
545.779	155.69
545.993	170.69
546.206	174.69
546.42	171.69
546.633	177.69
546.847	171.69
547.06	172.69
547.274	169.69
547.487	168.69
547.7	199.69
547.914	170.69
548.127	170.69
548.34	168.69
548.554	153.69
548.767	147.69
548.98	151.69
549.193	167.69
549.407	146.69
549.62	157.69
549.833	143.69
550.046	148.69
550.259	167.69
550.473	150.69
550.686	144.69
550.899	143.69
551.112	151.69
551.325	153.69
551.538	134.69
551.751	141.69
551.964	133.69
552.177	134.69
552.39	134.69
552.603	148.69
552.816	153.69
553.029	145.69
553.242	149.69
553.455	177.69
553.667	151.69
553.88	153.69
554.093	141.69
554.306	166.69
554.519	143.69
554.732	144.69
554.944	143.69
555.157	158.69
555.37	128.69
555.583	157.69
555.795	142.69
556.008	111.69
556.221	145.69
556.433	131.69
556.646	137.69
556.859	143.69
557.071	147.69
557.284	147.69
557.496	130.69
557.709	153.69
557.921	148.69
558.134	150.69
558.346	133.69
558.559	140.69
558.771	153.69
558.984	131.69
559.196	130.69
559.409	125.69
559.621	127.69
559.833	127.69
560.046	136.69
560.258	142.69
560.47	111.69
560.683	124.69
560.895	139.69
561.107	142.69
561.32	139.69
561.532	127.69
561.744	135.69
561.956	132.69
562.168	128.69
562.381	130.69
562.593	144.69
562.805	138.69
563.017	132.69
563.229	131.69
563.441	141.69
563.653	129.69
563.865	122.69
564.077	129.69
564.289	133.69
564.501	127.69
564.713	131.69
564.925	124.69
565.137	135.69
565.349	125.69
565.561	114.69
565.773	121.69
565.985	116.69
566.197	114.69
566.408	120.69
566.62	116.69
566.832	118.69
567.044	122.69
567.255	110.69
567.467	123.69
567.679	109.69
567.891	118.69
568.102	96.69
568.314	105.69
568.526	109.69
568.737	80.69
568.949	96.69
569.161	83.69
569.372	82.69
569.584	86.69
569.795	83.69
570.007	84.69
570.218	91.69
570.43	95.69
570.641	75.69
570.853	79.69
571.064	115.69
571.276	106.69
571.487	99.69
571.698	104.69
571.91	95.69
572.121	111.69
572.333	103.69
572.544	89.69
572.755	101.69
572.966	85.69
573.178	102.69
573.389	91.69
573.6	83.69
573.811	83.69
574.023	79.69
574.234	81.69
574.445	83.69
574.656	92.69
574.867	98.69
575.078	93.69
575.289	99.69
575.501	111.69
575.712	92.69
575.923	88.69
576.134	87.69
576.345	89.69
576.556	98.69
576.767	90.69
576.978	90.69
577.188	107.69
577.399	91.69
577.61	88.69
577.821	98.69
578.032	93.69
578.243	86.69
578.454	75.69
578.665	95.69
578.875	91.69
579.086	75.69
579.297	93.69
579.508	85.69
579.718	78.69
579.929	87.69
580.14	84.69
580.35	79.69
580.561	84.69
580.772	92.69
580.982	82.69
581.193	91.69
581.403	95.69
581.614	103.69
581.825	70.69
582.035	90.69
582.246	91.69
582.456	87.69
582.667	78.69
582.877	71.69
583.087	91.69
583.298	92.69
583.508	88.69
583.719	89.69
583.929	94.69
584.139	87.69
584.35	80.69
584.56	76.69
584.77	80.69
584.981	96.69
585.191	72.69
585.401	78.69
585.611	82.69
585.821	91.69
586.032	82.69
586.242	88.69
586.452	82.69
586.662	87.69
586.872	93.69
587.082	72.69
587.292	74.69
587.502	82.69
587.713	91.69
587.923	86.69
588.133	90.69
588.343	86.69
588.553	88.69
588.762	84.69
588.972	73.69
589.182	78.69
589.392	88.69
589.602	90.69
589.812	80.69
590.022	87.69
590.232	100.69
590.441	95.69
590.651	79.69
590.861	80.69
591.071	92.69
591.281	87.69
591.49	71.69
591.7	82.69
591.91	95.69
592.119	85.69
592.329	83.69
592.539	70.69
592.748	81.69
592.958	65.69
593.167	90.69
593.377	83.69
593.587	65.69
593.796	89.69
594.006	69.69
594.215	74.69
594.424	96.69
594.634	94.69
594.843	85.69
595.053	104.69
595.262	98.69
595.472	86.69
595.681	83.69
595.89	84.69
596.1	102.69
596.309	91.69
596.518	96.69
596.727	99.69
596.937	109.69
597.146	96.69
597.355	83.69
597.564	97.69
597.774	82.69
597.983	115.69
598.192	84.69
598.401	82.69
598.61	85.69
598.819	96.69
599.028	97.69
599.237	109.69
599.446	95.69
599.655	89.69
599.864	91.69
600.073	80.69
600.282	102.69
600.491	88.69
600.7	92.69
600.909	94.69
601.118	105.69
601.327	108.69
601.536	113.69
601.745	113.69
601.953	99.69
602.162	93.69
602.371	90.69
602.58	111.69
602.789	111.69
602.997	118.69
603.206	103.69
603.415	106.69
603.623	123.69
603.832	90.69
604.041	93.69
604.249	102.69
604.458	102.69
604.666	107.69
604.875	102.69
605.084	107.69
605.292	105.69
605.501	120.69
605.709	122.69
605.918	118.69
606.126	114.69
606.334	127.69
606.543	121.69
606.751	107.69
606.96	120.69
607.168	118.69
607.376	105.69
607.585	119.69
607.793	121.69
608.001	124.69
608.21	121.69
608.418	104.69
608.626	106.69
608.834	123.69
609.043	113.69
609.251	113.69
609.459	104.69
609.667	107.69
609.875	111.69
610.083	137.69
610.291	118.69
610.499	121.69
610.707	107.69
610.916	117.69
611.124	119.69
611.332	104.69
611.54	106.69
611.748	109.69
611.955	93.69
612.163	113.69
612.371	105.69
612.579	116.69
612.787	109.69
612.995	115.69
613.203	117.69
613.411	117.69
613.618	125.69
613.826	106.69
614.034	108.69
614.242	113.69
614.449	112.69
614.657	121.69
614.865	109.69
615.072	109.69
615.28	118.69
615.488	99.69
615.695	109.69
615.903	108.69
616.111	111.69
616.318	100.69
616.526	99.69
616.733	106.69
616.941	102.69
617.148	128.69
617.356	109.69
617.563	113.69
617.771	122.69
617.978	115.69
618.185	106.69
618.393	122.69
618.6	115.69
618.807	98.69
619.015	109.69
619.222	107.69
619.429	89.69
619.637	106.69
619.844	110.69
620.051	101.69
620.258	94.69
620.466	125.69
620.673	99.69
620.88	102.69
621.087	93.69
621.294	106.69
621.501	108.69
621.708	115.69
621.915	100.69
622.122	99.69
622.329	119.69
622.536	105.69
622.743	109.69
622.95	101.69
623.157	92.69
623.364	99.69
623.571	99.69
623.778	116.69
623.985	123.69
624.192	121.69
624.399	101.69
624.606	117.69
624.812	101.69
625.019	101.69
625.226	96.69
625.433	115.69
625.639	105.69
625.846	101.69
626.053	97.69
626.259	88.69
626.466	104.69
626.673	91.69
626.879	97.69
627.086	80.69
627.293	98.69
627.499	103.69
627.706	97.69
627.912	116.69
628.119	106.69
628.325	93.69
628.532	99.69
628.738	93.69
628.945	111.69
629.151	96.69
629.357	99.69
629.564	107.69
629.77	105.69
629.976	94.69
630.183	93.69
630.389	109.69
630.595	100.69
630.802	113.69
631.008	99.69
631.214	113.69
631.42	98.69
631.627	97.69
631.833	113.69
632.039	94.69
632.245	98.69
632.451	113.69
632.657	105.69
632.863	105.69
633.069	102.69
633.275	85.69
633.481	111.69
633.688	90.69
633.893	100.69
634.099	98.69
634.305	104.69
634.511	91.69
634.717	102.69
634.923	93.69
635.129	107.69
635.335	86.69
635.541	86.69
635.747	90.69
635.952	103.69
636.158	92.69
636.364	115.69
636.57	96.69
636.775	95.69
636.981	99.69
637.187	102.69
637.392	107.69
637.598	101.69
637.804	98.69
638.009	101.69
638.215	113.69
638.421	95.69
638.626	102.69
638.832	99.69
639.037	98.69
639.243	100.69
639.448	90.69
639.654	96.69
639.859	100.69
640.065	111.69
640.27	117.69
640.475	105.69
640.681	109.69
640.886	99.69
641.091	104.69
641.297	89.69
641.502	100.69
641.707	97.69
641.913	111.69
642.118	85.69
642.323	101.69
642.528	94.69
642.733	99.69
642.939	94.69
643.144	110.69
643.349	107.69
643.554	101.69
643.759	90.69
643.964	110.69
644.169	113.69
644.374	91.69
644.579	97.69
644.784	95.69
644.989	97.69
645.194	90.69
645.399	93.69
645.604	99.69
645.809	94.69
646.014	97.69
646.219	96.69
646.423	92.69
646.628	97.69
646.833	112.69
647.038	102.69
647.243	105.69
647.447	85.69
647.652	107.69
647.857	97.69
648.062	86.69
648.266	105.69
648.471	102.69
648.676	97.69
648.88	100.69
649.085	89.69
649.289	86.69
649.494	86.69
649.698	98.69
649.903	91.69
650.107	89.69
650.312	100.69
650.516	104.69
650.721	101.69
650.925	95.69
651.13	96.69
651.334	92.69
651.539	92.69
651.743	89.69
651.947	96.69
652.152	94.69
652.356	97.69
652.56	111.69
652.764	106.69
652.969	93.69
653.173	96.69
653.377	105.69
653.581	96.69
653.785	93.69
653.99	101.69
654.194	98.69
654.398	89.69
654.602	77.69
654.806	86.69
655.01	91.69
655.214	89.69
655.418	84.69
655.622	85.69
655.826	82.69
656.03	88.69
656.234	86.69
656.438	96.69
656.642	89.69
656.846	82.69
657.049	78.69
657.253	88.69
657.457	89.69
657.661	74.69
657.865	87.69
658.068	88.69
658.272	75.69
658.476	98.69
658.68	95.69
658.883	88.69
659.087	92.69
659.291	84.69
659.494	100.69
659.698	74.69
659.901	88.69
660.105	77.69
660.309	72.69
660.512	83.69
660.716	75.69
660.919	83.69
661.123	79.69
661.326	94.69
661.53	69.69
661.733	88.69
661.936	95.69
662.14	88.69
662.343	87.69
662.546	88.69
662.75	83.69
662.953	82.69
663.156	80.69
663.36	69.69
663.563	79.69
663.766	92.69
663.969	94.69
664.173	91.69
664.376	71.69
664.579	79.69
664.782	73.69
664.985	86.69
665.188	63.69
665.391	77.69
665.594	83.69
665.797	84.69
666	70.69
666.203	66.69
666.406	86.69
666.609	80.69
666.812	86.69
667.015	67.69
667.218	70.69
667.421	82.69
667.624	91.69
667.827	77.69
668.03	81.69
668.232	72.69
668.435	74.69
668.638	71.69
668.841	84.69
669.043	76.69
669.246	86.69
669.449	77.69
669.651	83.69
669.854	82.69
670.057	91.69
670.259	101.69
670.462	93.69
670.665	84.69
670.867	97.69
671.07	81.69
671.272	88.69
671.475	86.69
671.677	81.69
671.88	73.69
672.082	86.69
672.284	75.69
672.487	79.69
672.689	95.69
672.892	98.69
