Data from Location6.07152019.Energy5.Lamp.07192019.3%Agarose_HRD10591_16-10-55-394.txt Node
Date: Fri Jul 19 16:10:55 EDT 2019
User: cochatt
Spectrometer: HR+D1059
Trigger mode: 1
Integration Time (sec): 1.000000E-1
Scans to average: 1
Electric dark correction enabled: true
Nonlinearity correction enabled: false
Boxcar width: 0
XAxis mode: Wavelengths
Number of Pixels in Spectrum: 2048
>>>>>Begin Spectral Data<<<<<
223.165	-5.31
223.4	-5.31
223.635	-5.31
223.869	-18.31
224.104	-18.31
224.338	-23.31
224.573	-9.31
224.808	-12.31
225.042	-14.31
225.277	-6.31
225.511	-12.31
225.746	-2.31
225.98	17.69
226.215	14.69
226.449	15.69
226.683	0.69
226.918	34.69
227.152	38.69
227.387	45.69
227.621	45.69
227.856	41.69
228.09	52.69
228.324	50.69
228.559	53.69
228.793	60.69
229.027	62.69
229.262	71.69
229.496	73.69
229.73	63.69
229.964	74.69
230.199	71.69
230.433	70.69
230.667	78.69
230.901	81.69
231.136	72.69
231.37	96.69
231.604	79.69
231.838	86.69
232.072	86.69
232.306	86.69
232.541	74.69
232.775	92.69
233.009	87.69
233.243	86.69
233.477	90.69
233.711	89.69
233.945	78.69
234.179	86.69
234.413	90.69
234.647	69.69
234.881	89.69
235.115	87.69
235.349	93.69
235.583	92.69
235.817	88.69
236.051	75.69
236.285	87.69
236.519	80.69
236.753	75.69
236.987	85.69
237.221	72.69
237.455	70.69
237.689	77.69
237.922	76.69
238.156	91.69
238.39	68.69
238.624	58.69
238.858	80.69
239.091	76.69
239.325	72.69
239.559	73.69
239.793	83.69
240.027	85.69
240.26	90.69
240.494	75.69
240.728	68.69
240.961	68.69
241.195	77.69
241.429	77.69
241.662	88.69
241.896	83.69
242.13	78.69
242.363	80.69
242.597	79.69
242.83	77.69
243.064	74.69
243.298	65.69
243.531	79.69
243.765	86.69
243.998	75.69
244.232	84.69
244.465	87.69
244.699	75.69
244.932	72.69
245.166	92.69
245.399	83.69
245.633	69.69
245.866	77.69
246.099	81.69
246.333	70.69
246.566	75.69
246.8	89.69
247.033	74.69
247.266	84.69
247.5	84.69
247.733	76.69
247.966	80.69
248.2	86.69
248.433	79.69
248.666	76.69
248.899	73.69
249.133	96.69
249.366	92.69
249.599	80.69
249.832	71.69
250.066	77.69
250.299	71.69
250.532	76.69
250.765	75.69
250.998	81.69
251.231	86.69
251.465	69.69
251.698	78.69
251.931	82.69
252.164	77.69
252.397	72.69
252.63	65.69
252.863	72.69
253.096	90.69
253.329	75.69
253.562	81.69
253.795	77.69
254.028	80.69
254.261	89.69
254.494	81.69
254.727	78.69
254.96	81.69
255.193	59.69
255.426	77.69
255.659	88.69
255.892	80.69
256.124	82.69
256.357	79.69
256.59	71.69
256.823	86.69
257.056	77.69
257.289	79.69
257.521	83.69
257.754	80.69
257.987	91.69
258.22	94.69
258.452	82.69
258.685	71.69
258.918	80.69
259.151	99.69
259.383	80.69
259.616	92.69
259.849	73.69
260.081	89.69
260.314	71.69
260.547	92.69
260.779	81.69
261.012	90.69
261.244	89.69
261.477	75.69
261.71	92.69
261.942	70.69
262.175	84.69
262.407	86.69
262.64	77.69
262.872	92.69
263.105	85.69
263.337	86.69
263.57	63.69
263.802	75.69
264.035	79.69
264.267	87.69
264.499	93.69
264.732	75.69
264.964	89.69
265.197	76.69
265.429	92.69
265.661	91.69
265.894	72.69
266.126	86.69
266.358	77.69
266.591	79.69
266.823	77.69
267.055	92.69
267.287	77.69
267.52	89.69
267.752	90.69
267.984	72.69
268.216	86.69
268.448	86.69
268.681	75.69
268.913	89.69
269.145	80.69
269.377	74.69
269.609	89.69
269.841	88.69
270.073	79.69
270.306	92.69
270.538	74.69
270.77	68.69
271.002	80.69
271.234	75.69
271.466	86.69
271.698	67.69
271.93	84.69
272.162	73.69
272.394	88.69
272.626	83.69
272.858	98.69
273.09	82.69
273.322	94.69
273.553	80.69
273.785	96.69
274.017	87.69
274.249	82.69
274.481	94.69
274.713	83.69
274.945	82.69
275.176	71.69
275.408	86.69
275.64	96.69
275.872	86.69
276.104	90.69
276.335	93.69
276.567	79.69
276.799	87.69
277.031	77.69
277.262	80.69
277.494	87.69
277.726	82.69
277.957	77.69
278.189	73.69
278.421	101.69
278.652	89.69
278.884	82.69
279.115	88.69
279.347	79.69
279.579	86.69
279.81	82.69
280.042	79.69
280.273	91.69
280.505	84.69
280.736	85.69
280.968	89.69
281.199	101.69
281.431	75.69
281.662	75.69
281.894	86.69
282.125	75.69
282.356	87.69
282.588	90.69
282.819	74.69
283.051	90.69
283.282	87.69
283.513	75.69
283.745	88.69
283.976	82.69
284.207	89.69
284.439	86.69
284.67	91.69
284.901	83.69
285.132	81.69
285.364	92.69
285.595	93.69
285.826	86.69
286.057	88.69
286.288	92.69
286.52	93.69
286.751	95.69
286.982	92.69
287.213	71.69
287.444	73.69
287.675	83.69
287.906	90.69
288.138	97.69
288.369	93.69
288.6	95.69
288.831	86.69
289.062	89.69
289.293	94.69
289.524	76.69
289.755	89.69
289.986	85.69
290.217	86.69
290.448	86.69
290.679	83.69
290.91	91.69
291.141	86.69
291.371	88.69
291.602	88.69
291.833	76.69
292.064	95.69
292.295	76.69
292.526	64.69
292.757	99.69
292.987	92.69
293.218	78.69
293.449	94.69
293.68	90.69
293.91	88.69
294.141	86.69
294.372	89.69
294.603	90.69
294.833	88.69
295.064	78.69
295.295	85.69
295.525	88.69
295.756	88.69
295.987	97.69
296.217	89.69
296.448	73.69
296.679	79.69
296.909	85.69
297.14	84.69
297.37	93.69
297.601	82.69
297.831	78.69
298.062	85.69
298.292	89.69
298.523	90.69
298.753	85.69
298.984	90.69
299.214	75.69
299.445	88.69
299.675	83.69
299.905	91.69
300.136	98.69
300.366	75.69
300.597	91.69
300.827	76.69
301.057	88.69
301.288	100.69
301.518	97.69
301.748	92.69
301.979	82.69
302.209	69.69
302.439	85.69
302.669	81.69
302.9	88.69
303.13	82.69
303.36	85.69
303.59	69.69
303.82	87.69
304.051	86.69
304.281	89.69
304.511	95.69
304.741	84.69
304.971	69.69
305.201	90.69
305.431	86.69
305.661	97.69
305.891	93.69
306.121	85.69
306.352	81.69
306.582	79.69
306.812	80.69
307.042	81.69
307.272	82.69
307.502	84.69
307.731	78.69
307.961	79.69
308.191	92.69
308.421	84.69
308.651	77.69
308.881	79.69
309.111	93.69
309.341	95.69
309.571	86.69
309.8	77.69
310.03	75.69
310.26	90.69
310.49	86.69
310.72	101.69
310.949	83.69
311.179	90.69
311.409	91.69
311.639	83.69
311.868	94.69
312.098	87.69
312.328	82.69
312.557	88.69
312.787	86.69
313.017	94.69
313.246	75.69
313.476	66.69
313.706	88.69
313.935	84.69
314.165	92.69
314.394	85.69
314.624	64.69
314.853	66.69
315.083	77.69
315.312	91.69
315.542	75.69
315.771	84.69
316.001	90.69
316.23	92.69
316.46	80.69
316.689	83.69
316.919	84.69
317.148	86.69
317.377	81.69
317.607	96.69
317.836	86.69
318.065	86.69
318.295	84.69
318.524	83.69
318.753	89.69
318.983	75.69
319.212	87.69
319.441	84.69
319.67	74.69
319.9	91.69
320.129	84.69
320.358	72.69
320.587	87.69
320.816	93.69
321.046	82.69
321.275	82.69
321.504	84.69
321.733	85.69
321.962	82.69
322.191	92.69
322.42	85.69
322.649	78.69
322.878	93.69
323.108	79.69
323.337	93.69
323.566	84.69
323.795	80.69
324.024	75.69
324.253	88.69
324.482	91.69
324.71	93.69
324.939	93.69
325.168	98.69
325.397	79.69
325.626	76.69
325.855	80.69
326.084	92.69
326.313	88.69
326.542	81.69
326.77	89.69
326.999	88.69
327.228	85.69
327.457	88.69
327.686	83.69
327.914	92.69
328.143	104.69
328.372	77.69
328.6	91.69
328.829	86.69
329.058	77.69
329.287	84.69
329.515	98.69
329.744	85.69
329.972	92.69
330.201	74.69
330.43	84.69
330.658	85.69
330.887	105.69
331.115	100.69
331.344	74.69
331.572	90.69
331.801	83.69
332.03	85.69
332.258	88.69
332.486	91.69
332.715	78.69
332.943	86.69
333.172	89.69
333.4	89.69
333.629	84.69
333.857	82.69
334.085	84.69
334.314	78.69
334.542	93.69
334.771	101.69
334.999	77.69
335.227	81.69
335.455	91.69
335.684	93.69
335.912	85.69
336.14	84.69
336.369	98.69
336.597	83.69
336.825	86.69
337.053	95.69
337.281	92.69
337.51	92.69
337.738	93.69
337.966	83.69
338.194	80.69
338.422	102.69
338.65	98.69
338.878	86.69
339.106	87.69
339.334	84.69
339.562	68.69
339.79	92.69
340.018	90.69
340.246	84.69
340.474	95.69
340.702	100.69
340.93	98.69
341.158	75.69
341.386	75.69
341.614	84.69
341.842	86.69
342.07	90.69
342.298	92.69
342.526	86.69
342.754	88.69
342.981	87.69
343.209	89.69
343.437	97.69
343.665	78.69
343.893	70.69
344.12	114.69
344.348	91.69
344.576	86.69
344.804	96.69
345.031	85.69
345.259	91.69
345.487	98.69
345.714	94.69
345.942	87.69
346.17	84.69
346.397	96.69
346.625	96.69
346.853	72.69
347.08	83.69
347.308	93.69
347.535	82.69
347.763	76.69
347.99	85.69
348.218	93.69
348.445	89.69
348.673	84.69
348.9	83.69
349.128	95.69
349.355	83.69
349.583	84.69
349.81	94.69
350.037	94.69
350.265	77.69
350.492	76.69
350.72	85.69
350.947	74.69
351.174	81.69
351.402	78.69
351.629	79.69
351.856	99.69
352.083	81.69
352.311	83.69
352.538	93.69
352.765	78.69
352.992	90.69
353.22	90.69
353.447	102.69
353.674	84.69
353.901	92.69
354.128	86.69
354.355	93.69
354.583	88.69
354.81	90.69
355.037	64.69
355.264	89.69
355.491	88.69
355.718	93.69
355.945	90.69
356.172	73.69
356.399	84.69
356.626	78.69
356.853	76.69
357.08	71.69
357.307	90.69
357.534	80.69
357.761	87.69
357.988	77.69
358.215	82.69
358.441	82.69
358.668	91.69
358.895	90.69
359.122	92.69
359.349	77.69
359.576	80.69
359.802	88.69
360.029	86.69
360.256	83.69
360.483	92.69
360.709	84.69
360.936	84.69
361.163	77.69
361.39	76.69
361.616	89.69
361.843	79.69
362.07	76.69
362.296	89.69
362.523	76.69
362.749	79.69
362.976	82.69
363.203	92.69
363.429	68.69
363.656	74.69
363.882	86.69
364.109	84.69
364.335	76.69
364.562	93.69
364.788	86.69
365.015	78.69
365.241	88.69
365.468	85.69
365.694	81.69
365.92	87.69
366.147	81.69
366.373	83.69
366.599	83.69
366.826	89.69
367.052	104.69
367.278	97.69
367.505	88.69
367.731	106.69
367.957	92.69
368.184	82.69
368.41	85.69
368.636	72.69
368.862	95.69
369.089	68.69
369.315	70.69
369.541	86.69
369.767	79.69
369.993	88.69
370.219	96.69
370.445	93.69
370.672	104.69
370.898	100.69
371.124	92.69
371.35	86.69
371.576	88.69
371.802	84.69
372.028	93.69
372.254	89.69
372.48	76.69
372.706	84.69
372.932	103.69
373.158	88.69
373.384	98.69
373.61	105.69
373.835	93.69
374.061	88.69
374.287	80.69
374.513	104.69
374.739	105.69
374.965	96.69
375.191	96.69
375.416	84.69
375.642	88.69
375.868	79.69
376.094	90.69
376.319	88.69
376.545	109.69
376.771	104.69
376.997	106.69
377.222	92.69
377.448	97.69
377.674	107.69
377.899	89.69
378.125	104.69
378.35	96.69
378.576	92.69
378.802	105.69
379.027	104.69
379.253	102.69
379.478	104.69
379.704	103.69
379.929	104.69
380.155	108.69
380.38	103.69
380.606	90.69
380.831	98.69
381.057	102.69
381.282	95.69
381.507	92.69
381.733	87.69
381.958	101.69
382.184	91.69
382.409	80.69
382.634	94.69
382.86	87.69
383.085	99.69
383.31	101.69
383.535	94.69
383.761	105.69
383.986	99.69
384.211	91.69
384.436	107.69
384.662	87.69
384.887	97.69
385.112	91.69
385.337	109.69
385.562	102.69
385.787	97.69
386.013	110.69
386.238	90.69
386.463	97.69
386.688	94.69
386.913	103.69
387.138	105.69
387.363	104.69
387.588	100.69
387.813	112.69
388.038	104.69
388.263	102.69
388.488	97.69
388.713	108.69
388.938	100.69
389.163	105.69
389.387	102.69
389.612	107.69
389.837	117.69
390.062	98.69
390.287	122.69
390.512	110.69
390.736	97.69
390.961	104.69
391.186	108.69
391.411	120.69
391.636	92.69
391.86	118.69
392.085	104.69
392.31	113.69
392.534	116.69
392.759	116.69
392.984	110.69
393.208	105.69
393.433	115.69
393.658	102.69
393.882	104.69
394.107	114.69
394.331	110.69
394.556	106.69
394.78	113.69
395.005	120.69
395.229	101.69
395.454	110.69
395.678	114.69
395.903	106.69
396.127	118.69
396.352	109.69
396.576	109.69
396.801	110.69
397.025	115.69
397.249	107.69
397.474	119.69
397.698	120.69
397.922	128.69
398.147	101.69
398.371	112.69
398.595	108.69
398.82	121.69
399.044	118.69
399.268	110.69
399.492	122.69
399.717	116.69
399.941	112.69
400.165	118.69
400.389	113.69
400.613	120.69
400.837	109.69
401.062	105.69
401.286	125.69
401.51	116.69
401.734	99.69
401.958	114.69
402.182	122.69
402.406	114.69
402.63	102.69
402.854	117.69
403.078	120.69
403.302	136.69
403.526	105.69
403.75	114.69
403.974	122.69
404.198	128.69
404.422	113.69
404.645	112.69
404.869	107.69
405.093	118.69
405.317	124.69
405.541	121.69
405.765	121.69
405.988	117.69
406.212	120.69
406.436	115.69
406.66	125.69
406.883	120.69
407.107	129.69
407.331	126.69
407.555	122.69
407.778	124.69
408.002	122.69
408.226	127.69
408.449	119.69
408.673	122.69
408.896	116.69
409.12	102.69
409.344	122.69
409.567	133.69
409.791	117.69
410.014	121.69
410.238	123.69
410.461	132.69
410.685	126.69
410.908	120.69
411.132	121.69
411.355	123.69
411.578	131.69
411.802	130.69
412.025	138.69
412.249	131.69
412.472	132.69
412.695	134.69
412.919	125.69
413.142	129.69
413.365	128.69
413.589	121.69
413.812	132.69
414.035	141.69
414.258	137.69
414.482	128.69
414.705	125.69
414.928	129.69
415.151	123.69
415.374	137.69
415.597	132.69
415.821	120.69
416.044	129.69
416.267	127.69
416.49	112.69
416.713	122.69
416.936	116.69
417.159	136.69
417.382	136.69
417.605	133.69
417.828	123.69
418.051	133.69
418.274	122.69
418.497	133.69
418.72	148.69
418.943	133.69
419.166	137.69
419.389	126.69
419.611	144.69
419.834	145.69
420.057	149.69
420.28	136.69
420.503	139.69
420.726	128.69
420.948	137.69
421.171	135.69
421.394	144.69
421.617	140.69
421.839	142.69
422.062	139.69
422.285	124.69
422.507	140.69
422.73	139.69
422.953	120.69
423.175	126.69
423.398	133.69
423.621	138.69
423.843	141.69
424.066	148.69
424.288	150.69
424.511	152.69
424.733	145.69
424.956	150.69
425.178	153.69
425.401	143.69
425.623	137.69
425.846	148.69
426.068	135.69
426.291	128.69
426.513	126.69
426.735	124.69
426.958	143.69
427.18	126.69
427.402	120.69
427.625	136.69
427.847	138.69
428.069	141.69
428.292	124.69
428.514	124.69
428.736	133.69
428.958	134.69
429.181	129.69
429.403	130.69
429.625	137.69
429.847	134.69
430.069	135.69
430.292	140.69
430.514	133.69
430.736	121.69
430.958	128.69
431.18	122.69
431.402	124.69
431.624	129.69
431.846	105.69
432.068	97.69
432.29	101.69
432.512	109.69
432.734	126.69
432.956	135.69
433.178	143.69
433.4	142.69
433.622	138.69
433.844	128.69
434.066	126.69
434.287	125.69
434.509	97.69
434.731	92.69
434.953	114.69
435.175	130.69
435.397	118.69
435.618	127.69
435.84	112.69
436.062	123.69
436.284	128.69
436.505	131.69
436.727	135.69
436.949	131.69
437.17	141.69
437.392	128.69
437.614	120.69
437.835	107.69
438.057	107.69
438.278	120.69
438.5	120.69
438.721	138.69
438.943	141.69
439.165	139.69
439.386	140.69
439.608	139.69
439.829	149.69
440.05	156.69
440.272	155.69
440.493	157.69
440.715	152.69
440.936	151.69
441.158	142.69
441.379	139.69
441.6	151.69
441.822	152.69
442.043	132.69
442.264	148.69
442.486	135.69
442.707	164.69
442.928	143.69
443.149	141.69
443.371	127.69
443.592	149.69
443.813	148.69
444.034	150.69
444.255	152.69
444.476	153.69
444.698	158.69
444.919	161.69
445.14	290.69
445.361	208.69
445.582	145.69
445.803	157.69
446.024	163.69
446.245	177.69
446.466	182.69
446.687	176.69
446.908	159.69
447.129	153.69
447.35	161.69
447.571	168.69
447.792	148.69
448.013	156.69
448.234	158.69
448.455	142.69
448.675	165.69
448.896	142.69
449.117	136.69
449.338	151.69
449.559	139.69
449.779	132.69
450	133.69
450.221	141.69
450.442	126.69
450.662	154.69
450.883	141.69
451.104	125.69
451.324	134.69
451.545	138.69
451.766	136.69
451.986	134.69
452.207	118.69
452.428	128.69
452.648	124.69
452.869	132.69
453.089	121.69
453.31	116.69
453.53	110.69
453.751	109.69
453.971	89.69
454.192	107.69
454.412	114.69
454.633	116.69
454.853	118.69
455.073	135.69
455.294	134.69
455.514	135.69
455.734	140.69
455.955	125.69
456.175	121.69
456.395	101.69
456.616	116.69
456.836	118.69
457.056	116.69
457.276	127.69
457.497	109.69
457.717	119.69
457.937	123.69
458.157	124.69
458.377	115.69
458.598	96.69
458.818	91.69
459.038	82.69
459.258	93.69
459.478	94.69
459.698	100.69
459.918	93.69
460.138	107.69
460.358	109.69
460.578	124.69
460.798	114.69
461.018	107.69
461.238	124.69
461.458	118.69
461.678	114.69
461.898	124.69
462.118	104.69
462.338	104.69
462.558	120.69
462.777	125.69
462.997	114.69
463.217	118.69
463.437	120.69
463.657	118.69
463.876	105.69
464.096	115.69
464.316	104.69
464.536	117.69
464.755	121.69
464.975	106.69
465.195	128.69
465.414	135.69
465.634	123.69
465.854	109.69
466.073	129.69
466.293	124.69
466.512	114.69
466.732	144.69
466.951	133.69
467.171	136.69
467.391	132.69
467.61	125.69
467.829	130.69
468.049	126.69
468.268	146.69
468.488	154.69
468.707	126.69
468.927	146.69
469.146	149.69
469.365	126.69
469.585	132.69
469.804	138.69
470.023	140.69
470.243	148.69
470.462	153.69
470.681	156.69
470.901	152.69
471.12	142.69
471.339	164.69
471.558	128.69
471.777	143.69
471.997	137.69
472.216	129.69
472.435	116.69
472.654	115.69
472.873	101.69
473.092	115.69
473.311	128.69
473.53	129.69
473.749	131.69
473.968	128.69
474.187	120.69
474.406	122.69
474.625	134.69
474.844	148.69
475.063	142.69
475.282	143.69
475.501	124.69
475.72	119.69
475.939	125.69
476.158	123.69
476.377	137.69
476.596	128.69
476.814	128.69
477.033	118.69
477.252	120.69
477.471	129.69
477.69	148.69
477.908	146.69
478.127	133.69
478.346	160.69
478.564	142.69
478.783	148.69
479.002	148.69
479.22	157.69
479.439	150.69
479.658	137.69
479.876	116.69
480.095	106.69
480.313	109.69
480.532	115.69
480.751	115.69
480.969	100.69
481.188	87.69
481.406	97.69
481.624	94.69
481.843	93.69
482.061	106.69
482.28	123.69
482.498	107.69
482.717	114.69
482.935	130.69
483.153	142.69
483.372	145.69
483.59	154.69
483.808	148.69
484.027	143.69
484.245	148.69
484.463	141.69
484.681	163.69
484.9	143.69
485.118	138.69
485.336	132.69
485.554	123.69
485.772	117.69
485.99	108.69
486.209	102.69
486.427	118.69
486.645	125.69
486.863	150.69
487.081	136.69
487.299	136.69
487.517	154.69
487.735	184.69
487.953	188.69
488.171	203.69
488.389	188.69
488.607	170.69
488.825	132.69
489.043	136.69
489.261	136.69
489.479	146.69
489.696	144.69
489.914	147.69
490.132	159.69
490.35	153.69
490.568	180.69
490.786	170.69
491.003	193.69
491.221	167.69
491.439	196.69
491.657	202.69
491.874	220.69
492.092	245.69
492.31	260.69
492.527	253.69
492.745	216.69
492.963	186.69
493.18	186.69
493.398	191.69
493.615	192.69
493.833	185.69
494.05	172.69
494.268	182.69
494.485	184.69
494.703	197.69
494.92	195.69
495.138	182.69
495.355	179.69
495.573	176.69
495.79	186.69
496.008	168.69
496.225	162.69
496.442	185.69
496.66	171.69
496.877	156.69
497.094	184.69
497.312	157.69
497.529	174.69
497.746	168.69
497.963	146.69
498.181	143.69
498.398	130.69
498.615	130.69
498.832	140.69
499.049	126.69
499.267	130.69
499.484	132.69
499.701	156.69
499.918	122.69
500.135	144.69
500.352	149.69
500.569	160.69
500.786	149.69
501.003	145.69
501.22	134.69
501.437	148.69
501.654	137.69
501.871	135.69
502.088	127.69
502.305	129.69
502.522	134.69
502.739	129.69
502.956	128.69
503.172	124.69
503.389	130.69
503.606	139.69
503.823	133.69
504.04	124.69
504.256	121.69
504.473	134.69
504.69	122.69
504.907	128.69
505.123	132.69
505.34	136.69
505.557	124.69
505.773	128.69
505.99	124.69
506.207	122.69
506.423	140.69
506.64	124.69
506.856	121.69
507.073	122.69
507.289	123.69
507.506	114.69
507.722	128.69
507.939	124.69
508.155	120.69
508.372	122.69
508.588	120.69
508.805	110.69
509.021	101.69
509.238	107.69
509.454	107.69
509.67	120.69
509.887	93.69
510.103	105.69
510.319	93.69
510.536	105.69
510.752	70.69
510.968	95.69
511.184	77.69
511.401	85.69
511.617	83.69
511.833	89.69
512.049	91.69
512.265	93.69
512.481	104.69
512.698	93.69
512.914	105.69
513.13	95.69
513.346	99.69
513.562	81.69
513.778	98.69
513.994	104.69
514.21	90.69
514.426	114.69
514.642	92.69
514.858	86.69
515.074	80.69
515.29	82.69
515.506	92.69
515.721	89.69
515.937	94.69
516.153	91.69
516.369	77.69
516.585	77.69
516.801	78.69
517.016	91.69
517.232	96.69
517.448	104.69
517.664	103.69
517.879	86.69
518.095	96.69
518.311	85.69
518.527	101.69
518.742	107.69
518.958	108.69
519.173	112.69
519.389	103.69
519.605	102.69
519.82	97.69
520.036	114.69
520.251	118.69
520.467	99.69
520.682	100.69
520.898	90.69
521.113	75.69
521.329	101.69
521.544	95.69
521.76	92.69
521.975	92.69
522.19	102.69
522.406	99.69
522.621	106.69
522.836	112.69
523.052	117.69
523.267	120.69
523.482	117.69
523.698	122.69
523.913	116.69
524.128	119.69
524.343	123.69
524.559	121.69
524.774	119.69
524.989	130.69
525.204	117.69
525.419	124.69
525.634	114.69
525.849	104.69
526.064	109.69
526.28	109.69
526.495	92.69
526.71	83.69
526.925	98.69
527.14	84.69
527.355	87.69
527.57	94.69
527.785	97.69
527.999	86.69
528.214	112.69
528.429	116.69
528.644	122.69
528.859	125.69
529.074	156.69
529.289	158.69
529.503	159.69
529.718	130.69
529.933	122.69
530.148	105.69
530.363	100.69
530.577	96.69
530.792	91.69
531.007	93.69
531.221	91.69
531.436	86.69
531.651	91.69
531.865	79.69
532.08	86.69
532.295	91.69
532.509	97.69
532.724	97.69
532.938	98.69
533.153	110.69
533.367	104.69
533.582	121.69
533.796	116.69
534.011	109.69
534.225	98.69
534.44	93.69
534.654	101.69
534.868	102.69
535.083	108.69
535.297	104.69
535.511	117.69
535.726	105.69
535.94	96.69
536.154	102.69
536.369	90.69
536.583	93.69
536.797	89.69
537.011	82.69
537.225	85.69
537.44	89.69
537.654	106.69
537.868	94.69
538.082	91.69
538.296	94.69
538.51	98.69
538.724	122.69
538.938	144.69
539.153	118.69
539.367	134.69
539.581	120.69
539.795	118.69
540.009	90.69
540.222	106.69
540.436	105.69
540.65	103.69
540.864	128.69
541.078	129.69
541.292	165.69
541.506	178.69
541.72	192.69
541.934	196.69
542.147	217.69
542.361	195.69
542.575	164.69
542.789	165.69
543.002	143.69
543.216	136.69
543.43	129.69
543.644	148.69
543.857	148.69
544.071	167.69
544.285	172.69
544.498	168.69
544.712	171.69
544.925	176.69
545.139	161.69
545.352	160.69
545.566	174.69
545.779	177.69
545.993	168.69
546.206	169.69
546.42	184.69
546.633	185.69
546.847	172.69
547.06	165.69
547.274	166.69
547.487	183.69
547.7	184.69
547.914	181.69
548.127	164.69
548.34	169.69
548.554	164.69
548.767	172.69
548.98	174.69
549.193	156.69
549.407	149.69
549.62	163.69
549.833	156.69
550.046	157.69
550.259	156.69
550.473	167.69
550.686	148.69
550.899	155.69
551.112	168.69
551.325	170.69
551.538	139.69
551.751	134.69
551.964	125.69
552.177	136.69
552.39	146.69
552.603	149.69
552.816	150.69
553.029	138.69
553.242	178.69
553.455	151.69
553.667	172.69
553.88	162.69
554.093	154.69
554.306	135.69
554.519	147.69
554.732	152.69
554.944	145.69
555.157	151.69
555.37	155.69
555.583	147.69
555.795	147.69
556.008	143.69
556.221	141.69
556.433	134.69
556.646	141.69
556.859	127.69
557.071	147.69
557.284	154.69
557.496	153.69
557.709	147.69
557.921	156.69
558.134	153.69
558.346	133.69
558.559	148.69
558.771	139.69
558.984	149.69
559.196	123.69
559.409	131.69
559.621	133.69
559.833	149.69
560.046	131.69
560.258	134.69
560.47	134.69
560.683	139.69
560.895	152.69
561.107	134.69
561.32	155.69
561.532	138.69
561.744	124.69
561.956	134.69
562.168	132.69
562.381	148.69
562.593	135.69
562.805	136.69
563.017	137.69
563.229	136.69
563.441	141.69
563.653	128.69
563.865	126.69
564.077	119.69
564.289	126.69
564.501	122.69
564.713	121.69
564.925	118.69
565.137	112.69
565.349	124.69
565.561	135.69
565.773	124.69
565.985	128.69
566.197	119.69
566.408	126.69
566.62	122.69
566.832	121.69
567.044	132.69
567.255	118.69
567.467	120.69
567.679	114.69
567.891	105.69
568.102	100.69
568.314	94.69
568.526	86.69
568.737	94.69
568.949	82.69
569.161	81.69
569.372	76.69
569.584	92.69
569.795	83.69
570.007	94.69
570.218	108.69
570.43	84.69
570.641	91.69
570.853	113.69
571.064	106.69
571.276	108.69
571.487	103.69
571.698	112.69
571.91	109.69
572.121	96.69
572.333	101.69
572.544	103.69
572.755	94.69
572.966	89.69
573.178	100.69
573.389	80.69
573.6	84.69
573.811	87.69
574.023	96.69
574.234	88.69
574.445	92.69
574.656	96.69
574.867	108.69
575.078	94.69
575.289	101.69
575.501	100.69
575.712	106.69
575.923	100.69
576.134	82.69
576.345	107.69
576.556	106.69
576.767	107.69
576.978	106.69
577.188	105.69
577.399	98.69
577.61	89.69
577.821	88.69
578.032	85.69
578.243	89.69
578.454	91.69
578.665	94.69
578.875	98.69
579.086	93.69
579.297	78.69
579.508	95.69
579.718	90.69
579.929	77.69
580.14	78.69
580.35	83.69
580.561	88.69
580.772	93.69
580.982	105.69
581.193	105.69
581.403	101.69
581.614	100.69
581.825	97.69
582.035	83.69
582.246	92.69
582.456	91.69
582.667	97.69
582.877	98.69
583.087	104.69
583.298	100.69
583.508	75.69
583.719	98.69
583.929	93.69
584.139	85.69
584.35	85.69
584.56	81.69
584.77	93.69
584.981	89.69
585.191	94.69
585.401	90.69
585.611	84.69
585.821	83.69
586.032	85.69
586.242	81.69
586.452	86.69
586.662	93.69
586.872	83.69
587.082	90.69
587.292	89.69
587.502	89.69
587.713	81.69
587.923	81.69
588.133	84.69
588.343	88.69
588.553	76.69
588.762	91.69
588.972	91.69
589.182	80.69
589.392	91.69
589.602	83.69
589.812	91.69
590.022	92.69
590.232	86.69
590.441	81.69
590.651	77.69
590.861	94.69
591.071	81.69
591.281	72.69
591.49	72.69
591.7	75.69
591.91	84.69
592.119	81.69
592.329	81.69
592.539	90.69
592.748	78.69
592.958	95.69
593.167	88.69
593.377	90.69
593.587	106.69
593.796	93.69
594.006	95.69
594.215	85.69
594.424	87.69
594.634	98.69
594.843	91.69
595.053	105.69
595.262	84.69
595.472	85.69
595.681	94.69
595.89	91.69
596.1	88.69
596.309	93.69
596.518	93.69
596.727	86.69
596.937	97.69
597.146	92.69
597.355	96.69
597.564	93.69
597.774	84.69
597.983	98.69
598.192	79.69
598.401	97.69
598.61	93.69
598.819	94.69
599.028	91.69
599.237	101.69
599.446	98.69
599.655	96.69
599.864	102.69
600.073	91.69
600.282	91.69
600.491	82.69
600.7	100.69
600.909	110.69
601.118	97.69
601.327	109.69
601.536	90.69
601.745	102.69
601.953	103.69
602.162	105.69
602.371	104.69
602.58	107.69
602.789	118.69
602.997	123.69
603.206	117.69
603.415	105.69
603.623	119.69
603.832	116.69
604.041	116.69
604.249	99.69
604.458	100.69
604.666	88.69
604.875	98.69
605.084	104.69
605.292	108.69
605.501	102.69
605.709	121.69
605.918	108.69
606.126	115.69
606.334	123.69
606.543	109.69
606.751	118.69
606.96	115.69
607.168	131.69
607.376	107.69
607.585	105.69
607.793	112.69
608.001	102.69
608.21	109.69
608.418	129.69
608.626	108.69
608.834	104.69
609.043	126.69
609.251	116.69
609.459	124.69
609.667	122.69
609.875	116.69
610.083	132.69
610.291	116.69
610.499	114.69
610.707	124.69
610.916	103.69
611.124	108.69
611.332	125.69
611.54	123.69
611.748	116.69
611.955	109.69
612.163	105.69
612.371	121.69
612.579	108.69
612.787	124.69
612.995	125.69
613.203	125.69
613.411	101.69
613.618	105.69
613.826	112.69
614.034	126.69
614.242	107.69
614.449	98.69
614.657	106.69
614.865	116.69
615.072	96.69
615.28	119.69
615.488	122.69
615.695	112.69
615.903	124.69
616.111	105.69
616.318	105.69
616.526	115.69
616.733	110.69
616.941	105.69
617.148	115.69
617.356	114.69
617.563	101.69
617.771	117.69
617.978	104.69
618.185	114.69
618.393	103.69
618.6	134.69
618.807	124.69
619.015	115.69
619.222	109.69
619.429	124.69
619.637	115.69
619.844	103.69
620.051	109.69
620.258	109.69
620.466	117.69
620.673	90.69
620.88	104.69
621.087	101.69
621.294	106.69
621.501	105.69
621.708	112.69
621.915	109.69
622.122	112.69
622.329	106.69
622.536	107.69
622.743	114.69
622.95	105.69
623.157	101.69
623.364	118.69
623.571	124.69
623.778	110.69
623.985	122.69
624.192	113.69
624.399	112.69
624.606	122.69
624.812	97.69
625.019	117.69
625.226	118.69
625.433	116.69
625.639	108.69
625.846	98.69
626.053	93.69
626.259	89.69
626.466	88.69
626.673	95.69
626.879	99.69
627.086	105.69
627.293	100.69
627.499	103.69
627.706	114.69
627.912	118.69
628.119	106.69
628.325	106.69
628.532	104.69
628.738	106.69
628.945	112.69
629.151	114.69
629.357	113.69
629.564	116.69
629.77	116.69
629.976	105.69
630.183	95.69
630.389	110.69
630.595	108.69
630.802	105.69
631.008	106.69
631.214	110.69
631.42	93.69
631.627	101.69
631.833	92.69
632.039	89.69
632.245	101.69
632.451	101.69
632.657	105.69
632.863	116.69
633.069	102.69
633.275	104.69
633.481	105.69
633.688	99.69
633.893	86.69
634.099	97.69
634.305	102.69
634.511	107.69
634.717	87.69
634.923	90.69
635.129	112.69
635.335	97.69
635.541	99.69
635.747	100.69
635.952	91.69
636.158	94.69
636.364	118.69
636.57	98.69
636.775	96.69
636.981	116.69
637.187	98.69
637.392	115.69
637.598	95.69
637.804	109.69
638.009	100.69
638.215	99.69
638.421	108.69
638.626	94.69
638.832	105.69
639.037	96.69
639.243	102.69
639.448	92.69
639.654	115.69
639.859	100.69
640.065	91.69
640.27	107.69
640.475	110.69
640.681	104.69
640.886	102.69
641.091	101.69
641.297	110.69
641.502	116.69
641.707	116.69
641.913	106.69
642.118	100.69
642.323	110.69
642.528	109.69
642.733	96.69
642.939	95.69
643.144	91.69
643.349	115.69
643.554	94.69
643.759	104.69
643.964	82.69
644.169	96.69
644.374	93.69
644.579	98.69
644.784	100.69
644.989	112.69
645.194	102.69
645.399	96.69
645.604	117.69
645.809	102.69
646.014	90.69
646.219	93.69
646.423	96.69
646.628	101.69
646.833	97.69
647.038	110.69
647.243	99.69
647.447	116.69
647.652	98.69
647.857	91.69
648.062	90.69
648.266	105.69
648.471	98.69
648.676	91.69
648.88	91.69
649.085	91.69
649.289	107.69
649.494	100.69
649.698	96.69
649.903	94.69
650.107	97.69
650.312	93.69
650.516	114.69
650.721	90.69
650.925	82.69
651.13	90.69
651.334	106.69
651.539	100.69
651.743	111.69
651.947	77.69
652.152	100.69
652.356	103.69
652.56	113.69
652.764	114.69
652.969	96.69
653.173	89.69
653.377	121.69
653.581	92.69
653.785	88.69
653.99	84.69
654.194	92.69
654.398	91.69
654.602	105.69
654.806	96.69
655.01	87.69
655.214	97.69
655.418	90.69
655.622	93.69
655.826	94.69
656.03	82.69
656.234	101.69
656.438	91.69
656.642	102.69
656.846	86.69
657.049	89.69
657.253	100.69
657.457	91.69
657.661	88.69
657.865	86.69
658.068	98.69
658.272	74.69
658.476	91.69
658.68	87.69
658.883	85.69
659.087	78.69
659.291	94.69
659.494	88.69
659.698	93.69
659.901	93.69
660.105	86.69
660.309	88.69
660.512	86.69
660.716	91.69
660.919	80.69
661.123	100.69
661.326	89.69
661.53	75.69
661.733	81.69
661.936	85.69
662.14	89.69
662.343	99.69
662.546	83.69
662.75	75.69
662.953	90.69
663.156	76.69
663.36	86.69
663.563	77.69
663.766	83.69
663.969	69.69
664.173	89.69
664.376	85.69
664.579	72.69
664.782	72.69
664.985	69.69
665.188	88.69
665.391	75.69
665.594	88.69
665.797	83.69
666	95.69
666.203	87.69
666.406	75.69
666.609	78.69
666.812	74.69
667.015	84.69
667.218	85.69
667.421	86.69
667.624	80.69
667.827	91.69
668.03	78.69
668.232	77.69
668.435	77.69
668.638	87.69
668.841	84.69
669.043	100.69
669.246	91.69
669.449	76.69
669.651	97.69
669.854	88.69
670.057	84.69
670.259	79.69
670.462	81.69
670.665	89.69
670.867	90.69
671.07	92.69
671.272	87.69
671.475	91.69
671.677	77.69
671.88	88.69
672.082	80.69
672.284	75.69
672.487	100.69
672.689	84.69
672.892	78.69
