Data from Location6.07152019.Energy5.Lamp.07192019.3%Agarose_HRD10591_16-13-22-395.txt Node
Date: Fri Jul 19 16:13:22 EDT 2019
User: cochatt
Spectrometer: HR+D1059
Trigger mode: 1
Integration Time (sec): 1.000000E-1
Scans to average: 1
Electric dark correction enabled: true
Nonlinearity correction enabled: false
Boxcar width: 0
XAxis mode: Wavelengths
Number of Pixels in Spectrum: 2048
>>>>>Begin Spectral Data<<<<<
223.165	-0.25
223.4	-0.25
223.635	-0.25
223.869	-24.25
224.104	-22.25
224.338	-15.25
224.573	-8.25
224.808	-2.25
225.042	-9.25
225.277	-19.25
225.511	-16.25
225.746	9.75
225.98	-7.25
226.215	20.75
226.449	28.75
226.683	17.75
226.918	22.75
227.152	24.75
227.387	31.75
227.621	31.75
227.856	41.75
228.09	26.75
228.324	38.75
228.559	52.75
228.793	57.75
229.027	57.75
229.262	71.75
229.496	60.75
229.73	71.75
229.964	65.75
230.199	68.75
230.433	75.75
230.667	83.75
230.901	69.75
231.136	67.75
231.37	78.75
231.604	89.75
231.838	89.75
232.072	80.75
232.306	77.75
232.541	76.75
232.775	88.75
233.009	92.75
233.243	70.75
233.477	83.75
233.711	80.75
233.945	90.75
234.179	79.75
234.413	81.75
234.647	90.75
234.881	94.75
235.115	72.75
235.349	79.75
235.583	84.75
235.817	91.75
236.051	75.75
236.285	87.75
236.519	69.75
236.753	91.75
236.987	73.75
237.221	67.75
237.455	75.75
237.689	84.75
237.922	83.75
238.156	86.75
238.39	77.75
238.624	84.75
238.858	72.75
239.091	74.75
239.325	92.75
239.559	81.75
239.793	85.75
240.027	90.75
240.26	58.75
240.494	81.75
240.728	66.75
240.961	71.75
241.195	83.75
241.429	77.75
241.662	75.75
241.896	74.75
242.13	89.75
242.363	70.75
242.597	73.75
242.83	80.75
243.064	76.75
243.298	72.75
243.531	89.75
243.765	69.75
243.998	93.75
244.232	63.75
244.465	83.75
244.699	77.75
244.932	74.75
245.166	76.75
245.399	82.75
245.633	94.75
245.866	77.75
246.099	66.75
246.333	80.75
246.566	73.75
246.8	92.75
247.033	73.75
247.266	82.75
247.5	74.75
247.733	72.75
247.966	90.75
248.2	83.75
248.433	81.75
248.666	84.75
248.899	75.75
249.133	76.75
249.366	82.75
249.599	76.75
249.832	77.75
250.066	82.75
250.299	75.75
250.532	70.75
250.765	70.75
250.998	65.75
251.231	84.75
251.465	85.75
251.698	78.75
251.931	90.75
252.164	82.75
252.397	84.75
252.63	73.75
252.863	72.75
253.096	70.75
253.329	79.75
253.562	82.75
253.795	65.75
254.028	94.75
254.261	88.75
254.494	90.75
254.727	82.75
254.96	80.75
255.193	90.75
255.426	70.75
255.659	88.75
255.892	89.75
256.124	76.75
256.357	81.75
256.59	85.75
256.823	78.75
257.056	64.75
257.289	75.75
257.521	89.75
257.754	63.75
257.987	67.75
258.22	81.75
258.452	74.75
258.685	75.75
258.918	85.75
259.151	77.75
259.383	76.75
259.616	100.75
259.849	86.75
260.081	83.75
260.314	78.75
260.547	86.75
260.779	77.75
261.012	85.75
261.244	87.75
261.477	90.75
261.71	66.75
261.942	84.75
262.175	82.75
262.407	67.75
262.64	71.75
262.872	91.75
263.105	74.75
263.337	92.75
263.57	85.75
263.802	80.75
264.035	80.75
264.267	89.75
264.499	77.75
264.732	80.75
264.964	68.75
265.197	79.75
265.429	71.75
265.661	84.75
265.894	93.75
266.126	85.75
266.358	81.75
266.591	90.75
266.823	79.75
267.055	83.75
267.287	103.75
267.52	67.75
267.752	84.75
267.984	69.75
268.216	70.75
268.448	83.75
268.681	75.75
268.913	90.75
269.145	90.75
269.377	87.75
269.609	88.75
269.841	80.75
270.073	73.75
270.306	71.75
270.538	93.75
270.77	77.75
271.002	90.75
271.234	89.75
271.466	86.75
271.698	90.75
271.93	84.75
272.162	70.75
272.394	83.75
272.626	82.75
272.858	77.75
273.09	76.75
273.322	80.75
273.553	92.75
273.785	79.75
274.017	87.75
274.249	83.75
274.481	82.75
274.713	72.75
274.945	87.75
275.176	56.75
275.408	76.75
275.64	94.75
275.872	88.75
276.104	89.75
276.335	84.75
276.567	97.75
276.799	90.75
277.031	72.75
277.262	83.75
277.494	77.75
277.726	87.75
277.957	77.75
278.189	91.75
278.421	81.75
278.652	77.75
278.884	75.75
279.115	85.75
279.347	90.75
279.579	84.75
279.81	70.75
280.042	87.75
280.273	75.75
280.505	73.75
280.736	78.75
280.968	79.75
281.199	96.75
281.431	73.75
281.662	77.75
281.894	86.75
282.125	79.75
282.356	92.75
282.588	83.75
282.819	80.75
283.051	82.75
283.282	92.75
283.513	73.75
283.745	88.75
283.976	89.75
284.207	92.75
284.439	89.75
284.67	82.75
284.901	69.75
285.132	82.75
285.364	83.75
285.595	83.75
285.826	88.75
286.057	81.75
286.288	72.75
286.52	91.75
286.751	82.75
286.982	84.75
287.213	76.75
287.444	80.75
287.675	91.75
287.906	87.75
288.138	84.75
288.369	89.75
288.6	83.75
288.831	73.75
289.062	84.75
289.293	93.75
289.524	91.75
289.755	77.75
289.986	96.75
290.217	86.75
290.448	81.75
290.679	91.75
290.91	89.75
291.141	81.75
291.371	100.75
291.602	75.75
291.833	72.75
292.064	87.75
292.295	75.75
292.526	90.75
292.757	90.75
292.987	88.75
293.218	71.75
293.449	81.75
293.68	90.75
293.91	85.75
294.141	85.75
294.372	85.75
294.603	85.75
294.833	73.75
295.064	85.75
295.295	73.75
295.525	77.75
295.756	79.75
295.987	92.75
296.217	80.75
296.448	87.75
296.679	86.75
296.909	91.75
297.14	90.75
297.37	96.75
297.601	72.75
297.831	90.75
298.062	93.75
298.292	72.75
298.523	77.75
298.753	88.75
298.984	87.75
299.214	77.75
299.445	79.75
299.675	92.75
299.905	76.75
300.136	80.75
300.366	77.75
300.597	93.75
300.827	69.75
301.057	84.75
301.288	90.75
301.518	90.75
301.748	98.75
301.979	83.75
302.209	75.75
302.439	81.75
302.669	72.75
302.9	77.75
303.13	91.75
303.36	93.75
303.59	81.75
303.82	78.75
304.051	95.75
304.281	85.75
304.511	85.75
304.741	77.75
304.971	78.75
305.201	77.75
305.431	80.75
305.661	72.75
305.891	78.75
306.121	72.75
306.352	79.75
306.582	91.75
306.812	73.75
307.042	88.75
307.272	83.75
307.502	76.75
307.731	101.75
307.961	89.75
308.191	97.75
308.421	91.75
308.651	84.75
308.881	95.75
309.111	84.75
309.341	93.75
309.571	81.75
309.8	86.75
310.03	96.75
310.26	99.75
310.49	93.75
310.72	71.75
310.949	79.75
311.179	76.75
311.409	100.75
311.639	85.75
311.868	75.75
312.098	100.75
312.328	86.75
312.557	97.75
312.787	93.75
313.017	82.75
313.246	89.75
313.476	93.75
313.706	82.75
313.935	74.75
314.165	101.75
314.394	109.75
314.624	98.75
314.853	68.75
315.083	82.75
315.312	80.75
315.542	89.75
315.771	82.75
316.001	90.75
316.23	80.75
316.46	82.75
316.689	66.75
316.919	100.75
317.148	85.75
317.377	85.75
317.607	78.75
317.836	73.75
318.065	88.75
318.295	81.75
318.524	86.75
318.753	82.75
318.983	85.75
319.212	97.75
319.441	81.75
319.67	81.75
319.9	94.75
320.129	80.75
320.358	91.75
320.587	73.75
320.816	76.75
321.046	88.75
321.275	83.75
321.504	89.75
321.733	77.75
321.962	102.75
322.191	88.75
322.42	83.75
322.649	91.75
322.878	78.75
323.108	92.75
323.337	101.75
323.566	78.75
323.795	81.75
324.024	98.75
324.253	82.75
324.482	87.75
324.71	86.75
324.939	82.75
325.168	77.75
325.397	78.75
325.626	89.75
325.855	89.75
326.084	98.75
326.313	94.75
326.542	75.75
326.77	74.75
326.999	79.75
327.228	88.75
327.457	83.75
327.686	87.75
327.914	82.75
328.143	106.75
328.372	88.75
328.6	95.75
328.829	92.75
329.058	84.75
329.287	88.75
329.515	76.75
329.744	94.75
329.972	84.75
330.201	80.75
330.43	88.75
330.658	86.75
330.887	84.75
331.115	78.75
331.344	102.75
331.572	75.75
331.801	78.75
332.03	72.75
332.258	83.75
332.486	92.75
332.715	89.75
332.943	93.75
333.172	87.75
333.4	97.75
333.629	68.75
333.857	86.75
334.085	111.75
334.314	65.75
334.542	69.75
334.771	81.75
334.999	77.75
335.227	102.75
335.455	84.75
335.684	77.75
335.912	92.75
336.14	94.75
336.369	84.75
336.597	78.75
336.825	80.75
337.053	75.75
337.281	71.75
337.51	73.75
337.738	99.75
337.966	95.75
338.194	83.75
338.422	86.75
338.65	86.75
338.878	77.75
339.106	76.75
339.334	91.75
339.562	85.75
339.79	84.75
340.018	83.75
340.246	82.75
340.474	80.75
340.702	81.75
340.93	84.75
341.158	77.75
341.386	96.75
341.614	96.75
341.842	94.75
342.07	95.75
342.298	67.75
342.526	76.75
342.754	90.75
342.981	88.75
343.209	90.75
343.437	85.75
343.665	91.75
343.893	90.75
344.12	85.75
344.348	81.75
344.576	105.75
344.804	78.75
345.031	79.75
345.259	85.75
345.487	90.75
345.714	99.75
345.942	77.75
346.17	83.75
346.397	83.75
346.625	96.75
346.853	86.75
347.08	77.75
347.308	81.75
347.535	88.75
347.763	85.75
347.99	85.75
348.218	88.75
348.445	81.75
348.673	94.75
348.9	91.75
349.128	91.75
349.355	88.75
349.583	88.75
349.81	94.75
350.037	88.75
350.265	78.75
350.492	88.75
350.72	100.75
350.947	89.75
351.174	94.75
351.402	81.75
351.629	85.75
351.856	79.75
352.083	73.75
352.311	88.75
352.538	80.75
352.765	76.75
352.992	75.75
353.22	89.75
353.447	93.75
353.674	81.75
353.901	83.75
354.128	86.75
354.355	83.75
354.583	86.75
354.81	81.75
355.037	91.75
355.264	80.75
355.491	85.75
355.718	88.75
355.945	77.75
356.172	101.75
356.399	93.75
356.626	82.75
356.853	83.75
357.08	84.75
357.307	95.75
357.534	92.75
357.761	85.75
357.988	99.75
358.215	87.75
358.441	74.75
358.668	75.75
358.895	73.75
359.122	89.75
359.349	71.75
359.576	76.75
359.802	93.75
360.029	82.75
360.256	83.75
360.483	79.75
360.709	75.75
360.936	83.75
361.163	79.75
361.39	83.75
361.616	97.75
361.843	76.75
362.07	87.75
362.296	78.75
362.523	77.75
362.749	87.75
362.976	72.75
363.203	84.75
363.429	85.75
363.656	85.75
363.882	91.75
364.109	77.75
364.335	76.75
364.562	84.75
364.788	92.75
365.015	96.75
365.241	83.75
365.468	87.75
365.694	87.75
365.92	75.75
366.147	84.75
366.373	100.75
366.599	88.75
366.826	77.75
367.052	85.75
367.278	81.75
367.505	90.75
367.731	95.75
367.957	89.75
368.184	89.75
368.41	86.75
368.636	81.75
368.862	87.75
369.089	91.75
369.315	88.75
369.541	91.75
369.767	77.75
369.993	91.75
370.219	90.75
370.445	95.75
370.672	92.75
370.898	74.75
371.124	88.75
371.35	87.75
371.576	88.75
371.802	108.75
372.028	88.75
372.254	100.75
372.48	84.75
372.706	98.75
372.932	93.75
373.158	93.75
373.384	98.75
373.61	83.75
373.835	102.75
374.061	91.75
374.287	77.75
374.513	82.75
374.739	86.75
374.965	99.75
375.191	96.75
375.416	96.75
375.642	91.75
375.868	109.75
376.094	80.75
376.319	109.75
376.545	81.75
376.771	90.75
376.997	75.75
377.222	93.75
377.448	95.75
377.674	95.75
377.899	93.75
378.125	99.75
378.35	103.75
378.576	96.75
378.802	90.75
379.027	78.75
379.253	103.75
379.478	85.75
379.704	92.75
379.929	86.75
380.155	100.75
380.38	86.75
380.606	91.75
380.831	99.75
381.057	93.75
381.282	96.75
381.507	100.75
381.733	105.75
381.958	99.75
382.184	106.75
382.409	107.75
382.634	106.75
382.86	108.75
383.085	96.75
383.31	91.75
383.535	103.75
383.761	100.75
383.986	100.75
384.211	105.75
384.436	109.75
384.662	100.75
384.887	106.75
385.112	95.75
385.337	84.75
385.562	96.75
385.787	103.75
386.013	118.75
386.238	106.75
386.463	91.75
386.688	103.75
386.913	101.75
387.138	88.75
387.363	109.75
387.588	106.75
387.813	106.75
388.038	112.75
388.263	108.75
388.488	98.75
388.713	117.75
388.938	104.75
389.163	105.75
389.387	107.75
389.612	113.75
389.837	111.75
390.062	113.75
390.287	90.75
390.512	103.75
390.736	104.75
390.961	121.75
391.186	103.75
391.411	102.75
391.636	99.75
391.86	106.75
392.085	107.75
392.31	109.75
392.534	111.75
392.759	103.75
392.984	111.75
393.208	94.75
393.433	102.75
393.658	98.75
393.882	112.75
394.107	107.75
394.331	97.75
394.556	104.75
394.78	114.75
395.005	97.75
395.229	109.75
395.454	117.75
395.678	108.75
395.903	108.75
396.127	110.75
396.352	105.75
396.576	115.75
396.801	112.75
397.025	124.75
397.249	91.75
397.474	123.75
397.698	98.75
397.922	105.75
398.147	98.75
398.371	104.75
398.595	121.75
398.82	92.75
399.044	102.75
399.268	123.75
399.492	106.75
399.717	127.75
399.941	109.75
400.165	113.75
400.389	108.75
400.613	114.75
400.837	116.75
401.062	107.75
401.286	100.75
401.51	128.75
401.734	121.75
401.958	132.75
402.182	108.75
402.406	110.75
402.63	119.75
402.854	123.75
403.078	127.75
403.302	117.75
403.526	131.75
403.75	123.75
403.974	121.75
404.198	117.75
404.422	116.75
404.645	113.75
404.869	122.75
405.093	108.75
405.317	127.75
405.541	125.75
405.765	112.75
405.988	121.75
406.212	124.75
406.436	121.75
406.66	139.75
406.883	139.75
407.107	105.75
407.331	119.75
407.555	127.75
407.778	121.75
408.002	120.75
408.226	113.75
408.449	118.75
408.673	135.75
408.896	128.75
409.12	143.75
409.344	113.75
409.567	123.75
409.791	125.75
410.014	124.75
410.238	139.75
410.461	136.75
410.685	145.75
410.908	134.75
411.132	131.75
411.355	125.75
411.578	122.75
411.802	132.75
412.025	114.75
412.249	114.75
412.472	134.75
412.695	144.75
412.919	120.75
413.142	122.75
413.365	119.75
413.589	136.75
413.812	153.75
414.035	132.75
414.258	124.75
414.482	107.75
414.705	137.75
414.928	133.75
415.151	125.75
415.374	131.75
415.597	127.75
415.821	130.75
416.044	123.75
416.267	129.75
416.49	118.75
416.713	127.75
416.936	141.75
417.159	139.75
417.382	129.75
417.605	122.75
417.828	126.75
418.051	129.75
418.274	127.75
418.497	139.75
418.72	146.75
418.943	132.75
419.166	142.75
419.389	139.75
419.611	134.75
419.834	137.75
420.057	140.75
420.28	130.75
420.503	143.75
420.726	137.75
420.948	137.75
421.171	140.75
421.394	137.75
421.617	146.75
421.839	152.75
422.062	155.75
422.285	128.75
422.507	137.75
422.73	135.75
422.953	124.75
423.175	124.75
423.398	137.75
423.621	135.75
423.843	136.75
424.066	139.75
424.288	153.75
424.511	157.75
424.733	149.75
424.956	152.75
425.178	143.75
425.401	147.75
425.623	141.75
425.846	140.75
426.068	135.75
426.291	129.75
426.513	129.75
426.735	123.75
426.958	136.75
427.18	141.75
427.402	141.75
427.625	140.75
427.847	148.75
428.069	134.75
428.292	139.75
428.514	128.75
428.736	125.75
428.958	134.75
429.181	135.75
429.403	133.75
429.625	132.75
429.847	137.75
430.069	122.75
430.292	130.75
430.514	119.75
430.736	137.75
430.958	140.75
431.18	124.75
431.402	104.75
431.624	117.75
431.846	112.75
432.068	93.75
432.29	81.75
432.512	116.75
432.734	126.75
432.956	135.75
433.178	147.75
433.4	144.75
433.622	153.75
433.844	136.75
434.066	130.75
434.287	111.75
434.509	119.75
434.731	118.75
434.953	121.75
435.175	126.75
435.397	123.75
435.618	118.75
435.84	101.75
436.062	115.75
436.284	115.75
436.505	119.75
436.727	127.75
436.949	133.75
437.17	128.75
437.392	127.75
437.614	119.75
437.835	101.75
438.057	119.75
438.278	116.75
438.5	128.75
438.721	136.75
438.943	149.75
439.165	136.75
439.386	141.75
439.608	153.75
439.829	151.75
440.05	151.75
440.272	149.75
440.493	147.75
440.715	156.75
440.936	147.75
441.158	148.75
441.379	154.75
441.6	153.75
441.822	148.75
442.043	150.75
442.264	153.75
442.486	146.75
442.707	160.75
442.928	140.75
443.149	142.75
443.371	147.75
443.592	149.75
443.813	145.75
444.034	139.75
444.255	141.75
444.476	145.75
444.698	138.75
444.919	145.75
445.14	275.75
445.361	207.75
445.582	153.75
445.803	163.75
446.024	155.75
446.245	141.75
446.466	155.75
446.687	157.75
446.908	170.75
447.129	175.75
447.35	159.75
447.571	157.75
447.792	156.75
448.013	139.75
448.234	147.75
448.455	149.75
448.675	166.75
448.896	140.75
449.117	152.75
449.338	142.75
449.559	145.75
449.779	137.75
450	145.75
450.221	148.75
450.442	137.75
450.662	137.75
450.883	141.75
451.104	138.75
451.324	126.75
451.545	140.75
451.766	141.75
451.986	130.75
452.207	151.75
452.428	129.75
452.648	124.75
452.869	123.75
453.089	128.75
453.31	108.75
453.53	101.75
453.751	107.75
453.971	106.75
454.192	114.75
454.412	113.75
454.633	128.75
454.853	130.75
455.073	131.75
455.294	123.75
455.514	145.75
455.734	127.75
455.955	107.75
456.175	119.75
456.395	127.75
456.616	105.75
456.836	107.75
457.056	118.75
457.276	118.75
457.497	98.75
457.717	104.75
457.937	110.75
458.157	103.75
458.377	111.75
458.598	120.75
458.818	94.75
459.038	96.75
459.258	102.75
459.478	80.75
459.698	104.75
459.918	113.75
460.138	98.75
460.358	115.75
460.578	116.75
460.798	127.75
461.018	124.75
461.238	118.75
461.458	117.75
461.678	112.75
461.898	116.75
462.118	113.75
462.338	130.75
462.558	132.75
462.777	129.75
462.997	118.75
463.217	114.75
463.437	124.75
463.657	118.75
463.876	117.75
464.096	112.75
464.316	107.75
464.536	121.75
464.755	135.75
464.975	136.75
465.195	129.75
465.414	126.75
465.634	109.75
465.854	139.75
466.073	126.75
466.293	125.75
466.512	129.75
466.732	136.75
466.951	137.75
467.171	146.75
467.391	139.75
467.61	127.75
467.829	142.75
468.049	134.75
468.268	130.75
468.488	140.75
468.707	142.75
468.927	146.75
469.146	132.75
469.365	128.75
469.585	137.75
469.804	140.75
470.023	139.75
470.243	138.75
470.462	166.75
470.681	139.75
470.901	145.75
471.12	139.75
471.339	152.75
471.558	152.75
471.777	161.75
471.997	151.75
472.216	139.75
472.435	129.75
472.654	128.75
472.873	115.75
473.092	120.75
473.311	124.75
473.53	132.75
473.749	141.75
473.968	139.75
474.187	117.75
474.406	123.75
474.625	127.75
474.844	131.75
475.063	146.75
475.282	137.75
475.501	109.75
475.72	115.75
475.939	130.75
476.158	119.75
476.377	121.75
476.596	137.75
476.814	109.75
477.033	104.75
477.252	120.75
477.471	134.75
477.69	139.75
477.908	140.75
478.127	141.75
478.346	144.75
478.564	141.75
478.783	138.75
479.002	155.75
479.22	139.75
479.439	148.75
479.658	133.75
479.876	120.75
480.095	115.75
480.313	113.75
480.532	126.75
480.751	112.75
480.969	103.75
481.188	106.75
481.406	101.75
481.624	99.75
481.843	87.75
482.061	98.75
482.28	118.75
482.498	121.75
482.717	117.75
482.935	139.75
483.153	152.75
483.372	145.75
483.59	164.75
483.808	146.75
484.027	140.75
484.245	146.75
484.463	151.75
484.681	188.75
484.9	161.75
485.118	151.75
485.336	141.75
485.554	120.75
485.772	89.75
485.99	103.75
486.209	93.75
486.427	118.75
486.645	141.75
486.863	151.75
487.081	139.75
487.299	131.75
487.517	140.75
487.735	180.75
487.953	211.75
488.171	193.75
488.389	193.75
488.607	174.75
488.825	140.75
489.043	125.75
489.261	145.75
489.479	146.75
489.696	132.75
489.914	153.75
490.132	167.75
490.35	151.75
490.568	155.75
490.786	177.75
491.003	184.75
491.221	190.75
491.439	199.75
491.657	214.75
491.874	208.75
492.092	225.75
492.31	255.75
492.527	243.75
492.745	209.75
492.963	198.75
493.18	196.75
493.398	189.75
493.615	183.75
493.833	193.75
494.05	177.75
494.268	178.75
494.485	178.75
494.703	168.75
494.92	193.75
495.138	186.75
495.355	184.75
495.573	183.75
495.79	189.75
496.008	180.75
496.225	179.75
496.442	162.75
496.66	168.75
496.877	191.75
497.094	186.75
497.312	181.75
497.529	186.75
497.746	168.75
497.963	154.75
498.181	137.75
498.398	113.75
498.615	124.75
498.832	122.75
499.049	115.75
499.267	124.75
499.484	116.75
499.701	139.75
499.918	134.75
500.135	141.75
500.352	163.75
500.569	155.75
500.786	152.75
501.003	160.75
501.22	142.75
501.437	153.75
501.654	138.75
501.871	130.75
502.088	129.75
502.305	134.75
502.522	153.75
502.739	145.75
502.956	133.75
503.172	123.75
503.389	116.75
503.606	124.75
503.823	138.75
504.04	127.75
504.256	121.75
504.473	117.75
504.69	119.75
504.907	119.75
505.123	123.75
505.34	123.75
505.557	129.75
505.773	113.75
505.99	133.75
506.207	116.75
506.423	119.75
506.64	121.75
506.856	109.75
507.073	117.75
507.289	136.75
507.506	111.75
507.722	131.75
507.939	130.75
508.155	122.75
508.372	121.75
508.588	117.75
508.805	108.75
509.021	116.75
509.238	119.75
509.454	115.75
509.67	97.75
509.887	105.75
510.103	89.75
510.319	107.75
510.536	93.75
510.752	95.75
510.968	90.75
511.184	93.75
511.401	84.75
511.617	98.75
511.833	101.75
512.049	91.75
512.265	99.75
512.481	87.75
512.698	100.75
512.914	92.75
513.13	93.75
513.346	89.75
513.562	107.75
513.778	92.75
513.994	108.75
514.21	91.75
514.426	88.75
514.642	88.75
514.858	89.75
515.074	83.75
515.29	83.75
515.506	98.75
515.721	93.75
515.937	103.75
516.153	80.75
516.369	77.75
516.585	85.75
516.801	88.75
517.016	95.75
517.232	100.75
517.448	94.75
517.664	88.75
517.879	87.75
518.095	97.75
518.311	100.75
518.527	101.75
518.742	111.75
518.958	118.75
519.173	112.75
519.389	104.75
519.605	114.75
519.82	103.75
520.036	113.75
520.251	124.75
520.467	106.75
520.682	111.75
520.898	102.75
521.113	93.75
521.329	88.75
521.544	110.75
521.76	101.75
521.975	81.75
522.19	98.75
522.406	95.75
522.621	107.75
522.836	98.75
523.052	108.75
523.267	106.75
523.482	123.75
523.698	103.75
523.913	115.75
524.128	118.75
524.343	113.75
524.559	129.75
524.774	112.75
524.989	127.75
525.204	128.75
525.419	120.75
525.634	115.75
525.849	125.75
526.064	101.75
526.28	115.75
526.495	95.75
526.71	79.75
526.925	92.75
527.14	81.75
527.355	82.75
527.57	97.75
527.785	96.75
527.999	91.75
528.214	107.75
528.429	102.75
528.644	125.75
528.859	145.75
529.074	164.75
529.289	168.75
529.503	165.75
529.718	158.75
529.933	136.75
530.148	111.75
530.363	100.75
530.577	106.75
530.792	91.75
531.007	98.75
531.221	98.75
531.436	96.75
531.651	80.75
531.865	89.75
532.08	101.75
532.295	93.75
532.509	78.75
532.724	76.75
532.938	85.75
533.153	93.75
533.367	128.75
533.582	128.75
533.796	133.75
534.011	133.75
534.225	92.75
534.44	84.75
534.654	106.75
534.868	111.75
535.083	99.75
535.297	97.75
535.511	120.75
535.726	127.75
535.94	107.75
536.154	94.75
536.369	90.75
536.583	86.75
536.797	95.75
537.011	90.75
537.225	80.75
537.44	80.75
537.654	91.75
537.868	86.75
538.082	89.75
538.296	99.75
538.51	114.75
538.724	120.75
538.938	126.75
539.153	125.75
539.367	125.75
539.581	123.75
539.795	103.75
540.009	100.75
540.222	94.75
540.436	108.75
540.65	101.75
540.864	146.75
541.078	136.75
541.292	153.75
541.506	174.75
541.72	191.75
541.934	193.75
542.147	220.75
542.361	206.75
542.575	166.75
542.789	152.75
543.002	137.75
543.216	139.75
543.43	124.75
543.644	130.75
543.857	147.75
544.071	157.75
544.285	166.75
544.498	155.75
544.712	170.75
544.925	166.75
545.139	169.75
545.352	167.75
545.566	165.75
545.779	157.75
545.993	170.75
546.206	168.75
546.42	173.75
546.633	179.75
546.847	170.75
547.06	158.75
547.274	175.75
547.487	194.75
547.7	173.75
547.914	168.75
548.127	164.75
548.34	150.75
548.554	162.75
548.767	161.75
548.98	151.75
549.193	156.75
549.407	144.75
549.62	157.75
549.833	158.75
550.046	167.75
550.259	147.75
550.473	156.75
550.686	159.75
550.899	165.75
551.112	164.75
551.325	154.75
551.538	134.75
551.751	148.75
551.964	131.75
552.177	145.75
552.39	147.75
552.603	147.75
552.816	145.75
553.029	149.75
553.242	176.75
553.455	169.75
553.667	162.75
553.88	148.75
554.093	162.75
554.306	156.75
554.519	149.75
554.732	162.75
554.944	144.75
555.157	135.75
555.37	159.75
555.583	136.75
555.795	167.75
556.008	137.75
556.221	128.75
556.433	125.75
556.646	149.75
556.859	128.75
557.071	137.75
557.284	128.75
557.496	156.75
557.709	126.75
557.921	135.75
558.134	133.75
558.346	140.75
558.559	128.75
558.771	124.75
558.984	145.75
559.196	136.75
559.409	131.75
559.621	126.75
559.833	133.75
560.046	136.75
560.258	135.75
560.47	122.75
560.683	150.75
560.895	141.75
561.107	139.75
561.32	127.75
561.532	140.75
561.744	137.75
561.956	128.75
562.168	129.75
562.381	127.75
562.593	134.75
562.805	135.75
563.017	129.75
563.229	124.75
563.441	138.75
563.653	118.75
563.865	142.75
564.077	137.75
564.289	117.75
564.501	131.75
564.713	121.75
564.925	120.75
565.137	127.75
565.349	127.75
565.561	118.75
565.773	125.75
565.985	135.75
566.197	127.75
566.408	113.75
566.62	124.75
566.832	117.75
567.044	112.75
567.255	129.75
567.467	122.75
567.679	101.75
567.891	104.75
568.102	101.75
568.314	85.75
568.526	77.75
568.737	91.75
568.949	107.75
569.161	86.75
569.372	83.75
569.584	72.75
569.795	99.75
570.007	84.75
570.218	86.75
570.43	89.75
570.641	87.75
570.853	95.75
571.064	101.75
571.276	120.75
571.487	119.75
571.698	114.75
571.91	108.75
572.121	92.75
572.333	106.75
572.544	99.75
572.755	97.75
572.966	83.75
573.178	89.75
573.389	95.75
573.6	99.75
573.811	90.75
574.023	91.75
574.234	84.75
574.445	105.75
574.656	84.75
574.867	103.75
575.078	81.75
575.289	112.75
575.501	118.75
575.712	111.75
575.923	96.75
576.134	105.75
576.345	108.75
576.556	93.75
576.767	100.75
576.978	105.75
577.188	107.75
577.399	85.75
577.61	82.75
577.821	94.75
578.032	89.75
578.243	96.75
578.454	111.75
578.665	108.75
578.875	87.75
579.086	95.75
579.297	85.75
579.508	80.75
579.718	97.75
579.929	102.75
580.14	102.75
580.35	97.75
580.561	87.75
580.772	95.75
580.982	90.75
581.193	97.75
581.403	78.75
581.614	84.75
581.825	91.75
582.035	89.75
582.246	84.75
582.456	105.75
582.667	104.75
582.877	96.75
583.087	103.75
583.298	95.75
583.508	94.75
583.719	86.75
583.929	82.75
584.139	78.75
584.35	84.75
584.56	95.75
584.77	83.75
584.981	84.75
585.191	78.75
585.401	75.75
585.611	95.75
585.821	84.75
586.032	88.75
586.242	68.75
586.452	95.75
586.662	85.75
586.872	95.75
587.082	90.75
587.292	86.75
587.502	99.75
587.713	100.75
587.923	77.75
588.133	75.75
588.343	81.75
588.553	92.75
588.762	81.75
588.972	88.75
589.182	82.75
589.392	88.75
589.602	88.75
589.812	85.75
590.022	78.75
590.232	74.75
590.441	75.75
590.651	78.75
590.861	74.75
591.071	88.75
591.281	97.75
591.49	78.75
591.7	91.75
591.91	76.75
592.119	86.75
592.329	91.75
592.539	82.75
592.748	85.75
592.958	98.75
593.167	86.75
593.377	84.75
593.587	100.75
593.796	89.75
594.006	85.75
594.215	84.75
594.424	71.75
594.634	93.75
594.843	98.75
595.053	95.75
595.262	89.75
595.472	101.75
595.681	91.75
595.89	80.75
596.1	97.75
596.309	99.75
596.518	108.75
596.727	99.75
596.937	85.75
597.146	93.75
597.355	96.75
597.564	99.75
597.774	99.75
597.983	88.75
598.192	79.75
598.401	98.75
598.61	91.75
598.819	79.75
599.028	91.75
599.237	90.75
599.446	78.75
599.655	100.75
599.864	76.75
600.073	91.75
600.282	81.75
600.491	95.75
600.7	93.75
600.909	98.75
601.118	98.75
601.327	102.75
601.536	118.75
601.745	115.75
601.953	112.75
602.162	119.75
602.371	109.75
602.58	100.75
602.789	109.75
602.997	105.75
603.206	107.75
603.415	110.75
603.623	111.75
603.832	120.75
604.041	112.75
604.249	112.75
604.458	91.75
604.666	91.75
604.875	93.75
605.084	111.75
605.292	102.75
605.501	105.75
605.709	119.75
605.918	101.75
606.126	122.75
606.334	127.75
606.543	125.75
606.751	115.75
606.96	105.75
607.168	120.75
607.376	104.75
607.585	111.75
607.793	127.75
608.001	116.75
608.21	123.75
608.418	95.75
608.626	111.75
608.834	119.75
609.043	127.75
609.251	93.75
609.459	115.75
609.667	127.75
609.875	117.75
610.083	132.75
610.291	127.75
610.499	122.75
610.707	123.75
610.916	107.75
611.124	119.75
611.332	118.75
611.54	134.75
611.748	125.75
611.955	115.75
612.163	125.75
612.371	111.75
612.579	120.75
612.787	126.75
612.995	119.75
613.203	118.75
613.411	128.75
613.618	100.75
613.826	137.75
614.034	117.75
614.242	118.75
614.449	117.75
614.657	112.75
614.865	109.75
615.072	131.75
615.28	124.75
615.488	118.75
615.695	121.75
615.903	93.75
616.111	122.75
616.318	117.75
616.526	127.75
616.733	130.75
616.941	117.75
617.148	121.75
617.356	111.75
617.563	115.75
617.771	104.75
617.978	109.75
618.185	119.75
618.393	117.75
618.6	107.75
618.807	116.75
619.015	116.75
619.222	117.75
619.429	109.75
619.637	97.75
619.844	118.75
620.051	111.75
620.258	119.75
620.466	102.75
620.673	97.75
620.88	120.75
621.087	107.75
621.294	106.75
621.501	101.75
621.708	114.75
621.915	113.75
622.122	90.75
622.329	107.75
622.536	113.75
622.743	107.75
622.95	102.75
623.157	115.75
623.364	118.75
623.571	103.75
623.778	118.75
623.985	117.75
624.192	107.75
624.399	122.75
624.606	110.75
624.812	104.75
625.019	95.75
625.226	118.75
625.433	103.75
625.639	102.75
625.846	91.75
626.053	92.75
626.259	78.75
626.466	92.75
626.673	92.75
626.879	101.75
627.086	111.75
627.293	99.75
627.499	117.75
627.706	106.75
627.912	123.75
628.119	121.75
628.325	112.75
628.532	112.75
628.738	102.75
628.945	109.75
629.151	111.75
629.357	92.75
629.564	103.75
629.77	103.75
629.976	103.75
630.183	89.75
630.389	98.75
630.595	111.75
630.802	111.75
631.008	106.75
631.214	109.75
631.42	102.75
631.627	101.75
631.833	108.75
632.039	91.75
632.245	105.75
632.451	116.75
632.657	111.75
632.863	108.75
633.069	123.75
633.275	95.75
633.481	106.75
633.688	101.75
633.893	95.75
634.099	103.75
634.305	92.75
634.511	103.75
634.717	95.75
634.923	92.75
635.129	91.75
635.335	89.75
635.541	90.75
635.747	97.75
635.952	117.75
636.158	112.75
636.364	107.75
636.57	117.75
636.775	103.75
636.981	111.75
637.187	101.75
637.392	111.75
637.598	117.75
637.804	113.75
638.009	98.75
638.215	100.75
638.421	90.75
638.626	93.75
638.832	101.75
639.037	104.75
639.243	92.75
639.448	91.75
639.654	111.75
639.859	104.75
640.065	108.75
640.27	107.75
640.475	98.75
640.681	87.75
640.886	101.75
641.091	95.75
641.297	106.75
641.502	95.75
641.707	107.75
641.913	121.75
642.118	102.75
642.323	96.75
642.528	106.75
642.733	98.75
642.939	103.75
643.144	91.75
643.349	106.75
643.554	102.75
643.759	94.75
643.964	92.75
644.169	101.75
644.374	106.75
644.579	101.75
644.784	96.75
644.989	96.75
645.194	102.75
645.399	99.75
645.604	94.75
645.809	99.75
646.014	111.75
646.219	85.75
646.423	102.75
646.628	87.75
646.833	106.75
647.038	98.75
647.243	89.75
647.447	103.75
647.652	105.75
647.857	90.75
648.062	88.75
648.266	94.75
648.471	104.75
648.676	99.75
648.88	103.75
649.085	102.75
649.289	113.75
649.494	83.75
649.698	110.75
649.903	109.75
650.107	90.75
650.312	103.75
650.516	103.75
650.721	99.75
650.925	86.75
651.13	85.75
651.334	76.75
651.539	87.75
651.743	98.75
651.947	106.75
652.152	88.75
652.356	95.75
652.56	91.75
652.764	101.75
652.969	103.75
653.173	92.75
653.377	95.75
653.581	104.75
653.785	103.75
653.99	100.75
654.194	91.75
654.398	80.75
654.602	84.75
654.806	95.75
655.01	90.75
655.214	99.75
655.418	90.75
655.622	93.75
655.826	105.75
656.03	91.75
656.234	92.75
656.438	94.75
656.642	100.75
656.846	87.75
657.049	95.75
657.253	83.75
657.457	95.75
657.661	98.75
657.865	86.75
658.068	89.75
658.272	93.75
658.476	103.75
658.68	76.75
658.883	79.75
659.087	68.75
659.291	77.75
659.494	81.75
659.698	87.75
659.901	83.75
660.105	94.75
660.309	99.75
660.512	81.75
660.716	68.75
660.919	78.75
661.123	85.75
661.326	89.75
661.53	80.75
661.733	82.75
661.936	89.75
662.14	89.75
662.343	88.75
662.546	90.75
662.75	86.75
662.953	91.75
663.156	84.75
663.36	85.75
663.563	76.75
663.766	87.75
663.969	85.75
664.173	90.75
664.376	87.75
664.579	95.75
664.782	91.75
664.985	66.75
665.188	72.75
665.391	75.75
665.594	71.75
665.797	89.75
666	71.75
666.203	83.75
666.406	81.75
666.609	83.75
666.812	76.75
667.015	89.75
667.218	84.75
667.421	82.75
667.624	79.75
667.827	83.75
668.03	90.75
668.232	92.75
668.435	71.75
668.638	71.75
668.841	71.75
669.043	83.75
669.246	85.75
669.449	83.75
669.651	91.75
669.854	90.75
670.057	74.75
670.259	66.75
670.462	83.75
670.665	81.75
670.867	83.75
671.07	77.75
671.272	80.75
671.475	88.75
671.677	93.75
671.88	91.75
672.082	76.75
672.284	84.75
672.487	83.75
672.689	78.75
672.892	75.75
