Data from Location6.07152019.Energy5.Lamp.07192019.3%Agarose_HRD10591_16-11-30-394.txt Node
Date: Fri Jul 19 16:11:30 EDT 2019
User: cochatt
Spectrometer: HR+D1059
Trigger mode: 1
Integration Time (sec): 1.000000E-1
Scans to average: 1
Electric dark correction enabled: true
Nonlinearity correction enabled: false
Boxcar width: 0
XAxis mode: Wavelengths
Number of Pixels in Spectrum: 2048
>>>>>Begin Spectral Data<<<<<
223.165	-27.94
223.4	-27.94
223.635	-27.94
223.869	-11.94
224.104	-13.94
224.338	-1.94
224.573	-16.94
224.808	-15.94
225.042	-5.94
225.277	-10.94
225.511	-8.94
225.746	2.06
225.98	-2.94
226.215	16.06
226.449	13.06
226.683	24.06
226.918	33.06
227.152	29.06
227.387	35.06
227.621	35.06
227.856	47.06
228.09	45.06
228.324	59.06
228.559	52.06
228.793	57.06
229.027	54.06
229.262	80.06
229.496	65.06
229.73	59.06
229.964	59.06
230.199	60.06
230.433	67.06
230.667	82.06
230.901	66.06
231.136	79.06
231.37	79.06
231.604	63.06
231.838	71.06
232.072	82.06
232.306	82.06
232.541	91.06
232.775	79.06
233.009	70.06
233.243	84.06
233.477	82.06
233.711	87.06
233.945	72.06
234.179	89.06
234.413	83.06
234.647	70.06
234.881	93.06
235.115	92.06
235.349	88.06
235.583	69.06
235.817	80.06
236.051	78.06
236.285	76.06
236.519	83.06
236.753	67.06
236.987	62.06
237.221	71.06
237.455	68.06
237.689	72.06
237.922	62.06
238.156	67.06
238.39	82.06
238.624	75.06
238.858	73.06
239.091	74.06
239.325	79.06
239.559	72.06
239.793	74.06
240.027	76.06
240.26	63.06
240.494	73.06
240.728	75.06
240.961	86.06
241.195	89.06
241.429	82.06
241.662	77.06
241.896	75.06
242.13	76.06
242.363	90.06
242.597	68.06
242.83	83.06
243.064	69.06
243.298	75.06
243.531	70.06
243.765	82.06
243.998	87.06
244.232	64.06
244.465	77.06
244.699	69.06
244.932	75.06
245.166	83.06
245.399	74.06
245.633	90.06
245.866	76.06
246.099	67.06
246.333	63.06
246.566	77.06
246.8	68.06
247.033	83.06
247.266	79.06
247.5	87.06
247.733	85.06
247.966	78.06
248.2	76.06
248.433	86.06
248.666	90.06
248.899	75.06
249.133	75.06
249.366	87.06
249.599	82.06
249.832	86.06
250.066	70.06
250.299	71.06
250.532	66.06
250.765	82.06
250.998	62.06
251.231	70.06
251.465	100.06
251.698	89.06
251.931	83.06
252.164	72.06
252.397	83.06
252.63	81.06
252.863	70.06
253.096	72.06
253.329	74.06
253.562	84.06
253.795	88.06
254.028	76.06
254.261	84.06
254.494	76.06
254.727	80.06
254.96	91.06
255.193	84.06
255.426	75.06
255.659	89.06
255.892	66.06
256.124	82.06
256.357	87.06
256.59	82.06
256.823	76.06
257.056	96.06
257.289	72.06
257.521	69.06
257.754	71.06
257.987	81.06
258.22	79.06
258.452	97.06
258.685	71.06
258.918	81.06
259.151	86.06
259.383	79.06
259.616	79.06
259.849	87.06
260.081	79.06
260.314	76.06
260.547	84.06
260.779	72.06
261.012	72.06
261.244	67.06
261.477	92.06
261.71	79.06
261.942	82.06
262.175	70.06
262.407	72.06
262.64	75.06
262.872	99.06
263.105	87.06
263.337	85.06
263.57	88.06
263.802	92.06
264.035	91.06
264.267	85.06
264.499	79.06
264.732	82.06
264.964	65.06
265.197	81.06
265.429	79.06
265.661	75.06
265.894	78.06
266.126	68.06
266.358	64.06
266.591	82.06
266.823	85.06
267.055	86.06
267.287	83.06
267.52	77.06
267.752	88.06
267.984	87.06
268.216	94.06
268.448	85.06
268.681	72.06
268.913	81.06
269.145	77.06
269.377	80.06
269.609	65.06
269.841	79.06
270.073	79.06
270.306	73.06
270.538	87.06
270.77	91.06
271.002	78.06
271.234	77.06
271.466	87.06
271.698	84.06
271.93	83.06
272.162	87.06
272.394	96.06
272.626	85.06
272.858	82.06
273.09	88.06
273.322	94.06
273.553	79.06
273.785	76.06
274.017	70.06
274.249	70.06
274.481	74.06
274.713	76.06
274.945	76.06
275.176	83.06
275.408	67.06
275.64	84.06
275.872	75.06
276.104	85.06
276.335	86.06
276.567	94.06
276.799	80.06
277.031	88.06
277.262	88.06
277.494	89.06
277.726	81.06
277.957	82.06
278.189	87.06
278.421	86.06
278.652	89.06
278.884	89.06
279.115	77.06
279.347	75.06
279.579	79.06
279.81	74.06
280.042	79.06
280.273	83.06
280.505	95.06
280.736	74.06
280.968	76.06
281.199	96.06
281.431	82.06
281.662	86.06
281.894	84.06
282.125	84.06
282.356	84.06
282.588	93.06
282.819	87.06
283.051	86.06
283.282	83.06
283.513	84.06
283.745	80.06
283.976	84.06
284.207	98.06
284.439	94.06
284.67	77.06
284.901	89.06
285.132	78.06
285.364	80.06
285.595	72.06
285.826	82.06
286.057	93.06
286.288	69.06
286.52	86.06
286.751	97.06
286.982	93.06
287.213	76.06
287.444	82.06
287.675	95.06
287.906	93.06
288.138	83.06
288.369	75.06
288.6	76.06
288.831	72.06
289.062	80.06
289.293	95.06
289.524	97.06
289.755	86.06
289.986	72.06
290.217	82.06
290.448	88.06
290.679	91.06
290.91	89.06
291.141	76.06
291.371	73.06
291.602	78.06
291.833	81.06
292.064	85.06
292.295	83.06
292.526	91.06
292.757	90.06
292.987	96.06
293.218	83.06
293.449	89.06
293.68	76.06
293.91	85.06
294.141	82.06
294.372	75.06
294.603	83.06
294.833	88.06
295.064	77.06
295.295	70.06
295.525	78.06
295.756	69.06
295.987	80.06
296.217	100.06
296.448	92.06
296.679	59.06
296.909	74.06
297.14	71.06
297.37	86.06
297.601	77.06
297.831	79.06
298.062	77.06
298.292	93.06
298.523	97.06
298.753	83.06
298.984	90.06
299.214	92.06
299.445	81.06
299.675	77.06
299.905	83.06
300.136	100.06
300.366	107.06
300.597	76.06
300.827	70.06
301.057	87.06
301.288	75.06
301.518	81.06
301.748	81.06
301.979	99.06
302.209	84.06
302.439	89.06
302.669	77.06
302.9	79.06
303.13	81.06
303.36	85.06
303.59	77.06
303.82	86.06
304.051	91.06
304.281	93.06
304.511	72.06
304.741	71.06
304.971	94.06
305.201	81.06
305.431	71.06
305.661	87.06
305.891	95.06
306.121	102.06
306.352	90.06
306.582	80.06
306.812	80.06
307.042	74.06
307.272	71.06
307.502	80.06
307.731	91.06
307.961	85.06
308.191	88.06
308.421	90.06
308.651	77.06
308.881	94.06
309.111	75.06
309.341	72.06
309.571	96.06
309.8	83.06
310.03	91.06
310.26	90.06
310.49	81.06
310.72	86.06
310.949	95.06
311.179	80.06
311.409	76.06
311.639	97.06
311.868	94.06
312.098	83.06
312.328	89.06
312.557	73.06
312.787	75.06
313.017	86.06
313.246	85.06
313.476	87.06
313.706	99.06
313.935	77.06
314.165	79.06
314.394	85.06
314.624	80.06
314.853	94.06
315.083	82.06
315.312	94.06
315.542	91.06
315.771	92.06
316.001	98.06
316.23	77.06
316.46	83.06
316.689	83.06
316.919	89.06
317.148	83.06
317.377	77.06
317.607	89.06
317.836	88.06
318.065	71.06
318.295	83.06
318.524	80.06
318.753	82.06
318.983	75.06
319.212	75.06
319.441	87.06
319.67	89.06
319.9	92.06
320.129	81.06
320.358	91.06
320.587	80.06
320.816	88.06
321.046	79.06
321.275	86.06
321.504	97.06
321.733	77.06
321.962	89.06
322.191	96.06
322.42	79.06
322.649	87.06
322.878	77.06
323.108	88.06
323.337	90.06
323.566	86.06
323.795	58.06
324.024	94.06
324.253	82.06
324.482	83.06
324.71	88.06
324.939	83.06
325.168	90.06
325.397	95.06
325.626	75.06
325.855	74.06
326.084	96.06
326.313	83.06
326.542	90.06
326.77	90.06
326.999	89.06
327.228	84.06
327.457	81.06
327.686	97.06
327.914	92.06
328.143	84.06
328.372	79.06
328.6	94.06
328.829	74.06
329.058	94.06
329.287	84.06
329.515	80.06
329.744	79.06
329.972	80.06
330.201	90.06
330.43	82.06
330.658	94.06
330.887	92.06
331.115	83.06
331.344	80.06
331.572	101.06
331.801	85.06
332.03	84.06
332.258	80.06
332.486	78.06
332.715	88.06
332.943	86.06
333.172	90.06
333.4	98.06
333.629	72.06
333.857	95.06
334.085	96.06
334.314	90.06
334.542	92.06
334.771	76.06
334.999	79.06
335.227	81.06
335.455	76.06
335.684	84.06
335.912	97.06
336.14	84.06
336.369	86.06
336.597	75.06
336.825	86.06
337.053	84.06
337.281	84.06
337.51	99.06
337.738	88.06
337.966	81.06
338.194	83.06
338.422	97.06
338.65	89.06
338.878	81.06
339.106	99.06
339.334	88.06
339.562	84.06
339.79	99.06
340.018	90.06
340.246	79.06
340.474	81.06
340.702	94.06
340.93	74.06
341.158	94.06
341.386	91.06
341.614	87.06
341.842	79.06
342.07	82.06
342.298	86.06
342.526	100.06
342.754	83.06
342.981	92.06
343.209	96.06
343.437	83.06
343.665	89.06
343.893	70.06
344.12	76.06
344.348	93.06
344.576	86.06
344.804	91.06
345.031	77.06
345.259	98.06
345.487	79.06
345.714	77.06
345.942	88.06
346.17	91.06
346.397	83.06
346.625	81.06
346.853	94.06
347.08	99.06
347.308	105.06
347.535	85.06
347.763	87.06
347.99	99.06
348.218	89.06
348.445	98.06
348.673	91.06
348.9	94.06
349.128	88.06
349.355	87.06
349.583	78.06
349.81	88.06
350.037	79.06
350.265	84.06
350.492	92.06
350.72	92.06
350.947	85.06
351.174	82.06
351.402	81.06
351.629	71.06
351.856	74.06
352.083	64.06
352.311	81.06
352.538	93.06
352.765	88.06
352.992	80.06
353.22	79.06
353.447	80.06
353.674	72.06
353.901	77.06
354.128	76.06
354.355	87.06
354.583	71.06
354.81	82.06
355.037	88.06
355.264	84.06
355.491	86.06
355.718	80.06
355.945	78.06
356.172	80.06
356.399	76.06
356.626	94.06
356.853	74.06
357.08	69.06
357.307	94.06
357.534	96.06
357.761	69.06
357.988	75.06
358.215	87.06
358.441	82.06
358.668	76.06
358.895	77.06
359.122	75.06
359.349	80.06
359.576	82.06
359.802	73.06
360.029	88.06
360.256	85.06
360.483	90.06
360.709	82.06
360.936	81.06
361.163	83.06
361.39	74.06
361.616	81.06
361.843	83.06
362.07	79.06
362.296	79.06
362.523	80.06
362.749	84.06
362.976	93.06
363.203	98.06
363.429	81.06
363.656	62.06
363.882	81.06
364.109	78.06
364.335	83.06
364.562	83.06
364.788	86.06
365.015	83.06
365.241	82.06
365.468	86.06
365.694	107.06
365.92	81.06
366.147	69.06
366.373	89.06
366.599	85.06
366.826	91.06
367.052	95.06
367.278	89.06
367.505	90.06
367.731	92.06
367.957	77.06
368.184	87.06
368.41	85.06
368.636	92.06
368.862	78.06
369.089	86.06
369.315	90.06
369.541	90.06
369.767	84.06
369.993	101.06
370.219	83.06
370.445	90.06
370.672	103.06
370.898	99.06
371.124	97.06
371.35	97.06
371.576	103.06
371.802	94.06
372.028	92.06
372.254	78.06
372.48	113.06
372.706	92.06
372.932	90.06
373.158	91.06
373.384	88.06
373.61	101.06
373.835	103.06
374.061	86.06
374.287	98.06
374.513	103.06
374.739	91.06
374.965	74.06
375.191	100.06
375.416	93.06
375.642	99.06
375.868	91.06
376.094	94.06
376.319	98.06
376.545	91.06
376.771	98.06
376.997	83.06
377.222	84.06
377.448	95.06
377.674	84.06
377.899	97.06
378.125	97.06
378.35	105.06
378.576	99.06
378.802	87.06
379.027	85.06
379.253	88.06
379.478	91.06
379.704	85.06
379.929	95.06
380.155	87.06
380.38	91.06
380.606	94.06
380.831	91.06
381.057	101.06
381.282	95.06
381.507	89.06
381.733	98.06
381.958	96.06
382.184	92.06
382.409	92.06
382.634	98.06
382.86	92.06
383.085	103.06
383.31	104.06
383.535	111.06
383.761	114.06
383.986	107.06
384.211	102.06
384.436	94.06
384.662	103.06
384.887	84.06
385.112	88.06
385.337	86.06
385.562	90.06
385.787	94.06
386.013	114.06
386.238	97.06
386.463	93.06
386.688	97.06
386.913	85.06
387.138	100.06
387.363	81.06
387.588	100.06
387.813	109.06
388.038	107.06
388.263	92.06
388.488	105.06
388.713	105.06
388.938	104.06
389.163	113.06
389.387	98.06
389.612	106.06
389.837	97.06
390.062	113.06
390.287	96.06
390.512	107.06
390.736	106.06
390.961	90.06
391.186	111.06
391.411	103.06
391.636	102.06
391.86	97.06
392.085	108.06
392.31	98.06
392.534	101.06
392.759	103.06
392.984	103.06
393.208	103.06
393.433	87.06
393.658	114.06
393.882	98.06
394.107	99.06
394.331	99.06
394.556	104.06
394.78	96.06
395.005	96.06
395.229	115.06
395.454	113.06
395.678	110.06
395.903	106.06
396.127	89.06
396.352	110.06
396.576	114.06
396.801	106.06
397.025	112.06
397.249	114.06
397.474	106.06
397.698	104.06
397.922	121.06
398.147	113.06
398.371	113.06
398.595	102.06
398.82	120.06
399.044	118.06
399.268	105.06
399.492	96.06
399.717	112.06
399.941	112.06
400.165	111.06
400.389	115.06
400.613	108.06
400.837	110.06
401.062	107.06
401.286	111.06
401.51	105.06
401.734	91.06
401.958	104.06
402.182	113.06
402.406	113.06
402.63	132.06
402.854	120.06
403.078	106.06
403.302	122.06
403.526	118.06
403.75	101.06
403.974	111.06
404.198	116.06
404.422	121.06
404.645	123.06
404.869	122.06
405.093	108.06
405.317	120.06
405.541	122.06
405.765	118.06
405.988	132.06
406.212	135.06
406.436	119.06
406.66	123.06
406.883	106.06
407.107	120.06
407.331	120.06
407.555	123.06
407.778	109.06
408.002	123.06
408.226	122.06
408.449	112.06
408.673	128.06
408.896	125.06
409.12	124.06
409.344	111.06
409.567	125.06
409.791	113.06
410.014	126.06
410.238	118.06
410.461	122.06
410.685	134.06
410.908	106.06
411.132	144.06
411.355	111.06
411.578	134.06
411.802	121.06
412.025	128.06
412.249	122.06
412.472	122.06
412.695	107.06
412.919	134.06
413.142	134.06
413.365	129.06
413.589	126.06
413.812	115.06
414.035	124.06
414.258	115.06
414.482	131.06
414.705	123.06
414.928	123.06
415.151	119.06
415.374	129.06
415.597	130.06
415.821	115.06
416.044	113.06
416.267	126.06
416.49	126.06
416.713	118.06
416.936	131.06
417.159	132.06
417.382	126.06
417.605	120.06
417.828	112.06
418.051	122.06
418.274	130.06
418.497	115.06
418.72	134.06
418.943	130.06
419.166	148.06
419.389	141.06
419.611	144.06
419.834	131.06
420.057	123.06
420.28	123.06
420.503	135.06
420.726	118.06
420.948	131.06
421.171	130.06
421.394	148.06
421.617	138.06
421.839	145.06
422.062	152.06
422.285	134.06
422.507	139.06
422.73	139.06
422.953	139.06
423.175	145.06
423.398	142.06
423.621	141.06
423.843	142.06
424.066	136.06
424.288	135.06
424.511	146.06
424.733	154.06
424.956	138.06
425.178	139.06
425.401	143.06
425.623	150.06
425.846	144.06
426.068	128.06
426.291	124.06
426.513	140.06
426.735	126.06
426.958	132.06
427.18	134.06
427.402	147.06
427.625	139.06
427.847	133.06
428.069	128.06
428.292	137.06
428.514	119.06
428.736	131.06
428.958	136.06
429.181	131.06
429.403	142.06
429.625	148.06
429.847	147.06
430.069	138.06
430.292	125.06
430.514	123.06
430.736	126.06
430.958	119.06
431.18	131.06
431.402	137.06
431.624	122.06
431.846	91.06
432.068	104.06
432.29	94.06
432.512	111.06
432.734	127.06
432.956	137.06
433.178	127.06
433.4	141.06
433.622	138.06
433.844	126.06
434.066	122.06
434.287	112.06
434.509	105.06
434.731	96.06
434.953	126.06
435.175	122.06
435.397	141.06
435.618	126.06
435.84	114.06
436.062	117.06
436.284	120.06
436.505	143.06
436.727	119.06
436.949	129.06
437.17	122.06
437.392	132.06
437.614	113.06
437.835	113.06
438.057	116.06
438.278	113.06
438.5	123.06
438.721	145.06
438.943	150.06
439.165	152.06
439.386	126.06
439.608	139.06
439.829	129.06
440.05	143.06
440.272	136.06
440.493	158.06
440.715	163.06
440.936	150.06
441.158	153.06
441.379	156.06
441.6	146.06
441.822	154.06
442.043	147.06
442.264	152.06
442.486	152.06
442.707	158.06
442.928	136.06
443.149	137.06
443.371	130.06
443.592	143.06
443.813	133.06
444.034	153.06
444.255	142.06
444.476	134.06
444.698	145.06
444.919	158.06
445.14	278.06
445.361	208.06
445.582	163.06
445.803	144.06
446.024	143.06
446.245	167.06
446.466	154.06
446.687	170.06
446.908	165.06
447.129	153.06
447.35	159.06
447.571	173.06
447.792	143.06
448.013	150.06
448.234	155.06
448.455	140.06
448.675	150.06
448.896	147.06
449.117	146.06
449.338	139.06
449.559	148.06
449.779	122.06
450	132.06
450.221	155.06
450.442	137.06
450.662	152.06
450.883	117.06
451.104	139.06
451.324	131.06
451.545	136.06
451.766	117.06
451.986	140.06
452.207	144.06
452.428	120.06
452.648	137.06
452.869	116.06
453.089	122.06
453.31	125.06
453.53	107.06
453.751	113.06
453.971	116.06
454.192	104.06
454.412	103.06
454.633	124.06
454.853	126.06
455.073	120.06
455.294	128.06
455.514	128.06
455.734	119.06
455.955	122.06
456.175	120.06
456.395	131.06
456.616	110.06
456.836	112.06
457.056	129.06
457.276	98.06
457.497	96.06
457.717	108.06
457.937	106.06
458.157	129.06
458.377	111.06
458.598	100.06
458.818	80.06
459.038	89.06
459.258	80.06
459.478	82.06
459.698	96.06
459.918	105.06
460.138	103.06
460.358	115.06
460.578	120.06
460.798	114.06
461.018	119.06
461.238	107.06
461.458	126.06
461.678	118.06
461.898	107.06
462.118	114.06
462.338	116.06
462.558	125.06
462.777	121.06
462.997	127.06
463.217	120.06
463.437	113.06
463.657	103.06
463.876	119.06
464.096	104.06
464.316	112.06
464.536	108.06
464.755	118.06
464.975	104.06
465.195	124.06
465.414	108.06
465.634	124.06
465.854	117.06
466.073	95.06
466.293	138.06
466.512	122.06
466.732	129.06
466.951	137.06
467.171	137.06
467.391	139.06
467.61	135.06
467.829	140.06
468.049	131.06
468.268	137.06
468.488	138.06
468.707	115.06
468.927	147.06
469.146	152.06
469.365	141.06
469.585	150.06
469.804	141.06
470.023	139.06
470.243	164.06
470.462	158.06
470.681	151.06
470.901	149.06
471.12	144.06
471.339	146.06
471.558	167.06
471.777	131.06
471.997	129.06
472.216	131.06
472.435	120.06
472.654	110.06
472.873	110.06
473.092	119.06
473.311	124.06
473.53	126.06
473.749	131.06
473.968	133.06
474.187	127.06
474.406	120.06
474.625	131.06
474.844	137.06
475.063	143.06
475.282	130.06
475.501	122.06
475.72	122.06
475.939	143.06
476.158	133.06
476.377	131.06
476.596	128.06
476.814	112.06
477.033	118.06
477.252	121.06
477.471	129.06
477.69	138.06
477.908	143.06
478.127	144.06
478.346	153.06
478.564	146.06
478.783	147.06
479.002	160.06
479.22	154.06
479.439	127.06
479.658	127.06
479.876	105.06
480.095	105.06
480.313	128.06
480.532	134.06
480.751	117.06
480.969	89.06
481.188	86.06
481.406	96.06
481.624	79.06
481.843	96.06
482.061	96.06
482.28	105.06
482.498	100.06
482.717	99.06
482.935	119.06
483.153	149.06
483.372	158.06
483.59	168.06
483.808	127.06
484.027	131.06
484.245	137.06
484.463	166.06
484.681	175.06
484.9	146.06
485.118	130.06
485.336	133.06
485.554	105.06
485.772	98.06
485.99	91.06
486.209	109.06
486.427	112.06
486.645	123.06
486.863	135.06
487.081	152.06
487.299	140.06
487.517	147.06
487.735	177.06
487.953	198.06
488.171	183.06
488.389	183.06
488.607	155.06
488.825	148.06
489.043	140.06
489.261	138.06
489.479	159.06
489.696	154.06
489.914	155.06
490.132	148.06
490.35	150.06
490.568	158.06
490.786	177.06
491.003	181.06
491.221	174.06
491.439	199.06
491.657	185.06
491.874	213.06
492.092	262.06
492.31	259.06
492.527	234.06
492.745	222.06
492.963	219.06
493.18	208.06
493.398	196.06
493.615	166.06
493.833	186.06
494.05	188.06
494.268	204.06
494.485	190.06
494.703	196.06
494.92	184.06
495.138	180.06
495.355	169.06
495.573	166.06
495.79	164.06
496.008	168.06
496.225	166.06
496.442	169.06
496.66	159.06
496.877	154.06
497.094	165.06
497.312	178.06
497.529	169.06
497.746	152.06
497.963	121.06
498.181	122.06
498.398	129.06
498.615	120.06
498.832	134.06
499.049	121.06
499.267	116.06
499.484	129.06
499.701	131.06
499.918	163.06
500.135	152.06
500.352	140.06
500.569	143.06
500.786	138.06
501.003	152.06
501.22	148.06
501.437	138.06
501.654	153.06
501.871	142.06
502.088	136.06
502.305	131.06
502.522	137.06
502.739	138.06
502.956	146.06
503.172	139.06
503.389	118.06
503.606	122.06
503.823	135.06
504.04	137.06
504.256	123.06
504.473	123.06
504.69	121.06
504.907	101.06
505.123	106.06
505.34	131.06
505.557	129.06
505.773	124.06
505.99	134.06
506.207	124.06
506.423	115.06
506.64	122.06
506.856	123.06
507.073	128.06
507.289	136.06
507.506	115.06
507.722	128.06
507.939	111.06
508.155	128.06
508.372	119.06
508.588	100.06
508.805	130.06
509.021	115.06
509.238	123.06
509.454	116.06
509.67	107.06
509.887	112.06
510.103	99.06
510.319	88.06
510.536	92.06
510.752	92.06
510.968	91.06
511.184	88.06
511.401	80.06
511.617	83.06
511.833	90.06
512.049	83.06
512.265	100.06
512.481	105.06
512.698	102.06
512.914	106.06
513.13	86.06
513.346	99.06
513.562	96.06
513.778	92.06
513.994	91.06
514.21	93.06
514.426	71.06
514.642	90.06
514.858	94.06
515.074	105.06
515.29	97.06
515.506	74.06
515.721	86.06
515.937	78.06
516.153	82.06
516.369	86.06
516.585	98.06
516.801	106.06
517.016	91.06
517.232	95.06
517.448	99.06
517.664	98.06
517.879	86.06
518.095	90.06
518.311	84.06
518.527	108.06
518.742	102.06
518.958	107.06
519.173	113.06
519.389	95.06
519.605	99.06
519.82	101.06
520.036	115.06
520.251	102.06
520.467	99.06
520.682	104.06
520.898	91.06
521.113	96.06
521.329	94.06
521.544	96.06
521.76	107.06
521.975	94.06
522.19	96.06
522.406	95.06
522.621	94.06
522.836	106.06
523.052	122.06
523.267	107.06
523.482	116.06
523.698	133.06
523.913	123.06
524.128	118.06
524.343	122.06
524.559	123.06
524.774	130.06
524.989	122.06
525.204	131.06
525.419	105.06
525.634	119.06
525.849	100.06
526.064	107.06
526.28	114.06
526.495	94.06
526.71	87.06
526.925	79.06
527.14	94.06
527.355	82.06
527.57	84.06
527.785	91.06
527.999	88.06
528.214	101.06
528.429	99.06
528.644	131.06
528.859	139.06
529.074	150.06
529.289	170.06
529.503	167.06
529.718	141.06
529.933	122.06
530.148	103.06
530.363	108.06
530.577	110.06
530.792	95.06
531.007	82.06
531.221	91.06
531.436	74.06
531.651	80.06
531.865	75.06
532.08	81.06
532.295	97.06
532.509	96.06
532.724	87.06
532.938	89.06
533.153	98.06
533.367	105.06
533.582	124.06
533.796	138.06
534.011	114.06
534.225	101.06
534.44	99.06
534.654	92.06
534.868	82.06
535.083	100.06
535.297	105.06
535.511	104.06
535.726	87.06
535.94	96.06
536.154	91.06
536.369	98.06
536.583	97.06
536.797	82.06
537.011	96.06
537.225	90.06
537.44	75.06
537.654	90.06
537.868	84.06
538.082	100.06
538.296	84.06
538.51	110.06
538.724	129.06
538.938	112.06
539.153	130.06
539.367	120.06
539.581	110.06
539.795	120.06
540.009	100.06
540.222	96.06
540.436	112.06
540.65	122.06
540.864	122.06
541.078	160.06
541.292	142.06
541.506	146.06
541.72	178.06
541.934	203.06
542.147	213.06
542.361	203.06
542.575	160.06
542.789	137.06
543.002	140.06
543.216	115.06
543.43	140.06
543.644	133.06
543.857	127.06
544.071	168.06
544.285	168.06
544.498	166.06
544.712	163.06
544.925	148.06
545.139	155.06
545.352	197.06
545.566	178.06
545.779	172.06
545.993	161.06
546.206	184.06
546.42	185.06
546.633	174.06
546.847	164.06
547.06	167.06
547.274	177.06
547.487	187.06
547.7	187.06
547.914	178.06
548.127	155.06
548.34	156.06
548.554	162.06
548.767	153.06
548.98	162.06
549.193	162.06
549.407	156.06
549.62	158.06
549.833	160.06
550.046	151.06
550.259	145.06
550.473	136.06
550.686	155.06
550.899	151.06
551.112	151.06
551.325	139.06
551.538	151.06
551.751	117.06
551.964	126.06
552.177	147.06
552.39	135.06
552.603	153.06
552.816	150.06
553.029	179.06
553.242	162.06
553.455	167.06
553.667	169.06
553.88	152.06
554.093	156.06
554.306	152.06
554.519	157.06
554.732	158.06
554.944	151.06
555.157	140.06
555.37	148.06
555.583	147.06
555.795	147.06
556.008	132.06
556.221	130.06
556.433	132.06
556.646	139.06
556.859	140.06
557.071	148.06
557.284	139.06
557.496	159.06
557.709	153.06
557.921	134.06
558.134	123.06
558.346	152.06
558.559	152.06
558.771	159.06
558.984	134.06
559.196	124.06
559.409	143.06
559.621	130.06
559.833	122.06
560.046	148.06
560.258	133.06
560.47	120.06
560.683	139.06
560.895	139.06
561.107	131.06
561.32	142.06
561.532	148.06
561.744	135.06
561.956	121.06
562.168	132.06
562.381	142.06
562.593	128.06
562.805	147.06
563.017	123.06
563.229	125.06
563.441	124.06
563.653	138.06
563.865	132.06
564.077	134.06
564.289	125.06
564.501	121.06
564.713	120.06
564.925	117.06
565.137	115.06
565.349	123.06
565.561	126.06
565.773	124.06
565.985	136.06
566.197	143.06
566.408	122.06
566.62	119.06
566.832	128.06
567.044	123.06
567.255	115.06
567.467	105.06
567.679	114.06
567.891	118.06
568.102	111.06
568.314	98.06
568.526	88.06
568.737	87.06
568.949	92.06
569.161	83.06
569.372	77.06
569.584	84.06
569.795	76.06
570.007	82.06
570.218	92.06
570.43	87.06
570.641	84.06
570.853	103.06
571.064	97.06
571.276	100.06
571.487	108.06
571.698	122.06
571.91	121.06
572.121	98.06
572.333	95.06
572.544	107.06
572.755	116.06
572.966	102.06
573.178	85.06
573.389	80.06
573.6	88.06
573.811	83.06
574.023	87.06
574.234	90.06
574.445	80.06
574.656	107.06
574.867	92.06
575.078	111.06
575.289	102.06
575.501	105.06
575.712	104.06
575.923	92.06
576.134	91.06
576.345	101.06
576.556	110.06
576.767	83.06
576.978	98.06
577.188	104.06
577.399	89.06
577.61	110.06
577.821	97.06
578.032	90.06
578.243	101.06
578.454	110.06
578.665	88.06
578.875	94.06
579.086	82.06
579.297	84.06
579.508	95.06
579.718	77.06
579.929	90.06
580.14	75.06
580.35	91.06
580.561	96.06
580.772	83.06
580.982	87.06
581.193	89.06
581.403	97.06
581.614	79.06
581.825	88.06
582.035	97.06
582.246	87.06
582.456	70.06
582.667	91.06
582.877	96.06
583.087	90.06
583.298	71.06
583.508	99.06
583.719	87.06
583.929	82.06
584.139	76.06
584.35	95.06
584.56	91.06
584.77	89.06
584.981	76.06
585.191	88.06
585.401	85.06
585.611	104.06
585.821	95.06
586.032	97.06
586.242	76.06
586.452	78.06
586.662	84.06
586.872	82.06
587.082	82.06
587.292	97.06
587.502	94.06
587.713	81.06
587.923	74.06
588.133	83.06
588.343	86.06
588.553	85.06
588.762	86.06
588.972	94.06
589.182	87.06
589.392	82.06
589.602	91.06
589.812	82.06
590.022	94.06
590.232	87.06
590.441	89.06
590.651	81.06
590.861	91.06
591.071	84.06
591.281	80.06
591.49	76.06
591.7	82.06
591.91	73.06
592.119	84.06
592.329	80.06
592.539	80.06
592.748	83.06
592.958	85.06
593.167	83.06
593.377	83.06
593.587	99.06
593.796	86.06
594.006	78.06
594.215	95.06
594.424	77.06
594.634	97.06
594.843	99.06
595.053	98.06
595.262	91.06
595.472	83.06
595.681	103.06
595.89	88.06
596.1	85.06
596.309	93.06
596.518	96.06
596.727	94.06
596.937	111.06
597.146	96.06
597.355	98.06
597.564	93.06
597.774	81.06
597.983	74.06
598.192	86.06
598.401	89.06
598.61	97.06
598.819	93.06
599.028	93.06
599.237	96.06
599.446	72.06
599.655	95.06
599.864	95.06
600.073	90.06
600.282	88.06
600.491	91.06
600.7	107.06
600.909	110.06
601.118	100.06
601.327	110.06
601.536	91.06
601.745	99.06
601.953	107.06
602.162	103.06
602.371	117.06
602.58	111.06
602.789	121.06
602.997	126.06
603.206	110.06
603.415	99.06
603.623	103.06
603.832	102.06
604.041	104.06
604.249	94.06
604.458	104.06
604.666	105.06
604.875	92.06
605.084	91.06
605.292	113.06
605.501	112.06
605.709	121.06
605.918	131.06
606.126	116.06
606.334	112.06
606.543	116.06
606.751	117.06
606.96	123.06
607.168	107.06
607.376	110.06
607.585	112.06
607.793	115.06
608.001	118.06
608.21	118.06
608.418	116.06
608.626	103.06
608.834	108.06
609.043	102.06
609.251	126.06
609.459	119.06
609.667	122.06
609.875	119.06
610.083	128.06
610.291	95.06
610.499	129.06
610.707	123.06
610.916	108.06
611.124	102.06
611.332	130.06
611.54	120.06
611.748	122.06
611.955	117.06
612.163	112.06
612.371	119.06
612.579	115.06
612.787	90.06
612.995	126.06
613.203	107.06
613.411	122.06
613.618	115.06
613.826	126.06
614.034	126.06
614.242	118.06
614.449	116.06
614.657	94.06
614.865	121.06
615.072	106.06
615.28	101.06
615.488	128.06
615.695	104.06
615.903	100.06
616.111	117.06
616.318	121.06
616.526	108.06
616.733	104.06
616.941	116.06
617.148	110.06
617.356	120.06
617.563	107.06
617.771	112.06
617.978	122.06
618.185	102.06
618.393	113.06
618.6	130.06
618.807	123.06
619.015	104.06
619.222	106.06
619.429	112.06
619.637	110.06
619.844	89.06
620.051	116.06
620.258	114.06
620.466	108.06
620.673	93.06
620.88	99.06
621.087	115.06
621.294	111.06
621.501	97.06
621.708	107.06
621.915	96.06
622.122	112.06
622.329	121.06
622.536	109.06
622.743	101.06
622.95	101.06
623.157	103.06
623.364	117.06
623.571	116.06
623.778	116.06
623.985	107.06
624.192	95.06
624.399	114.06
624.606	117.06
624.812	98.06
625.019	110.06
625.226	111.06
625.433	87.06
625.639	110.06
625.846	90.06
626.053	97.06
626.259	113.06
626.466	101.06
626.673	81.06
626.879	86.06
627.086	92.06
627.293	103.06
627.499	101.06
627.706	97.06
627.912	107.06
628.119	112.06
628.325	111.06
628.532	112.06
628.738	101.06
628.945	115.06
629.151	119.06
629.357	108.06
629.564	106.06
629.77	127.06
629.976	105.06
630.183	99.06
630.389	104.06
630.595	90.06
630.802	106.06
631.008	99.06
631.214	96.06
631.42	118.06
631.627	94.06
631.833	94.06
632.039	95.06
632.245	107.06
632.451	94.06
632.657	97.06
632.863	89.06
633.069	110.06
633.275	117.06
633.481	98.06
633.688	97.06
633.893	111.06
634.099	90.06
634.305	107.06
634.511	103.06
634.717	95.06
634.923	102.06
635.129	113.06
635.335	100.06
635.541	92.06
635.747	104.06
635.952	105.06
636.158	103.06
636.364	88.06
636.57	95.06
636.775	108.06
636.981	107.06
637.187	95.06
637.392	94.06
637.598	98.06
637.804	111.06
638.009	110.06
638.215	99.06
638.421	112.06
638.626	91.06
638.832	109.06
639.037	110.06
639.243	110.06
639.448	98.06
639.654	101.06
639.859	115.06
640.065	102.06
640.27	89.06
640.475	98.06
640.681	84.06
640.886	107.06
641.091	88.06
641.297	99.06
641.502	99.06
641.707	102.06
641.913	99.06
642.118	101.06
642.323	110.06
642.528	101.06
642.733	107.06
642.939	99.06
643.144	89.06
643.349	110.06
643.554	94.06
643.759	105.06
643.964	94.06
644.169	96.06
644.374	87.06
644.579	115.06
644.784	95.06
644.989	84.06
645.194	88.06
645.399	94.06
645.604	82.06
645.809	101.06
646.014	93.06
646.219	97.06
646.423	101.06
646.628	119.06
646.833	116.06
647.038	106.06
647.243	119.06
647.447	110.06
647.652	104.06
647.857	88.06
648.062	94.06
648.266	102.06
648.471	89.06
648.676	92.06
648.88	90.06
649.085	95.06
649.289	97.06
649.494	101.06
649.698	113.06
649.903	88.06
650.107	82.06
650.312	102.06
650.516	89.06
650.721	91.06
650.925	87.06
651.13	98.06
651.334	98.06
651.539	101.06
651.743	95.06
651.947	92.06
652.152	103.06
652.356	88.06
652.56	98.06
652.764	83.06
652.969	104.06
653.173	92.06
653.377	100.06
653.581	79.06
653.785	94.06
653.99	86.06
654.194	105.06
654.398	84.06
654.602	96.06
654.806	80.06
655.01	88.06
655.214	87.06
655.418	89.06
655.622	90.06
655.826	87.06
656.03	91.06
656.234	74.06
656.438	87.06
656.642	82.06
656.846	82.06
657.049	80.06
657.253	97.06
657.457	95.06
657.661	92.06
657.865	73.06
658.068	78.06
658.272	98.06
658.476	97.06
658.68	97.06
658.883	85.06
659.087	98.06
659.291	91.06
659.494	98.06
659.698	87.06
659.901	83.06
660.105	77.06
660.309	90.06
660.512	96.06
660.716	88.06
660.919	94.06
661.123	89.06
661.326	80.06
661.53	80.06
661.733	76.06
661.936	93.06
662.14	96.06
662.343	76.06
662.546	83.06
662.75	103.06
662.953	86.06
663.156	76.06
663.36	86.06
663.563	80.06
663.766	75.06
663.969	85.06
664.173	64.06
664.376	85.06
664.579	92.06
664.782	89.06
664.985	83.06
665.188	70.06
665.391	96.06
665.594	80.06
665.797	86.06
666	87.06
666.203	90.06
666.406	91.06
666.609	92.06
666.812	79.06
667.015	65.06
667.218	87.06
667.421	94.06
667.624	77.06
667.827	84.06
668.03	78.06
668.232	64.06
668.435	105.06
668.638	93.06
668.841	80.06
669.043	96.06
669.246	81.06
669.449	72.06
669.651	100.06
669.854	84.06
670.057	82.06
670.259	79.06
670.462	84.06
670.665	75.06
670.867	75.06
671.07	84.06
671.272	82.06
671.475	73.06
671.677	71.06
671.88	87.06
672.082	78.06
672.284	74.06
672.487	74.06
672.689	84.06
672.892	80.06
