Data from Location6.07152019.Energy5.Lamp.07192019.3%Agarose_HRD10591_16-13-08-395.txt Node
Date: Fri Jul 19 16:13:08 EDT 2019
User: cochatt
Spectrometer: HR+D1059
Trigger mode: 1
Integration Time (sec): 1.000000E-1
Scans to average: 1
Electric dark correction enabled: true
Nonlinearity correction enabled: false
Boxcar width: 0
XAxis mode: Wavelengths
Number of Pixels in Spectrum: 2048
>>>>>Begin Spectral Data<<<<<
223.165	-17.44
223.4	-17.44
223.635	-17.44
223.869	-8.44
224.104	-13.44
224.338	-14.44
224.573	-27.44
224.808	-15.44
225.042	2.56
225.277	-13.44
225.511	-6.44
225.746	4.56
225.98	11.56
226.215	17.56
226.449	11.56
226.683	17.56
226.918	25.56
227.152	25.56
227.387	26.56
227.621	31.56
227.856	37.56
228.09	52.56
228.324	50.56
228.559	47.56
228.793	54.56
229.027	58.56
229.262	56.56
229.496	61.56
229.73	60.56
229.964	73.56
230.199	67.56
230.433	63.56
230.667	69.56
230.901	69.56
231.136	78.56
231.37	76.56
231.604	70.56
231.838	73.56
232.072	69.56
232.306	77.56
232.541	95.56
232.775	72.56
233.009	74.56
233.243	76.56
233.477	85.56
233.711	68.56
233.945	86.56
234.179	97.56
234.413	89.56
234.647	73.56
234.881	75.56
235.115	68.56
235.349	77.56
235.583	78.56
235.817	80.56
236.051	79.56
236.285	72.56
236.519	67.56
236.753	61.56
236.987	74.56
237.221	76.56
237.455	73.56
237.689	91.56
237.922	64.56
238.156	65.56
238.39	71.56
238.624	73.56
238.858	75.56
239.091	74.56
239.325	72.56
239.559	86.56
239.793	66.56
240.027	93.56
240.26	80.56
240.494	87.56
240.728	76.56
240.961	75.56
241.195	71.56
241.429	80.56
241.662	86.56
241.896	73.56
242.13	70.56
242.363	63.56
242.597	62.56
242.83	85.56
243.064	74.56
243.298	71.56
243.531	57.56
243.765	74.56
243.998	83.56
244.232	74.56
244.465	69.56
244.699	78.56
244.932	76.56
245.166	73.56
245.399	82.56
245.633	86.56
245.866	91.56
246.099	67.56
246.333	85.56
246.566	84.56
246.8	85.56
247.033	75.56
247.266	71.56
247.5	78.56
247.733	87.56
247.966	76.56
248.2	70.56
248.433	77.56
248.666	77.56
248.899	81.56
249.133	80.56
249.366	72.56
249.599	69.56
249.832	81.56
250.066	89.56
250.299	88.56
250.532	79.56
250.765	81.56
250.998	72.56
251.231	86.56
251.465	94.56
251.698	83.56
251.931	67.56
252.164	88.56
252.397	85.56
252.63	69.56
252.863	91.56
253.096	78.56
253.329	75.56
253.562	73.56
253.795	83.56
254.028	86.56
254.261	75.56
254.494	79.56
254.727	81.56
254.96	79.56
255.193	74.56
255.426	84.56
255.659	91.56
255.892	66.56
256.124	74.56
256.357	73.56
256.59	69.56
256.823	79.56
257.056	87.56
257.289	79.56
257.521	88.56
257.754	71.56
257.987	78.56
258.22	73.56
258.452	82.56
258.685	61.56
258.918	78.56
259.151	65.56
259.383	75.56
259.616	71.56
259.849	59.56
260.081	72.56
260.314	83.56
260.547	79.56
260.779	81.56
261.012	62.56
261.244	73.56
261.477	93.56
261.71	94.56
261.942	79.56
262.175	77.56
262.407	72.56
262.64	88.56
262.872	73.56
263.105	74.56
263.337	70.56
263.57	79.56
263.802	90.56
264.035	88.56
264.267	91.56
264.499	84.56
264.732	69.56
264.964	82.56
265.197	85.56
265.429	82.56
265.661	79.56
265.894	81.56
266.126	92.56
266.358	62.56
266.591	86.56
266.823	79.56
267.055	81.56
267.287	67.56
267.52	74.56
267.752	98.56
267.984	82.56
268.216	85.56
268.448	94.56
268.681	90.56
268.913	82.56
269.145	79.56
269.377	97.56
269.609	81.56
269.841	77.56
270.073	75.56
270.306	82.56
270.538	97.56
270.77	83.56
271.002	87.56
271.234	68.56
271.466	74.56
271.698	88.56
271.93	84.56
272.162	78.56
272.394	80.56
272.626	103.56
272.858	72.56
273.09	78.56
273.322	88.56
273.553	85.56
273.785	87.56
274.017	80.56
274.249	85.56
274.481	77.56
274.713	70.56
274.945	69.56
275.176	83.56
275.408	96.56
275.64	87.56
275.872	77.56
276.104	78.56
276.335	97.56
276.567	80.56
276.799	72.56
277.031	74.56
277.262	75.56
277.494	90.56
277.726	93.56
277.957	89.56
278.189	82.56
278.421	78.56
278.652	80.56
278.884	89.56
279.115	76.56
279.347	61.56
279.579	89.56
279.81	78.56
280.042	86.56
280.273	84.56
280.505	82.56
280.736	85.56
280.968	87.56
281.199	82.56
281.431	82.56
281.662	72.56
281.894	84.56
282.125	82.56
282.356	99.56
282.588	70.56
282.819	80.56
283.051	88.56
283.282	91.56
283.513	77.56
283.745	84.56
283.976	79.56
284.207	91.56
284.439	100.56
284.67	77.56
284.901	87.56
285.132	68.56
285.364	97.56
285.595	80.56
285.826	88.56
286.057	75.56
286.288	69.56
286.52	70.56
286.751	78.56
286.982	78.56
287.213	91.56
287.444	93.56
287.675	97.56
287.906	74.56
288.138	84.56
288.369	85.56
288.6	82.56
288.831	87.56
289.062	80.56
289.293	87.56
289.524	73.56
289.755	79.56
289.986	88.56
290.217	83.56
290.448	89.56
290.679	82.56
290.91	83.56
291.141	95.56
291.371	78.56
291.602	99.56
291.833	75.56
292.064	85.56
292.295	82.56
292.526	77.56
292.757	89.56
292.987	79.56
293.218	76.56
293.449	88.56
293.68	81.56
293.91	72.56
294.141	78.56
294.372	74.56
294.603	83.56
294.833	81.56
295.064	88.56
295.295	80.56
295.525	71.56
295.756	90.56
295.987	88.56
296.217	91.56
296.448	79.56
296.679	83.56
296.909	79.56
297.14	81.56
297.37	81.56
297.601	79.56
297.831	102.56
298.062	79.56
298.292	82.56
298.523	72.56
298.753	87.56
298.984	98.56
299.214	93.56
299.445	88.56
299.675	77.56
299.905	67.56
300.136	89.56
300.366	82.56
300.597	74.56
300.827	85.56
301.057	96.56
301.288	81.56
301.518	92.56
301.748	80.56
301.979	81.56
302.209	90.56
302.439	83.56
302.669	70.56
302.9	96.56
303.13	93.56
303.36	80.56
303.59	91.56
303.82	86.56
304.051	87.56
304.281	71.56
304.511	87.56
304.741	94.56
304.971	90.56
305.201	80.56
305.431	85.56
305.661	89.56
305.891	74.56
306.121	84.56
306.352	83.56
306.582	85.56
306.812	73.56
307.042	88.56
307.272	74.56
307.502	90.56
307.731	75.56
307.961	92.56
308.191	85.56
308.421	75.56
308.651	82.56
308.881	88.56
309.111	69.56
309.341	80.56
309.571	89.56
309.8	101.56
310.03	87.56
310.26	75.56
310.49	95.56
310.72	88.56
310.949	84.56
311.179	82.56
311.409	80.56
311.639	78.56
311.868	88.56
312.098	93.56
312.328	89.56
312.557	77.56
312.787	90.56
313.017	87.56
313.246	77.56
313.476	91.56
313.706	79.56
313.935	78.56
314.165	81.56
314.394	73.56
314.624	79.56
314.853	95.56
315.083	80.56
315.312	79.56
315.542	79.56
315.771	83.56
316.001	76.56
316.23	83.56
316.46	78.56
316.689	86.56
316.919	83.56
317.148	80.56
317.377	73.56
317.607	76.56
317.836	69.56
318.065	79.56
318.295	83.56
318.524	88.56
318.753	85.56
318.983	79.56
319.212	85.56
319.441	75.56
319.67	80.56
319.9	63.56
320.129	81.56
320.358	69.56
320.587	82.56
320.816	69.56
321.046	79.56
321.275	95.56
321.504	78.56
321.733	75.56
321.962	85.56
322.191	80.56
322.42	75.56
322.649	82.56
322.878	89.56
323.108	83.56
323.337	97.56
323.566	90.56
323.795	81.56
324.024	84.56
324.253	87.56
324.482	84.56
324.71	86.56
324.939	79.56
325.168	82.56
325.397	77.56
325.626	91.56
325.855	95.56
326.084	93.56
326.313	78.56
326.542	81.56
326.77	89.56
326.999	79.56
327.228	79.56
327.457	87.56
327.686	85.56
327.914	94.56
328.143	79.56
328.372	96.56
328.6	82.56
328.829	92.56
329.058	70.56
329.287	84.56
329.515	86.56
329.744	94.56
329.972	71.56
330.201	96.56
330.43	70.56
330.658	79.56
330.887	74.56
331.115	86.56
331.344	80.56
331.572	80.56
331.801	88.56
332.03	88.56
332.258	82.56
332.486	91.56
332.715	86.56
332.943	91.56
333.172	90.56
333.4	83.56
333.629	92.56
333.857	91.56
334.085	78.56
334.314	84.56
334.542	92.56
334.771	70.56
334.999	78.56
335.227	81.56
335.455	74.56
335.684	87.56
335.912	88.56
336.14	78.56
336.369	74.56
336.597	83.56
336.825	77.56
337.053	76.56
337.281	88.56
337.51	62.56
337.738	79.56
337.966	78.56
338.194	84.56
338.422	91.56
338.65	81.56
338.878	93.56
339.106	93.56
339.334	86.56
339.562	90.56
339.79	79.56
340.018	79.56
340.246	82.56
340.474	81.56
340.702	77.56
340.93	73.56
341.158	77.56
341.386	78.56
341.614	80.56
341.842	79.56
342.07	84.56
342.298	82.56
342.526	78.56
342.754	84.56
342.981	92.56
343.209	89.56
343.437	89.56
343.665	87.56
343.893	87.56
344.12	81.56
344.348	88.56
344.576	82.56
344.804	75.56
345.031	87.56
345.259	87.56
345.487	88.56
345.714	91.56
345.942	84.56
346.17	88.56
346.397	85.56
346.625	71.56
346.853	88.56
347.08	91.56
347.308	77.56
347.535	86.56
347.763	68.56
347.99	73.56
348.218	89.56
348.445	79.56
348.673	94.56
348.9	80.56
349.128	79.56
349.355	80.56
349.583	89.56
349.81	91.56
350.037	95.56
350.265	81.56
350.492	83.56
350.72	81.56
350.947	81.56
351.174	91.56
351.402	89.56
351.629	88.56
351.856	83.56
352.083	82.56
352.311	79.56
352.538	76.56
352.765	73.56
352.992	87.56
353.22	88.56
353.447	80.56
353.674	73.56
353.901	80.56
354.128	79.56
354.355	74.56
354.583	77.56
354.81	100.56
355.037	83.56
355.264	82.56
355.491	74.56
355.718	75.56
355.945	77.56
356.172	86.56
356.399	78.56
356.626	79.56
356.853	88.56
357.08	82.56
357.307	81.56
357.534	75.56
357.761	77.56
357.988	87.56
358.215	75.56
358.441	90.56
358.668	85.56
358.895	75.56
359.122	70.56
359.349	88.56
359.576	88.56
359.802	72.56
360.029	74.56
360.256	81.56
360.483	72.56
360.709	76.56
360.936	81.56
361.163	82.56
361.39	81.56
361.616	70.56
361.843	87.56
362.07	87.56
362.296	80.56
362.523	68.56
362.749	77.56
362.976	74.56
363.203	93.56
363.429	79.56
363.656	81.56
363.882	73.56
364.109	90.56
364.335	74.56
364.562	73.56
364.788	70.56
365.015	81.56
365.241	83.56
365.468	76.56
365.694	77.56
365.92	84.56
366.147	67.56
366.373	93.56
366.599	92.56
366.826	93.56
367.052	86.56
367.278	81.56
367.505	98.56
367.731	93.56
367.957	85.56
368.184	89.56
368.41	82.56
368.636	85.56
368.862	107.56
369.089	93.56
369.315	98.56
369.541	88.56
369.767	88.56
369.993	86.56
370.219	91.56
370.445	95.56
370.672	85.56
370.898	82.56
371.124	72.56
371.35	89.56
371.576	96.56
371.802	85.56
372.028	86.56
372.254	96.56
372.48	101.56
372.706	92.56
372.932	112.56
373.158	99.56
373.384	98.56
373.61	94.56
373.835	94.56
374.061	90.56
374.287	85.56
374.513	87.56
374.739	91.56
374.965	83.56
375.191	85.56
375.416	86.56
375.642	88.56
375.868	94.56
376.094	90.56
376.319	97.56
376.545	92.56
376.771	86.56
376.997	91.56
377.222	95.56
377.448	86.56
377.674	88.56
377.899	81.56
378.125	99.56
378.35	90.56
378.576	89.56
378.802	98.56
379.027	89.56
379.253	93.56
379.478	95.56
379.704	96.56
379.929	99.56
380.155	84.56
380.38	92.56
380.606	90.56
380.831	106.56
381.057	114.56
381.282	85.56
381.507	92.56
381.733	102.56
381.958	105.56
382.184	101.56
382.409	81.56
382.634	98.56
382.86	111.56
383.085	86.56
383.31	86.56
383.535	95.56
383.761	103.56
383.986	91.56
384.211	102.56
384.436	99.56
384.662	97.56
384.887	105.56
385.112	93.56
385.337	93.56
385.562	92.56
385.787	100.56
386.013	96.56
386.238	93.56
386.463	107.56
386.688	90.56
386.913	98.56
387.138	97.56
387.363	102.56
387.588	99.56
387.813	113.56
388.038	99.56
388.263	113.56
388.488	109.56
388.713	91.56
388.938	102.56
389.163	117.56
389.387	99.56
389.612	96.56
389.837	100.56
390.062	100.56
390.287	96.56
390.512	104.56
390.736	114.56
390.961	102.56
391.186	117.56
391.411	100.56
391.636	95.56
391.86	97.56
392.085	110.56
392.31	111.56
392.534	112.56
392.759	107.56
392.984	96.56
393.208	97.56
393.433	109.56
393.658	101.56
393.882	99.56
394.107	100.56
394.331	99.56
394.556	109.56
394.78	99.56
395.005	104.56
395.229	114.56
395.454	118.56
395.678	117.56
395.903	104.56
396.127	115.56
396.352	117.56
396.576	110.56
396.801	114.56
397.025	122.56
397.249	89.56
397.474	93.56
397.698	95.56
397.922	112.56
398.147	111.56
398.371	118.56
398.595	110.56
398.82	115.56
399.044	114.56
399.268	114.56
399.492	104.56
399.717	109.56
399.941	117.56
400.165	110.56
400.389	117.56
400.613	115.56
400.837	98.56
401.062	109.56
401.286	105.56
401.51	106.56
401.734	122.56
401.958	107.56
402.182	103.56
402.406	120.56
402.63	108.56
402.854	116.56
403.078	127.56
403.302	123.56
403.526	110.56
403.75	115.56
403.974	101.56
404.198	122.56
404.422	111.56
404.645	123.56
404.869	126.56
405.093	122.56
405.317	117.56
405.541	114.56
405.765	104.56
405.988	125.56
406.212	113.56
406.436	123.56
406.66	114.56
406.883	122.56
407.107	132.56
407.331	129.56
407.555	115.56
407.778	122.56
408.002	120.56
408.226	127.56
408.449	113.56
408.673	111.56
408.896	122.56
409.12	111.56
409.344	126.56
409.567	111.56
409.791	122.56
410.014	126.56
410.238	113.56
410.461	141.56
410.685	129.56
410.908	134.56
411.132	131.56
411.355	121.56
411.578	122.56
411.802	132.56
412.025	127.56
412.249	128.56
412.472	129.56
412.695	124.56
412.919	110.56
413.142	120.56
413.365	125.56
413.589	131.56
413.812	127.56
414.035	123.56
414.258	125.56
414.482	125.56
414.705	115.56
414.928	123.56
415.151	119.56
415.374	109.56
415.597	120.56
415.821	135.56
416.044	123.56
416.267	118.56
416.49	107.56
416.713	119.56
416.936	141.56
417.159	135.56
417.382	116.56
417.605	122.56
417.828	123.56
418.051	146.56
418.274	129.56
418.497	135.56
418.72	122.56
418.943	135.56
419.166	145.56
419.389	139.56
419.611	128.56
419.834	144.56
420.057	143.56
420.28	123.56
420.503	137.56
420.726	131.56
420.948	128.56
421.171	117.56
421.394	136.56
421.617	137.56
421.839	148.56
422.062	147.56
422.285	137.56
422.507	140.56
422.73	134.56
422.953	128.56
423.175	133.56
423.398	149.56
423.621	142.56
423.843	152.56
424.066	136.56
424.288	140.56
424.511	152.56
424.733	146.56
424.956	138.56
425.178	153.56
425.401	123.56
425.623	127.56
425.846	131.56
426.068	141.56
426.291	135.56
426.513	133.56
426.735	130.56
426.958	135.56
427.18	135.56
427.402	129.56
427.625	125.56
427.847	139.56
428.069	139.56
428.292	142.56
428.514	106.56
428.736	128.56
428.958	137.56
429.181	128.56
429.403	126.56
429.625	137.56
429.847	129.56
430.069	134.56
430.292	132.56
430.514	131.56
430.736	133.56
430.958	149.56
431.18	139.56
431.402	133.56
431.624	120.56
431.846	102.56
432.068	98.56
432.29	101.56
432.512	120.56
432.734	121.56
432.956	146.56
433.178	127.56
433.4	130.56
433.622	131.56
433.844	131.56
434.066	124.56
434.287	104.56
434.509	89.56
434.731	98.56
434.953	129.56
435.175	125.56
435.397	135.56
435.618	128.56
435.84	117.56
436.062	120.56
436.284	125.56
436.505	133.56
436.727	127.56
436.949	127.56
437.17	122.56
437.392	142.56
437.614	119.56
437.835	116.56
438.057	118.56
438.278	119.56
438.5	106.56
438.721	123.56
438.943	133.56
439.165	128.56
439.386	139.56
439.608	138.56
439.829	157.56
440.05	149.56
440.272	152.56
440.493	142.56
440.715	126.56
440.936	152.56
441.158	157.56
441.379	174.56
441.6	146.56
441.822	143.56
442.043	156.56
442.264	143.56
442.486	143.56
442.707	139.56
442.928	123.56
443.149	119.56
443.371	141.56
443.592	131.56
443.813	139.56
444.034	138.56
444.255	150.56
444.476	139.56
444.698	136.56
444.919	159.56
445.14	288.56
445.361	213.56
445.582	164.56
445.803	161.56
446.024	144.56
446.245	152.56
446.466	169.56
446.687	173.56
446.908	161.56
447.129	151.56
447.35	151.56
447.571	154.56
447.792	142.56
448.013	156.56
448.234	154.56
448.455	162.56
448.675	152.56
448.896	153.56
449.117	144.56
449.338	138.56
449.559	155.56
449.779	148.56
450	144.56
450.221	147.56
450.442	145.56
450.662	150.56
450.883	131.56
451.104	133.56
451.324	133.56
451.545	133.56
451.766	131.56
451.986	123.56
452.207	114.56
452.428	134.56
452.648	146.56
452.869	125.56
453.089	122.56
453.31	119.56
453.53	110.56
453.751	103.56
453.971	97.56
454.192	114.56
454.412	121.56
454.633	121.56
454.853	116.56
455.073	131.56
455.294	125.56
455.514	130.56
455.734	129.56
455.955	103.56
456.175	101.56
456.395	118.56
456.616	117.56
456.836	122.56
457.056	125.56
457.276	109.56
457.497	101.56
457.717	102.56
457.937	98.56
458.157	116.56
458.377	108.56
458.598	95.56
458.818	98.56
459.038	96.56
459.258	86.56
459.478	102.56
459.698	114.56
459.918	102.56
460.138	119.56
460.358	121.56
460.578	122.56
460.798	127.56
461.018	106.56
461.238	132.56
461.458	106.56
461.678	110.56
461.898	118.56
462.118	118.56
462.338	118.56
462.558	122.56
462.777	106.56
462.997	121.56
463.217	114.56
463.437	115.56
463.657	114.56
463.876	102.56
464.096	109.56
464.316	101.56
464.536	104.56
464.755	97.56
464.975	127.56
465.195	129.56
465.414	118.56
465.634	121.56
465.854	125.56
466.073	122.56
466.293	133.56
466.512	121.56
466.732	142.56
466.951	149.56
467.171	137.56
467.391	141.56
467.61	151.56
467.829	141.56
468.049	135.56
468.268	157.56
468.488	157.56
468.707	133.56
468.927	147.56
469.146	120.56
469.365	136.56
469.585	156.56
469.804	145.56
470.023	126.56
470.243	162.56
470.462	146.56
470.681	140.56
470.901	131.56
471.12	143.56
471.339	134.56
471.558	136.56
471.777	129.56
471.997	140.56
472.216	135.56
472.435	117.56
472.654	112.56
472.873	119.56
473.092	131.56
473.311	127.56
473.53	126.56
473.749	126.56
473.968	110.56
474.187	117.56
474.406	100.56
474.625	124.56
474.844	135.56
475.063	123.56
475.282	127.56
475.501	126.56
475.72	128.56
475.939	139.56
476.158	125.56
476.377	129.56
476.596	124.56
476.814	130.56
477.033	130.56
477.252	116.56
477.471	116.56
477.69	142.56
477.908	150.56
478.127	127.56
478.346	137.56
478.564	139.56
478.783	142.56
479.002	157.56
479.22	149.56
479.439	153.56
479.658	126.56
479.876	102.56
480.095	108.56
480.313	127.56
480.532	101.56
480.751	109.56
480.969	106.56
481.188	91.56
481.406	98.56
481.624	98.56
481.843	95.56
482.061	95.56
482.28	111.56
482.498	113.56
482.717	111.56
482.935	115.56
483.153	150.56
483.372	138.56
483.59	147.56
483.808	141.56
484.027	149.56
484.245	148.56
484.463	151.56
484.681	158.56
484.9	148.56
485.118	157.56
485.336	136.56
485.554	121.56
485.772	100.56
485.99	104.56
486.209	99.56
486.427	103.56
486.645	138.56
486.863	147.56
487.081	155.56
487.299	135.56
487.517	140.56
487.735	179.56
487.953	216.56
488.171	187.56
488.389	191.56
488.607	159.56
488.825	146.56
489.043	122.56
489.261	155.56
489.479	146.56
489.696	152.56
489.914	158.56
490.132	158.56
490.35	149.56
490.568	161.56
490.786	193.56
491.003	189.56
491.221	175.56
491.439	183.56
491.657	206.56
491.874	208.56
492.092	227.56
492.31	257.56
492.527	246.56
492.745	223.56
492.963	193.56
493.18	194.56
493.398	180.56
493.615	193.56
493.833	193.56
494.05	166.56
494.268	178.56
494.485	185.56
494.703	170.56
494.92	162.56
495.138	164.56
495.355	184.56
495.573	185.56
495.79	165.56
496.008	164.56
496.225	163.56
496.442	168.56
496.66	169.56
496.877	164.56
497.094	179.56
497.312	165.56
497.529	163.56
497.746	161.56
497.963	153.56
498.181	130.56
498.398	122.56
498.615	114.56
498.832	120.56
499.049	120.56
499.267	125.56
499.484	141.56
499.701	129.56
499.918	131.56
500.135	144.56
500.352	131.56
500.569	135.56
500.786	140.56
501.003	140.56
501.22	150.56
501.437	136.56
501.654	129.56
501.871	138.56
502.088	144.56
502.305	127.56
502.522	139.56
502.739	124.56
502.956	121.56
503.172	126.56
503.389	118.56
503.606	124.56
503.823	129.56
504.04	118.56
504.256	121.56
504.473	125.56
504.69	125.56
504.907	110.56
505.123	125.56
505.34	139.56
505.557	118.56
505.773	128.56
505.99	134.56
506.207	146.56
506.423	133.56
506.64	114.56
506.856	122.56
507.073	126.56
507.289	113.56
507.506	120.56
507.722	121.56
507.939	118.56
508.155	102.56
508.372	99.56
508.588	103.56
508.805	91.56
509.021	117.56
509.238	112.56
509.454	120.56
509.67	98.56
509.887	98.56
510.103	96.56
510.319	86.56
510.536	84.56
510.752	82.56
510.968	81.56
511.184	103.56
511.401	89.56
511.617	81.56
511.833	74.56
512.049	94.56
512.265	101.56
512.481	97.56
512.698	101.56
512.914	101.56
513.13	99.56
513.346	98.56
513.562	103.56
513.778	92.56
513.994	99.56
514.21	74.56
514.426	83.56
514.642	85.56
514.858	90.56
515.074	106.56
515.29	90.56
515.506	92.56
515.721	89.56
515.937	79.56
516.153	90.56
516.369	87.56
516.585	85.56
516.801	86.56
517.016	102.56
517.232	95.56
517.448	95.56
517.664	83.56
517.879	80.56
518.095	103.56
518.311	92.56
518.527	88.56
518.742	94.56
518.958	116.56
519.173	113.56
519.389	121.56
519.605	122.56
519.82	120.56
520.036	119.56
520.251	109.56
520.467	115.56
520.682	110.56
520.898	99.56
521.113	84.56
521.329	96.56
521.544	80.56
521.76	100.56
521.975	103.56
522.19	90.56
522.406	106.56
522.621	102.56
522.836	116.56
523.052	94.56
523.267	108.56
523.482	103.56
523.698	106.56
523.913	127.56
524.128	131.56
524.343	121.56
524.559	119.56
524.774	124.56
524.989	151.56
525.204	114.56
525.419	106.56
525.634	104.56
525.849	118.56
526.064	105.56
526.28	115.56
526.495	98.56
526.71	91.56
526.925	83.56
527.14	79.56
527.355	87.56
527.57	89.56
527.785	103.56
527.999	97.56
528.214	95.56
528.429	114.56
528.644	137.56
528.859	127.56
529.074	137.56
529.289	174.56
529.503	171.56
529.718	141.56
529.933	118.56
530.148	117.56
530.363	104.56
530.577	86.56
530.792	81.56
531.007	76.56
531.221	78.56
531.436	85.56
531.651	75.56
531.865	94.56
532.08	86.56
532.295	77.56
532.509	80.56
532.724	79.56
532.938	98.56
533.153	96.56
533.367	111.56
533.582	119.56
533.796	137.56
534.011	118.56
534.225	97.56
534.44	99.56
534.654	102.56
534.868	100.56
535.083	110.56
535.297	112.56
535.511	112.56
535.726	110.56
535.94	93.56
536.154	87.56
536.369	93.56
536.583	86.56
536.797	91.56
537.011	90.56
537.225	80.56
537.44	89.56
537.654	81.56
537.868	101.56
538.082	99.56
538.296	109.56
538.51	125.56
538.724	130.56
538.938	138.56
539.153	126.56
539.367	103.56
539.581	111.56
539.795	100.56
540.009	85.56
540.222	97.56
540.436	103.56
540.65	121.56
540.864	141.56
541.078	138.56
541.292	159.56
541.506	173.56
541.72	170.56
541.934	186.56
542.147	210.56
542.361	184.56
542.575	174.56
542.789	161.56
543.002	140.56
543.216	147.56
543.43	138.56
543.644	132.56
543.857	148.56
544.071	170.56
544.285	169.56
544.498	160.56
544.712	155.56
544.925	158.56
545.139	179.56
545.352	164.56
545.566	154.56
545.779	157.56
545.993	166.56
546.206	171.56
546.42	180.56
546.633	181.56
546.847	175.56
547.06	175.56
547.274	169.56
547.487	177.56
547.7	184.56
547.914	180.56
548.127	174.56
548.34	155.56
548.554	155.56
548.767	170.56
548.98	156.56
549.193	140.56
549.407	150.56
549.62	167.56
549.833	143.56
550.046	156.56
550.259	157.56
550.473	161.56
550.686	165.56
550.899	146.56
551.112	149.56
551.325	153.56
551.538	148.56
551.751	134.56
551.964	121.56
552.177	139.56
552.39	127.56
552.603	145.56
552.816	175.56
553.029	160.56
553.242	168.56
553.455	148.56
553.667	162.56
553.88	158.56
554.093	127.56
554.306	145.56
554.519	147.56
554.732	161.56
554.944	152.56
555.157	154.56
555.37	169.56
555.583	151.56
555.795	157.56
556.008	148.56
556.221	134.56
556.433	145.56
556.646	139.56
556.859	123.56
557.071	158.56
557.284	151.56
557.496	158.56
557.709	146.56
557.921	134.56
558.134	148.56
558.346	145.56
558.559	160.56
558.771	133.56
558.984	134.56
559.196	148.56
559.409	135.56
559.621	139.56
559.833	125.56
560.046	128.56
560.258	132.56
560.47	139.56
560.683	145.56
560.895	138.56
561.107	125.56
561.32	136.56
561.532	140.56
561.744	131.56
561.956	129.56
562.168	122.56
562.381	126.56
562.593	126.56
562.805	122.56
563.017	123.56
563.229	124.56
563.441	113.56
563.653	120.56
563.865	132.56
564.077	122.56
564.289	122.56
564.501	121.56
564.713	119.56
564.925	122.56
565.137	123.56
565.349	117.56
565.561	100.56
565.773	115.56
565.985	123.56
566.197	135.56
566.408	109.56
566.62	139.56
566.832	121.56
567.044	135.56
567.255	107.56
567.467	117.56
567.679	117.56
567.891	108.56
568.102	108.56
568.314	93.56
568.526	92.56
568.737	91.56
568.949	81.56
569.161	84.56
569.372	83.56
569.584	78.56
569.795	74.56
570.007	88.56
570.218	88.56
570.43	97.56
570.641	101.56
570.853	103.56
571.064	123.56
571.276	92.56
571.487	105.56
571.698	103.56
571.91	117.56
572.121	113.56
572.333	100.56
572.544	91.56
572.755	93.56
572.966	94.56
573.178	82.56
573.389	83.56
573.6	87.56
573.811	67.56
574.023	94.56
574.234	94.56
574.445	103.56
574.656	95.56
574.867	79.56
575.078	104.56
575.289	111.56
575.501	94.56
575.712	98.56
575.923	90.56
576.134	106.56
576.345	83.56
576.556	109.56
576.767	103.56
576.978	108.56
577.188	89.56
577.399	84.56
577.61	93.56
577.821	97.56
578.032	90.56
578.243	86.56
578.454	88.56
578.665	87.56
578.875	88.56
579.086	71.56
579.297	77.56
579.508	84.56
579.718	93.56
579.929	68.56
580.14	98.56
580.35	86.56
580.561	87.56
580.772	87.56
580.982	86.56
581.193	84.56
581.403	105.56
581.614	100.56
581.825	88.56
582.035	78.56
582.246	92.56
582.456	86.56
582.667	86.56
582.877	93.56
583.087	90.56
583.298	88.56
583.508	83.56
583.719	83.56
583.929	103.56
584.139	74.56
584.35	78.56
584.56	98.56
584.77	88.56
584.981	97.56
585.191	95.56
585.401	89.56
585.611	90.56
585.821	64.56
586.032	98.56
586.242	91.56
586.452	86.56
586.662	88.56
586.872	79.56
587.082	80.56
587.292	78.56
587.502	78.56
587.713	94.56
587.923	94.56
588.133	72.56
588.343	68.56
588.553	81.56
588.762	73.56
588.972	85.56
589.182	89.56
589.392	74.56
589.602	82.56
589.812	96.56
590.022	79.56
590.232	89.56
590.441	89.56
590.651	75.56
590.861	79.56
591.071	95.56
591.281	87.56
591.49	85.56
591.7	68.56
591.91	83.56
592.119	83.56
592.329	87.56
592.539	95.56
592.748	84.56
592.958	77.56
593.167	83.56
593.377	84.56
593.587	101.56
593.796	81.56
594.006	87.56
594.215	74.56
594.424	102.56
594.634	86.56
594.843	85.56
595.053	99.56
595.262	95.56
595.472	82.56
595.681	93.56
595.89	96.56
596.1	72.56
596.309	97.56
596.518	97.56
596.727	88.56
596.937	110.56
597.146	96.56
597.355	91.56
597.564	100.56
597.774	90.56
597.983	77.56
598.192	77.56
598.401	86.56
598.61	90.56
598.819	73.56
599.028	78.56
599.237	93.56
599.446	88.56
599.655	72.56
599.864	86.56
600.073	93.56
600.282	83.56
600.491	94.56
600.7	91.56
600.909	116.56
601.118	96.56
601.327	106.56
601.536	91.56
601.745	113.56
601.953	116.56
602.162	107.56
602.371	93.56
602.58	112.56
602.789	112.56
602.997	111.56
603.206	112.56
603.415	117.56
603.623	95.56
603.832	117.56
604.041	119.56
604.249	110.56
604.458	93.56
604.666	109.56
604.875	111.56
605.084	92.56
605.292	115.56
605.501	121.56
605.709	115.56
605.918	107.56
606.126	105.56
606.334	100.56
606.543	114.56
606.751	115.56
606.96	124.56
607.168	120.56
607.376	107.56
607.585	111.56
607.793	111.56
608.001	101.56
608.21	98.56
608.418	102.56
608.626	118.56
608.834	110.56
609.043	112.56
609.251	118.56
609.459	118.56
609.667	115.56
609.875	121.56
610.083	123.56
610.291	118.56
610.499	112.56
610.707	127.56
610.916	110.56
611.124	106.56
611.332	104.56
611.54	121.56
611.748	117.56
611.955	116.56
612.163	117.56
612.371	117.56
612.579	106.56
612.787	118.56
612.995	115.56
613.203	106.56
613.411	104.56
613.618	113.56
613.826	117.56
614.034	123.56
614.242	110.56
614.449	116.56
614.657	112.56
614.865	90.56
615.072	113.56
615.28	112.56
615.488	113.56
615.695	112.56
615.903	124.56
616.111	112.56
616.318	127.56
616.526	113.56
616.733	113.56
616.941	120.56
617.148	106.56
617.356	124.56
617.563	117.56
617.771	109.56
617.978	115.56
618.185	100.56
618.393	123.56
618.6	120.56
618.807	103.56
619.015	109.56
619.222	89.56
619.429	104.56
619.637	113.56
619.844	102.56
620.051	101.56
620.258	107.56
620.466	97.56
620.673	96.56
620.88	117.56
621.087	117.56
621.294	113.56
621.501	110.56
621.708	106.56
621.915	104.56
622.122	104.56
622.329	111.56
622.536	109.56
622.743	103.56
622.95	95.56
623.157	103.56
623.364	103.56
623.571	114.56
623.778	106.56
623.985	102.56
624.192	105.56
624.399	96.56
624.606	102.56
624.812	113.56
625.019	120.56
625.226	93.56
625.433	106.56
625.639	103.56
625.846	106.56
626.053	103.56
626.259	89.56
626.466	85.56
626.673	90.56
626.879	95.56
627.086	98.56
627.293	99.56
627.499	90.56
627.706	115.56
627.912	113.56
628.119	94.56
628.325	121.56
628.532	117.56
628.738	106.56
628.945	89.56
629.151	116.56
629.357	105.56
629.564	101.56
629.77	112.56
629.976	99.56
630.183	105.56
630.389	95.56
630.595	94.56
630.802	96.56
631.008	103.56
631.214	106.56
631.42	112.56
631.627	105.56
631.833	102.56
632.039	106.56
632.245	99.56
632.451	96.56
632.657	106.56
632.863	115.56
633.069	101.56
633.275	98.56
633.481	94.56
633.688	97.56
633.893	106.56
634.099	98.56
634.305	98.56
634.511	108.56
634.717	92.56
634.923	92.56
635.129	91.56
635.335	89.56
635.541	99.56
635.747	103.56
635.952	90.56
636.158	107.56
636.364	116.56
636.57	90.56
636.775	88.56
636.981	98.56
637.187	90.56
637.392	101.56
637.598	93.56
637.804	111.56
638.009	107.56
638.215	105.56
638.421	109.56
638.626	114.56
638.832	109.56
639.037	110.56
639.243	105.56
639.448	102.56
639.654	102.56
639.859	98.56
640.065	92.56
640.27	108.56
640.475	100.56
640.681	106.56
640.886	102.56
641.091	85.56
641.297	90.56
641.502	98.56
641.707	111.56
641.913	102.56
642.118	111.56
642.323	109.56
642.528	110.56
642.733	103.56
642.939	90.56
643.144	92.56
643.349	108.56
643.554	103.56
643.759	109.56
643.964	92.56
644.169	117.56
644.374	96.56
644.579	101.56
644.784	94.56
644.989	102.56
645.194	85.56
645.399	93.56
645.604	89.56
645.809	90.56
646.014	95.56
646.219	93.56
646.423	90.56
646.628	99.56
646.833	103.56
647.038	100.56
647.243	101.56
647.447	104.56
647.652	92.56
647.857	110.56
648.062	95.56
648.266	89.56
648.471	89.56
648.676	100.56
648.88	96.56
649.085	91.56
649.289	107.56
649.494	95.56
649.698	99.56
649.903	103.56
650.107	100.56
650.312	87.56
650.516	92.56
650.721	94.56
650.925	107.56
651.13	95.56
651.334	93.56
651.539	101.56
651.743	83.56
651.947	101.56
652.152	98.56
652.356	98.56
652.56	86.56
652.764	94.56
652.969	99.56
653.173	92.56
653.377	87.56
653.581	82.56
653.785	92.56
653.99	110.56
654.194	91.56
654.398	95.56
654.602	82.56
654.806	97.56
655.01	92.56
655.214	93.56
655.418	85.56
655.622	104.56
655.826	105.56
656.03	86.56
656.234	93.56
656.438	88.56
656.642	97.56
656.846	79.56
657.049	83.56
657.253	99.56
657.457	99.56
657.661	84.56
657.865	79.56
658.068	92.56
658.272	94.56
658.476	75.56
658.68	85.56
658.883	69.56
659.087	80.56
659.291	71.56
659.494	83.56
659.698	87.56
659.901	79.56
660.105	91.56
660.309	86.56
660.512	73.56
660.716	81.56
660.919	94.56
661.123	71.56
661.326	77.56
661.53	80.56
661.733	75.56
661.936	84.56
662.14	83.56
662.343	88.56
662.546	73.56
662.75	77.56
662.953	79.56
663.156	84.56
663.36	84.56
663.563	86.56
663.766	86.56
663.969	85.56
664.173	78.56
664.376	70.56
664.579	81.56
664.782	63.56
664.985	71.56
665.188	88.56
665.391	78.56
665.594	79.56
665.797	71.56
666	93.56
666.203	88.56
666.406	67.56
666.609	80.56
666.812	92.56
667.015	83.56
667.218	71.56
667.421	86.56
667.624	81.56
667.827	89.56
668.03	78.56
668.232	79.56
668.435	84.56
668.638	80.56
668.841	73.56
669.043	79.56
669.246	71.56
669.449	79.56
669.651	110.56
669.854	76.56
670.057	82.56
670.259	86.56
670.462	91.56
670.665	75.56
670.867	75.56
671.07	81.56
671.272	86.56
671.475	87.56
671.677	84.56
671.88	77.56
672.082	73.56
672.284	87.56
672.487	86.56
672.689	84.56
672.892	89.56
