Data from Location6.07152019.Energy5.Lamp.07192019.3%Agarose_HRD10591_16-10-50-394.txt Node
Date: Fri Jul 19 16:10:50 EDT 2019
User: cochatt
Spectrometer: HR+D1059
Trigger mode: 1
Integration Time (sec): 1.000000E-1
Scans to average: 1
Electric dark correction enabled: true
Nonlinearity correction enabled: false
Boxcar width: 0
XAxis mode: Wavelengths
Number of Pixels in Spectrum: 2048
>>>>>Begin Spectral Data<<<<<
223.165	-13.31
223.4	-13.31
223.635	-13.31
223.869	-28.31
224.104	-15.31
224.338	-18.31
224.573	-8.31
224.808	-14.31
225.042	-8.31
225.277	1.69
225.511	-7.31
225.746	0.69
225.98	1.69
226.215	10.69
226.449	8.69
226.683	20.69
226.918	36.69
227.152	32.69
227.387	24.69
227.621	24.69
227.856	28.69
228.09	51.69
228.324	42.69
228.559	56.69
228.793	68.69
229.027	52.69
229.262	49.69
229.496	60.69
229.73	71.69
229.964	70.69
230.199	75.69
230.433	70.69
230.667	63.69
230.901	80.69
231.136	83.69
231.37	72.69
231.604	64.69
231.838	65.69
232.072	77.69
232.306	81.69
232.541	68.69
232.775	84.69
233.009	62.69
233.243	72.69
233.477	88.69
233.711	87.69
233.945	75.69
234.179	81.69
234.413	76.69
234.647	70.69
234.881	82.69
235.115	81.69
235.349	73.69
235.583	73.69
235.817	78.69
236.051	69.69
236.285	69.69
236.519	73.69
236.753	77.69
236.987	67.69
237.221	78.69
237.455	70.69
237.689	68.69
237.922	64.69
238.156	78.69
238.39	72.69
238.624	81.69
238.858	61.69
239.091	71.69
239.325	67.69
239.559	83.69
239.793	62.69
240.027	78.69
240.26	77.69
240.494	69.69
240.728	72.69
240.961	72.69
241.195	69.69
241.429	96.69
241.662	83.69
241.896	65.69
242.13	100.69
242.363	88.69
242.597	78.69
242.83	90.69
243.064	69.69
243.298	62.69
243.531	72.69
243.765	83.69
243.998	76.69
244.232	78.69
244.465	83.69
244.699	79.69
244.932	79.69
245.166	74.69
245.399	96.69
245.633	75.69
245.866	68.69
246.099	75.69
246.333	83.69
246.566	62.69
246.8	75.69
247.033	58.69
247.266	68.69
247.5	72.69
247.733	72.69
247.966	83.69
248.2	56.69
248.433	62.69
248.666	78.69
248.899	71.69
249.133	82.69
249.366	68.69
249.599	76.69
249.832	70.69
250.066	92.69
250.299	83.69
250.532	84.69
250.765	86.69
250.998	80.69
251.231	72.69
251.465	77.69
251.698	75.69
251.931	65.69
252.164	83.69
252.397	83.69
252.63	69.69
252.863	96.69
253.096	77.69
253.329	66.69
253.562	83.69
253.795	87.69
254.028	68.69
254.261	77.69
254.494	87.69
254.727	78.69
254.96	67.69
255.193	78.69
255.426	86.69
255.659	83.69
255.892	79.69
256.124	82.69
256.357	78.69
256.59	80.69
256.823	64.69
257.056	92.69
257.289	75.69
257.521	87.69
257.754	74.69
257.987	82.69
258.22	84.69
258.452	85.69
258.685	91.69
258.918	72.69
259.151	76.69
259.383	73.69
259.616	77.69
259.849	74.69
260.081	84.69
260.314	69.69
260.547	78.69
260.779	72.69
261.012	91.69
261.244	78.69
261.477	84.69
261.71	79.69
261.942	83.69
262.175	78.69
262.407	85.69
262.64	73.69
262.872	96.69
263.105	95.69
263.337	79.69
263.57	73.69
263.802	72.69
264.035	79.69
264.267	67.69
264.499	76.69
264.732	74.69
264.964	70.69
265.197	89.69
265.429	81.69
265.661	80.69
265.894	67.69
266.126	64.69
266.358	73.69
266.591	78.69
266.823	68.69
267.055	72.69
267.287	67.69
267.52	71.69
267.752	85.69
267.984	73.69
268.216	65.69
268.448	93.69
268.681	87.69
268.913	77.69
269.145	75.69
269.377	68.69
269.609	88.69
269.841	80.69
270.073	89.69
270.306	79.69
270.538	89.69
270.77	74.69
271.002	81.69
271.234	77.69
271.466	92.69
271.698	75.69
271.93	77.69
272.162	78.69
272.394	79.69
272.626	87.69
272.858	73.69
273.09	76.69
273.322	62.69
273.553	84.69
273.785	82.69
274.017	79.69
274.249	79.69
274.481	75.69
274.713	81.69
274.945	61.69
275.176	88.69
275.408	77.69
275.64	79.69
275.872	88.69
276.104	82.69
276.335	70.69
276.567	68.69
276.799	74.69
277.031	67.69
277.262	82.69
277.494	86.69
277.726	78.69
277.957	72.69
278.189	84.69
278.421	72.69
278.652	81.69
278.884	101.69
279.115	82.69
279.347	72.69
279.579	88.69
279.81	77.69
280.042	91.69
280.273	73.69
280.505	76.69
280.736	79.69
280.968	82.69
281.199	74.69
281.431	78.69
281.662	92.69
281.894	94.69
282.125	83.69
282.356	74.69
282.588	66.69
282.819	77.69
283.051	93.69
283.282	87.69
283.513	83.69
283.745	82.69
283.976	80.69
284.207	77.69
284.439	80.69
284.67	92.69
284.901	82.69
285.132	75.69
285.364	79.69
285.595	79.69
285.826	80.69
286.057	78.69
286.288	83.69
286.52	72.69
286.751	81.69
286.982	82.69
287.213	78.69
287.444	79.69
287.675	67.69
287.906	83.69
288.138	75.69
288.369	72.69
288.6	85.69
288.831	85.69
289.062	82.69
289.293	79.69
289.524	72.69
289.755	68.69
289.986	99.69
290.217	78.69
290.448	86.69
290.679	82.69
290.91	73.69
291.141	78.69
291.371	86.69
291.602	79.69
291.833	71.69
292.064	85.69
292.295	80.69
292.526	73.69
292.757	66.69
292.987	85.69
293.218	76.69
293.449	89.69
293.68	82.69
293.91	72.69
294.141	72.69
294.372	83.69
294.603	85.69
294.833	83.69
295.064	88.69
295.295	88.69
295.525	102.69
295.756	69.69
295.987	83.69
296.217	92.69
296.448	81.69
296.679	78.69
296.909	81.69
297.14	76.69
297.37	75.69
297.601	82.69
297.831	83.69
298.062	72.69
298.292	82.69
298.523	72.69
298.753	71.69
298.984	72.69
299.214	85.69
299.445	78.69
299.675	87.69
299.905	79.69
300.136	86.69
300.366	80.69
300.597	83.69
300.827	95.69
301.057	89.69
301.288	93.69
301.518	78.69
301.748	77.69
301.979	80.69
302.209	80.69
302.439	78.69
302.669	80.69
302.9	82.69
303.13	70.69
303.36	80.69
303.59	75.69
303.82	80.69
304.051	98.69
304.281	93.69
304.511	86.69
304.741	82.69
304.971	78.69
305.201	79.69
305.431	75.69
305.661	89.69
305.891	94.69
306.121	82.69
306.352	78.69
306.582	71.69
306.812	84.69
307.042	79.69
307.272	83.69
307.502	80.69
307.731	67.69
307.961	91.69
308.191	66.69
308.421	82.69
308.651	86.69
308.881	93.69
309.111	76.69
309.341	93.69
309.571	80.69
309.8	67.69
310.03	68.69
310.26	72.69
310.49	76.69
310.72	94.69
310.949	79.69
311.179	98.69
311.409	90.69
311.639	92.69
311.868	86.69
312.098	79.69
312.328	82.69
312.557	97.69
312.787	64.69
313.017	71.69
313.246	81.69
313.476	82.69
313.706	80.69
313.935	73.69
314.165	74.69
314.394	88.69
314.624	81.69
314.853	72.69
315.083	90.69
315.312	82.69
315.542	78.69
315.771	76.69
316.001	62.69
316.23	69.69
316.46	68.69
316.689	78.69
316.919	71.69
317.148	87.69
317.377	83.69
317.607	102.69
317.836	75.69
318.065	78.69
318.295	92.69
318.524	89.69
318.753	69.69
318.983	88.69
319.212	84.69
319.441	75.69
319.67	66.69
319.9	82.69
320.129	83.69
320.358	90.69
320.587	79.69
320.816	78.69
321.046	76.69
321.275	85.69
321.504	86.69
321.733	72.69
321.962	86.69
322.191	85.69
322.42	70.69
322.649	81.69
322.878	78.69
323.108	79.69
323.337	94.69
323.566	76.69
323.795	85.69
324.024	85.69
324.253	67.69
324.482	72.69
324.71	68.69
324.939	77.69
325.168	80.69
325.397	93.69
325.626	78.69
325.855	79.69
326.084	96.69
326.313	80.69
326.542	85.69
326.77	90.69
326.999	91.69
327.228	80.69
327.457	74.69
327.686	71.69
327.914	83.69
328.143	85.69
328.372	76.69
328.6	85.69
328.829	75.69
329.058	82.69
329.287	79.69
329.515	81.69
329.744	86.69
329.972	67.69
330.201	66.69
330.43	85.69
330.658	72.69
330.887	92.69
331.115	79.69
331.344	89.69
331.572	78.69
331.801	76.69
332.03	65.69
332.258	85.69
332.486	83.69
332.715	75.69
332.943	76.69
333.172	77.69
333.4	80.69
333.629	87.69
333.857	92.69
334.085	80.69
334.314	75.69
334.542	75.69
334.771	77.69
334.999	73.69
335.227	65.69
335.455	63.69
335.684	79.69
335.912	80.69
336.14	86.69
336.369	83.69
336.597	97.69
336.825	77.69
337.053	77.69
337.281	72.69
337.51	83.69
337.738	74.69
337.966	72.69
338.194	69.69
338.422	81.69
338.65	87.69
338.878	87.69
339.106	79.69
339.334	98.69
339.562	82.69
339.79	84.69
340.018	82.69
340.246	80.69
340.474	84.69
340.702	80.69
340.93	69.69
341.158	86.69
341.386	82.69
341.614	90.69
341.842	93.69
342.07	75.69
342.298	80.69
342.526	84.69
342.754	89.69
342.981	94.69
343.209	68.69
343.437	76.69
343.665	76.69
343.893	75.69
344.12	94.69
344.348	86.69
344.576	84.69
344.804	74.69
345.031	93.69
345.259	75.69
345.487	93.69
345.714	72.69
345.942	76.69
346.17	84.69
346.397	76.69
346.625	93.69
346.853	84.69
347.08	84.69
347.308	77.69
347.535	77.69
347.763	87.69
347.99	76.69
348.218	87.69
348.445	79.69
348.673	88.69
348.9	71.69
349.128	70.69
349.355	77.69
349.583	73.69
349.81	85.69
350.037	72.69
350.265	68.69
350.492	97.69
350.72	82.69
350.947	93.69
351.174	74.69
351.402	86.69
351.629	79.69
351.856	73.69
352.083	71.69
352.311	79.69
352.538	67.69
352.765	91.69
352.992	87.69
353.22	82.69
353.447	75.69
353.674	78.69
353.901	81.69
354.128	93.69
354.355	77.69
354.583	78.69
354.81	82.69
355.037	73.69
355.264	81.69
355.491	85.69
355.718	98.69
355.945	89.69
356.172	76.69
356.399	64.69
356.626	80.69
356.853	82.69
357.08	77.69
357.307	92.69
357.534	66.69
357.761	78.69
357.988	85.69
358.215	79.69
358.441	92.69
358.668	78.69
358.895	72.69
359.122	93.69
359.349	91.69
359.576	87.69
359.802	86.69
360.029	79.69
360.256	74.69
360.483	72.69
360.709	74.69
360.936	88.69
361.163	93.69
361.39	93.69
361.616	79.69
361.843	95.69
362.07	81.69
362.296	66.69
362.523	81.69
362.749	82.69
362.976	88.69
363.203	80.69
363.429	81.69
363.656	90.69
363.882	77.69
364.109	85.69
364.335	84.69
364.562	78.69
364.788	68.69
365.015	92.69
365.241	76.69
365.468	84.69
365.694	72.69
365.92	79.69
366.147	72.69
366.373	84.69
366.599	84.69
366.826	87.69
367.052	72.69
367.278	77.69
367.505	82.69
367.731	95.69
367.957	95.69
368.184	86.69
368.41	91.69
368.636	91.69
368.862	100.69
369.089	76.69
369.315	91.69
369.541	95.69
369.767	95.69
369.993	87.69
370.219	82.69
370.445	88.69
370.672	85.69
370.898	84.69
371.124	94.69
371.35	85.69
371.576	83.69
371.802	76.69
372.028	94.69
372.254	90.69
372.48	102.69
372.706	94.69
372.932	86.69
373.158	70.69
373.384	102.69
373.61	83.69
373.835	87.69
374.061	90.69
374.287	75.69
374.513	90.69
374.739	75.69
374.965	89.69
375.191	99.69
375.416	77.69
375.642	95.69
375.868	74.69
376.094	94.69
376.319	87.69
376.545	90.69
376.771	81.69
376.997	92.69
377.222	71.69
377.448	87.69
377.674	75.69
377.899	90.69
378.125	88.69
378.35	96.69
378.576	94.69
378.802	93.69
379.027	87.69
379.253	91.69
379.478	98.69
379.704	80.69
379.929	89.69
380.155	80.69
380.38	100.69
380.606	92.69
380.831	100.69
381.057	101.69
381.282	90.69
381.507	98.69
381.733	87.69
381.958	101.69
382.184	78.69
382.409	97.69
382.634	97.69
382.86	83.69
383.085	106.69
383.31	101.69
383.535	98.69
383.761	97.69
383.986	104.69
384.211	89.69
384.436	101.69
384.662	84.69
384.887	95.69
385.112	115.69
385.337	106.69
385.562	99.69
385.787	110.69
386.013	98.69
386.238	95.69
386.463	94.69
386.688	93.69
386.913	97.69
387.138	92.69
387.363	97.69
387.588	102.69
387.813	109.69
388.038	103.69
388.263	91.69
388.488	103.69
388.713	85.69
388.938	97.69
389.163	106.69
389.387	94.69
389.612	89.69
389.837	101.69
390.062	114.69
390.287	105.69
390.512	97.69
390.736	86.69
390.961	107.69
391.186	93.69
391.411	107.69
391.636	93.69
391.86	101.69
392.085	98.69
392.31	118.69
392.534	101.69
392.759	110.69
392.984	92.69
393.208	89.69
393.433	94.69
393.658	107.69
393.882	112.69
394.107	98.69
394.331	109.69
394.556	99.69
394.78	98.69
395.005	99.69
395.229	112.69
395.454	103.69
395.678	114.69
395.903	116.69
396.127	103.69
396.352	100.69
396.576	115.69
396.801	114.69
397.025	116.69
397.249	107.69
397.474	96.69
397.698	103.69
397.922	107.69
398.147	102.69
398.371	107.69
398.595	114.69
398.82	111.69
399.044	104.69
399.268	124.69
399.492	120.69
399.717	109.69
399.941	118.69
400.165	112.69
400.389	114.69
400.613	90.69
400.837	106.69
401.062	110.69
401.286	106.69
401.51	97.69
401.734	121.69
401.958	108.69
402.182	117.69
402.406	113.69
402.63	99.69
402.854	114.69
403.078	101.69
403.302	114.69
403.526	126.69
403.75	122.69
403.974	110.69
404.198	104.69
404.422	101.69
404.645	108.69
404.869	112.69
405.093	119.69
405.317	112.69
405.541	112.69
405.765	122.69
405.988	120.69
406.212	117.69
406.436	116.69
406.66	102.69
406.883	114.69
407.107	106.69
407.331	110.69
407.555	109.69
407.778	114.69
408.002	109.69
408.226	122.69
408.449	110.69
408.673	117.69
408.896	112.69
409.12	126.69
409.344	109.69
409.567	122.69
409.791	124.69
410.014	130.69
410.238	115.69
410.461	129.69
410.685	128.69
410.908	117.69
411.132	122.69
411.355	122.69
411.578	124.69
411.802	127.69
412.025	118.69
412.249	112.69
412.472	108.69
412.695	109.69
412.919	115.69
413.142	116.69
413.365	119.69
413.589	120.69
413.812	123.69
414.035	120.69
414.258	133.69
414.482	112.69
414.705	126.69
414.928	128.69
415.151	100.69
415.374	122.69
415.597	128.69
415.821	119.69
416.044	113.69
416.267	130.69
416.49	119.69
416.713	114.69
416.936	116.69
417.159	126.69
417.382	148.69
417.605	124.69
417.828	117.69
418.051	133.69
418.274	134.69
418.497	138.69
418.72	127.69
418.943	140.69
419.166	119.69
419.389	148.69
419.611	145.69
419.834	113.69
420.057	149.69
420.28	140.69
420.503	122.69
420.726	137.69
420.948	127.69
421.171	138.69
421.394	122.69
421.617	142.69
421.839	138.69
422.062	134.69
422.285	123.69
422.507	127.69
422.73	130.69
422.953	111.69
423.175	124.69
423.398	116.69
423.621	130.69
423.843	121.69
424.066	137.69
424.288	139.69
424.511	146.69
424.733	153.69
424.956	148.69
425.178	136.69
425.401	141.69
425.623	126.69
425.846	126.69
426.068	112.69
426.291	123.69
426.513	127.69
426.735	136.69
426.958	155.69
427.18	135.69
427.402	133.69
427.625	133.69
427.847	129.69
428.069	130.69
428.292	145.69
428.514	125.69
428.736	118.69
428.958	135.69
429.181	134.69
429.403	134.69
429.625	132.69
429.847	121.69
430.069	132.69
430.292	121.69
430.514	141.69
430.736	124.69
430.958	128.69
431.18	119.69
431.402	123.69
431.624	117.69
431.846	100.69
432.068	80.69
432.29	93.69
432.512	100.69
432.734	103.69
432.956	121.69
433.178	128.69
433.4	139.69
433.622	135.69
433.844	112.69
434.066	110.69
434.287	109.69
434.509	102.69
434.731	112.69
434.953	110.69
435.175	127.69
435.397	121.69
435.618	119.69
435.84	120.69
436.062	109.69
436.284	132.69
436.505	114.69
436.727	132.69
436.949	135.69
437.17	124.69
437.392	127.69
437.614	125.69
437.835	104.69
438.057	101.69
438.278	127.69
438.5	128.69
438.721	133.69
438.943	142.69
439.165	134.69
439.386	134.69
439.608	155.69
439.829	128.69
440.05	153.69
440.272	146.69
440.493	142.69
440.715	148.69
440.936	146.69
441.158	136.69
441.379	147.69
441.6	165.69
441.822	144.69
442.043	137.69
442.264	141.69
442.486	140.69
442.707	142.69
442.928	123.69
443.149	148.69
443.371	150.69
443.592	153.69
443.813	138.69
444.034	130.69
444.255	142.69
444.476	133.69
444.698	146.69
444.919	147.69
445.14	270.69
445.361	197.69
445.582	154.69
445.803	146.69
446.024	143.69
446.245	141.69
446.466	155.69
446.687	130.69
446.908	167.69
447.129	146.69
447.35	153.69
447.571	147.69
447.792	145.69
448.013	150.69
448.234	143.69
448.455	158.69
448.675	142.69
448.896	141.69
449.117	142.69
449.338	128.69
449.559	156.69
449.779	142.69
450	127.69
450.221	132.69
450.442	121.69
450.662	141.69
450.883	130.69
451.104	133.69
451.324	130.69
451.545	133.69
451.766	143.69
451.986	135.69
452.207	131.69
452.428	128.69
452.648	133.69
452.869	122.69
453.089	128.69
453.31	120.69
453.53	122.69
453.751	106.69
453.971	110.69
454.192	116.69
454.412	115.69
454.633	118.69
454.853	126.69
455.073	128.69
455.294	125.69
455.514	133.69
455.734	131.69
455.955	137.69
456.175	125.69
456.395	116.69
456.616	119.69
456.836	117.69
457.056	114.69
457.276	112.69
457.497	111.69
457.717	112.69
457.937	115.69
458.157	108.69
458.377	102.69
458.598	116.69
458.818	95.69
459.038	76.69
459.258	88.69
459.478	82.69
459.698	75.69
459.918	88.69
460.138	102.69
460.358	102.69
460.578	124.69
460.798	127.69
461.018	122.69
461.238	123.69
461.458	117.69
461.678	107.69
461.898	119.69
462.118	107.69
462.338	108.69
462.558	102.69
462.777	114.69
462.997	99.69
463.217	111.69
463.437	108.69
463.657	113.69
463.876	108.69
464.096	120.69
464.316	109.69
464.536	119.69
464.755	101.69
464.975	109.69
465.195	112.69
465.414	109.69
465.634	109.69
465.854	120.69
466.073	137.69
466.293	125.69
466.512	140.69
466.732	123.69
466.951	135.69
467.171	141.69
467.391	140.69
467.61	136.69
467.829	137.69
468.049	148.69
468.268	130.69
468.488	141.69
468.707	156.69
468.927	132.69
469.146	143.69
469.365	154.69
469.585	138.69
469.804	162.69
470.023	134.69
470.243	133.69
470.462	145.69
470.681	139.69
470.901	145.69
471.12	148.69
471.339	139.69
471.558	130.69
471.777	128.69
471.997	134.69
472.216	139.69
472.435	117.69
472.654	112.69
472.873	119.69
473.092	132.69
473.311	133.69
473.53	118.69
473.749	116.69
473.968	117.69
474.187	119.69
474.406	120.69
474.625	125.69
474.844	129.69
475.063	127.69
475.282	128.69
475.501	109.69
475.72	120.69
475.939	114.69
476.158	131.69
476.377	122.69
476.596	108.69
476.814	115.69
477.033	94.69
477.252	116.69
477.471	118.69
477.69	126.69
477.908	146.69
478.127	137.69
478.346	139.69
478.564	140.69
478.783	142.69
479.002	144.69
479.22	131.69
479.439	133.69
479.658	110.69
479.876	98.69
480.095	108.69
480.313	114.69
480.532	111.69
480.751	119.69
480.969	90.69
481.188	86.69
481.406	94.69
481.624	86.69
481.843	102.69
482.061	100.69
482.28	102.69
482.498	114.69
482.717	115.69
482.935	136.69
483.153	148.69
483.372	143.69
483.59	145.69
483.808	150.69
484.027	131.69
484.245	153.69
484.463	154.69
484.681	168.69
484.9	152.69
485.118	133.69
485.336	124.69
485.554	110.69
485.772	90.69
485.99	87.69
486.209	126.69
486.427	114.69
486.645	111.69
486.863	138.69
487.081	139.69
487.299	136.69
487.517	132.69
487.735	163.69
487.953	196.69
488.171	203.69
488.389	189.69
488.607	165.69
488.825	157.69
489.043	125.69
489.261	144.69
489.479	140.69
489.696	132.69
489.914	140.69
490.132	152.69
490.35	151.69
490.568	175.69
490.786	174.69
491.003	172.69
491.221	187.69
491.439	163.69
491.657	191.69
491.874	202.69
492.092	231.69
492.31	249.69
492.527	258.69
492.745	212.69
492.963	210.69
493.18	189.69
493.398	188.69
493.615	186.69
493.833	181.69
494.05	187.69
494.268	183.69
494.485	173.69
494.703	189.69
494.92	160.69
495.138	180.69
495.355	170.69
495.573	175.69
495.79	172.69
496.008	180.69
496.225	168.69
496.442	178.69
496.66	179.69
496.877	167.69
497.094	159.69
497.312	156.69
497.529	162.69
497.746	150.69
497.963	142.69
498.181	114.69
498.398	128.69
498.615	135.69
498.832	123.69
499.049	115.69
499.267	118.69
499.484	133.69
499.701	135.69
499.918	136.69
500.135	134.69
500.352	132.69
500.569	141.69
500.786	136.69
501.003	137.69
501.22	134.69
501.437	146.69
501.654	135.69
501.871	115.69
502.088	124.69
502.305	134.69
502.522	136.69
502.739	130.69
502.956	115.69
503.172	118.69
503.389	121.69
503.606	116.69
503.823	133.69
504.04	116.69
504.256	121.69
504.473	119.69
504.69	104.69
504.907	111.69
505.123	116.69
505.34	126.69
505.557	112.69
505.773	118.69
505.99	126.69
506.207	115.69
506.423	121.69
506.64	122.69
506.856	128.69
507.073	115.69
507.289	101.69
507.506	116.69
507.722	119.69
507.939	119.69
508.155	126.69
508.372	128.69
508.588	108.69
508.805	103.69
509.021	111.69
509.238	106.69
509.454	108.69
509.67	109.69
509.887	100.69
510.103	77.69
510.319	86.69
510.536	92.69
510.752	76.69
510.968	80.69
511.184	92.69
511.401	85.69
511.617	88.69
511.833	99.69
512.049	80.69
512.265	91.69
512.481	99.69
512.698	108.69
512.914	103.69
513.13	90.69
513.346	98.69
513.562	99.69
513.778	85.69
513.994	94.69
514.21	84.69
514.426	86.69
514.642	89.69
514.858	86.69
515.074	84.69
515.29	72.69
515.506	83.69
515.721	83.69
515.937	88.69
516.153	86.69
516.369	81.69
516.585	82.69
516.801	106.69
517.016	92.69
517.232	88.69
517.448	91.69
517.664	105.69
517.879	107.69
518.095	94.69
518.311	87.69
518.527	100.69
518.742	90.69
518.958	97.69
519.173	97.69
519.389	99.69
519.605	87.69
519.82	106.69
520.036	91.69
520.251	110.69
520.467	98.69
520.682	108.69
520.898	94.69
521.113	84.69
521.329	83.69
521.544	79.69
521.76	88.69
521.975	88.69
522.19	87.69
522.406	88.69
522.621	80.69
522.836	104.69
523.052	98.69
523.267	113.69
523.482	102.69
523.698	107.69
523.913	103.69
524.128	100.69
524.343	108.69
524.559	110.69
524.774	118.69
524.989	114.69
525.204	112.69
525.419	114.69
525.634	120.69
525.849	108.69
526.064	119.69
526.28	112.69
526.495	96.69
526.71	92.69
526.925	82.69
527.14	86.69
527.355	76.69
527.57	87.69
527.785	93.69
527.999	89.69
528.214	106.69
528.429	125.69
528.644	116.69
528.859	138.69
529.074	138.69
529.289	162.69
529.503	174.69
529.718	148.69
529.933	120.69
530.148	95.69
530.363	86.69
530.577	78.69
530.792	83.69
531.007	87.69
531.221	76.69
531.436	86.69
531.651	86.69
531.865	83.69
532.08	72.69
532.295	85.69
532.509	89.69
532.724	71.69
532.938	91.69
533.153	99.69
533.367	110.69
533.582	132.69
533.796	122.69
534.011	132.69
534.225	101.69
534.44	88.69
534.654	85.69
534.868	84.69
535.083	99.69
535.297	103.69
535.511	112.69
535.726	116.69
535.94	111.69
536.154	84.69
536.369	78.69
536.583	84.69
536.797	65.69
537.011	70.69
537.225	92.69
537.44	95.69
537.654	101.69
537.868	92.69
538.082	97.69
538.296	95.69
538.51	103.69
538.724	122.69
538.938	113.69
539.153	111.69
539.367	120.69
539.581	94.69
539.795	102.69
540.009	96.69
540.222	99.69
540.436	118.69
540.65	114.69
540.864	128.69
541.078	139.69
541.292	135.69
541.506	145.69
541.72	176.69
541.934	196.69
542.147	209.69
542.361	187.69
542.575	164.69
542.789	152.69
543.002	139.69
543.216	138.69
543.43	132.69
543.644	136.69
543.857	141.69
544.071	155.69
544.285	157.69
544.498	165.69
544.712	160.69
544.925	154.69
545.139	143.69
545.352	149.69
545.566	156.69
545.779	154.69
545.993	163.69
546.206	176.69
546.42	171.69
546.633	154.69
546.847	166.69
547.06	174.69
547.274	168.69
547.487	165.69
547.7	165.69
547.914	167.69
548.127	160.69
548.34	165.69
548.554	149.69
548.767	159.69
548.98	164.69
549.193	153.69
549.407	164.69
549.62	149.69
549.833	146.69
550.046	148.69
550.259	155.69
550.473	162.69
550.686	161.69
550.899	149.69
551.112	154.69
551.325	152.69
551.538	128.69
551.751	134.69
551.964	112.69
552.177	127.69
552.39	150.69
552.603	149.69
552.816	148.69
553.029	158.69
553.242	157.69
553.455	164.69
553.667	154.69
553.88	153.69
554.093	154.69
554.306	151.69
554.519	155.69
554.732	144.69
554.944	150.69
555.157	159.69
555.37	147.69
555.583	139.69
555.795	157.69
556.008	122.69
556.221	142.69
556.433	139.69
556.646	147.69
556.859	142.69
557.071	140.69
557.284	143.69
557.496	145.69
557.709	123.69
557.921	144.69
558.134	146.69
558.346	145.69
558.559	130.69
558.771	118.69
558.984	144.69
559.196	126.69
559.409	119.69
559.621	116.69
559.833	129.69
560.046	126.69
560.258	130.69
560.47	132.69
560.683	132.69
560.895	114.69
561.107	117.69
561.32	135.69
561.532	118.69
561.744	128.69
561.956	132.69
562.168	139.69
562.381	121.69
562.593	128.69
562.805	128.69
563.017	123.69
563.229	112.69
563.441	134.69
563.653	128.69
563.865	110.69
564.077	119.69
564.289	116.69
564.501	110.69
564.713	107.69
564.925	120.69
565.137	119.69
565.349	109.69
565.561	121.69
565.773	119.69
565.985	125.69
566.197	128.69
566.408	113.69
566.62	107.69
566.832	113.69
567.044	119.69
567.255	123.69
567.467	111.69
567.679	117.69
567.891	100.69
568.102	90.69
568.314	114.69
568.526	87.69
568.737	98.69
568.949	94.69
569.161	71.69
569.372	75.69
569.584	70.69
569.795	85.69
570.007	76.69
570.218	70.69
570.43	84.69
570.641	78.69
570.853	85.69
571.064	104.69
571.276	111.69
571.487	113.69
571.698	97.69
571.91	111.69
572.121	103.69
572.333	104.69
572.544	85.69
572.755	78.69
572.966	90.69
573.178	87.69
573.389	80.69
573.6	71.69
573.811	90.69
574.023	82.69
574.234	87.69
574.445	76.69
574.656	80.69
574.867	86.69
575.078	98.69
575.289	97.69
575.501	95.69
575.712	100.69
575.923	91.69
576.134	86.69
576.345	93.69
576.556	94.69
576.767	105.69
576.978	93.69
577.188	99.69
577.399	91.69
577.61	89.69
577.821	86.69
578.032	87.69
578.243	93.69
578.454	87.69
578.665	89.69
578.875	90.69
579.086	74.69
579.297	88.69
579.508	75.69
579.718	80.69
579.929	86.69
580.14	72.69
580.35	66.69
580.561	72.69
580.772	81.69
580.982	106.69
581.193	93.69
581.403	83.69
581.614	68.69
581.825	78.69
582.035	90.69
582.246	95.69
582.456	89.69
582.667	71.69
582.877	84.69
583.087	83.69
583.298	97.69
583.508	91.69
583.719	75.69
583.929	81.69
584.139	81.69
584.35	75.69
584.56	72.69
584.77	85.69
584.981	80.69
585.191	81.69
585.401	87.69
585.611	81.69
585.821	83.69
586.032	70.69
586.242	84.69
586.452	69.69
586.662	75.69
586.872	73.69
587.082	63.69
587.292	83.69
587.502	91.69
587.713	75.69
587.923	76.69
588.133	82.69
588.343	80.69
588.553	79.69
588.762	83.69
588.972	76.69
589.182	93.69
589.392	78.69
589.602	88.69
589.812	70.69
590.022	83.69
590.232	95.69
590.441	75.69
590.651	87.69
590.861	86.69
591.071	80.69
591.281	66.69
591.49	81.69
591.7	77.69
591.91	84.69
592.119	84.69
592.329	74.69
592.539	90.69
592.748	80.69
592.958	90.69
593.167	81.69
593.377	66.69
593.587	76.69
593.796	81.69
594.006	74.69
594.215	80.69
594.424	87.69
594.634	103.69
594.843	97.69
595.053	79.69
595.262	79.69
595.472	100.69
595.681	101.69
595.89	85.69
596.1	82.69
596.309	99.69
596.518	84.69
596.727	100.69
596.937	107.69
597.146	90.69
597.355	81.69
597.564	103.69
597.774	78.69
597.983	82.69
598.192	85.69
598.401	90.69
598.61	92.69
598.819	95.69
599.028	93.69
599.237	86.69
599.446	101.69
599.655	89.69
599.864	93.69
600.073	82.69
600.282	91.69
600.491	81.69
600.7	83.69
600.909	98.69
601.118	100.69
601.327	103.69
601.536	99.69
601.745	102.69
601.953	97.69
602.162	105.69
602.371	107.69
602.58	93.69
602.789	108.69
602.997	106.69
603.206	107.69
603.415	96.69
603.623	102.69
603.832	122.69
604.041	99.69
604.249	97.69
604.458	109.69
604.666	112.69
604.875	110.69
605.084	113.69
605.292	109.69
605.501	103.69
605.709	116.69
605.918	112.69
606.126	110.69
606.334	110.69
606.543	111.69
606.751	111.69
606.96	120.69
607.168	116.69
607.376	108.69
607.585	112.69
607.793	102.69
608.001	108.69
608.21	120.69
608.418	111.69
608.626	102.69
608.834	116.69
609.043	104.69
609.251	123.69
609.459	114.69
609.667	128.69
609.875	129.69
610.083	109.69
610.291	118.69
610.499	111.69
610.707	115.69
610.916	117.69
611.124	111.69
611.332	113.69
611.54	108.69
611.748	115.69
611.955	94.69
612.163	109.69
612.371	125.69
612.579	96.69
612.787	124.69
612.995	111.69
613.203	109.69
613.411	114.69
613.618	106.69
613.826	98.69
614.034	112.69
614.242	110.69
614.449	112.69
614.657	121.69
614.865	123.69
615.072	126.69
615.28	108.69
615.488	119.69
615.695	108.69
615.903	106.69
616.111	108.69
616.318	110.69
616.526	118.69
616.733	116.69
616.941	116.69
617.148	112.69
617.356	95.69
617.563	109.69
617.771	123.69
617.978	102.69
618.185	116.69
618.393	114.69
618.6	119.69
618.807	110.69
619.015	116.69
619.222	110.69
619.429	94.69
619.637	122.69
619.844	99.69
620.051	111.69
620.258	90.69
620.466	108.69
620.673	102.69
620.88	111.69
621.087	110.69
621.294	120.69
621.501	97.69
621.708	100.69
621.915	114.69
622.122	111.69
622.329	101.69
622.536	98.69
622.743	100.69
622.95	113.69
623.157	97.69
623.364	96.69
623.571	106.69
623.778	115.69
623.985	104.69
624.192	116.69
624.399	110.69
624.606	103.69
624.812	106.69
625.019	118.69
625.226	104.69
625.433	100.69
625.639	100.69
625.846	86.69
626.053	86.69
626.259	81.69
626.466	89.69
626.673	87.69
626.879	80.69
627.086	101.69
627.293	110.69
627.499	112.69
627.706	113.69
627.912	98.69
628.119	107.69
628.325	118.69
628.532	88.69
628.738	95.69
628.945	118.69
629.151	99.69
629.357	108.69
629.564	113.69
629.77	102.69
629.976	93.69
630.183	94.69
630.389	88.69
630.595	110.69
630.802	110.69
631.008	88.69
631.214	110.69
631.42	86.69
631.627	102.69
631.833	76.69
632.039	80.69
632.245	88.69
632.451	96.69
632.657	99.69
632.863	101.69
633.069	115.69
633.275	98.69
633.481	104.69
633.688	113.69
633.893	88.69
634.099	99.69
634.305	91.69
634.511	98.69
634.717	88.69
634.923	84.69
635.129	98.69
635.335	87.69
635.541	97.69
635.747	97.69
635.952	116.69
636.158	83.69
636.364	91.69
636.57	102.69
636.775	102.69
636.981	92.69
637.187	95.69
637.392	106.69
637.598	96.69
637.804	100.69
638.009	103.69
638.215	110.69
638.421	110.69
638.626	115.69
638.832	109.69
639.037	88.69
639.243	106.69
639.448	85.69
639.654	98.69
639.859	89.69
640.065	84.69
640.27	109.69
640.475	107.69
640.681	95.69
640.886	93.69
641.091	113.69
641.297	111.69
641.502	113.69
641.707	93.69
641.913	116.69
642.118	93.69
642.323	102.69
642.528	107.69
642.733	102.69
642.939	91.69
643.144	96.69
643.349	96.69
643.554	100.69
643.759	90.69
643.964	92.69
644.169	85.69
644.374	82.69
644.579	83.69
644.784	111.69
644.989	98.69
645.194	96.69
645.399	102.69
645.604	86.69
645.809	102.69
646.014	93.69
646.219	92.69
646.423	105.69
646.628	98.69
646.833	93.69
647.038	95.69
647.243	107.69
647.447	100.69
647.652	89.69
647.857	100.69
648.062	91.69
648.266	88.69
648.471	98.69
648.676	97.69
648.88	86.69
649.085	82.69
649.289	99.69
649.494	102.69
649.698	90.69
649.903	95.69
650.107	91.69
650.312	91.69
650.516	90.69
650.721	89.69
650.925	87.69
651.13	82.69
651.334	99.69
651.539	95.69
651.743	84.69
651.947	90.69
652.152	100.69
652.356	87.69
652.56	91.69
652.764	97.69
652.969	93.69
653.173	93.69
653.377	83.69
653.581	102.69
653.785	92.69
653.99	82.69
654.194	83.69
654.398	99.69
654.602	89.69
654.806	86.69
655.01	82.69
655.214	84.69
655.418	84.69
655.622	96.69
655.826	79.69
656.03	86.69
656.234	82.69
656.438	72.69
656.642	86.69
656.846	87.69
657.049	77.69
657.253	76.69
657.457	75.69
657.661	101.69
657.865	77.69
658.068	86.69
658.272	87.69
658.476	84.69
658.68	83.69
658.883	75.69
659.087	79.69
659.291	74.69
659.494	93.69
659.698	80.69
659.901	83.69
660.105	75.69
660.309	91.69
660.512	77.69
660.716	82.69
660.919	70.69
661.123	78.69
661.326	80.69
661.53	79.69
661.733	79.69
661.936	82.69
662.14	87.69
662.343	81.69
662.546	70.69
662.75	79.69
662.953	89.69
663.156	88.69
663.36	78.69
663.563	96.69
663.766	75.69
663.969	81.69
664.173	88.69
664.376	57.69
664.579	67.69
664.782	80.69
664.985	92.69
665.188	74.69
665.391	76.69
665.594	73.69
665.797	80.69
666	76.69
666.203	85.69
666.406	82.69
666.609	78.69
666.812	88.69
667.015	91.69
667.218	78.69
667.421	80.69
667.624	83.69
667.827	65.69
668.03	82.69
668.232	97.69
668.435	76.69
668.638	76.69
668.841	96.69
669.043	83.69
669.246	83.69
669.449	80.69
669.651	75.69
669.854	91.69
670.057	73.69
670.259	66.69
670.462	98.69
670.665	71.69
670.867	80.69
671.07	76.69
671.272	84.69
671.475	82.69
671.677	81.69
671.88	80.69
672.082	86.69
672.284	79.69
672.487	79.69
672.689	81.69
672.892	80.69
