Data from Location6.07152019.Energy5.Lamp.07192019.3%Agarose_HRD10591_16-12-28-395.txt Node
Date: Fri Jul 19 16:12:28 EDT 2019
User: cochatt
Spectrometer: HR+D1059
Trigger mode: 1
Integration Time (sec): 1.000000E-1
Scans to average: 1
Electric dark correction enabled: true
Nonlinearity correction enabled: false
Boxcar width: 0
XAxis mode: Wavelengths
Number of Pixels in Spectrum: 2048
>>>>>Begin Spectral Data<<<<<
223.165	-1.31
223.4	-1.31
223.635	-1.31
223.869	-24.31
224.104	-23.31
224.338	-9.31
224.573	-15.31
224.808	-25.31
225.042	-5.31
225.277	-9.31
225.511	-2.31
225.746	-0.31
225.98	4.69
226.215	18.69
226.449	21.69
226.683	15.69
226.918	29.69
227.152	25.69
227.387	36.69
227.621	44.69
227.856	40.69
228.09	44.69
228.324	42.69
228.559	47.69
228.793	66.69
229.027	71.69
229.262	54.69
229.496	63.69
229.73	65.69
229.964	73.69
230.199	79.69
230.433	67.69
230.667	73.69
230.901	77.69
231.136	87.69
231.37	80.69
231.604	81.69
231.838	80.69
232.072	82.69
232.306	79.69
232.541	67.69
232.775	85.69
233.009	76.69
233.243	87.69
233.477	85.69
233.711	79.69
233.945	77.69
234.179	81.69
234.413	84.69
234.647	75.69
234.881	85.69
235.115	77.69
235.349	78.69
235.583	81.69
235.817	75.69
236.051	80.69
236.285	90.69
236.519	84.69
236.753	66.69
236.987	86.69
237.221	68.69
237.455	65.69
237.689	89.69
237.922	78.69
238.156	75.69
238.39	85.69
238.624	68.69
238.858	88.69
239.091	75.69
239.325	91.69
239.559	90.69
239.793	78.69
240.027	81.69
240.26	65.69
240.494	72.69
240.728	72.69
240.961	78.69
241.195	75.69
241.429	73.69
241.662	77.69
241.896	73.69
242.13	78.69
242.363	83.69
242.597	74.69
242.83	82.69
243.064	75.69
243.298	74.69
243.531	78.69
243.765	85.69
243.998	80.69
244.232	95.69
244.465	76.69
244.699	69.69
244.932	73.69
245.166	70.69
245.399	84.69
245.633	67.69
245.866	79.69
246.099	77.69
246.333	77.69
246.566	75.69
246.8	90.69
247.033	71.69
247.266	66.69
247.5	65.69
247.733	84.69
247.966	86.69
248.2	88.69
248.433	95.69
248.666	72.69
248.899	77.69
249.133	79.69
249.366	82.69
249.599	86.69
249.832	67.69
250.066	73.69
250.299	75.69
250.532	86.69
250.765	82.69
250.998	68.69
251.231	72.69
251.465	75.69
251.698	81.69
251.931	71.69
252.164	82.69
252.397	72.69
252.63	82.69
252.863	73.69
253.096	84.69
253.329	93.69
253.562	81.69
253.795	74.69
254.028	71.69
254.261	77.69
254.494	73.69
254.727	79.69
254.96	91.69
255.193	73.69
255.426	76.69
255.659	82.69
255.892	73.69
256.124	79.69
256.357	88.69
256.59	75.69
256.823	85.69
257.056	77.69
257.289	73.69
257.521	84.69
257.754	89.69
257.987	69.69
258.22	87.69
258.452	87.69
258.685	73.69
258.918	72.69
259.151	66.69
259.383	87.69
259.616	78.69
259.849	74.69
260.081	71.69
260.314	83.69
260.547	76.69
260.779	85.69
261.012	73.69
261.244	96.69
261.477	81.69
261.71	86.69
261.942	79.69
262.175	84.69
262.407	82.69
262.64	82.69
262.872	64.69
263.105	79.69
263.337	84.69
263.57	85.69
263.802	66.69
264.035	75.69
264.267	74.69
264.499	87.69
264.732	76.69
264.964	86.69
265.197	85.69
265.429	79.69
265.661	82.69
265.894	79.69
266.126	75.69
266.358	84.69
266.591	89.69
266.823	85.69
267.055	77.69
267.287	90.69
267.52	88.69
267.752	86.69
267.984	87.69
268.216	80.69
268.448	88.69
268.681	87.69
268.913	84.69
269.145	82.69
269.377	80.69
269.609	79.69
269.841	89.69
270.073	83.69
270.306	71.69
270.538	93.69
270.77	79.69
271.002	76.69
271.234	80.69
271.466	80.69
271.698	83.69
271.93	87.69
272.162	80.69
272.394	82.69
272.626	80.69
272.858	83.69
273.09	84.69
273.322	77.69
273.553	84.69
273.785	92.69
274.017	75.69
274.249	66.69
274.481	97.69
274.713	77.69
274.945	81.69
275.176	88.69
275.408	80.69
275.64	84.69
275.872	84.69
276.104	80.69
276.335	88.69
276.567	67.69
276.799	72.69
277.031	76.69
277.262	92.69
277.494	84.69
277.726	85.69
277.957	74.69
278.189	92.69
278.421	86.69
278.652	89.69
278.884	88.69
279.115	85.69
279.347	71.69
279.579	78.69
279.81	81.69
280.042	85.69
280.273	97.69
280.505	90.69
280.736	94.69
280.968	76.69
281.199	99.69
281.431	79.69
281.662	88.69
281.894	81.69
282.125	73.69
282.356	86.69
282.588	86.69
282.819	79.69
283.051	85.69
283.282	92.69
283.513	84.69
283.745	90.69
283.976	80.69
284.207	82.69
284.439	81.69
284.67	82.69
284.901	82.69
285.132	85.69
285.364	75.69
285.595	85.69
285.826	94.69
286.057	75.69
286.288	75.69
286.52	74.69
286.751	78.69
286.982	89.69
287.213	83.69
287.444	88.69
287.675	71.69
287.906	88.69
288.138	86.69
288.369	97.69
288.6	96.69
288.831	73.69
289.062	77.69
289.293	103.69
289.524	98.69
289.755	82.69
289.986	78.69
290.217	75.69
290.448	81.69
290.679	94.69
290.91	77.69
291.141	94.69
291.371	82.69
291.602	88.69
291.833	74.69
292.064	92.69
292.295	97.69
292.526	82.69
292.757	85.69
292.987	77.69
293.218	89.69
293.449	83.69
293.68	79.69
293.91	91.69
294.141	83.69
294.372	89.69
294.603	82.69
294.833	71.69
295.064	79.69
295.295	90.69
295.525	88.69
295.756	88.69
295.987	71.69
296.217	87.69
296.448	74.69
296.679	74.69
296.909	89.69
297.14	90.69
297.37	75.69
297.601	91.69
297.831	85.69
298.062	77.69
298.292	81.69
298.523	73.69
298.753	80.69
298.984	79.69
299.214	72.69
299.445	74.69
299.675	86.69
299.905	76.69
300.136	85.69
300.366	84.69
300.597	89.69
300.827	86.69
301.057	97.69
301.288	85.69
301.518	83.69
301.748	81.69
301.979	77.69
302.209	95.69
302.439	73.69
302.669	88.69
302.9	68.69
303.13	80.69
303.36	86.69
303.59	86.69
303.82	72.69
304.051	64.69
304.281	78.69
304.511	74.69
304.741	85.69
304.971	77.69
305.201	80.69
305.431	77.69
305.661	82.69
305.891	86.69
306.121	76.69
306.352	78.69
306.582	73.69
306.812	91.69
307.042	89.69
307.272	90.69
307.502	104.69
307.731	80.69
307.961	87.69
308.191	84.69
308.421	79.69
308.651	83.69
308.881	76.69
309.111	80.69
309.341	65.69
309.571	66.69
309.8	94.69
310.03	85.69
310.26	83.69
310.49	100.69
310.72	93.69
310.949	79.69
311.179	88.69
311.409	89.69
311.639	89.69
311.868	89.69
312.098	102.69
312.328	92.69
312.557	80.69
312.787	82.69
313.017	92.69
313.246	80.69
313.476	86.69
313.706	92.69
313.935	78.69
314.165	88.69
314.394	87.69
314.624	80.69
314.853	80.69
315.083	76.69
315.312	86.69
315.542	94.69
315.771	79.69
316.001	93.69
316.23	86.69
316.46	89.69
316.689	96.69
316.919	79.69
317.148	82.69
317.377	88.69
317.607	90.69
317.836	87.69
318.065	83.69
318.295	74.69
318.524	94.69
318.753	87.69
318.983	75.69
319.212	89.69
319.441	90.69
319.67	88.69
319.9	83.69
320.129	89.69
320.358	67.69
320.587	85.69
320.816	89.69
321.046	88.69
321.275	83.69
321.504	66.69
321.733	78.69
321.962	83.69
322.191	74.69
322.42	70.69
322.649	90.69
322.878	83.69
323.108	85.69
323.337	66.69
323.566	78.69
323.795	99.69
324.024	70.69
324.253	90.69
324.482	73.69
324.71	72.69
324.939	85.69
325.168	85.69
325.397	82.69
325.626	79.69
325.855	84.69
326.084	96.69
326.313	79.69
326.542	79.69
326.77	92.69
326.999	82.69
327.228	83.69
327.457	86.69
327.686	88.69
327.914	81.69
328.143	78.69
328.372	73.69
328.6	72.69
328.829	73.69
329.058	87.69
329.287	83.69
329.515	79.69
329.744	82.69
329.972	85.69
330.201	85.69
330.43	88.69
330.658	94.69
330.887	89.69
331.115	88.69
331.344	96.69
331.572	86.69
331.801	75.69
332.03	74.69
332.258	82.69
332.486	92.69
332.715	82.69
332.943	73.69
333.172	70.69
333.4	73.69
333.629	72.69
333.857	95.69
334.085	77.69
334.314	81.69
334.542	78.69
334.771	70.69
334.999	82.69
335.227	86.69
335.455	77.69
335.684	80.69
335.912	80.69
336.14	89.69
336.369	79.69
336.597	86.69
336.825	94.69
337.053	74.69
337.281	79.69
337.51	81.69
337.738	80.69
337.966	69.69
338.194	71.69
338.422	81.69
338.65	76.69
338.878	85.69
339.106	83.69
339.334	83.69
339.562	84.69
339.79	86.69
340.018	88.69
340.246	81.69
340.474	78.69
340.702	95.69
340.93	81.69
341.158	93.69
341.386	75.69
341.614	73.69
341.842	88.69
342.07	86.69
342.298	71.69
342.526	76.69
342.754	95.69
342.981	74.69
343.209	68.69
343.437	78.69
343.665	87.69
343.893	80.69
344.12	81.69
344.348	80.69
344.576	75.69
344.804	74.69
345.031	86.69
345.259	72.69
345.487	89.69
345.714	76.69
345.942	77.69
346.17	82.69
346.397	89.69
346.625	74.69
346.853	76.69
347.08	85.69
347.308	75.69
347.535	79.69
347.763	93.69
347.99	89.69
348.218	68.69
348.445	89.69
348.673	80.69
348.9	87.69
349.128	100.69
349.355	72.69
349.583	79.69
349.81	75.69
350.037	73.69
350.265	94.69
350.492	89.69
350.72	73.69
350.947	89.69
351.174	81.69
351.402	81.69
351.629	82.69
351.856	70.69
352.083	82.69
352.311	69.69
352.538	77.69
352.765	93.69
352.992	92.69
353.22	81.69
353.447	78.69
353.674	81.69
353.901	79.69
354.128	79.69
354.355	81.69
354.583	82.69
354.81	89.69
355.037	70.69
355.264	85.69
355.491	84.69
355.718	86.69
355.945	80.69
356.172	84.69
356.399	84.69
356.626	101.69
356.853	82.69
357.08	86.69
357.307	85.69
357.534	73.69
357.761	102.69
357.988	82.69
358.215	83.69
358.441	71.69
358.668	92.69
358.895	78.69
359.122	97.69
359.349	75.69
359.576	75.69
359.802	75.69
360.029	88.69
360.256	84.69
360.483	74.69
360.709	76.69
360.936	75.69
361.163	77.69
361.39	75.69
361.616	90.69
361.843	87.69
362.07	84.69
362.296	88.69
362.523	78.69
362.749	81.69
362.976	74.69
363.203	98.69
363.429	85.69
363.656	74.69
363.882	78.69
364.109	84.69
364.335	89.69
364.562	85.69
364.788	89.69
365.015	86.69
365.241	81.69
365.468	82.69
365.694	94.69
365.92	96.69
366.147	82.69
366.373	80.69
366.599	95.69
366.826	92.69
367.052	93.69
367.278	90.69
367.505	94.69
367.731	80.69
367.957	83.69
368.184	93.69
368.41	92.69
368.636	89.69
368.862	88.69
369.089	110.69
369.315	98.69
369.541	112.69
369.767	77.69
369.993	82.69
370.219	94.69
370.445	81.69
370.672	93.69
370.898	87.69
371.124	77.69
371.35	77.69
371.576	96.69
371.802	97.69
372.028	92.69
372.254	73.69
372.48	103.69
372.706	99.69
372.932	92.69
373.158	85.69
373.384	84.69
373.61	97.69
373.835	102.69
374.061	95.69
374.287	96.69
374.513	85.69
374.739	95.69
374.965	97.69
375.191	84.69
375.416	85.69
375.642	93.69
375.868	94.69
376.094	89.69
376.319	91.69
376.545	81.69
376.771	94.69
376.997	98.69
377.222	96.69
377.448	93.69
377.674	89.69
377.899	105.69
378.125	86.69
378.35	93.69
378.576	102.69
378.802	110.69
379.027	94.69
379.253	97.69
379.478	93.69
379.704	100.69
379.929	94.69
380.155	104.69
380.38	102.69
380.606	93.69
380.831	90.69
381.057	92.69
381.282	88.69
381.507	88.69
381.733	92.69
381.958	99.69
382.184	79.69
382.409	107.69
382.634	102.69
382.86	94.69
383.085	81.69
383.31	94.69
383.535	82.69
383.761	94.69
383.986	100.69
384.211	98.69
384.436	90.69
384.662	106.69
384.887	108.69
385.112	105.69
385.337	100.69
385.562	91.69
385.787	89.69
386.013	118.69
386.238	98.69
386.463	102.69
386.688	109.69
386.913	86.69
387.138	96.69
387.363	105.69
387.588	100.69
387.813	91.69
388.038	95.69
388.263	93.69
388.488	99.69
388.713	101.69
388.938	115.69
389.163	110.69
389.387	101.69
389.612	101.69
389.837	97.69
390.062	113.69
390.287	108.69
390.512	99.69
390.736	103.69
390.961	95.69
391.186	104.69
391.411	111.69
391.636	105.69
391.86	100.69
392.085	108.69
392.31	104.69
392.534	108.69
392.759	102.69
392.984	94.69
393.208	95.69
393.433	103.69
393.658	102.69
393.882	93.69
394.107	94.69
394.331	127.69
394.556	102.69
394.78	97.69
395.005	108.69
395.229	116.69
395.454	112.69
395.678	108.69
395.903	100.69
396.127	106.69
396.352	97.69
396.576	103.69
396.801	108.69
397.025	110.69
397.249	109.69
397.474	105.69
397.698	96.69
397.922	103.69
398.147	120.69
398.371	105.69
398.595	103.69
398.82	109.69
399.044	102.69
399.268	112.69
399.492	106.69
399.717	114.69
399.941	123.69
400.165	98.69
400.389	114.69
400.613	110.69
400.837	103.69
401.062	112.69
401.286	107.69
401.51	97.69
401.734	99.69
401.958	117.69
402.182	110.69
402.406	106.69
402.63	117.69
402.854	99.69
403.078	107.69
403.302	107.69
403.526	125.69
403.75	132.69
403.974	124.69
404.198	118.69
404.422	116.69
404.645	117.69
404.869	117.69
405.093	129.69
405.317	100.69
405.541	110.69
405.765	110.69
405.988	121.69
406.212	116.69
406.436	105.69
406.66	113.69
406.883	118.69
407.107	112.69
407.331	112.69
407.555	110.69
407.778	127.69
408.002	126.69
408.226	120.69
408.449	119.69
408.673	122.69
408.896	124.69
409.12	129.69
409.344	124.69
409.567	127.69
409.791	122.69
410.014	124.69
410.238	119.69
410.461	119.69
410.685	131.69
410.908	122.69
411.132	130.69
411.355	125.69
411.578	113.69
411.802	124.69
412.025	113.69
412.249	125.69
412.472	130.69
412.695	119.69
412.919	125.69
413.142	119.69
413.365	116.69
413.589	133.69
413.812	121.69
414.035	124.69
414.258	111.69
414.482	124.69
414.705	122.69
414.928	111.69
415.151	118.69
415.374	122.69
415.597	122.69
415.821	132.69
416.044	125.69
416.267	132.69
416.49	149.69
416.713	126.69
416.936	110.69
417.159	137.69
417.382	112.69
417.605	136.69
417.828	128.69
418.051	133.69
418.274	112.69
418.497	136.69
418.72	142.69
418.943	126.69
419.166	135.69
419.389	118.69
419.611	118.69
419.834	123.69
420.057	136.69
420.28	137.69
420.503	127.69
420.726	149.69
420.948	130.69
421.171	135.69
421.394	133.69
421.617	159.69
421.839	154.69
422.062	148.69
422.285	136.69
422.507	121.69
422.73	129.69
422.953	134.69
423.175	121.69
423.398	144.69
423.621	133.69
423.843	126.69
424.066	147.69
424.288	146.69
424.511	136.69
424.733	142.69
424.956	149.69
425.178	147.69
425.401	153.69
425.623	138.69
425.846	146.69
426.068	142.69
426.291	126.69
426.513	133.69
426.735	137.69
426.958	149.69
427.18	133.69
427.402	144.69
427.625	129.69
427.847	128.69
428.069	135.69
428.292	122.69
428.514	128.69
428.736	132.69
428.958	138.69
429.181	137.69
429.403	126.69
429.625	138.69
429.847	127.69
430.069	137.69
430.292	139.69
430.514	124.69
430.736	123.69
430.958	127.69
431.18	138.69
431.402	121.69
431.624	127.69
431.846	103.69
432.068	100.69
432.29	90.69
432.512	126.69
432.734	135.69
432.956	130.69
433.178	134.69
433.4	152.69
433.622	142.69
433.844	147.69
434.066	125.69
434.287	104.69
434.509	98.69
434.731	105.69
434.953	97.69
435.175	131.69
435.397	128.69
435.618	127.69
435.84	112.69
436.062	121.69
436.284	128.69
436.505	121.69
436.727	136.69
436.949	120.69
437.17	139.69
437.392	128.69
437.614	126.69
437.835	106.69
438.057	113.69
438.278	88.69
438.5	134.69
438.721	129.69
438.943	132.69
439.165	138.69
439.386	138.69
439.608	147.69
439.829	147.69
440.05	148.69
440.272	139.69
440.493	152.69
440.715	140.69
440.936	151.69
441.158	134.69
441.379	161.69
441.6	153.69
441.822	153.69
442.043	151.69
442.264	138.69
442.486	163.69
442.707	138.69
442.928	134.69
443.149	159.69
443.371	128.69
443.592	129.69
443.813	154.69
444.034	141.69
444.255	139.69
444.476	138.69
444.698	133.69
444.919	143.69
445.14	258.69
445.361	199.69
445.582	161.69
445.803	159.69
446.024	166.69
446.245	159.69
446.466	141.69
446.687	164.69
446.908	149.69
447.129	160.69
447.35	160.69
447.571	160.69
447.792	150.69
448.013	137.69
448.234	142.69
448.455	136.69
448.675	136.69
448.896	139.69
449.117	120.69
449.338	127.69
449.559	129.69
449.779	132.69
450	144.69
450.221	144.69
450.442	136.69
450.662	134.69
450.883	138.69
451.104	141.69
451.324	138.69
451.545	142.69
451.766	139.69
451.986	135.69
452.207	140.69
452.428	119.69
452.648	124.69
452.869	117.69
453.089	124.69
453.31	117.69
453.53	114.69
453.751	101.69
453.971	108.69
454.192	104.69
454.412	115.69
454.633	116.69
454.853	115.69
455.073	129.69
455.294	119.69
455.514	138.69
455.734	115.69
455.955	129.69
456.175	119.69
456.395	118.69
456.616	114.69
456.836	109.69
457.056	112.69
457.276	114.69
457.497	114.69
457.717	103.69
457.937	116.69
458.157	98.69
458.377	103.69
458.598	112.69
458.818	97.69
459.038	84.69
459.258	94.69
459.478	91.69
459.698	79.69
459.918	98.69
460.138	108.69
460.358	106.69
460.578	116.69
460.798	124.69
461.018	122.69
461.238	130.69
461.458	138.69
461.678	112.69
461.898	116.69
462.118	99.69
462.338	110.69
462.558	117.69
462.777	104.69
462.997	112.69
463.217	103.69
463.437	118.69
463.657	101.69
463.876	100.69
464.096	118.69
464.316	102.69
464.536	115.69
464.755	123.69
464.975	115.69
465.195	122.69
465.414	136.69
465.634	120.69
465.854	123.69
466.073	112.69
466.293	128.69
466.512	108.69
466.732	133.69
466.951	139.69
467.171	127.69
467.391	131.69
467.61	132.69
467.829	150.69
468.049	145.69
468.268	138.69
468.488	134.69
468.707	139.69
468.927	144.69
469.146	121.69
469.365	133.69
469.585	136.69
469.804	149.69
470.023	136.69
470.243	146.69
470.462	144.69
470.681	150.69
470.901	143.69
471.12	147.69
471.339	140.69
471.558	120.69
471.777	123.69
471.997	124.69
472.216	133.69
472.435	126.69
472.654	112.69
472.873	114.69
473.092	97.69
473.311	121.69
473.53	123.69
473.749	130.69
473.968	127.69
474.187	134.69
474.406	113.69
474.625	128.69
474.844	142.69
475.063	124.69
475.282	122.69
475.501	120.69
475.72	131.69
475.939	121.69
476.158	114.69
476.377	120.69
476.596	118.69
476.814	119.69
477.033	126.69
477.252	123.69
477.471	124.69
477.69	143.69
477.908	156.69
478.127	151.69
478.346	134.69
478.564	134.69
478.783	114.69
479.002	144.69
479.22	138.69
479.439	130.69
479.658	111.69
479.876	123.69
480.095	120.69
480.313	118.69
480.532	116.69
480.751	123.69
480.969	101.69
481.188	91.69
481.406	103.69
481.624	99.69
481.843	90.69
482.061	93.69
482.28	108.69
482.498	112.69
482.717	103.69
482.935	124.69
483.153	159.69
483.372	150.69
483.59	166.69
483.808	143.69
484.027	128.69
484.245	145.69
484.463	154.69
484.681	170.69
484.9	157.69
485.118	138.69
485.336	137.69
485.554	109.69
485.772	102.69
485.99	99.69
486.209	122.69
486.427	128.69
486.645	125.69
486.863	149.69
487.081	137.69
487.299	150.69
487.517	144.69
487.735	166.69
487.953	196.69
488.171	184.69
488.389	169.69
488.607	152.69
488.825	153.69
489.043	142.69
489.261	114.69
489.479	153.69
489.696	160.69
489.914	137.69
490.132	152.69
490.35	165.69
490.568	166.69
490.786	189.69
491.003	186.69
491.221	185.69
491.439	192.69
491.657	206.69
491.874	212.69
492.092	232.69
492.31	238.69
492.527	247.69
492.745	203.69
492.963	189.69
493.18	206.69
493.398	201.69
493.615	179.69
493.833	178.69
494.05	172.69
494.268	188.69
494.485	177.69
494.703	183.69
494.92	172.69
495.138	185.69
495.355	172.69
495.573	180.69
495.79	186.69
496.008	156.69
496.225	173.69
496.442	178.69
496.66	168.69
496.877	172.69
497.094	159.69
497.312	156.69
497.529	168.69
497.746	161.69
497.963	154.69
498.181	118.69
498.398	126.69
498.615	122.69
498.832	127.69
499.049	122.69
499.267	125.69
499.484	126.69
499.701	123.69
499.918	137.69
500.135	162.69
500.352	142.69
500.569	136.69
500.786	167.69
501.003	139.69
501.22	153.69
501.437	143.69
501.654	136.69
501.871	129.69
502.088	142.69
502.305	128.69
502.522	129.69
502.739	136.69
502.956	123.69
503.172	126.69
503.389	114.69
503.606	119.69
503.823	115.69
504.04	120.69
504.256	137.69
504.473	126.69
504.69	126.69
504.907	119.69
505.123	118.69
505.34	121.69
505.557	133.69
505.773	130.69
505.99	114.69
506.207	117.69
506.423	127.69
506.64	126.69
506.856	129.69
507.073	113.69
507.289	124.69
507.506	130.69
507.722	125.69
507.939	124.69
508.155	132.69
508.372	112.69
508.588	114.69
508.805	112.69
509.021	103.69
509.238	109.69
509.454	112.69
509.67	100.69
509.887	98.69
510.103	96.69
510.319	97.69
510.536	105.69
510.752	84.69
510.968	86.69
511.184	85.69
511.401	88.69
511.617	93.69
511.833	108.69
512.049	102.69
512.265	80.69
512.481	82.69
512.698	100.69
512.914	84.69
513.13	94.69
513.346	98.69
513.562	72.69
513.778	93.69
513.994	83.69
514.21	84.69
514.426	86.69
514.642	97.69
514.858	88.69
515.074	80.69
515.29	96.69
515.506	79.69
515.721	80.69
515.937	89.69
516.153	81.69
516.369	83.69
516.585	83.69
516.801	79.69
517.016	97.69
517.232	98.69
517.448	92.69
517.664	95.69
517.879	99.69
518.095	97.69
518.311	94.69
518.527	80.69
518.742	95.69
518.958	95.69
519.173	89.69
519.389	109.69
519.605	112.69
519.82	112.69
520.036	111.69
520.251	103.69
520.467	95.69
520.682	94.69
520.898	92.69
521.113	92.69
521.329	101.69
521.544	89.69
521.76	98.69
521.975	90.69
522.19	85.69
522.406	110.69
522.621	106.69
522.836	100.69
523.052	93.69
523.267	95.69
523.482	100.69
523.698	120.69
523.913	125.69
524.128	103.69
524.343	122.69
524.559	126.69
524.774	118.69
524.989	115.69
525.204	103.69
525.419	108.69
525.634	101.69
525.849	112.69
526.064	99.69
526.28	100.69
526.495	96.69
526.71	90.69
526.925	97.69
527.14	71.69
527.355	71.69
527.57	88.69
527.785	79.69
527.999	108.69
528.214	99.69
528.429	103.69
528.644	118.69
528.859	134.69
529.074	166.69
529.289	168.69
529.503	157.69
529.718	148.69
529.933	125.69
530.148	112.69
530.363	91.69
530.577	87.69
530.792	95.69
531.007	86.69
531.221	84.69
531.436	65.69
531.651	92.69
531.865	101.69
532.08	84.69
532.295	99.69
532.509	87.69
532.724	79.69
532.938	106.69
533.153	93.69
533.367	101.69
533.582	115.69
533.796	130.69
534.011	116.69
534.225	96.69
534.44	84.69
534.654	73.69
534.868	96.69
535.083	107.69
535.297	97.69
535.511	106.69
535.726	97.69
535.94	100.69
536.154	96.69
536.369	93.69
536.583	98.69
536.797	92.69
537.011	82.69
537.225	81.69
537.44	93.69
537.654	95.69
537.868	98.69
538.082	102.69
538.296	85.69
538.51	99.69
538.724	116.69
538.938	123.69
539.153	136.69
539.367	129.69
539.581	114.69
539.795	109.69
540.009	98.69
540.222	97.69
540.436	96.69
540.65	112.69
540.864	142.69
541.078	155.69
541.292	172.69
541.506	160.69
541.72	172.69
541.934	196.69
542.147	213.69
542.361	191.69
542.575	176.69
542.789	151.69
543.002	124.69
543.216	125.69
543.43	128.69
543.644	150.69
543.857	154.69
544.071	169.69
544.285	171.69
544.498	167.69
544.712	152.69
544.925	152.69
545.139	171.69
545.352	168.69
545.566	164.69
545.779	167.69
545.993	169.69
546.206	174.69
546.42	174.69
546.633	173.69
546.847	158.69
547.06	181.69
547.274	185.69
547.487	168.69
547.7	195.69
547.914	168.69
548.127	172.69
548.34	176.69
548.554	176.69
548.767	166.69
548.98	148.69
549.193	158.69
549.407	150.69
549.62	154.69
549.833	146.69
550.046	165.69
550.259	150.69
550.473	144.69
550.686	151.69
550.899	152.69
551.112	159.69
551.325	146.69
551.538	130.69
551.751	126.69
551.964	110.69
552.177	125.69
552.39	144.69
552.603	154.69
552.816	144.69
553.029	157.69
553.242	154.69
553.455	165.69
553.667	166.69
553.88	163.69
554.093	136.69
554.306	151.69
554.519	143.69
554.732	148.69
554.944	146.69
555.157	143.69
555.37	150.69
555.583	151.69
555.795	145.69
556.008	160.69
556.221	131.69
556.433	136.69
556.646	138.69
556.859	147.69
557.071	144.69
557.284	136.69
557.496	147.69
557.709	159.69
557.921	146.69
558.134	138.69
558.346	132.69
558.559	151.69
558.771	133.69
558.984	141.69
559.196	132.69
559.409	132.69
559.621	138.69
559.833	134.69
560.046	140.69
560.258	140.69
560.47	156.69
560.683	130.69
560.895	136.69
561.107	124.69
561.32	132.69
561.532	132.69
561.744	133.69
561.956	137.69
562.168	138.69
562.381	144.69
562.593	133.69
562.805	138.69
563.017	135.69
563.229	145.69
563.441	142.69
563.653	134.69
563.865	117.69
564.077	114.69
564.289	124.69
564.501	134.69
564.713	122.69
564.925	125.69
565.137	110.69
565.349	127.69
565.561	128.69
565.773	111.69
565.985	116.69
566.197	116.69
566.408	117.69
566.62	123.69
566.832	129.69
567.044	129.69
567.255	120.69
567.467	114.69
567.679	118.69
567.891	112.69
568.102	94.69
568.314	101.69
568.526	97.69
568.737	96.69
568.949	78.69
569.161	76.69
569.372	85.69
569.584	82.69
569.795	76.69
570.007	96.69
570.218	81.69
570.43	83.69
570.641	88.69
570.853	87.69
571.064	109.69
571.276	100.69
571.487	103.69
571.698	110.69
571.91	103.69
572.121	94.69
572.333	100.69
572.544	99.69
572.755	105.69
572.966	87.69
573.178	100.69
573.389	84.69
573.6	68.69
573.811	99.69
574.023	84.69
574.234	81.69
574.445	85.69
574.656	92.69
574.867	86.69
575.078	103.69
575.289	88.69
575.501	93.69
575.712	102.69
575.923	103.69
576.134	93.69
576.345	107.69
576.556	104.69
576.767	105.69
576.978	113.69
577.188	92.69
577.399	93.69
577.61	99.69
577.821	87.69
578.032	97.69
578.243	94.69
578.454	97.69
578.665	84.69
578.875	102.69
579.086	83.69
579.297	78.69
579.508	87.69
579.718	86.69
579.929	81.69
580.14	72.69
580.35	70.69
580.561	91.69
580.772	88.69
580.982	108.69
581.193	86.69
581.403	96.69
581.614	85.69
581.825	89.69
582.035	96.69
582.246	76.69
582.456	86.69
582.667	95.69
582.877	92.69
583.087	92.69
583.298	91.69
583.508	92.69
583.719	80.69
583.929	89.69
584.139	90.69
584.35	84.69
584.56	72.69
584.77	97.69
584.981	92.69
585.191	92.69
585.401	102.69
585.611	95.69
585.821	78.69
586.032	90.69
586.242	86.69
586.452	77.69
586.662	86.69
586.872	79.69
587.082	74.69
587.292	78.69
587.502	88.69
587.713	88.69
587.923	92.69
588.133	63.69
588.343	82.69
588.553	80.69
588.762	98.69
588.972	83.69
589.182	90.69
589.392	79.69
589.602	82.69
589.812	85.69
590.022	89.69
590.232	81.69
590.441	78.69
590.651	80.69
590.861	91.69
591.071	69.69
591.281	83.69
591.49	84.69
591.7	69.69
591.91	89.69
592.119	81.69
592.329	96.69
592.539	79.69
592.748	82.69
592.958	84.69
593.167	86.69
593.377	96.69
593.587	91.69
593.796	77.69
594.006	80.69
594.215	86.69
594.424	98.69
594.634	102.69
594.843	92.69
595.053	91.69
595.262	97.69
595.472	98.69
595.681	83.69
595.89	96.69
596.1	96.69
596.309	80.69
596.518	96.69
596.727	93.69
596.937	90.69
597.146	101.69
597.355	111.69
597.564	78.69
597.774	98.69
597.983	85.69
598.192	85.69
598.401	84.69
598.61	83.69
598.819	80.69
599.028	97.69
599.237	106.69
599.446	86.69
599.655	111.69
599.864	94.69
600.073	80.69
600.282	95.69
600.491	85.69
600.7	81.69
600.909	97.69
601.118	95.69
601.327	100.69
601.536	110.69
601.745	114.69
601.953	110.69
602.162	107.69
602.371	108.69
602.58	116.69
602.789	114.69
602.997	102.69
603.206	98.69
603.415	116.69
603.623	110.69
603.832	107.69
604.041	122.69
604.249	103.69
604.458	122.69
604.666	90.69
604.875	90.69
605.084	90.69
605.292	111.69
605.501	112.69
605.709	116.69
605.918	121.69
606.126	115.69
606.334	109.69
606.543	117.69
606.751	117.69
606.96	113.69
607.168	123.69
607.376	117.69
607.585	109.69
607.793	112.69
608.001	112.69
608.21	119.69
608.418	100.69
608.626	104.69
608.834	112.69
609.043	113.69
609.251	100.69
609.459	124.69
609.667	119.69
609.875	115.69
610.083	113.69
610.291	112.69
610.499	120.69
610.707	114.69
610.916	104.69
611.124	122.69
611.332	121.69
611.54	135.69
611.748	114.69
611.955	114.69
612.163	105.69
612.371	108.69
612.579	106.69
612.787	101.69
612.995	108.69
613.203	120.69
613.411	102.69
613.618	112.69
613.826	107.69
614.034	100.69
614.242	123.69
614.449	114.69
614.657	111.69
614.865	113.69
615.072	124.69
615.28	105.69
615.488	116.69
615.695	110.69
615.903	105.69
616.111	112.69
616.318	126.69
616.526	114.69
616.733	116.69
616.941	118.69
617.148	127.69
617.356	102.69
617.563	112.69
617.771	106.69
617.978	110.69
618.185	104.69
618.393	126.69
618.6	109.69
618.807	112.69
619.015	114.69
619.222	113.69
619.429	101.69
619.637	108.69
619.844	101.69
620.051	100.69
620.258	112.69
620.466	110.69
620.673	110.69
620.88	109.69
621.087	103.69
621.294	108.69
621.501	101.69
621.708	102.69
621.915	104.69
622.122	114.69
622.329	124.69
622.536	105.69
622.743	110.69
622.95	116.69
623.157	117.69
623.364	124.69
623.571	106.69
623.778	103.69
623.985	113.69
624.192	100.69
624.399	90.69
624.606	101.69
624.812	108.69
625.019	110.69
625.226	104.69
625.433	116.69
625.639	114.69
625.846	103.69
626.053	102.69
626.259	102.69
626.466	89.69
626.673	88.69
626.879	104.69
627.086	94.69
627.293	108.69
627.499	110.69
627.706	110.69
627.912	102.69
628.119	108.69
628.325	100.69
628.532	107.69
628.738	108.69
628.945	101.69
629.151	111.69
629.357	103.69
629.564	93.69
629.77	105.69
629.976	94.69
630.183	109.69
630.389	106.69
630.595	114.69
630.802	97.69
631.008	104.69
631.214	91.69
631.42	99.69
631.627	111.69
631.833	112.69
632.039	94.69
632.245	97.69
632.451	98.69
632.657	112.69
632.863	98.69
633.069	112.69
633.275	97.69
633.481	89.69
633.688	102.69
633.893	108.69
634.099	97.69
634.305	100.69
634.511	98.69
634.717	97.69
634.923	98.69
635.129	103.69
635.335	91.69
635.541	96.69
635.747	89.69
635.952	90.69
636.158	94.69
636.364	97.69
636.57	96.69
636.775	114.69
636.981	101.69
637.187	103.69
637.392	109.69
637.598	100.69
637.804	101.69
638.009	107.69
638.215	97.69
638.421	78.69
638.626	102.69
638.832	117.69
639.037	104.69
639.243	104.69
639.448	79.69
639.654	97.69
639.859	91.69
640.065	99.69
640.27	105.69
640.475	96.69
640.681	108.69
640.886	101.69
641.091	101.69
641.297	94.69
641.502	101.69
641.707	96.69
641.913	97.69
642.118	96.69
642.323	101.69
642.528	102.69
642.733	103.69
642.939	90.69
643.144	86.69
643.349	99.69
643.554	96.69
643.759	109.69
643.964	108.69
644.169	114.69
644.374	118.69
644.579	97.69
644.784	84.69
644.989	97.69
645.194	89.69
645.399	92.69
645.604	89.69
645.809	103.69
646.014	95.69
646.219	103.69
646.423	88.69
646.628	97.69
646.833	120.69
647.038	116.69
647.243	119.69
647.447	96.69
647.652	95.69
647.857	93.69
648.062	99.69
648.266	97.69
648.471	100.69
648.676	97.69
648.88	93.69
649.085	88.69
649.289	96.69
649.494	97.69
649.698	97.69
649.903	98.69
650.107	89.69
650.312	99.69
650.516	92.69
650.721	102.69
650.925	109.69
651.13	92.69
651.334	86.69
651.539	84.69
651.743	85.69
651.947	87.69
652.152	102.69
652.356	91.69
652.56	102.69
652.764	94.69
652.969	99.69
653.173	100.69
653.377	96.69
653.581	77.69
653.785	88.69
653.99	88.69
654.194	99.69
654.398	86.69
654.602	92.69
654.806	94.69
655.01	85.69
655.214	76.69
655.418	82.69
655.622	95.69
655.826	87.69
656.03	81.69
656.234	84.69
656.438	86.69
656.642	96.69
656.846	87.69
657.049	85.69
657.253	91.69
657.457	89.69
657.661	94.69
657.865	82.69
658.068	108.69
658.272	84.69
658.476	85.69
658.68	86.69
658.883	91.69
659.087	84.69
659.291	84.69
659.494	86.69
659.698	85.69
659.901	75.69
660.105	89.69
660.309	90.69
660.512	87.69
660.716	73.69
660.919	87.69
661.123	92.69
661.326	81.69
661.53	82.69
661.733	96.69
661.936	81.69
662.14	85.69
662.343	92.69
662.546	78.69
662.75	80.69
662.953	66.69
663.156	85.69
663.36	96.69
663.563	67.69
663.766	70.69
663.969	86.69
664.173	83.69
664.376	77.69
664.579	84.69
664.782	83.69
664.985	78.69
665.188	89.69
665.391	73.69
665.594	74.69
665.797	92.69
666	77.69
666.203	76.69
666.406	90.69
666.609	82.69
666.812	80.69
667.015	87.69
667.218	93.69
667.421	74.69
667.624	74.69
667.827	78.69
668.03	70.69
668.232	82.69
668.435	68.69
668.638	75.69
668.841	80.69
669.043	70.69
669.246	85.69
669.449	78.69
669.651	90.69
669.854	84.69
670.057	82.69
670.259	85.69
670.462	90.69
670.665	77.69
670.867	88.69
671.07	92.69
671.272	95.69
671.475	69.69
671.677	77.69
671.88	85.69
672.082	82.69
672.284	82.69
672.487	89.69
672.689	90.69
672.892	73.69
