Data from Location6.07152019.Energy5.Lamp.07192019.3%Agarose_HRD10591_16-11-08-395.txt Node
Date: Fri Jul 19 16:11:08 EDT 2019
User: cochatt
Spectrometer: HR+D1059
Trigger mode: 1
Integration Time (sec): 1.000000E-1
Scans to average: 1
Electric dark correction enabled: true
Nonlinearity correction enabled: false
Boxcar width: 0
XAxis mode: Wavelengths
Number of Pixels in Spectrum: 2048
>>>>>Begin Spectral Data<<<<<
223.165	-8.94
223.4	-8.94
223.635	-8.94
223.869	-13.94
224.104	-25.94
224.338	-15.94
224.573	-31.94
224.808	-17.94
225.042	-3.94
225.277	-7.94
225.511	6.06
225.746	16.06
225.98	15.06
226.215	2.06
226.449	5.06
226.683	28.06
226.918	27.06
227.152	27.06
227.387	33.06
227.621	51.06
227.856	48.06
228.09	46.06
228.324	48.06
228.559	53.06
228.793	46.06
229.027	57.06
229.262	58.06
229.496	73.06
229.73	74.06
229.964	68.06
230.199	83.06
230.433	71.06
230.667	60.06
230.901	68.06
231.136	81.06
231.37	71.06
231.604	85.06
231.838	88.06
232.072	79.06
232.306	81.06
232.541	78.06
232.775	83.06
233.009	93.06
233.243	83.06
233.477	73.06
233.711	70.06
233.945	77.06
234.179	84.06
234.413	78.06
234.647	68.06
234.881	79.06
235.115	76.06
235.349	83.06
235.583	68.06
235.817	83.06
236.051	71.06
236.285	76.06
236.519	74.06
236.753	70.06
236.987	82.06
237.221	72.06
237.455	72.06
237.689	77.06
237.922	69.06
238.156	69.06
238.39	81.06
238.624	77.06
238.858	74.06
239.091	62.06
239.325	65.06
239.559	90.06
239.793	78.06
240.027	78.06
240.26	79.06
240.494	73.06
240.728	83.06
240.961	70.06
241.195	84.06
241.429	72.06
241.662	68.06
241.896	73.06
242.13	74.06
242.363	71.06
242.597	78.06
242.83	66.06
243.064	69.06
243.298	78.06
243.531	81.06
243.765	64.06
243.998	79.06
244.232	80.06
244.465	68.06
244.699	85.06
244.932	77.06
245.166	77.06
245.399	83.06
245.633	81.06
245.866	81.06
246.099	81.06
246.333	83.06
246.566	77.06
246.8	80.06
247.033	78.06
247.266	80.06
247.5	76.06
247.733	78.06
247.966	79.06
248.2	69.06
248.433	76.06
248.666	76.06
248.899	84.06
249.133	68.06
249.366	81.06
249.599	84.06
249.832	69.06
250.066	78.06
250.299	67.06
250.532	76.06
250.765	78.06
250.998	68.06
251.231	64.06
251.465	66.06
251.698	73.06
251.931	78.06
252.164	74.06
252.397	73.06
252.63	81.06
252.863	86.06
253.096	76.06
253.329	88.06
253.562	96.06
253.795	64.06
254.028	75.06
254.261	96.06
254.494	72.06
254.727	80.06
254.96	93.06
255.193	85.06
255.426	81.06
255.659	75.06
255.892	78.06
256.124	88.06
256.357	74.06
256.59	80.06
256.823	84.06
257.056	78.06
257.289	68.06
257.521	84.06
257.754	85.06
257.987	64.06
258.22	86.06
258.452	81.06
258.685	69.06
258.918	84.06
259.151	77.06
259.383	87.06
259.616	80.06
259.849	73.06
260.081	85.06
260.314	80.06
260.547	61.06
260.779	84.06
261.012	91.06
261.244	79.06
261.477	80.06
261.71	80.06
261.942	85.06
262.175	88.06
262.407	73.06
262.64	81.06
262.872	74.06
263.105	79.06
263.337	82.06
263.57	70.06
263.802	87.06
264.035	68.06
264.267	78.06
264.499	63.06
264.732	71.06
264.964	79.06
265.197	86.06
265.429	90.06
265.661	81.06
265.894	56.06
266.126	81.06
266.358	76.06
266.591	85.06
266.823	77.06
267.055	80.06
267.287	73.06
267.52	69.06
267.752	81.06
267.984	69.06
268.216	69.06
268.448	79.06
268.681	81.06
268.913	86.06
269.145	81.06
269.377	82.06
269.609	78.06
269.841	80.06
270.073	74.06
270.306	80.06
270.538	79.06
270.77	77.06
271.002	89.06
271.234	85.06
271.466	76.06
271.698	87.06
271.93	92.06
272.162	83.06
272.394	88.06
272.626	87.06
272.858	83.06
273.09	86.06
273.322	84.06
273.553	86.06
273.785	85.06
274.017	75.06
274.249	70.06
274.481	92.06
274.713	70.06
274.945	88.06
275.176	76.06
275.408	78.06
275.64	88.06
275.872	72.06
276.104	80.06
276.335	92.06
276.567	74.06
276.799	76.06
277.031	85.06
277.262	86.06
277.494	78.06
277.726	88.06
277.957	78.06
278.189	102.06
278.421	80.06
278.652	77.06
278.884	86.06
279.115	76.06
279.347	71.06
279.579	85.06
279.81	86.06
280.042	90.06
280.273	80.06
280.505	67.06
280.736	75.06
280.968	68.06
281.199	65.06
281.431	80.06
281.662	63.06
281.894	79.06
282.125	80.06
282.356	74.06
282.588	78.06
282.819	82.06
283.051	77.06
283.282	85.06
283.513	83.06
283.745	68.06
283.976	90.06
284.207	86.06
284.439	84.06
284.67	77.06
284.901	82.06
285.132	81.06
285.364	79.06
285.595	68.06
285.826	73.06
286.057	85.06
286.288	84.06
286.52	82.06
286.751	72.06
286.982	79.06
287.213	80.06
287.444	94.06
287.675	71.06
287.906	80.06
288.138	86.06
288.369	78.06
288.6	87.06
288.831	87.06
289.062	92.06
289.293	80.06
289.524	80.06
289.755	69.06
289.986	71.06
290.217	78.06
290.448	74.06
290.679	89.06
290.91	85.06
291.141	80.06
291.371	82.06
291.602	84.06
291.833	95.06
292.064	83.06
292.295	80.06
292.526	90.06
292.757	86.06
292.987	106.06
293.218	86.06
293.449	80.06
293.68	71.06
293.91	73.06
294.141	80.06
294.372	57.06
294.603	92.06
294.833	83.06
295.064	74.06
295.295	82.06
295.525	81.06
295.756	80.06
295.987	64.06
296.217	90.06
296.448	72.06
296.679	87.06
296.909	79.06
297.14	92.06
297.37	74.06
297.601	79.06
297.831	81.06
298.062	76.06
298.292	79.06
298.523	95.06
298.753	85.06
298.984	87.06
299.214	76.06
299.445	77.06
299.675	84.06
299.905	83.06
300.136	80.06
300.366	86.06
300.597	81.06
300.827	76.06
301.057	79.06
301.288	80.06
301.518	90.06
301.748	74.06
301.979	83.06
302.209	77.06
302.439	69.06
302.669	71.06
302.9	80.06
303.13	84.06
303.36	78.06
303.59	79.06
303.82	88.06
304.051	75.06
304.281	90.06
304.511	82.06
304.741	88.06
304.971	74.06
305.201	82.06
305.431	89.06
305.661	90.06
305.891	89.06
306.121	81.06
306.352	90.06
306.582	88.06
306.812	91.06
307.042	73.06
307.272	65.06
307.502	81.06
307.731	76.06
307.961	88.06
308.191	87.06
308.421	71.06
308.651	87.06
308.881	85.06
309.111	90.06
309.341	88.06
309.571	86.06
309.8	77.06
310.03	73.06
310.26	85.06
310.49	88.06
310.72	87.06
310.949	87.06
311.179	93.06
311.409	90.06
311.639	71.06
311.868	84.06
312.098	82.06
312.328	78.06
312.557	88.06
312.787	80.06
313.017	93.06
313.246	79.06
313.476	78.06
313.706	74.06
313.935	89.06
314.165	71.06
314.394	73.06
314.624	95.06
314.853	87.06
315.083	76.06
315.312	94.06
315.542	75.06
315.771	86.06
316.001	77.06
316.23	80.06
316.46	83.06
316.689	78.06
316.919	100.06
317.148	84.06
317.377	85.06
317.607	82.06
317.836	79.06
318.065	93.06
318.295	83.06
318.524	78.06
318.753	94.06
318.983	81.06
319.212	81.06
319.441	66.06
319.67	69.06
319.9	81.06
320.129	89.06
320.358	79.06
320.587	78.06
320.816	85.06
321.046	100.06
321.275	79.06
321.504	72.06
321.733	84.06
321.962	83.06
322.191	91.06
322.42	87.06
322.649	84.06
322.878	88.06
323.108	87.06
323.337	81.06
323.566	85.06
323.795	82.06
324.024	90.06
324.253	79.06
324.482	72.06
324.71	95.06
324.939	75.06
325.168	68.06
325.397	78.06
325.626	74.06
325.855	92.06
326.084	86.06
326.313	86.06
326.542	72.06
326.77	75.06
326.999	82.06
327.228	86.06
327.457	82.06
327.686	90.06
327.914	79.06
328.143	97.06
328.372	80.06
328.6	80.06
328.829	95.06
329.058	68.06
329.287	74.06
329.515	84.06
329.744	76.06
329.972	84.06
330.201	82.06
330.43	92.06
330.658	75.06
330.887	74.06
331.115	84.06
331.344	80.06
331.572	74.06
331.801	78.06
332.03	69.06
332.258	76.06
332.486	81.06
332.715	80.06
332.943	69.06
333.172	80.06
333.4	75.06
333.629	80.06
333.857	86.06
334.085	79.06
334.314	81.06
334.542	78.06
334.771	88.06
334.999	82.06
335.227	65.06
335.455	75.06
335.684	80.06
335.912	77.06
336.14	87.06
336.369	61.06
336.597	92.06
336.825	78.06
337.053	90.06
337.281	86.06
337.51	74.06
337.738	83.06
337.966	92.06
338.194	85.06
338.422	77.06
338.65	67.06
338.878	88.06
339.106	81.06
339.334	81.06
339.562	78.06
339.79	65.06
340.018	76.06
340.246	85.06
340.474	93.06
340.702	72.06
340.93	78.06
341.158	79.06
341.386	88.06
341.614	72.06
341.842	77.06
342.07	80.06
342.298	88.06
342.526	73.06
342.754	84.06
342.981	78.06
343.209	74.06
343.437	85.06
343.665	77.06
343.893	81.06
344.12	86.06
344.348	87.06
344.576	69.06
344.804	63.06
345.031	74.06
345.259	89.06
345.487	75.06
345.714	80.06
345.942	80.06
346.17	85.06
346.397	73.06
346.625	78.06
346.853	70.06
347.08	84.06
347.308	85.06
347.535	92.06
347.763	65.06
347.99	66.06
348.218	78.06
348.445	84.06
348.673	80.06
348.9	84.06
349.128	84.06
349.355	65.06
349.583	83.06
349.81	69.06
350.037	82.06
350.265	78.06
350.492	88.06
350.72	77.06
350.947	73.06
351.174	88.06
351.402	91.06
351.629	87.06
351.856	71.06
352.083	82.06
352.311	82.06
352.538	82.06
352.765	97.06
352.992	62.06
353.22	80.06
353.447	79.06
353.674	91.06
353.901	78.06
354.128	70.06
354.355	84.06
354.583	85.06
354.81	72.06
355.037	81.06
355.264	82.06
355.491	82.06
355.718	81.06
355.945	80.06
356.172	79.06
356.399	84.06
356.626	67.06
356.853	70.06
357.08	80.06
357.307	93.06
357.534	87.06
357.761	93.06
357.988	77.06
358.215	68.06
358.441	61.06
358.668	70.06
358.895	90.06
359.122	76.06
359.349	80.06
359.576	72.06
359.802	68.06
360.029	88.06
360.256	94.06
360.483	87.06
360.709	87.06
360.936	79.06
361.163	87.06
361.39	69.06
361.616	91.06
361.843	75.06
362.07	85.06
362.296	83.06
362.523	75.06
362.749	78.06
362.976	74.06
363.203	91.06
363.429	90.06
363.656	86.06
363.882	74.06
364.109	86.06
364.335	104.06
364.562	79.06
364.788	74.06
365.015	81.06
365.241	90.06
365.468	84.06
365.694	85.06
365.92	77.06
366.147	90.06
366.373	95.06
366.599	94.06
366.826	81.06
367.052	82.06
367.278	89.06
367.505	87.06
367.731	79.06
367.957	81.06
368.184	84.06
368.41	84.06
368.636	79.06
368.862	75.06
369.089	79.06
369.315	84.06
369.541	85.06
369.767	84.06
369.993	89.06
370.219	77.06
370.445	74.06
370.672	69.06
370.898	91.06
371.124	77.06
371.35	90.06
371.576	79.06
371.802	88.06
372.028	81.06
372.254	97.06
372.48	94.06
372.706	90.06
372.932	98.06
373.158	94.06
373.384	101.06
373.61	99.06
373.835	84.06
374.061	91.06
374.287	93.06
374.513	97.06
374.739	93.06
374.965	92.06
375.191	100.06
375.416	108.06
375.642	96.06
375.868	90.06
376.094	101.06
376.319	78.06
376.545	96.06
376.771	85.06
376.997	86.06
377.222	89.06
377.448	100.06
377.674	103.06
377.899	95.06
378.125	89.06
378.35	97.06
378.576	109.06
378.802	97.06
379.027	90.06
379.253	93.06
379.478	105.06
379.704	83.06
379.929	93.06
380.155	97.06
380.38	88.06
380.606	89.06
380.831	84.06
381.057	97.06
381.282	87.06
381.507	86.06
381.733	99.06
381.958	89.06
382.184	84.06
382.409	93.06
382.634	109.06
382.86	92.06
383.085	89.06
383.31	98.06
383.535	97.06
383.761	100.06
383.986	100.06
384.211	100.06
384.436	90.06
384.662	95.06
384.887	102.06
385.112	105.06
385.337	106.06
385.562	83.06
385.787	88.06
386.013	103.06
386.238	92.06
386.463	81.06
386.688	90.06
386.913	96.06
387.138	103.06
387.363	109.06
387.588	108.06
387.813	99.06
388.038	88.06
388.263	83.06
388.488	84.06
388.713	106.06
388.938	110.06
389.163	95.06
389.387	98.06
389.612	85.06
389.837	97.06
390.062	100.06
390.287	95.06
390.512	108.06
390.736	86.06
390.961	108.06
391.186	101.06
391.411	100.06
391.636	91.06
391.86	103.06
392.085	92.06
392.31	103.06
392.534	101.06
392.759	100.06
392.984	113.06
393.208	112.06
393.433	86.06
393.658	100.06
393.882	100.06
394.107	103.06
394.331	110.06
394.556	104.06
394.78	112.06
395.005	103.06
395.229	112.06
395.454	111.06
395.678	100.06
395.903	110.06
396.127	109.06
396.352	123.06
396.576	101.06
396.801	108.06
397.025	93.06
397.249	104.06
397.474	103.06
397.698	111.06
397.922	106.06
398.147	115.06
398.371	111.06
398.595	100.06
398.82	110.06
399.044	89.06
399.268	103.06
399.492	109.06
399.717	116.06
399.941	109.06
400.165	110.06
400.389	106.06
400.613	109.06
400.837	109.06
401.062	112.06
401.286	105.06
401.51	104.06
401.734	113.06
401.958	112.06
402.182	101.06
402.406	104.06
402.63	100.06
402.854	112.06
403.078	104.06
403.302	108.06
403.526	100.06
403.75	97.06
403.974	120.06
404.198	112.06
404.422	126.06
404.645	103.06
404.869	110.06
405.093	122.06
405.317	118.06
405.541	114.06
405.765	142.06
405.988	105.06
406.212	118.06
406.436	124.06
406.66	112.06
406.883	127.06
407.107	128.06
407.331	116.06
407.555	110.06
407.778	112.06
408.002	112.06
408.226	128.06
408.449	108.06
408.673	113.06
408.896	124.06
409.12	117.06
409.344	117.06
409.567	128.06
409.791	112.06
410.014	127.06
410.238	122.06
410.461	116.06
410.685	119.06
410.908	131.06
411.132	124.06
411.355	113.06
411.578	128.06
411.802	115.06
412.025	140.06
412.249	125.06
412.472	114.06
412.695	124.06
412.919	127.06
413.142	131.06
413.365	137.06
413.589	131.06
413.812	100.06
414.035	116.06
414.258	133.06
414.482	122.06
414.705	132.06
414.928	121.06
415.151	122.06
415.374	128.06
415.597	116.06
415.821	126.06
416.044	136.06
416.267	125.06
416.49	138.06
416.713	142.06
416.936	132.06
417.159	128.06
417.382	114.06
417.605	126.06
417.828	122.06
418.051	140.06
418.274	151.06
418.497	153.06
418.72	129.06
418.943	138.06
419.166	142.06
419.389	139.06
419.611	143.06
419.834	137.06
420.057	136.06
420.28	126.06
420.503	118.06
420.726	136.06
420.948	122.06
421.171	125.06
421.394	124.06
421.617	139.06
421.839	145.06
422.062	144.06
422.285	127.06
422.507	134.06
422.73	124.06
422.953	126.06
423.175	129.06
423.398	132.06
423.621	129.06
423.843	143.06
424.066	144.06
424.288	156.06
424.511	137.06
424.733	147.06
424.956	149.06
425.178	137.06
425.401	151.06
425.623	142.06
425.846	127.06
426.068	162.06
426.291	141.06
426.513	132.06
426.735	131.06
426.958	130.06
427.18	125.06
427.402	126.06
427.625	136.06
427.847	130.06
428.069	128.06
428.292	121.06
428.514	127.06
428.736	128.06
428.958	132.06
429.181	132.06
429.403	134.06
429.625	136.06
429.847	128.06
430.069	127.06
430.292	141.06
430.514	128.06
430.736	133.06
430.958	140.06
431.18	137.06
431.402	128.06
431.624	119.06
431.846	110.06
432.068	94.06
432.29	110.06
432.512	110.06
432.734	119.06
432.956	144.06
433.178	134.06
433.4	153.06
433.622	138.06
433.844	143.06
434.066	129.06
434.287	109.06
434.509	92.06
434.731	101.06
434.953	114.06
435.175	122.06
435.397	124.06
435.618	102.06
435.84	120.06
436.062	109.06
436.284	129.06
436.505	129.06
436.727	128.06
436.949	148.06
437.17	134.06
437.392	133.06
437.614	122.06
437.835	119.06
438.057	118.06
438.278	125.06
438.5	133.06
438.721	131.06
438.943	147.06
439.165	143.06
439.386	145.06
439.608	158.06
439.829	151.06
440.05	147.06
440.272	154.06
440.493	129.06
440.715	144.06
440.936	139.06
441.158	166.06
441.379	134.06
441.6	148.06
441.822	148.06
442.043	132.06
442.264	146.06
442.486	151.06
442.707	139.06
442.928	147.06
443.149	142.06
443.371	137.06
443.592	138.06
443.813	134.06
444.034	146.06
444.255	143.06
444.476	142.06
444.698	138.06
444.919	148.06
445.14	252.06
445.361	205.06
445.582	158.06
445.803	147.06
446.024	149.06
446.245	161.06
446.466	147.06
446.687	169.06
446.908	169.06
447.129	159.06
447.35	135.06
447.571	149.06
447.792	134.06
448.013	148.06
448.234	146.06
448.455	140.06
448.675	147.06
448.896	136.06
449.117	143.06
449.338	130.06
449.559	121.06
449.779	138.06
450	144.06
450.221	130.06
450.442	147.06
450.662	140.06
450.883	138.06
451.104	134.06
451.324	150.06
451.545	129.06
451.766	142.06
451.986	119.06
452.207	134.06
452.428	116.06
452.648	121.06
452.869	116.06
453.089	126.06
453.31	101.06
453.53	101.06
453.751	106.06
453.971	100.06
454.192	97.06
454.412	104.06
454.633	120.06
454.853	117.06
455.073	111.06
455.294	123.06
455.514	127.06
455.734	107.06
455.955	122.06
456.175	112.06
456.395	107.06
456.616	113.06
456.836	114.06
457.056	95.06
457.276	103.06
457.497	103.06
457.717	113.06
457.937	108.06
458.157	105.06
458.377	99.06
458.598	100.06
458.818	75.06
459.038	92.06
459.258	85.06
459.478	86.06
459.698	76.06
459.918	97.06
460.138	101.06
460.358	115.06
460.578	122.06
460.798	105.06
461.018	112.06
461.238	101.06
461.458	120.06
461.678	114.06
461.898	117.06
462.118	102.06
462.338	122.06
462.558	108.06
462.777	100.06
462.997	108.06
463.217	95.06
463.437	116.06
463.657	106.06
463.876	111.06
464.096	112.06
464.316	111.06
464.536	118.06
464.755	121.06
464.975	119.06
465.195	110.06
465.414	133.06
465.634	131.06
465.854	126.06
466.073	102.06
466.293	112.06
466.512	128.06
466.732	150.06
466.951	130.06
467.171	127.06
467.391	117.06
467.61	123.06
467.829	139.06
468.049	129.06
468.268	128.06
468.488	137.06
468.707	148.06
468.927	132.06
469.146	127.06
469.365	147.06
469.585	135.06
469.804	137.06
470.023	141.06
470.243	136.06
470.462	147.06
470.681	152.06
470.901	146.06
471.12	134.06
471.339	126.06
471.558	152.06
471.777	142.06
471.997	141.06
472.216	110.06
472.435	146.06
472.654	129.06
472.873	93.06
473.092	120.06
473.311	119.06
473.53	121.06
473.749	125.06
473.968	137.06
474.187	119.06
474.406	142.06
474.625	124.06
474.844	145.06
475.063	144.06
475.282	152.06
475.501	115.06
475.72	131.06
475.939	125.06
476.158	139.06
476.377	139.06
476.596	122.06
476.814	102.06
477.033	120.06
477.252	101.06
477.471	139.06
477.69	139.06
477.908	135.06
478.127	142.06
478.346	142.06
478.564	135.06
478.783	143.06
479.002	146.06
479.22	134.06
479.439	139.06
479.658	133.06
479.876	127.06
480.095	118.06
480.313	122.06
480.532	137.06
480.751	110.06
480.969	102.06
481.188	85.06
481.406	98.06
481.624	88.06
481.843	75.06
482.061	113.06
482.28	115.06
482.498	113.06
482.717	108.06
482.935	117.06
483.153	134.06
483.372	151.06
483.59	153.06
483.808	156.06
484.027	139.06
484.245	136.06
484.463	151.06
484.681	174.06
484.9	150.06
485.118	136.06
485.336	122.06
485.554	119.06
485.772	106.06
485.99	111.06
486.209	116.06
486.427	101.06
486.645	112.06
486.863	145.06
487.081	149.06
487.299	136.06
487.517	144.06
487.735	186.06
487.953	185.06
488.171	214.06
488.389	175.06
488.607	160.06
488.825	157.06
489.043	153.06
489.261	126.06
489.479	122.06
489.696	136.06
489.914	136.06
490.132	145.06
490.35	160.06
490.568	168.06
490.786	180.06
491.003	169.06
491.221	167.06
491.439	192.06
491.657	181.06
491.874	214.06
492.092	233.06
492.31	241.06
492.527	272.06
492.745	215.06
492.963	190.06
493.18	190.06
493.398	168.06
493.615	178.06
493.833	191.06
494.05	178.06
494.268	185.06
494.485	182.06
494.703	164.06
494.92	182.06
495.138	179.06
495.355	189.06
495.573	183.06
495.79	187.06
496.008	179.06
496.225	182.06
496.442	162.06
496.66	180.06
496.877	170.06
497.094	165.06
497.312	159.06
497.529	158.06
497.746	145.06
497.963	157.06
498.181	136.06
498.398	129.06
498.615	127.06
498.832	131.06
499.049	122.06
499.267	116.06
499.484	120.06
499.701	113.06
499.918	135.06
500.135	137.06
500.352	138.06
500.569	157.06
500.786	164.06
501.003	139.06
501.22	135.06
501.437	142.06
501.654	140.06
501.871	119.06
502.088	133.06
502.305	124.06
502.522	134.06
502.739	133.06
502.956	135.06
503.172	136.06
503.389	112.06
503.606	112.06
503.823	114.06
504.04	122.06
504.256	119.06
504.473	117.06
504.69	130.06
504.907	125.06
505.123	109.06
505.34	119.06
505.557	127.06
505.773	130.06
505.99	116.06
506.207	113.06
506.423	125.06
506.64	111.06
506.856	126.06
507.073	128.06
507.289	129.06
507.506	129.06
507.722	116.06
507.939	108.06
508.155	126.06
508.372	119.06
508.588	104.06
508.805	114.06
509.021	107.06
509.238	108.06
509.454	91.06
509.67	88.06
509.887	98.06
510.103	91.06
510.319	92.06
510.536	80.06
510.752	94.06
510.968	79.06
511.184	87.06
511.401	100.06
511.617	78.06
511.833	95.06
512.049	83.06
512.265	115.06
512.481	88.06
512.698	105.06
512.914	103.06
513.13	98.06
513.346	93.06
513.562	98.06
513.778	87.06
513.994	95.06
514.21	100.06
514.426	97.06
514.642	79.06
514.858	88.06
515.074	88.06
515.29	85.06
515.506	74.06
515.721	96.06
515.937	91.06
516.153	80.06
516.369	87.06
516.585	85.06
516.801	91.06
517.016	100.06
517.232	94.06
517.448	81.06
517.664	88.06
517.879	96.06
518.095	98.06
518.311	88.06
518.527	89.06
518.742	82.06
518.958	101.06
519.173	111.06
519.389	109.06
519.605	114.06
519.82	114.06
520.036	93.06
520.251	109.06
520.467	100.06
520.682	101.06
520.898	93.06
521.113	94.06
521.329	102.06
521.544	81.06
521.76	98.06
521.975	90.06
522.19	101.06
522.406	101.06
522.621	101.06
522.836	106.06
523.052	102.06
523.267	101.06
523.482	103.06
523.698	98.06
523.913	111.06
524.128	106.06
524.343	124.06
524.559	102.06
524.774	123.06
524.989	120.06
525.204	116.06
525.419	127.06
525.634	117.06
525.849	116.06
526.064	114.06
526.28	107.06
526.495	92.06
526.71	91.06
526.925	83.06
527.14	80.06
527.355	97.06
527.57	85.06
527.785	82.06
527.999	87.06
528.214	101.06
528.429	109.06
528.644	135.06
528.859	141.06
529.074	152.06
529.289	172.06
529.503	158.06
529.718	122.06
529.933	129.06
530.148	103.06
530.363	105.06
530.577	86.06
530.792	82.06
531.007	82.06
531.221	86.06
531.436	83.06
531.651	77.06
531.865	93.06
532.08	83.06
532.295	79.06
532.509	92.06
532.724	86.06
532.938	91.06
533.153	99.06
533.367	113.06
533.582	120.06
533.796	120.06
534.011	120.06
534.225	99.06
534.44	108.06
534.654	85.06
534.868	92.06
535.083	99.06
535.297	107.06
535.511	108.06
535.726	104.06
535.94	89.06
536.154	84.06
536.369	98.06
536.583	89.06
536.797	87.06
537.011	81.06
537.225	87.06
537.44	84.06
537.654	99.06
537.868	89.06
538.082	96.06
538.296	102.06
538.51	100.06
538.724	109.06
538.938	117.06
539.153	117.06
539.367	112.06
539.581	115.06
539.795	112.06
540.009	86.06
540.222	96.06
540.436	107.06
540.65	121.06
540.864	114.06
541.078	145.06
541.292	144.06
541.506	162.06
541.72	189.06
541.934	201.06
542.147	202.06
542.361	194.06
542.575	157.06
542.789	152.06
543.002	142.06
543.216	129.06
543.43	122.06
543.644	134.06
543.857	157.06
544.071	157.06
544.285	159.06
544.498	154.06
544.712	172.06
544.925	170.06
545.139	165.06
545.352	160.06
545.566	155.06
545.779	162.06
545.993	179.06
546.206	174.06
546.42	175.06
546.633	176.06
546.847	174.06
547.06	177.06
547.274	166.06
547.487	180.06
547.7	161.06
547.914	156.06
548.127	179.06
548.34	167.06
548.554	151.06
548.767	162.06
548.98	160.06
549.193	158.06
549.407	152.06
549.62	150.06
549.833	158.06
550.046	153.06
550.259	134.06
550.473	158.06
550.686	154.06
550.899	149.06
551.112	151.06
551.325	145.06
551.538	123.06
551.751	128.06
551.964	121.06
552.177	122.06
552.39	162.06
552.603	149.06
552.816	129.06
553.029	138.06
553.242	166.06
553.455	168.06
553.667	168.06
553.88	165.06
554.093	159.06
554.306	156.06
554.519	160.06
554.732	147.06
554.944	136.06
555.157	135.06
555.37	156.06
555.583	132.06
555.795	132.06
556.008	137.06
556.221	141.06
556.433	124.06
556.646	138.06
556.859	137.06
557.071	130.06
557.284	135.06
557.496	151.06
557.709	153.06
557.921	151.06
558.134	152.06
558.346	150.06
558.559	141.06
558.771	130.06
558.984	132.06
559.196	155.06
559.409	137.06
559.621	128.06
559.833	126.06
560.046	137.06
560.258	142.06
560.47	136.06
560.683	124.06
560.895	119.06
561.107	137.06
561.32	117.06
561.532	149.06
561.744	126.06
561.956	132.06
562.168	136.06
562.381	132.06
562.593	134.06
562.805	115.06
563.017	133.06
563.229	127.06
563.441	120.06
563.653	128.06
563.865	124.06
564.077	121.06
564.289	118.06
564.501	134.06
564.713	136.06
564.925	125.06
565.137	111.06
565.349	109.06
565.561	103.06
565.773	132.06
565.985	131.06
566.197	101.06
566.408	132.06
566.62	131.06
566.832	120.06
567.044	121.06
567.255	116.06
567.467	121.06
567.679	108.06
567.891	100.06
568.102	84.06
568.314	110.06
568.526	92.06
568.737	76.06
568.949	89.06
569.161	83.06
569.372	89.06
569.584	83.06
569.795	103.06
570.007	86.06
570.218	70.06
570.43	82.06
570.641	94.06
570.853	97.06
571.064	103.06
571.276	98.06
571.487	105.06
571.698	99.06
571.91	96.06
572.121	111.06
572.333	95.06
572.544	112.06
572.755	92.06
572.966	82.06
573.178	95.06
573.389	88.06
573.6	80.06
573.811	83.06
574.023	81.06
574.234	72.06
574.445	90.06
574.656	52.06
574.867	93.06
575.078	96.06
575.289	87.06
575.501	81.06
575.712	105.06
575.923	84.06
576.134	100.06
576.345	109.06
576.556	92.06
576.767	89.06
576.978	94.06
577.188	97.06
577.399	83.06
577.61	100.06
577.821	90.06
578.032	99.06
578.243	92.06
578.454	86.06
578.665	90.06
578.875	96.06
579.086	79.06
579.297	76.06
579.508	84.06
579.718	103.06
579.929	92.06
580.14	80.06
580.35	79.06
580.561	64.06
580.772	98.06
580.982	84.06
581.193	94.06
581.403	96.06
581.614	86.06
581.825	90.06
582.035	74.06
582.246	104.06
582.456	84.06
582.667	75.06
582.877	90.06
583.087	88.06
583.298	85.06
583.508	88.06
583.719	80.06
583.929	69.06
584.139	88.06
584.35	76.06
584.56	79.06
584.77	81.06
584.981	89.06
585.191	81.06
585.401	98.06
585.611	86.06
585.821	83.06
586.032	79.06
586.242	79.06
586.452	89.06
586.662	84.06
586.872	75.06
587.082	88.06
587.292	71.06
587.502	81.06
587.713	82.06
587.923	70.06
588.133	66.06
588.343	93.06
588.553	77.06
588.762	84.06
588.972	81.06
589.182	80.06
589.392	83.06
589.602	80.06
589.812	68.06
590.022	98.06
590.232	71.06
590.441	78.06
590.651	77.06
590.861	77.06
591.071	72.06
591.281	75.06
591.49	77.06
591.7	85.06
591.91	88.06
592.119	88.06
592.329	84.06
592.539	78.06
592.748	78.06
592.958	96.06
593.167	70.06
593.377	93.06
593.587	99.06
593.796	69.06
594.006	94.06
594.215	82.06
594.424	70.06
594.634	87.06
594.843	85.06
595.053	95.06
595.262	84.06
595.472	101.06
595.681	82.06
595.89	84.06
596.1	89.06
596.309	97.06
596.518	79.06
596.727	92.06
596.937	94.06
597.146	96.06
597.355	94.06
597.564	107.06
597.774	105.06
597.983	73.06
598.192	83.06
598.401	76.06
598.61	82.06
598.819	74.06
599.028	87.06
599.237	84.06
599.446	85.06
599.655	76.06
599.864	95.06
600.073	81.06
600.282	89.06
600.491	93.06
600.7	77.06
600.909	96.06
601.118	105.06
601.327	105.06
601.536	100.06
601.745	95.06
601.953	114.06
602.162	118.06
602.371	107.06
602.58	105.06
602.789	108.06
602.997	107.06
603.206	117.06
603.415	110.06
603.623	109.06
603.832	118.06
604.041	118.06
604.249	96.06
604.458	94.06
604.666	95.06
604.875	85.06
605.084	88.06
605.292	95.06
605.501	127.06
605.709	113.06
605.918	101.06
606.126	110.06
606.334	110.06
606.543	126.06
606.751	116.06
606.96	114.06
607.168	106.06
607.376	121.06
607.585	101.06
607.793	101.06
608.001	99.06
608.21	111.06
608.418	102.06
608.626	106.06
608.834	117.06
609.043	102.06
609.251	121.06
609.459	108.06
609.667	128.06
609.875	124.06
610.083	124.06
610.291	121.06
610.499	116.06
610.707	130.06
610.916	105.06
611.124	118.06
611.332	108.06
611.54	125.06
611.748	113.06
611.955	120.06
612.163	126.06
612.371	106.06
612.579	108.06
612.787	111.06
612.995	104.06
613.203	105.06
613.411	117.06
613.618	101.06
613.826	122.06
614.034	110.06
614.242	108.06
614.449	125.06
614.657	123.06
614.865	116.06
615.072	116.06
615.28	110.06
615.488	94.06
615.695	110.06
615.903	119.06
616.111	107.06
616.318	114.06
616.526	119.06
616.733	112.06
616.941	115.06
617.148	105.06
617.356	104.06
617.563	121.06
617.771	107.06
617.978	106.06
618.185	114.06
618.393	98.06
618.6	125.06
618.807	110.06
619.015	105.06
619.222	101.06
619.429	117.06
619.637	94.06
619.844	97.06
620.051	123.06
620.258	96.06
620.466	118.06
620.673	106.06
620.88	105.06
621.087	109.06
621.294	93.06
621.501	93.06
621.708	103.06
621.915	101.06
622.122	112.06
622.329	111.06
622.536	94.06
622.743	112.06
622.95	119.06
623.157	104.06
623.364	105.06
623.571	114.06
623.778	103.06
623.985	105.06
624.192	114.06
624.399	108.06
624.606	108.06
624.812	105.06
625.019	98.06
625.226	96.06
625.433	103.06
625.639	98.06
625.846	101.06
626.053	100.06
626.259	83.06
626.466	92.06
626.673	88.06
626.879	95.06
627.086	94.06
627.293	98.06
627.499	78.06
627.706	109.06
627.912	122.06
628.119	107.06
628.325	120.06
628.532	113.06
628.738	102.06
628.945	107.06
629.151	101.06
629.357	87.06
629.564	112.06
629.77	105.06
629.976	86.06
630.183	96.06
630.389	103.06
630.595	95.06
630.802	112.06
631.008	88.06
631.214	96.06
631.42	111.06
631.627	105.06
631.833	104.06
632.039	100.06
632.245	88.06
632.451	105.06
632.657	99.06
632.863	102.06
633.069	102.06
633.275	97.06
633.481	91.06
633.688	96.06
633.893	111.06
634.099	90.06
634.305	90.06
634.511	94.06
634.717	87.06
634.923	87.06
635.129	94.06
635.335	103.06
635.541	103.06
635.747	89.06
635.952	83.06
636.158	91.06
636.364	89.06
636.57	94.06
636.775	101.06
636.981	98.06
637.187	100.06
637.392	112.06
637.598	108.06
637.804	106.06
638.009	120.06
638.215	108.06
638.421	105.06
638.626	104.06
638.832	94.06
639.037	90.06
639.243	103.06
639.448	91.06
639.654	104.06
639.859	90.06
640.065	86.06
640.27	90.06
640.475	98.06
640.681	100.06
640.886	91.06
641.091	110.06
641.297	112.06
641.502	90.06
641.707	107.06
641.913	102.06
642.118	94.06
642.323	98.06
642.528	105.06
642.733	89.06
642.939	96.06
643.144	103.06
643.349	98.06
643.554	103.06
643.759	104.06
643.964	92.06
644.169	86.06
644.374	82.06
644.579	83.06
644.784	93.06
644.989	102.06
645.194	78.06
645.399	102.06
645.604	91.06
645.809	96.06
646.014	94.06
646.219	102.06
646.423	89.06
646.628	96.06
646.833	104.06
647.038	101.06
647.243	99.06
647.447	105.06
647.652	111.06
647.857	99.06
648.062	99.06
648.266	98.06
648.471	92.06
648.676	80.06
648.88	80.06
649.085	110.06
649.289	94.06
649.494	92.06
649.698	98.06
649.903	96.06
650.107	83.06
650.312	91.06
650.516	99.06
650.721	100.06
650.925	97.06
651.13	85.06
651.334	89.06
651.539	94.06
651.743	85.06
651.947	106.06
652.152	92.06
652.356	100.06
652.56	92.06
652.764	105.06
652.969	98.06
653.173	81.06
653.377	87.06
653.581	93.06
653.785	83.06
653.99	82.06
654.194	87.06
654.398	81.06
654.602	92.06
654.806	82.06
655.01	93.06
655.214	88.06
655.418	95.06
655.622	90.06
655.826	81.06
656.03	76.06
656.234	94.06
656.438	91.06
656.642	100.06
656.846	80.06
657.049	83.06
657.253	93.06
657.457	89.06
657.661	73.06
657.865	69.06
658.068	69.06
658.272	69.06
658.476	83.06
658.68	70.06
658.883	79.06
659.087	82.06
659.291	79.06
659.494	85.06
659.698	82.06
659.901	95.06
660.105	77.06
660.309	84.06
660.512	81.06
660.716	70.06
660.919	79.06
661.123	87.06
661.326	78.06
661.53	74.06
661.733	80.06
661.936	81.06
662.14	80.06
662.343	81.06
662.546	78.06
662.75	83.06
662.953	90.06
663.156	91.06
663.36	76.06
663.563	83.06
663.766	78.06
663.969	81.06
664.173	90.06
664.376	87.06
664.579	86.06
664.782	82.06
664.985	77.06
665.188	87.06
665.391	87.06
665.594	83.06
665.797	70.06
666	73.06
666.203	79.06
666.406	72.06
666.609	88.06
666.812	69.06
667.015	71.06
667.218	78.06
667.421	76.06
667.624	83.06
667.827	89.06
668.03	74.06
668.232	83.06
668.435	71.06
668.638	70.06
668.841	84.06
669.043	76.06
669.246	81.06
669.449	77.06
669.651	75.06
669.854	86.06
670.057	74.06
670.259	85.06
670.462	86.06
670.665	82.06
670.867	70.06
671.07	79.06
671.272	81.06
671.475	72.06
671.677	82.06
671.88	62.06
672.082	63.06
672.284	81.06
672.487	83.06
672.689	78.06
672.892	81.06
