Data from Location6.07152019.Energy5.Lamp.07192019.3%Agarose_HRD10591_16-11-04-394.txt Node
Date: Fri Jul 19 16:11:04 EDT 2019
User: cochatt
Spectrometer: HR+D1059
Trigger mode: 1
Integration Time (sec): 1.000000E-1
Scans to average: 1
Electric dark correction enabled: true
Nonlinearity correction enabled: false
Boxcar width: 0
XAxis mode: Wavelengths
Number of Pixels in Spectrum: 2048
>>>>>Begin Spectral Data<<<<<
223.165	-21.19
223.4	-21.19
223.635	-21.19
223.869	-23.19
224.104	-12.19
224.338	-11.19
224.573	-14.19
224.808	-4.19
225.042	-4.19
225.277	-23.19
225.511	-8.19
225.746	1.81
225.98	13.81
226.215	17.81
226.449	5.81
226.683	23.81
226.918	19.81
227.152	38.81
227.387	35.81
227.621	26.81
227.856	27.81
228.09	46.81
228.324	45.81
228.559	53.81
228.793	49.81
229.027	62.81
229.262	58.81
229.496	89.81
229.73	59.81
229.964	61.81
230.199	76.81
230.433	80.81
230.667	78.81
230.901	78.81
231.136	73.81
231.37	82.81
231.604	73.81
231.838	81.81
232.072	82.81
232.306	84.81
232.541	61.81
232.775	84.81
233.009	91.81
233.243	85.81
233.477	87.81
233.711	86.81
233.945	80.81
234.179	77.81
234.413	79.81
234.647	86.81
234.881	89.81
235.115	76.81
235.349	73.81
235.583	70.81
235.817	80.81
236.051	87.81
236.285	80.81
236.519	74.81
236.753	80.81
236.987	86.81
237.221	67.81
237.455	69.81
237.689	71.81
237.922	74.81
238.156	86.81
238.39	88.81
238.624	78.81
238.858	73.81
239.091	81.81
239.325	61.81
239.559	80.81
239.793	81.81
240.027	67.81
240.26	74.81
240.494	85.81
240.728	70.81
240.961	76.81
241.195	76.81
241.429	71.81
241.662	73.81
241.896	74.81
242.13	78.81
242.363	91.81
242.597	64.81
242.83	99.81
243.064	80.81
243.298	72.81
243.531	76.81
243.765	72.81
243.998	85.81
244.232	78.81
244.465	87.81
244.699	68.81
244.932	73.81
245.166	74.81
245.399	63.81
245.633	85.81
245.866	78.81
246.099	79.81
246.333	84.81
246.566	88.81
246.8	92.81
247.033	80.81
247.266	73.81
247.5	87.81
247.733	77.81
247.966	81.81
248.2	85.81
248.433	82.81
248.666	83.81
248.899	82.81
249.133	86.81
249.366	80.81
249.599	85.81
249.832	91.81
250.066	80.81
250.299	88.81
250.532	71.81
250.765	75.81
250.998	80.81
251.231	82.81
251.465	82.81
251.698	81.81
251.931	70.81
252.164	75.81
252.397	89.81
252.63	74.81
252.863	71.81
253.096	74.81
253.329	74.81
253.562	81.81
253.795	77.81
254.028	69.81
254.261	72.81
254.494	79.81
254.727	87.81
254.96	83.81
255.193	70.81
255.426	79.81
255.659	68.81
255.892	77.81
256.124	85.81
256.357	80.81
256.59	84.81
256.823	76.81
257.056	76.81
257.289	76.81
257.521	96.81
257.754	81.81
257.987	83.81
258.22	90.81
258.452	85.81
258.685	84.81
258.918	80.81
259.151	69.81
259.383	75.81
259.616	69.81
259.849	90.81
260.081	87.81
260.314	92.81
260.547	84.81
260.779	77.81
261.012	88.81
261.244	83.81
261.477	83.81
261.71	76.81
261.942	83.81
262.175	77.81
262.407	63.81
262.64	94.81
262.872	77.81
263.105	78.81
263.337	85.81
263.57	81.81
263.802	77.81
264.035	66.81
264.267	88.81
264.499	84.81
264.732	83.81
264.964	93.81
265.197	86.81
265.429	91.81
265.661	82.81
265.894	88.81
266.126	90.81
266.358	75.81
266.591	89.81
266.823	78.81
267.055	93.81
267.287	86.81
267.52	73.81
267.752	92.81
267.984	83.81
268.216	89.81
268.448	85.81
268.681	75.81
268.913	86.81
269.145	88.81
269.377	85.81
269.609	79.81
269.841	87.81
270.073	61.81
270.306	92.81
270.538	80.81
270.77	71.81
271.002	78.81
271.234	77.81
271.466	73.81
271.698	75.81
271.93	93.81
272.162	75.81
272.394	87.81
272.626	77.81
272.858	82.81
273.09	84.81
273.322	94.81
273.553	87.81
273.785	98.81
274.017	83.81
274.249	86.81
274.481	82.81
274.713	73.81
274.945	76.81
275.176	91.81
275.408	81.81
275.64	95.81
275.872	99.81
276.104	81.81
276.335	73.81
276.567	82.81
276.799	83.81
277.031	73.81
277.262	70.81
277.494	80.81
277.726	83.81
277.957	79.81
278.189	90.81
278.421	79.81
278.652	64.81
278.884	95.81
279.115	83.81
279.347	87.81
279.579	81.81
279.81	77.81
280.042	89.81
280.273	73.81
280.505	73.81
280.736	79.81
280.968	83.81
281.199	92.81
281.431	70.81
281.662	66.81
281.894	91.81
282.125	78.81
282.356	70.81
282.588	102.81
282.819	85.81
283.051	85.81
283.282	78.81
283.513	83.81
283.745	76.81
283.976	87.81
284.207	99.81
284.439	84.81
284.67	72.81
284.901	74.81
285.132	83.81
285.364	77.81
285.595	88.81
285.826	95.81
286.057	95.81
286.288	88.81
286.52	96.81
286.751	82.81
286.982	100.81
287.213	83.81
287.444	75.81
287.675	77.81
287.906	82.81
288.138	81.81
288.369	90.81
288.6	84.81
288.831	87.81
289.062	81.81
289.293	77.81
289.524	82.81
289.755	87.81
289.986	81.81
290.217	72.81
290.448	87.81
290.679	82.81
290.91	86.81
291.141	90.81
291.371	87.81
291.602	82.81
291.833	79.81
292.064	87.81
292.295	88.81
292.526	81.81
292.757	87.81
292.987	83.81
293.218	76.81
293.449	76.81
293.68	79.81
293.91	75.81
294.141	71.81
294.372	71.81
294.603	79.81
294.833	80.81
295.064	86.81
295.295	98.81
295.525	85.81
295.756	81.81
295.987	91.81
296.217	70.81
296.448	83.81
296.679	85.81
296.909	87.81
297.14	81.81
297.37	80.81
297.601	70.81
297.831	84.81
298.062	83.81
298.292	81.81
298.523	81.81
298.753	102.81
298.984	92.81
299.214	84.81
299.445	90.81
299.675	102.81
299.905	81.81
300.136	91.81
300.366	82.81
300.597	76.81
300.827	84.81
301.057	86.81
301.288	79.81
301.518	87.81
301.748	85.81
301.979	96.81
302.209	85.81
302.439	76.81
302.669	85.81
302.9	82.81
303.13	85.81
303.36	86.81
303.59	72.81
303.82	95.81
304.051	89.81
304.281	81.81
304.511	73.81
304.741	96.81
304.971	83.81
305.201	74.81
305.431	76.81
305.661	89.81
305.891	78.81
306.121	83.81
306.352	78.81
306.582	84.81
306.812	91.81
307.042	83.81
307.272	72.81
307.502	74.81
307.731	73.81
307.961	81.81
308.191	78.81
308.421	91.81
308.651	94.81
308.881	87.81
309.111	85.81
309.341	84.81
309.571	69.81
309.8	81.81
310.03	77.81
310.26	89.81
310.49	84.81
310.72	80.81
310.949	77.81
311.179	83.81
311.409	71.81
311.639	91.81
311.868	86.81
312.098	94.81
312.328	96.81
312.557	79.81
312.787	94.81
313.017	72.81
313.246	90.81
313.476	82.81
313.706	85.81
313.935	84.81
314.165	95.81
314.394	88.81
314.624	77.81
314.853	90.81
315.083	77.81
315.312	85.81
315.542	89.81
315.771	83.81
316.001	85.81
316.23	79.81
316.46	77.81
316.689	90.81
316.919	84.81
317.148	89.81
317.377	94.81
317.607	87.81
317.836	82.81
318.065	80.81
318.295	83.81
318.524	79.81
318.753	86.81
318.983	84.81
319.212	92.81
319.441	87.81
319.67	84.81
319.9	88.81
320.129	76.81
320.358	87.81
320.587	82.81
320.816	97.81
321.046	90.81
321.275	91.81
321.504	77.81
321.733	93.81
321.962	76.81
322.191	87.81
322.42	77.81
322.649	91.81
322.878	72.81
323.108	77.81
323.337	98.81
323.566	81.81
323.795	81.81
324.024	95.81
324.253	95.81
324.482	79.81
324.71	69.81
324.939	83.81
325.168	81.81
325.397	77.81
325.626	77.81
325.855	85.81
326.084	72.81
326.313	87.81
326.542	81.81
326.77	98.81
326.999	60.81
327.228	87.81
327.457	78.81
327.686	68.81
327.914	87.81
328.143	88.81
328.372	90.81
328.6	87.81
328.829	83.81
329.058	75.81
329.287	86.81
329.515	58.81
329.744	76.81
329.972	84.81
330.201	79.81
330.43	90.81
330.658	88.81
330.887	73.81
331.115	84.81
331.344	95.81
331.572	85.81
331.801	95.81
332.03	73.81
332.258	79.81
332.486	84.81
332.715	96.81
332.943	89.81
333.172	89.81
333.4	75.81
333.629	77.81
333.857	88.81
334.085	85.81
334.314	74.81
334.542	71.81
334.771	80.81
334.999	80.81
335.227	89.81
335.455	92.81
335.684	80.81
335.912	92.81
336.14	92.81
336.369	86.81
336.597	82.81
336.825	85.81
337.053	81.81
337.281	82.81
337.51	73.81
337.738	84.81
337.966	71.81
338.194	88.81
338.422	87.81
338.65	84.81
338.878	88.81
339.106	83.81
339.334	88.81
339.562	82.81
339.79	76.81
340.018	69.81
340.246	80.81
340.474	83.81
340.702	81.81
340.93	93.81
341.158	75.81
341.386	85.81
341.614	91.81
341.842	82.81
342.07	87.81
342.298	81.81
342.526	92.81
342.754	87.81
342.981	85.81
343.209	82.81
343.437	98.81
343.665	81.81
343.893	83.81
344.12	80.81
344.348	79.81
344.576	69.81
344.804	88.81
345.031	77.81
345.259	77.81
345.487	87.81
345.714	85.81
345.942	88.81
346.17	77.81
346.397	81.81
346.625	81.81
346.853	81.81
347.08	79.81
347.308	98.81
347.535	94.81
347.763	91.81
347.99	88.81
348.218	92.81
348.445	73.81
348.673	75.81
348.9	107.81
349.128	90.81
349.355	80.81
349.583	93.81
349.81	83.81
350.037	74.81
350.265	84.81
350.492	85.81
350.72	77.81
350.947	83.81
351.174	88.81
351.402	84.81
351.629	83.81
351.856	89.81
352.083	96.81
352.311	88.81
352.538	70.81
352.765	86.81
352.992	74.81
353.22	78.81
353.447	92.81
353.674	87.81
353.901	76.81
354.128	97.81
354.355	76.81
354.583	86.81
354.81	87.81
355.037	91.81
355.264	86.81
355.491	92.81
355.718	67.81
355.945	84.81
356.172	79.81
356.399	82.81
356.626	73.81
356.853	90.81
357.08	91.81
357.307	89.81
357.534	81.81
357.761	77.81
357.988	88.81
358.215	87.81
358.441	82.81
358.668	71.81
358.895	88.81
359.122	82.81
359.349	85.81
359.576	94.81
359.802	98.81
360.029	74.81
360.256	89.81
360.483	97.81
360.709	99.81
360.936	79.81
361.163	82.81
361.39	76.81
361.616	92.81
361.843	74.81
362.07	89.81
362.296	87.81
362.523	78.81
362.749	80.81
362.976	83.81
363.203	91.81
363.429	75.81
363.656	67.81
363.882	65.81
364.109	81.81
364.335	92.81
364.562	79.81
364.788	72.81
365.015	73.81
365.241	85.81
365.468	88.81
365.694	85.81
365.92	83.81
366.147	92.81
366.373	83.81
366.599	89.81
366.826	85.81
367.052	100.81
367.278	80.81
367.505	88.81
367.731	91.81
367.957	87.81
368.184	89.81
368.41	102.81
368.636	86.81
368.862	91.81
369.089	90.81
369.315	76.81
369.541	82.81
369.767	83.81
369.993	86.81
370.219	88.81
370.445	68.81
370.672	81.81
370.898	94.81
371.124	85.81
371.35	82.81
371.576	88.81
371.802	85.81
372.028	77.81
372.254	94.81
372.48	89.81
372.706	84.81
372.932	78.81
373.158	85.81
373.384	101.81
373.61	91.81
373.835	90.81
374.061	90.81
374.287	83.81
374.513	104.81
374.739	91.81
374.965	97.81
375.191	96.81
375.416	103.81
375.642	97.81
375.868	102.81
376.094	108.81
376.319	87.81
376.545	90.81
376.771	90.81
376.997	91.81
377.222	105.81
377.448	79.81
377.674	103.81
377.899	98.81
378.125	93.81
378.35	105.81
378.576	93.81
378.802	97.81
379.027	88.81
379.253	86.81
379.478	93.81
379.704	97.81
379.929	98.81
380.155	97.81
380.38	111.81
380.606	95.81
380.831	89.81
381.057	115.81
381.282	101.81
381.507	93.81
381.733	108.81
381.958	86.81
382.184	94.81
382.409	97.81
382.634	109.81
382.86	81.81
383.085	90.81
383.31	95.81
383.535	100.81
383.761	92.81
383.986	97.81
384.211	104.81
384.436	113.81
384.662	85.81
384.887	107.81
385.112	107.81
385.337	88.81
385.562	74.81
385.787	100.81
386.013	104.81
386.238	100.81
386.463	101.81
386.688	101.81
386.913	106.81
387.138	92.81
387.363	95.81
387.588	106.81
387.813	99.81
388.038	96.81
388.263	105.81
388.488	97.81
388.713	98.81
388.938	112.81
389.163	111.81
389.387	101.81
389.612	120.81
389.837	114.81
390.062	94.81
390.287	94.81
390.512	111.81
390.736	98.81
390.961	121.81
391.186	101.81
391.411	109.81
391.636	112.81
391.86	108.81
392.085	114.81
392.31	117.81
392.534	115.81
392.759	109.81
392.984	119.81
393.208	119.81
393.433	123.81
393.658	104.81
393.882	117.81
394.107	105.81
394.331	109.81
394.556	99.81
394.78	115.81
395.005	121.81
395.229	120.81
395.454	98.81
395.678	99.81
395.903	124.81
396.127	99.81
396.352	98.81
396.576	106.81
396.801	105.81
397.025	104.81
397.249	123.81
397.474	113.81
397.698	116.81
397.922	119.81
398.147	118.81
398.371	117.81
398.595	116.81
398.82	113.81
399.044	116.81
399.268	119.81
399.492	133.81
399.717	124.81
399.941	120.81
400.165	123.81
400.389	106.81
400.613	127.81
400.837	118.81
401.062	105.81
401.286	127.81
401.51	117.81
401.734	124.81
401.958	124.81
402.182	127.81
402.406	116.81
402.63	111.81
402.854	117.81
403.078	114.81
403.302	119.81
403.526	120.81
403.75	117.81
403.974	127.81
404.198	116.81
404.422	124.81
404.645	121.81
404.869	117.81
405.093	108.81
405.317	121.81
405.541	136.81
405.765	115.81
405.988	113.81
406.212	132.81
406.436	115.81
406.66	129.81
406.883	131.81
407.107	132.81
407.331	122.81
407.555	127.81
407.778	111.81
408.002	127.81
408.226	125.81
408.449	135.81
408.673	122.81
408.896	120.81
409.12	114.81
409.344	127.81
409.567	123.81
409.791	123.81
410.014	123.81
410.238	128.81
410.461	131.81
410.685	120.81
410.908	125.81
411.132	112.81
411.355	123.81
411.578	127.81
411.802	125.81
412.025	121.81
412.249	111.81
412.472	125.81
412.695	117.81
412.919	119.81
413.142	127.81
413.365	119.81
413.589	127.81
413.812	104.81
414.035	131.81
414.258	122.81
414.482	111.81
414.705	120.81
414.928	127.81
415.151	122.81
415.374	121.81
415.597	127.81
415.821	127.81
416.044	121.81
416.267	124.81
416.49	127.81
416.713	138.81
416.936	145.81
417.159	123.81
417.382	124.81
417.605	127.81
417.828	133.81
418.051	138.81
418.274	133.81
418.497	145.81
418.72	124.81
418.943	137.81
419.166	120.81
419.389	144.81
419.611	137.81
419.834	148.81
420.057	137.81
420.28	119.81
420.503	145.81
420.726	132.81
420.948	133.81
421.171	144.81
421.394	133.81
421.617	132.81
421.839	158.81
422.062	133.81
422.285	134.81
422.507	136.81
422.73	129.81
422.953	130.81
423.175	135.81
423.398	112.81
423.621	147.81
423.843	125.81
424.066	146.81
424.288	160.81
424.511	148.81
424.733	144.81
424.956	152.81
425.178	132.81
425.401	152.81
425.623	148.81
425.846	141.81
426.068	141.81
426.291	136.81
426.513	148.81
426.735	129.81
426.958	125.81
427.18	139.81
427.402	146.81
427.625	123.81
427.847	118.81
428.069	130.81
428.292	127.81
428.514	143.81
428.736	121.81
428.958	134.81
429.181	143.81
429.403	145.81
429.625	139.81
429.847	131.81
430.069	139.81
430.292	120.81
430.514	129.81
430.736	124.81
430.958	128.81
431.18	122.81
431.402	131.81
431.624	128.81
431.846	103.81
432.068	97.81
432.29	103.81
432.512	123.81
432.734	124.81
432.956	142.81
433.178	149.81
433.4	133.81
433.622	142.81
433.844	141.81
434.066	122.81
434.287	111.81
434.509	101.81
434.731	97.81
434.953	123.81
435.175	135.81
435.397	137.81
435.618	132.81
435.84	120.81
436.062	125.81
436.284	136.81
436.505	140.81
436.727	127.81
436.949	135.81
437.17	139.81
437.392	148.81
437.614	123.81
437.835	129.81
438.057	106.81
438.278	108.81
438.5	145.81
438.721	132.81
438.943	148.81
439.165	141.81
439.386	143.81
439.608	143.81
439.829	155.81
440.05	157.81
440.272	156.81
440.493	142.81
440.715	145.81
440.936	149.81
441.158	157.81
441.379	146.81
441.6	162.81
441.822	146.81
442.043	144.81
442.264	158.81
442.486	147.81
442.707	142.81
442.928	156.81
443.149	139.81
443.371	132.81
443.592	145.81
443.813	152.81
444.034	135.81
444.255	154.81
444.476	132.81
444.698	139.81
444.919	155.81
445.14	261.81
445.361	214.81
445.582	163.81
445.803	149.81
446.024	153.81
446.245	149.81
446.466	151.81
446.687	159.81
446.908	143.81
447.129	163.81
447.35	169.81
447.571	150.81
447.792	157.81
448.013	145.81
448.234	147.81
448.455	149.81
448.675	142.81
448.896	148.81
449.117	130.81
449.338	138.81
449.559	136.81
449.779	142.81
450	134.81
450.221	130.81
450.442	147.81
450.662	148.81
450.883	140.81
451.104	151.81
451.324	132.81
451.545	138.81
451.766	125.81
451.986	127.81
452.207	143.81
452.428	131.81
452.648	121.81
452.869	140.81
453.089	116.81
453.31	105.81
453.53	111.81
453.751	104.81
453.971	113.81
454.192	113.81
454.412	114.81
454.633	117.81
454.853	127.81
455.073	139.81
455.294	120.81
455.514	133.81
455.734	127.81
455.955	142.81
456.175	135.81
456.395	114.81
456.616	102.81
456.836	123.81
457.056	115.81
457.276	122.81
457.497	120.81
457.717	111.81
457.937	116.81
458.157	112.81
458.377	103.81
458.598	111.81
458.818	92.81
459.038	97.81
459.258	85.81
459.478	88.81
459.698	87.81
459.918	110.81
460.138	121.81
460.358	132.81
460.578	135.81
460.798	118.81
461.018	120.81
461.238	114.81
461.458	117.81
461.678	115.81
461.898	123.81
462.118	117.81
462.338	108.81
462.558	120.81
462.777	111.81
462.997	123.81
463.217	105.81
463.437	111.81
463.657	115.81
463.876	112.81
464.096	117.81
464.316	119.81
464.536	115.81
464.755	127.81
464.975	118.81
465.195	120.81
465.414	114.81
465.634	125.81
465.854	117.81
466.073	119.81
466.293	125.81
466.512	125.81
466.732	124.81
466.951	137.81
467.171	141.81
467.391	139.81
467.61	129.81
467.829	145.81
468.049	134.81
468.268	143.81
468.488	141.81
468.707	142.81
468.927	143.81
469.146	150.81
469.365	148.81
469.585	149.81
469.804	139.81
470.023	155.81
470.243	149.81
470.462	151.81
470.681	147.81
470.901	149.81
471.12	144.81
471.339	131.81
471.558	141.81
471.777	147.81
471.997	132.81
472.216	131.81
472.435	115.81
472.654	124.81
472.873	108.81
473.092	105.81
473.311	130.81
473.53	134.81
473.749	139.81
473.968	131.81
474.187	130.81
474.406	133.81
474.625	131.81
474.844	133.81
475.063	128.81
475.282	119.81
475.501	121.81
475.72	138.81
475.939	112.81
476.158	124.81
476.377	145.81
476.596	123.81
476.814	123.81
477.033	113.81
477.252	117.81
477.471	114.81
477.69	131.81
477.908	149.81
478.127	134.81
478.346	135.81
478.564	130.81
478.783	145.81
479.002	131.81
479.22	140.81
479.439	141.81
479.658	122.81
479.876	106.81
480.095	111.81
480.313	109.81
480.532	127.81
480.751	109.81
480.969	104.81
481.188	102.81
481.406	94.81
481.624	94.81
481.843	102.81
482.061	92.81
482.28	118.81
482.498	142.81
482.717	90.81
482.935	140.81
483.153	142.81
483.372	159.81
483.59	164.81
483.808	153.81
484.027	135.81
484.245	131.81
484.463	147.81
484.681	171.81
484.9	159.81
485.118	147.81
485.336	141.81
485.554	123.81
485.772	110.81
485.99	112.81
486.209	112.81
486.427	119.81
486.645	118.81
486.863	140.81
487.081	159.81
487.299	137.81
487.517	145.81
487.735	170.81
487.953	184.81
488.171	201.81
488.389	191.81
488.607	177.81
488.825	146.81
489.043	141.81
489.261	139.81
489.479	145.81
489.696	140.81
489.914	150.81
490.132	153.81
490.35	149.81
490.568	152.81
490.786	179.81
491.003	182.81
491.221	196.81
491.439	184.81
491.657	196.81
491.874	217.81
492.092	205.81
492.31	249.81
492.527	267.81
492.745	220.81
492.963	188.81
493.18	192.81
493.398	191.81
493.615	195.81
493.833	183.81
494.05	171.81
494.268	171.81
494.485	185.81
494.703	175.81
494.92	172.81
495.138	189.81
495.355	170.81
495.573	177.81
495.79	191.81
496.008	176.81
496.225	174.81
496.442	176.81
496.66	167.81
496.877	182.81
497.094	177.81
497.312	172.81
497.529	163.81
497.746	138.81
497.963	138.81
498.181	146.81
498.398	138.81
498.615	123.81
498.832	124.81
499.049	121.81
499.267	141.81
499.484	128.81
499.701	120.81
499.918	140.81
500.135	141.81
500.352	139.81
500.569	137.81
500.786	149.81
501.003	152.81
501.22	145.81
501.437	125.81
501.654	124.81
501.871	150.81
502.088	127.81
502.305	128.81
502.522	123.81
502.739	140.81
502.956	124.81
503.172	131.81
503.389	120.81
503.606	130.81
503.823	125.81
504.04	122.81
504.256	117.81
504.473	134.81
504.69	119.81
504.907	143.81
505.123	123.81
505.34	117.81
505.557	135.81
505.773	133.81
505.99	125.81
506.207	120.81
506.423	118.81
506.64	121.81
506.856	125.81
507.073	125.81
507.289	122.81
507.506	122.81
507.722	120.81
507.939	119.81
508.155	123.81
508.372	107.81
508.588	114.81
508.805	115.81
509.021	119.81
509.238	99.81
509.454	115.81
509.67	104.81
509.887	115.81
510.103	85.81
510.319	86.81
510.536	83.81
510.752	93.81
510.968	80.81
511.184	79.81
511.401	92.81
511.617	112.81
511.833	104.81
512.049	100.81
512.265	93.81
512.481	98.81
512.698	101.81
512.914	106.81
513.13	92.81
513.346	93.81
513.562	112.81
513.778	91.81
513.994	95.81
514.21	98.81
514.426	96.81
514.642	86.81
514.858	81.81
515.074	74.81
515.29	96.81
515.506	100.81
515.721	90.81
515.937	93.81
516.153	92.81
516.369	86.81
516.585	78.81
516.801	89.81
517.016	90.81
517.232	106.81
517.448	81.81
517.664	95.81
517.879	89.81
518.095	103.81
518.311	87.81
518.527	88.81
518.742	107.81
518.958	87.81
519.173	118.81
519.389	106.81
519.605	118.81
519.82	99.81
520.036	115.81
520.251	106.81
520.467	111.81
520.682	89.81
520.898	96.81
521.113	85.81
521.329	75.81
521.544	103.81
521.76	97.81
521.975	98.81
522.19	109.81
522.406	98.81
522.621	106.81
522.836	113.81
523.052	119.81
523.267	93.81
523.482	115.81
523.698	103.81
523.913	117.81
524.128	119.81
524.343	108.81
524.559	115.81
524.774	115.81
524.989	126.81
525.204	111.81
525.419	115.81
525.634	123.81
525.849	108.81
526.064	100.81
526.28	99.81
526.495	93.81
526.71	92.81
526.925	78.81
527.14	88.81
527.355	83.81
527.57	79.81
527.785	96.81
527.999	97.81
528.214	91.81
528.429	113.81
528.644	138.81
528.859	135.81
529.074	153.81
529.289	171.81
529.503	162.81
529.718	155.81
529.933	114.81
530.148	116.81
530.363	114.81
530.577	95.81
530.792	79.81
531.007	89.81
531.221	90.81
531.436	92.81
531.651	82.81
531.865	72.81
532.08	87.81
532.295	98.81
532.509	97.81
532.724	76.81
532.938	82.81
533.153	115.81
533.367	107.81
533.582	127.81
533.796	140.81
534.011	126.81
534.225	113.81
534.44	91.81
534.654	111.81
534.868	117.81
535.083	97.81
535.297	107.81
535.511	105.81
535.726	111.81
535.94	120.81
536.154	107.81
536.369	92.81
536.583	100.81
536.797	95.81
537.011	101.81
537.225	86.81
537.44	88.81
537.654	102.81
537.868	97.81
538.082	99.81
538.296	99.81
538.51	91.81
538.724	111.81
538.938	107.81
539.153	125.81
539.367	125.81
539.581	122.81
539.795	96.81
540.009	94.81
540.222	92.81
540.436	95.81
540.65	118.81
540.864	127.81
541.078	151.81
541.292	147.81
541.506	161.81
541.72	179.81
541.934	207.81
542.147	226.81
542.361	195.81
542.575	163.81
542.789	160.81
543.002	151.81
543.216	125.81
543.43	128.81
543.644	142.81
543.857	149.81
544.071	163.81
544.285	167.81
544.498	151.81
544.712	176.81
544.925	159.81
545.139	161.81
545.352	163.81
545.566	167.81
545.779	164.81
545.993	176.81
546.206	162.81
546.42	178.81
546.633	167.81
546.847	164.81
547.06	170.81
547.274	170.81
547.487	192.81
547.7	183.81
547.914	179.81
548.127	178.81
548.34	163.81
548.554	166.81
548.767	152.81
548.98	155.81
549.193	145.81
549.407	164.81
549.62	155.81
549.833	151.81
550.046	156.81
550.259	137.81
550.473	166.81
550.686	158.81
550.899	145.81
551.112	156.81
551.325	150.81
551.538	147.81
551.751	137.81
551.964	117.81
552.177	130.81
552.39	144.81
552.603	156.81
552.816	159.81
553.029	155.81
553.242	162.81
553.455	152.81
553.667	159.81
553.88	165.81
554.093	141.81
554.306	153.81
554.519	150.81
554.732	155.81
554.944	152.81
555.157	138.81
555.37	148.81
555.583	153.81
555.795	149.81
556.008	134.81
556.221	135.81
556.433	154.81
556.646	144.81
556.859	141.81
557.071	150.81
557.284	133.81
557.496	140.81
557.709	144.81
557.921	142.81
558.134	142.81
558.346	145.81
558.559	133.81
558.771	121.81
558.984	127.81
559.196	139.81
559.409	128.81
559.621	131.81
559.833	137.81
560.046	131.81
560.258	132.81
560.47	130.81
560.683	139.81
560.895	162.81
561.107	135.81
561.32	113.81
561.532	130.81
561.744	141.81
561.956	132.81
562.168	131.81
562.381	150.81
562.593	123.81
562.805	132.81
563.017	131.81
563.229	120.81
563.441	125.81
563.653	121.81
563.865	119.81
564.077	117.81
564.289	123.81
564.501	133.81
564.713	129.81
564.925	128.81
565.137	117.81
565.349	125.81
565.561	117.81
565.773	123.81
565.985	127.81
566.197	125.81
566.408	116.81
566.62	136.81
566.832	118.81
567.044	124.81
567.255	105.81
567.467	123.81
567.679	100.81
567.891	120.81
568.102	102.81
568.314	101.81
568.526	76.81
568.737	91.81
568.949	84.81
569.161	77.81
569.372	84.81
569.584	96.81
569.795	105.81
570.007	93.81
570.218	96.81
570.43	97.81
570.641	91.81
570.853	105.81
571.064	106.81
571.276	106.81
571.487	92.81
571.698	108.81
571.91	105.81
572.121	106.81
572.333	116.81
572.544	99.81
572.755	91.81
572.966	91.81
573.178	96.81
573.389	88.81
573.6	82.81
573.811	89.81
574.023	61.81
574.234	80.81
574.445	79.81
574.656	96.81
574.867	97.81
575.078	101.81
575.289	98.81
575.501	102.81
575.712	81.81
575.923	92.81
576.134	85.81
576.345	103.81
576.556	103.81
576.767	97.81
576.978	98.81
577.188	107.81
577.399	102.81
577.61	108.81
577.821	90.81
578.032	107.81
578.243	105.81
578.454	91.81
578.665	74.81
578.875	90.81
579.086	85.81
579.297	83.81
579.508	88.81
579.718	72.81
579.929	101.81
580.14	93.81
580.35	90.81
580.561	80.81
580.772	92.81
580.982	97.81
581.193	85.81
581.403	97.81
581.614	105.81
581.825	100.81
582.035	108.81
582.246	96.81
582.456	92.81
582.667	83.81
582.877	92.81
583.087	86.81
583.298	102.81
583.508	81.81
583.719	83.81
583.929	89.81
584.139	88.81
584.35	85.81
584.56	86.81
584.77	87.81
584.981	94.81
585.191	87.81
585.401	89.81
585.611	83.81
585.821	92.81
586.032	94.81
586.242	97.81
586.452	79.81
586.662	94.81
586.872	71.81
587.082	83.81
587.292	83.81
587.502	96.81
587.713	90.81
587.923	82.81
588.133	87.81
588.343	76.81
588.553	72.81
588.762	84.81
588.972	91.81
589.182	87.81
589.392	95.81
589.602	81.81
589.812	98.81
590.022	91.81
590.232	83.81
590.441	90.81
590.651	105.81
590.861	86.81
591.071	77.81
591.281	79.81
591.49	73.81
591.7	83.81
591.91	80.81
592.119	79.81
592.329	81.81
592.539	82.81
592.748	100.81
592.958	96.81
593.167	95.81
593.377	83.81
593.587	89.81
593.796	102.81
594.006	87.81
594.215	82.81
594.424	96.81
594.634	89.81
594.843	96.81
595.053	91.81
595.262	91.81
595.472	90.81
595.681	91.81
595.89	82.81
596.1	85.81
596.309	106.81
596.518	96.81
596.727	95.81
596.937	106.81
597.146	77.81
597.355	94.81
597.564	87.81
597.774	88.81
597.983	101.81
598.192	83.81
598.401	78.81
598.61	70.81
598.819	86.81
599.028	93.81
599.237	88.81
599.446	90.81
599.655	87.81
599.864	91.81
600.073	96.81
600.282	112.81
600.491	101.81
600.7	89.81
600.909	96.81
601.118	92.81
601.327	88.81
601.536	109.81
601.745	101.81
601.953	107.81
602.162	111.81
602.371	101.81
602.58	98.81
602.789	107.81
602.997	98.81
603.206	112.81
603.415	104.81
603.623	104.81
603.832	114.81
604.041	119.81
604.249	99.81
604.458	102.81
604.666	97.81
604.875	101.81
605.084	98.81
605.292	121.81
605.501	113.81
605.709	122.81
605.918	114.81
606.126	119.81
606.334	114.81
606.543	119.81
606.751	116.81
606.96	91.81
607.168	103.81
607.376	107.81
607.585	97.81
607.793	102.81
608.001	111.81
608.21	109.81
608.418	101.81
608.626	117.81
608.834	118.81
609.043	113.81
609.251	116.81
609.459	117.81
609.667	120.81
609.875	119.81
610.083	119.81
610.291	117.81
610.499	117.81
610.707	101.81
610.916	111.81
611.124	127.81
611.332	125.81
611.54	116.81
611.748	124.81
611.955	102.81
612.163	129.81
612.371	116.81
612.579	115.81
612.787	123.81
612.995	113.81
613.203	114.81
613.411	112.81
613.618	112.81
613.826	120.81
614.034	120.81
614.242	118.81
614.449	122.81
614.657	116.81
614.865	111.81
615.072	113.81
615.28	108.81
615.488	115.81
615.695	129.81
615.903	122.81
616.111	115.81
616.318	122.81
616.526	103.81
616.733	113.81
616.941	112.81
617.148	110.81
617.356	96.81
617.563	105.81
617.771	114.81
617.978	111.81
618.185	105.81
618.393	100.81
618.6	113.81
618.807	113.81
619.015	119.81
619.222	118.81
619.429	111.81
619.637	118.81
619.844	99.81
620.051	97.81
620.258	106.81
620.466	122.81
620.673	120.81
620.88	106.81
621.087	119.81
621.294	113.81
621.501	105.81
621.708	98.81
621.915	108.81
622.122	108.81
622.329	100.81
622.536	111.81
622.743	106.81
622.95	125.81
623.157	116.81
623.364	100.81
623.571	111.81
623.778	95.81
623.985	103.81
624.192	111.81
624.399	100.81
624.606	123.81
624.812	115.81
625.019	109.81
625.226	117.81
625.433	120.81
625.639	113.81
625.846	96.81
626.053	91.81
626.259	98.81
626.466	96.81
626.673	93.81
626.879	88.81
627.086	110.81
627.293	103.81
627.499	106.81
627.706	117.81
627.912	119.81
628.119	104.81
628.325	102.81
628.532	98.81
628.738	103.81
628.945	113.81
629.151	121.81
629.357	109.81
629.564	103.81
629.77	96.81
629.976	78.81
630.183	100.81
630.389	124.81
630.595	106.81
630.802	100.81
631.008	92.81
631.214	107.81
631.42	85.81
631.627	101.81
631.833	107.81
632.039	105.81
632.245	101.81
632.451	115.81
632.657	107.81
632.863	112.81
633.069	94.81
633.275	115.81
633.481	92.81
633.688	100.81
633.893	104.81
634.099	95.81
634.305	100.81
634.511	101.81
634.717	109.81
634.923	101.81
635.129	90.81
635.335	89.81
635.541	99.81
635.747	99.81
635.952	105.81
636.158	89.81
636.364	99.81
636.57	105.81
636.775	95.81
636.981	108.81
637.187	115.81
637.392	113.81
637.598	102.81
637.804	105.81
638.009	105.81
638.215	98.81
638.421	96.81
638.626	105.81
638.832	114.81
639.037	99.81
639.243	101.81
639.448	108.81
639.654	111.81
639.859	113.81
640.065	98.81
640.27	99.81
640.475	108.81
640.681	104.81
640.886	103.81
641.091	92.81
641.297	99.81
641.502	95.81
641.707	109.81
641.913	111.81
642.118	94.81
642.323	98.81
642.528	101.81
642.733	122.81
642.939	108.81
643.144	89.81
643.349	100.81
643.554	104.81
643.759	91.81
643.964	106.81
644.169	109.81
644.374	86.81
644.579	102.81
644.784	104.81
644.989	100.81
645.194	95.81
645.399	112.81
645.604	97.81
645.809	101.81
646.014	122.81
646.219	98.81
646.423	96.81
646.628	108.81
646.833	108.81
647.038	104.81
647.243	97.81
647.447	106.81
647.652	104.81
647.857	102.81
648.062	108.81
648.266	92.81
648.471	104.81
648.676	101.81
648.88	96.81
649.085	96.81
649.289	97.81
649.494	96.81
649.698	105.81
649.903	96.81
650.107	103.81
650.312	92.81
650.516	99.81
650.721	97.81
650.925	74.81
651.13	97.81
651.334	89.81
651.539	90.81
651.743	112.81
651.947	91.81
652.152	83.81
652.356	82.81
652.56	92.81
652.764	100.81
652.969	96.81
653.173	95.81
653.377	85.81
653.581	100.81
653.785	99.81
653.99	92.81
654.194	81.81
654.398	88.81
654.602	100.81
654.806	89.81
655.01	91.81
655.214	98.81
655.418	78.81
655.622	95.81
655.826	95.81
656.03	84.81
656.234	101.81
656.438	92.81
656.642	102.81
656.846	88.81
657.049	89.81
657.253	97.81
657.457	93.81
657.661	83.81
657.865	87.81
658.068	91.81
658.272	84.81
658.476	75.81
658.68	91.81
658.883	84.81
659.087	86.81
659.291	84.81
659.494	99.81
659.698	78.81
659.901	77.81
660.105	80.81
660.309	75.81
660.512	87.81
660.716	99.81
660.919	81.81
661.123	86.81
661.326	84.81
661.53	80.81
661.733	87.81
661.936	90.81
662.14	81.81
662.343	88.81
662.546	89.81
662.75	92.81
662.953	81.81
663.156	81.81
663.36	87.81
663.563	77.81
663.766	71.81
663.969	88.81
664.173	63.81
664.376	78.81
664.579	84.81
664.782	77.81
664.985	91.81
665.188	90.81
665.391	86.81
665.594	73.81
665.797	76.81
666	70.81
666.203	84.81
666.406	83.81
666.609	76.81
666.812	84.81
667.015	79.81
667.218	95.81
667.421	97.81
667.624	84.81
667.827	78.81
668.03	86.81
668.232	90.81
668.435	73.81
668.638	75.81
668.841	96.81
669.043	94.81
669.246	77.81
669.449	81.81
669.651	73.81
669.854	93.81
670.057	72.81
670.259	98.81
670.462	87.81
670.665	89.81
670.867	90.81
671.07	93.81
671.272	91.81
671.475	74.81
671.677	85.81
671.88	74.81
672.082	85.81
672.284	78.81
672.487	84.81
672.689	81.81
672.892	69.81
