Data from Location6.07152019.Energy5.Lamp.07192019.3%Agarose_HRD10591_16-12-18-395.txt Node
Date: Fri Jul 19 16:12:18 EDT 2019
User: cochatt
Spectrometer: HR+D1059
Trigger mode: 1
Integration Time (sec): 1.000000E-1
Scans to average: 1
Electric dark correction enabled: true
Nonlinearity correction enabled: false
Boxcar width: 0
XAxis mode: Wavelengths
Number of Pixels in Spectrum: 2048
>>>>>Begin Spectral Data<<<<<
223.165	-17.44
223.4	-17.44
223.635	-17.44
223.869	-4.44
224.104	-25.44
224.338	-26.44
224.573	-22.44
224.808	-2.44
225.042	-3.44
225.277	-13.44
225.511	-9.44
225.746	6.56
225.98	20.56
226.215	9.56
226.449	16.56
226.683	11.56
226.918	21.56
227.152	38.56
227.387	38.56
227.621	39.56
227.856	40.56
228.09	36.56
228.324	50.56
228.559	73.56
228.793	66.56
229.027	60.56
229.262	63.56
229.496	80.56
229.73	79.56
229.964	62.56
230.199	78.56
230.433	78.56
230.667	72.56
230.901	72.56
231.136	88.56
231.37	83.56
231.604	88.56
231.838	88.56
232.072	75.56
232.306	96.56
232.541	82.56
232.775	88.56
233.009	88.56
233.243	80.56
233.477	77.56
233.711	90.56
233.945	103.56
234.179	93.56
234.413	92.56
234.647	79.56
234.881	94.56
235.115	89.56
235.349	84.56
235.583	78.56
235.817	79.56
236.051	86.56
236.285	74.56
236.519	79.56
236.753	82.56
236.987	80.56
237.221	82.56
237.455	67.56
237.689	57.56
237.922	75.56
238.156	71.56
238.39	80.56
238.624	74.56
238.858	70.56
239.091	76.56
239.325	78.56
239.559	94.56
239.793	75.56
240.027	85.56
240.26	79.56
240.494	75.56
240.728	85.56
240.961	77.56
241.195	71.56
241.429	81.56
241.662	78.56
241.896	85.56
242.13	90.56
242.363	92.56
242.597	73.56
242.83	89.56
243.064	79.56
243.298	79.56
243.531	76.56
243.765	74.56
243.998	74.56
244.232	92.56
244.465	84.56
244.699	83.56
244.932	85.56
245.166	81.56
245.399	77.56
245.633	79.56
245.866	86.56
246.099	84.56
246.333	90.56
246.566	75.56
246.8	57.56
247.033	86.56
247.266	82.56
247.5	71.56
247.733	80.56
247.966	79.56
248.2	99.56
248.433	88.56
248.666	94.56
248.899	79.56
249.133	86.56
249.366	81.56
249.599	83.56
249.832	80.56
250.066	87.56
250.299	78.56
250.532	85.56
250.765	73.56
250.998	78.56
251.231	78.56
251.465	81.56
251.698	86.56
251.931	75.56
252.164	91.56
252.397	89.56
252.63	86.56
252.863	81.56
253.096	88.56
253.329	80.56
253.562	74.56
253.795	95.56
254.028	82.56
254.261	82.56
254.494	90.56
254.727	85.56
254.96	84.56
255.193	73.56
255.426	87.56
255.659	91.56
255.892	73.56
256.124	82.56
256.357	77.56
256.59	90.56
256.823	73.56
257.056	81.56
257.289	83.56
257.521	77.56
257.754	92.56
257.987	90.56
258.22	84.56
258.452	91.56
258.685	67.56
258.918	79.56
259.151	90.56
259.383	82.56
259.616	84.56
259.849	85.56
260.081	83.56
260.314	91.56
260.547	84.56
260.779	87.56
261.012	84.56
261.244	69.56
261.477	79.56
261.71	89.56
261.942	83.56
262.175	87.56
262.407	77.56
262.64	74.56
262.872	79.56
263.105	83.56
263.337	86.56
263.57	110.56
263.802	100.56
264.035	94.56
264.267	82.56
264.499	85.56
264.732	78.56
264.964	85.56
265.197	81.56
265.429	80.56
265.661	91.56
265.894	89.56
266.126	90.56
266.358	88.56
266.591	75.56
266.823	77.56
267.055	87.56
267.287	100.56
267.52	82.56
267.752	88.56
267.984	72.56
268.216	85.56
268.448	88.56
268.681	85.56
268.913	81.56
269.145	65.56
269.377	90.56
269.609	90.56
269.841	82.56
270.073	89.56
270.306	89.56
270.538	71.56
270.77	91.56
271.002	79.56
271.234	85.56
271.466	93.56
271.698	93.56
271.93	83.56
272.162	75.56
272.394	89.56
272.626	81.56
272.858	97.56
273.09	72.56
273.322	93.56
273.553	96.56
273.785	70.56
274.017	88.56
274.249	81.56
274.481	91.56
274.713	82.56
274.945	95.56
275.176	93.56
275.408	83.56
275.64	93.56
275.872	79.56
276.104	82.56
276.335	79.56
276.567	92.56
276.799	69.56
277.031	91.56
277.262	87.56
277.494	89.56
277.726	84.56
277.957	89.56
278.189	93.56
278.421	75.56
278.652	90.56
278.884	93.56
279.115	91.56
279.347	85.56
279.579	99.56
279.81	80.56
280.042	81.56
280.273	93.56
280.505	90.56
280.736	88.56
280.968	92.56
281.199	77.56
281.431	76.56
281.662	89.56
281.894	91.56
282.125	95.56
282.356	74.56
282.588	92.56
282.819	87.56
283.051	98.56
283.282	79.56
283.513	92.56
283.745	84.56
283.976	80.56
284.207	92.56
284.439	80.56
284.67	88.56
284.901	91.56
285.132	83.56
285.364	86.56
285.595	92.56
285.826	88.56
286.057	93.56
286.288	87.56
286.52	84.56
286.751	90.56
286.982	87.56
287.213	93.56
287.444	97.56
287.675	88.56
287.906	106.56
288.138	90.56
288.369	82.56
288.6	97.56
288.831	83.56
289.062	82.56
289.293	84.56
289.524	87.56
289.755	89.56
289.986	106.56
290.217	92.56
290.448	97.56
290.679	83.56
290.91	89.56
291.141	69.56
291.371	99.56
291.602	83.56
291.833	68.56
292.064	89.56
292.295	95.56
292.526	80.56
292.757	87.56
292.987	85.56
293.218	75.56
293.449	90.56
293.68	89.56
293.91	92.56
294.141	104.56
294.372	97.56
294.603	85.56
294.833	96.56
295.064	87.56
295.295	94.56
295.525	96.56
295.756	78.56
295.987	75.56
296.217	103.56
296.448	88.56
296.679	87.56
296.909	89.56
297.14	75.56
297.37	85.56
297.601	87.56
297.831	89.56
298.062	85.56
298.292	83.56
298.523	95.56
298.753	97.56
298.984	101.56
299.214	86.56
299.445	90.56
299.675	86.56
299.905	79.56
300.136	87.56
300.366	77.56
300.597	84.56
300.827	85.56
301.057	94.56
301.288	96.56
301.518	89.56
301.748	76.56
301.979	90.56
302.209	91.56
302.439	86.56
302.669	82.56
302.9	92.56
303.13	82.56
303.36	83.56
303.59	77.56
303.82	98.56
304.051	82.56
304.281	86.56
304.511	94.56
304.741	92.56
304.971	71.56
305.201	93.56
305.431	91.56
305.661	85.56
305.891	97.56
306.121	91.56
306.352	77.56
306.582	90.56
306.812	93.56
307.042	83.56
307.272	85.56
307.502	90.56
307.731	97.56
307.961	92.56
308.191	87.56
308.421	85.56
308.651	88.56
308.881	93.56
309.111	77.56
309.341	79.56
309.571	85.56
309.8	78.56
310.03	88.56
310.26	92.56
310.49	76.56
310.72	72.56
310.949	82.56
311.179	75.56
311.409	106.56
311.639	77.56
311.868	85.56
312.098	82.56
312.328	84.56
312.557	94.56
312.787	84.56
313.017	97.56
313.246	94.56
313.476	90.56
313.706	78.56
313.935	77.56
314.165	85.56
314.394	90.56
314.624	85.56
314.853	93.56
315.083	101.56
315.312	92.56
315.542	95.56
315.771	94.56
316.001	98.56
316.23	82.56
316.46	93.56
316.689	75.56
316.919	102.56
317.148	86.56
317.377	101.56
317.607	94.56
317.836	86.56
318.065	97.56
318.295	86.56
318.524	92.56
318.753	79.56
318.983	86.56
319.212	74.56
319.441	94.56
319.67	86.56
319.9	98.56
320.129	83.56
320.358	89.56
320.587	97.56
320.816	99.56
321.046	91.56
321.275	96.56
321.504	97.56
321.733	83.56
321.962	86.56
322.191	78.56
322.42	89.56
322.649	89.56
322.878	89.56
323.108	74.56
323.337	92.56
323.566	77.56
323.795	65.56
324.024	79.56
324.253	94.56
324.482	85.56
324.71	83.56
324.939	68.56
325.168	85.56
325.397	90.56
325.626	92.56
325.855	85.56
326.084	77.56
326.313	94.56
326.542	82.56
326.77	91.56
326.999	89.56
327.228	82.56
327.457	92.56
327.686	93.56
327.914	78.56
328.143	97.56
328.372	95.56
328.6	93.56
328.829	83.56
329.058	93.56
329.287	81.56
329.515	97.56
329.744	96.56
329.972	90.56
330.201	89.56
330.43	89.56
330.658	80.56
330.887	75.56
331.115	89.56
331.344	72.56
331.572	92.56
331.801	98.56
332.03	95.56
332.258	102.56
332.486	87.56
332.715	106.56
332.943	87.56
333.172	85.56
333.4	86.56
333.629	77.56
333.857	96.56
334.085	87.56
334.314	98.56
334.542	88.56
334.771	92.56
334.999	87.56
335.227	86.56
335.455	82.56
335.684	79.56
335.912	84.56
336.14	85.56
336.369	87.56
336.597	93.56
336.825	94.56
337.053	93.56
337.281	100.56
337.51	99.56
337.738	95.56
337.966	81.56
338.194	70.56
338.422	81.56
338.65	78.56
338.878	86.56
339.106	88.56
339.334	82.56
339.562	88.56
339.79	86.56
340.018	89.56
340.246	82.56
340.474	80.56
340.702	78.56
340.93	106.56
341.158	79.56
341.386	79.56
341.614	90.56
341.842	102.56
342.07	86.56
342.298	80.56
342.526	94.56
342.754	83.56
342.981	89.56
343.209	77.56
343.437	88.56
343.665	77.56
343.893	87.56
344.12	99.56
344.348	93.56
344.576	84.56
344.804	83.56
345.031	79.56
345.259	91.56
345.487	79.56
345.714	96.56
345.942	85.56
346.17	85.56
346.397	91.56
346.625	79.56
346.853	85.56
347.08	77.56
347.308	74.56
347.535	81.56
347.763	95.56
347.99	86.56
348.218	89.56
348.445	85.56
348.673	108.56
348.9	93.56
349.128	75.56
349.355	85.56
349.583	81.56
349.81	82.56
350.037	87.56
350.265	97.56
350.492	94.56
350.72	95.56
350.947	98.56
351.174	69.56
351.402	92.56
351.629	89.56
351.856	84.56
352.083	87.56
352.311	98.56
352.538	88.56
352.765	81.56
352.992	83.56
353.22	93.56
353.447	97.56
353.674	83.56
353.901	91.56
354.128	90.56
354.355	82.56
354.583	85.56
354.81	95.56
355.037	94.56
355.264	76.56
355.491	102.56
355.718	85.56
355.945	86.56
356.172	85.56
356.399	83.56
356.626	89.56
356.853	91.56
357.08	80.56
357.307	90.56
357.534	86.56
357.761	87.56
357.988	90.56
358.215	96.56
358.441	89.56
358.668	82.56
358.895	78.56
359.122	93.56
359.349	88.56
359.576	96.56
359.802	98.56
360.029	90.56
360.256	82.56
360.483	92.56
360.709	84.56
360.936	77.56
361.163	91.56
361.39	93.56
361.616	95.56
361.843	94.56
362.07	93.56
362.296	90.56
362.523	101.56
362.749	92.56
362.976	76.56
363.203	93.56
363.429	94.56
363.656	90.56
363.882	94.56
364.109	80.56
364.335	84.56
364.562	82.56
364.788	91.56
365.015	83.56
365.241	88.56
365.468	70.56
365.694	78.56
365.92	84.56
366.147	83.56
366.373	86.56
366.599	87.56
366.826	75.56
367.052	93.56
367.278	91.56
367.505	79.56
367.731	95.56
367.957	92.56
368.184	96.56
368.41	87.56
368.636	100.56
368.862	103.56
369.089	93.56
369.315	89.56
369.541	97.56
369.767	94.56
369.993	102.56
370.219	109.56
370.445	91.56
370.672	85.56
370.898	89.56
371.124	92.56
371.35	121.56
371.576	110.56
371.802	95.56
372.028	106.56
372.254	89.56
372.48	87.56
372.706	99.56
372.932	89.56
373.158	89.56
373.384	93.56
373.61	100.56
373.835	102.56
374.061	86.56
374.287	90.56
374.513	102.56
374.739	98.56
374.965	101.56
375.191	107.56
375.416	100.56
375.642	92.56
375.868	92.56
376.094	90.56
376.319	101.56
376.545	88.56
376.771	97.56
376.997	98.56
377.222	88.56
377.448	107.56
377.674	119.56
377.899	90.56
378.125	92.56
378.35	110.56
378.576	96.56
378.802	94.56
379.027	85.56
379.253	104.56
379.478	103.56
379.704	107.56
379.929	99.56
380.155	80.56
380.38	98.56
380.606	97.56
380.831	104.56
381.057	101.56
381.282	79.56
381.507	85.56
381.733	104.56
381.958	98.56
382.184	103.56
382.409	85.56
382.634	99.56
382.86	97.56
383.085	98.56
383.31	87.56
383.535	109.56
383.761	100.56
383.986	105.56
384.211	102.56
384.436	101.56
384.662	97.56
384.887	98.56
385.112	87.56
385.337	97.56
385.562	97.56
385.787	88.56
386.013	103.56
386.238	89.56
386.463	108.56
386.688	92.56
386.913	99.56
387.138	117.56
387.363	92.56
387.588	95.56
387.813	104.56
388.038	110.56
388.263	107.56
388.488	107.56
388.713	118.56
388.938	107.56
389.163	97.56
389.387	102.56
389.612	99.56
389.837	115.56
390.062	96.56
390.287	91.56
390.512	90.56
390.736	93.56
390.961	115.56
391.186	99.56
391.411	100.56
391.636	105.56
391.86	111.56
392.085	107.56
392.31	125.56
392.534	105.56
392.759	107.56
392.984	115.56
393.208	116.56
393.433	106.56
393.658	119.56
393.882	115.56
394.107	100.56
394.331	115.56
394.556	117.56
394.78	110.56
395.005	117.56
395.229	105.56
395.454	99.56
395.678	116.56
395.903	98.56
396.127	119.56
396.352	110.56
396.576	102.56
396.801	101.56
397.025	113.56
397.249	105.56
397.474	118.56
397.698	121.56
397.922	117.56
398.147	107.56
398.371	95.56
398.595	122.56
398.82	104.56
399.044	106.56
399.268	104.56
399.492	131.56
399.717	119.56
399.941	122.56
400.165	127.56
400.389	107.56
400.613	121.56
400.837	106.56
401.062	123.56
401.286	121.56
401.51	111.56
401.734	115.56
401.958	131.56
402.182	119.56
402.406	113.56
402.63	114.56
402.854	118.56
403.078	121.56
403.302	129.56
403.526	131.56
403.75	118.56
403.974	140.56
404.198	110.56
404.422	111.56
404.645	126.56
404.869	123.56
405.093	122.56
405.317	129.56
405.541	125.56
405.765	108.56
405.988	117.56
406.212	115.56
406.436	126.56
406.66	131.56
406.883	123.56
407.107	123.56
407.331	110.56
407.555	126.56
407.778	115.56
408.002	105.56
408.226	117.56
408.449	127.56
408.673	117.56
408.896	123.56
409.12	126.56
409.344	123.56
409.567	115.56
409.791	122.56
410.014	133.56
410.238	116.56
410.461	125.56
410.685	126.56
410.908	133.56
411.132	131.56
411.355	134.56
411.578	137.56
411.802	140.56
412.025	122.56
412.249	110.56
412.472	137.56
412.695	126.56
412.919	127.56
413.142	114.56
413.365	121.56
413.589	118.56
413.812	133.56
414.035	135.56
414.258	133.56
414.482	119.56
414.705	143.56
414.928	121.56
415.151	129.56
415.374	122.56
415.597	123.56
415.821	141.56
416.044	135.56
416.267	142.56
416.49	135.56
416.713	127.56
416.936	127.56
417.159	132.56
417.382	131.56
417.605	127.56
417.828	142.56
418.051	146.56
418.274	120.56
418.497	152.56
418.72	135.56
418.943	146.56
419.166	136.56
419.389	144.56
419.611	143.56
419.834	138.56
420.057	137.56
420.28	150.56
420.503	144.56
420.726	136.56
420.948	132.56
421.171	139.56
421.394	144.56
421.617	155.56
421.839	142.56
422.062	143.56
422.285	135.56
422.507	124.56
422.73	123.56
422.953	137.56
423.175	120.56
423.398	133.56
423.621	128.56
423.843	140.56
424.066	144.56
424.288	151.56
424.511	149.56
424.733	162.56
424.956	147.56
425.178	142.56
425.401	154.56
425.623	149.56
425.846	151.56
426.068	127.56
426.291	144.56
426.513	135.56
426.735	137.56
426.958	138.56
427.18	142.56
427.402	133.56
427.625	126.56
427.847	129.56
428.069	129.56
428.292	147.56
428.514	136.56
428.736	133.56
428.958	145.56
429.181	143.56
429.403	133.56
429.625	129.56
429.847	122.56
430.069	121.56
430.292	129.56
430.514	135.56
430.736	134.56
430.958	129.56
431.18	126.56
431.402	129.56
431.624	129.56
431.846	114.56
432.068	104.56
432.29	106.56
432.512	128.56
432.734	127.56
432.956	140.56
433.178	133.56
433.4	154.56
433.622	142.56
433.844	146.56
434.066	130.56
434.287	126.56
434.509	117.56
434.731	120.56
434.953	127.56
435.175	142.56
435.397	146.56
435.618	120.56
435.84	119.56
436.062	127.56
436.284	127.56
436.505	138.56
436.727	139.56
436.949	122.56
437.17	143.56
437.392	140.56
437.614	117.56
437.835	108.56
438.057	117.56
438.278	125.56
438.5	123.56
438.721	138.56
438.943	151.56
439.165	138.56
439.386	145.56
439.608	150.56
439.829	163.56
440.05	158.56
440.272	154.56
440.493	142.56
440.715	155.56
440.936	144.56
441.158	151.56
441.379	153.56
441.6	170.56
441.822	177.56
442.043	149.56
442.264	143.56
442.486	137.56
442.707	143.56
442.928	140.56
443.149	142.56
443.371	165.56
443.592	146.56
443.813	137.56
444.034	141.56
444.255	136.56
444.476	147.56
444.698	137.56
444.919	146.56
445.14	286.56
445.361	215.56
445.582	166.56
445.803	158.56
446.024	157.56
446.245	169.56
446.466	166.56
446.687	166.56
446.908	174.56
447.129	188.56
447.35	161.56
447.571	157.56
447.792	154.56
448.013	156.56
448.234	141.56
448.455	163.56
448.675	147.56
448.896	154.56
449.117	154.56
449.338	132.56
449.559	140.56
449.779	149.56
450	141.56
450.221	135.56
450.442	132.56
450.662	135.56
450.883	145.56
451.104	139.56
451.324	124.56
451.545	134.56
451.766	131.56
451.986	142.56
452.207	129.56
452.428	135.56
452.648	130.56
452.869	134.56
453.089	118.56
453.31	121.56
453.53	108.56
453.751	124.56
453.971	103.56
454.192	118.56
454.412	121.56
454.633	121.56
454.853	133.56
455.073	142.56
455.294	103.56
455.514	141.56
455.734	137.56
455.955	119.56
456.175	126.56
456.395	126.56
456.616	116.56
456.836	119.56
457.056	115.56
457.276	108.56
457.497	121.56
457.717	113.56
457.937	126.56
458.157	117.56
458.377	118.56
458.598	115.56
458.818	112.56
459.038	83.56
459.258	90.56
459.478	99.56
459.698	104.56
459.918	104.56
460.138	124.56
460.358	117.56
460.578	129.56
460.798	125.56
461.018	111.56
461.238	132.56
461.458	139.56
461.678	109.56
461.898	112.56
462.118	120.56
462.338	126.56
462.558	114.56
462.777	114.56
462.997	104.56
463.217	133.56
463.437	120.56
463.657	116.56
463.876	123.56
464.096	124.56
464.316	120.56
464.536	130.56
464.755	103.56
464.975	116.56
465.195	142.56
465.414	133.56
465.634	126.56
465.854	115.56
466.073	126.56
466.293	133.56
466.512	129.56
466.732	117.56
466.951	142.56
467.171	147.56
467.391	141.56
467.61	138.56
467.829	143.56
468.049	151.56
468.268	144.56
468.488	133.56
468.707	139.56
468.927	145.56
469.146	132.56
469.365	149.56
469.585	157.56
469.804	134.56
470.023	143.56
470.243	144.56
470.462	149.56
470.681	149.56
470.901	129.56
471.12	143.56
471.339	142.56
471.558	150.56
471.777	147.56
471.997	147.56
472.216	121.56
472.435	121.56
472.654	117.56
472.873	121.56
473.092	109.56
473.311	150.56
473.53	129.56
473.749	129.56
473.968	144.56
474.187	127.56
474.406	121.56
474.625	119.56
474.844	127.56
475.063	137.56
475.282	119.56
475.501	110.56
475.72	139.56
475.939	121.56
476.158	131.56
476.377	130.56
476.596	124.56
476.814	116.56
477.033	124.56
477.252	116.56
477.471	126.56
477.69	147.56
477.908	128.56
478.127	160.56
478.346	146.56
478.564	129.56
478.783	120.56
479.002	149.56
479.22	140.56
479.439	129.56
479.658	126.56
479.876	115.56
480.095	106.56
480.313	125.56
480.532	119.56
480.751	110.56
480.969	96.56
481.188	101.56
481.406	104.56
481.624	110.56
481.843	102.56
482.061	108.56
482.28	118.56
482.498	116.56
482.717	123.56
482.935	125.56
483.153	139.56
483.372	154.56
483.59	159.56
483.808	155.56
484.027	135.56
484.245	133.56
484.463	156.56
484.681	170.56
484.9	156.56
485.118	161.56
485.336	137.56
485.554	109.56
485.772	94.56
485.99	106.56
486.209	113.56
486.427	116.56
486.645	132.56
486.863	144.56
487.081	138.56
487.299	157.56
487.517	135.56
487.735	178.56
487.953	189.56
488.171	196.56
488.389	200.56
488.607	178.56
488.825	135.56
489.043	125.56
489.261	133.56
489.479	157.56
489.696	144.56
489.914	161.56
490.132	144.56
490.35	163.56
490.568	149.56
490.786	184.56
491.003	174.56
491.221	204.56
491.439	192.56
491.657	199.56
491.874	216.56
492.092	237.56
492.31	262.56
492.527	263.56
492.745	221.56
492.963	195.56
493.18	188.56
493.398	182.56
493.615	189.56
493.833	184.56
494.05	191.56
494.268	183.56
494.485	178.56
494.703	180.56
494.92	172.56
495.138	198.56
495.355	169.56
495.573	181.56
495.79	185.56
496.008	180.56
496.225	182.56
496.442	187.56
496.66	178.56
496.877	179.56
497.094	180.56
497.312	174.56
497.529	151.56
497.746	157.56
497.963	145.56
498.181	136.56
498.398	129.56
498.615	131.56
498.832	137.56
499.049	127.56
499.267	135.56
499.484	133.56
499.701	140.56
499.918	141.56
500.135	154.56
500.352	138.56
500.569	144.56
500.786	154.56
501.003	142.56
501.22	156.56
501.437	158.56
501.654	143.56
501.871	147.56
502.088	139.56
502.305	142.56
502.522	152.56
502.739	141.56
502.956	126.56
503.172	134.56
503.389	128.56
503.606	134.56
503.823	128.56
504.04	122.56
504.256	124.56
504.473	135.56
504.69	124.56
504.907	107.56
505.123	123.56
505.34	111.56
505.557	129.56
505.773	126.56
505.99	127.56
506.207	140.56
506.423	121.56
506.64	127.56
506.856	138.56
507.073	125.56
507.289	134.56
507.506	125.56
507.722	126.56
507.939	136.56
508.155	125.56
508.372	118.56
508.588	111.56
508.805	120.56
509.021	106.56
509.238	112.56
509.454	118.56
509.67	87.56
509.887	98.56
510.103	113.56
510.319	96.56
510.536	108.56
510.752	97.56
510.968	115.56
511.184	91.56
511.401	84.56
511.617	90.56
511.833	99.56
512.049	96.56
512.265	109.56
512.481	107.56
512.698	105.56
512.914	95.56
513.13	101.56
513.346	95.56
513.562	94.56
513.778	92.56
513.994	97.56
514.21	81.56
514.426	102.56
514.642	103.56
514.858	81.56
515.074	85.56
515.29	89.56
515.506	88.56
515.721	85.56
515.937	89.56
516.153	102.56
516.369	93.56
516.585	77.56
516.801	82.56
517.016	96.56
517.232	105.56
517.448	104.56
517.664	114.56
517.879	115.56
518.095	110.56
518.311	100.56
518.527	86.56
518.742	103.56
518.958	109.56
519.173	116.56
519.389	118.56
519.605	101.56
519.82	92.56
520.036	117.56
520.251	109.56
520.467	108.56
520.682	99.56
520.898	106.56
521.113	108.56
521.329	87.56
521.544	76.56
521.76	94.56
521.975	109.56
522.19	99.56
522.406	101.56
522.621	116.56
522.836	102.56
523.052	106.56
523.267	120.56
523.482	121.56
523.698	128.56
523.913	117.56
524.128	109.56
524.343	125.56
524.559	119.56
524.774	122.56
524.989	117.56
525.204	124.56
525.419	131.56
525.634	122.56
525.849	122.56
526.064	123.56
526.28	108.56
526.495	100.56
526.71	94.56
526.925	91.56
527.14	86.56
527.355	113.56
527.57	101.56
527.785	91.56
527.999	90.56
528.214	102.56
528.429	116.56
528.644	139.56
528.859	144.56
529.074	154.56
529.289	179.56
529.503	170.56
529.718	143.56
529.933	129.56
530.148	100.56
530.363	99.56
530.577	101.56
530.792	73.56
531.007	96.56
531.221	94.56
531.436	79.56
531.651	85.56
531.865	78.56
532.08	92.56
532.295	86.56
532.509	95.56
532.724	89.56
532.938	101.56
533.153	97.56
533.367	109.56
533.582	137.56
533.796	135.56
534.011	117.56
534.225	106.56
534.44	102.56
534.654	101.56
534.868	100.56
535.083	103.56
535.297	107.56
535.511	99.56
535.726	100.56
535.94	97.56
536.154	101.56
536.369	87.56
536.583	88.56
536.797	97.56
537.011	109.56
537.225	97.56
537.44	89.56
537.654	88.56
537.868	102.56
538.082	103.56
538.296	80.56
538.51	113.56
538.724	123.56
538.938	123.56
539.153	133.56
539.367	128.56
539.581	116.56
539.795	103.56
540.009	101.56
540.222	107.56
540.436	107.56
540.65	127.56
540.864	148.56
541.078	142.56
541.292	172.56
541.506	174.56
541.72	172.56
541.934	160.56
542.147	212.56
542.361	209.56
542.575	183.56
542.789	164.56
543.002	154.56
543.216	141.56
543.43	137.56
543.644	130.56
543.857	141.56
544.071	172.56
544.285	171.56
544.498	178.56
544.712	160.56
544.925	170.56
545.139	167.56
545.352	180.56
545.566	179.56
545.779	151.56
545.993	182.56
546.206	182.56
546.42	156.56
546.633	185.56
546.847	170.56
547.06	173.56
547.274	182.56
547.487	199.56
547.7	181.56
547.914	169.56
548.127	165.56
548.34	163.56
548.554	161.56
548.767	157.56
548.98	160.56
549.193	164.56
549.407	152.56
549.62	161.56
549.833	156.56
550.046	165.56
550.259	142.56
550.473	151.56
550.686	164.56
550.899	163.56
551.112	153.56
551.325	159.56
551.538	143.56
551.751	136.56
551.964	133.56
552.177	136.56
552.39	153.56
552.603	162.56
552.816	162.56
553.029	162.56
553.242	166.56
553.455	163.56
553.667	159.56
553.88	165.56
554.093	155.56
554.306	164.56
554.519	157.56
554.732	164.56
554.944	149.56
555.157	153.56
555.37	154.56
555.583	151.56
555.795	154.56
556.008	143.56
556.221	144.56
556.433	143.56
556.646	138.56
556.859	150.56
557.071	143.56
557.284	150.56
557.496	157.56
557.709	134.56
557.921	143.56
558.134	150.56
558.346	150.56
558.559	148.56
558.771	146.56
558.984	140.56
559.196	129.56
559.409	128.56
559.621	146.56
559.833	137.56
560.046	141.56
560.258	148.56
560.47	133.56
560.683	132.56
560.895	135.56
561.107	130.56
561.32	139.56
561.532	142.56
561.744	158.56
561.956	143.56
562.168	137.56
562.381	132.56
562.593	126.56
562.805	135.56
563.017	132.56
563.229	133.56
563.441	139.56
563.653	130.56
563.865	134.56
564.077	118.56
564.289	135.56
564.501	129.56
564.713	136.56
564.925	128.56
565.137	130.56
565.349	123.56
565.561	126.56
565.773	119.56
565.985	142.56
566.197	116.56
566.408	123.56
566.62	128.56
566.832	131.56
567.044	113.56
567.255	110.56
567.467	108.56
567.679	108.56
567.891	119.56
568.102	121.56
568.314	108.56
568.526	88.56
568.737	91.56
568.949	82.56
569.161	79.56
569.372	78.56
569.584	86.56
569.795	90.56
570.007	87.56
570.218	92.56
570.43	91.56
570.641	94.56
570.853	97.56
571.064	118.56
571.276	101.56
571.487	110.56
571.698	119.56
571.91	114.56
572.121	105.56
572.333	119.56
572.544	101.56
572.755	100.56
572.966	95.56
573.178	97.56
573.389	83.56
573.6	97.56
573.811	76.56
574.023	87.56
574.234	93.56
574.445	78.56
574.656	104.56
574.867	99.56
575.078	101.56
575.289	94.56
575.501	100.56
575.712	90.56
575.923	105.56
576.134	93.56
576.345	108.56
576.556	98.56
576.767	113.56
576.978	106.56
577.188	101.56
577.399	105.56
577.61	88.56
577.821	79.56
578.032	98.56
578.243	101.56
578.454	105.56
578.665	89.56
578.875	100.56
579.086	87.56
579.297	97.56
579.508	78.56
579.718	84.56
579.929	87.56
580.14	90.56
580.35	81.56
580.561	98.56
580.772	108.56
580.982	101.56
581.193	87.56
581.403	83.56
581.614	100.56
581.825	84.56
582.035	100.56
582.246	109.56
582.456	90.56
582.667	104.56
582.877	99.56
583.087	103.56
583.298	90.56
583.508	92.56
583.719	90.56
583.929	100.56
584.139	83.56
584.35	93.56
584.56	91.56
584.77	85.56
584.981	85.56
585.191	87.56
585.401	90.56
585.611	98.56
585.821	97.56
586.032	95.56
586.242	94.56
586.452	83.56
586.662	91.56
586.872	94.56
587.082	101.56
587.292	75.56
587.502	87.56
587.713	81.56
587.923	95.56
588.133	73.56
588.343	95.56
588.553	85.56
588.762	90.56
588.972	103.56
589.182	90.56
589.392	83.56
589.602	95.56
589.812	88.56
590.022	92.56
590.232	74.56
590.441	83.56
590.651	78.56
590.861	84.56
591.071	98.56
591.281	89.56
591.49	95.56
591.7	91.56
591.91	79.56
592.119	90.56
592.329	98.56
592.539	101.56
592.748	84.56
592.958	93.56
593.167	97.56
593.377	98.56
593.587	97.56
593.796	93.56
594.006	91.56
594.215	100.56
594.424	90.56
594.634	101.56
594.843	103.56
595.053	123.56
595.262	104.56
595.472	92.56
595.681	92.56
595.89	92.56
596.1	114.56
596.309	99.56
596.518	101.56
596.727	105.56
596.937	98.56
597.146	97.56
597.355	95.56
597.564	94.56
597.774	103.56
597.983	99.56
598.192	91.56
598.401	86.56
598.61	80.56
598.819	93.56
599.028	86.56
599.237	94.56
599.446	94.56
599.655	88.56
599.864	92.56
600.073	92.56
600.282	87.56
600.491	101.56
600.7	98.56
600.909	104.56
601.118	107.56
601.327	113.56
601.536	103.56
601.745	105.56
601.953	119.56
602.162	108.56
602.371	94.56
602.58	106.56
602.789	116.56
602.997	109.56
603.206	125.56
603.415	123.56
603.623	111.56
603.832	113.56
604.041	106.56
604.249	108.56
604.458	99.56
604.666	95.56
604.875	105.56
605.084	109.56
605.292	114.56
605.501	117.56
605.709	109.56
605.918	119.56
606.126	126.56
606.334	113.56
606.543	123.56
606.751	109.56
606.96	107.56
607.168	117.56
607.376	129.56
607.585	129.56
607.793	132.56
608.001	109.56
608.21	117.56
608.418	116.56
608.626	119.56
608.834	123.56
609.043	100.56
609.251	125.56
609.459	129.56
609.667	120.56
609.875	127.56
610.083	120.56
610.291	115.56
610.499	123.56
610.707	113.56
610.916	127.56
611.124	118.56
611.332	125.56
611.54	127.56
611.748	115.56
611.955	127.56
612.163	102.56
612.371	119.56
612.579	132.56
612.787	109.56
612.995	116.56
613.203	123.56
613.411	127.56
613.618	113.56
613.826	121.56
614.034	121.56
614.242	130.56
614.449	116.56
614.657	116.56
614.865	116.56
615.072	125.56
615.28	117.56
615.488	119.56
615.695	114.56
615.903	112.56
616.111	113.56
616.318	114.56
616.526	113.56
616.733	119.56
616.941	126.56
617.148	115.56
617.356	123.56
617.563	118.56
617.771	119.56
617.978	123.56
618.185	113.56
618.393	106.56
618.6	115.56
618.807	130.56
619.015	125.56
619.222	103.56
619.429	102.56
619.637	109.56
619.844	99.56
620.051	108.56
620.258	113.56
620.466	114.56
620.673	122.56
620.88	118.56
621.087	115.56
621.294	123.56
621.501	103.56
621.708	122.56
621.915	100.56
622.122	103.56
622.329	112.56
622.536	115.56
622.743	118.56
622.95	117.56
623.157	110.56
623.364	114.56
623.571	121.56
623.778	125.56
623.985	119.56
624.192	105.56
624.399	109.56
624.606	122.56
624.812	104.56
625.019	99.56
625.226	106.56
625.433	114.56
625.639	110.56
625.846	119.56
626.053	96.56
626.259	83.56
626.466	93.56
626.673	120.56
626.879	99.56
627.086	102.56
627.293	100.56
627.499	97.56
627.706	123.56
627.912	115.56
628.119	98.56
628.325	109.56
628.532	109.56
628.738	99.56
628.945	103.56
629.151	123.56
629.357	110.56
629.564	108.56
629.77	118.56
629.976	99.56
630.183	119.56
630.389	105.56
630.595	111.56
630.802	103.56
631.008	100.56
631.214	94.56
631.42	115.56
631.627	106.56
631.833	110.56
632.039	87.56
632.245	99.56
632.451	108.56
632.657	111.56
632.863	118.56
633.069	103.56
633.275	96.56
633.481	86.56
633.688	115.56
633.893	108.56
634.099	105.56
634.305	106.56
634.511	105.56
634.717	95.56
634.923	90.56
635.129	93.56
635.335	76.56
635.541	91.56
635.747	110.56
635.952	89.56
636.158	98.56
636.364	102.56
636.57	99.56
636.775	116.56
636.981	108.56
637.187	117.56
637.392	95.56
637.598	94.56
637.804	103.56
638.009	102.56
638.215	100.56
638.421	123.56
638.626	101.56
638.832	107.56
639.037	108.56
639.243	100.56
639.448	99.56
639.654	106.56
639.859	98.56
640.065	108.56
640.27	106.56
640.475	101.56
640.681	115.56
640.886	107.56
641.091	92.56
641.297	111.56
641.502	114.56
641.707	108.56
641.913	98.56
642.118	109.56
642.323	106.56
642.528	102.56
642.733	113.56
642.939	97.56
643.144	107.56
643.349	107.56
643.554	104.56
643.759	88.56
643.964	105.56
644.169	99.56
644.374	92.56
644.579	104.56
644.784	103.56
644.989	94.56
645.194	99.56
645.399	119.56
645.604	113.56
645.809	97.56
646.014	111.56
646.219	115.56
646.423	103.56
646.628	89.56
646.833	109.56
647.038	109.56
647.243	94.56
647.447	106.56
647.652	91.56
647.857	110.56
648.062	109.56
648.266	97.56
648.471	97.56
648.676	113.56
648.88	101.56
649.085	94.56
649.289	116.56
649.494	78.56
649.698	96.56
649.903	97.56
650.107	99.56
650.312	107.56
650.516	103.56
650.721	106.56
650.925	101.56
651.13	102.56
651.334	97.56
651.539	97.56
651.743	97.56
651.947	106.56
652.152	101.56
652.356	88.56
652.56	96.56
652.764	102.56
652.969	98.56
653.173	97.56
653.377	85.56
653.581	85.56
653.785	97.56
653.99	92.56
654.194	89.56
654.398	89.56
654.602	113.56
654.806	98.56
655.01	99.56
655.214	100.56
655.418	90.56
655.622	103.56
655.826	86.56
656.03	76.56
656.234	96.56
656.438	86.56
656.642	86.56
656.846	81.56
657.049	95.56
657.253	99.56
657.457	94.56
657.661	76.56
657.865	86.56
658.068	87.56
658.272	81.56
658.476	94.56
658.68	100.56
658.883	76.56
659.087	93.56
659.291	96.56
659.494	95.56
659.698	87.56
659.901	98.56
660.105	100.56
660.309	92.56
660.512	93.56
660.716	86.56
660.919	87.56
661.123	99.56
661.326	89.56
661.53	86.56
661.733	82.56
661.936	72.56
662.14	80.56
662.343	85.56
662.546	84.56
662.75	90.56
662.953	75.56
663.156	82.56
663.36	85.56
663.563	78.56
663.766	87.56
663.969	86.56
664.173	74.56
664.376	97.56
664.579	92.56
664.782	85.56
664.985	87.56
665.188	93.56
665.391	79.56
665.594	85.56
665.797	85.56
666	91.56
666.203	89.56
666.406	77.56
666.609	75.56
666.812	96.56
667.015	92.56
667.218	78.56
667.421	78.56
667.624	76.56
667.827	91.56
668.03	85.56
668.232	75.56
668.435	83.56
668.638	92.56
668.841	75.56
669.043	90.56
669.246	87.56
669.449	85.56
669.651	86.56
669.854	76.56
670.057	75.56
670.259	87.56
670.462	86.56
670.665	73.56
670.867	84.56
671.07	86.56
671.272	99.56
671.475	90.56
671.677	82.56
671.88	77.56
672.082	89.56
672.284	84.56
672.487	95.56
672.689	89.56
672.892	78.56
