Data from Location6.07152019.Energy5.Lamp.07192019.3%Agarose_HRD10591_16-11-14-394.txt Node
Date: Fri Jul 19 16:11:14 EDT 2019
User: cochatt
Spectrometer: HR+D1059
Trigger mode: 1
Integration Time (sec): 1.000000E-1
Scans to average: 1
Electric dark correction enabled: true
Nonlinearity correction enabled: false
Boxcar width: 0
XAxis mode: Wavelengths
Number of Pixels in Spectrum: 2048
>>>>>Begin Spectral Data<<<<<
223.165	-18.25
223.4	-18.25
223.635	-18.25
223.869	-21.25
224.104	-22.25
224.338	-16.25
224.573	-15.25
224.808	-1.25
225.042	-2.25
225.277	-15.25
225.511	-13.25
225.746	3.75
225.98	14.75
226.215	12.75
226.449	10.75
226.683	17.75
226.918	39.75
227.152	25.75
227.387	33.75
227.621	24.75
227.856	40.75
228.09	35.75
228.324	47.75
228.559	52.75
228.793	52.75
229.027	56.75
229.262	59.75
229.496	62.75
229.73	63.75
229.964	55.75
230.199	71.75
230.433	71.75
230.667	74.75
230.901	66.75
231.136	87.75
231.37	80.75
231.604	70.75
231.838	71.75
232.072	66.75
232.306	70.75
232.541	78.75
232.775	84.75
233.009	81.75
233.243	71.75
233.477	74.75
233.711	76.75
233.945	85.75
234.179	73.75
234.413	82.75
234.647	92.75
234.881	78.75
235.115	74.75
235.349	82.75
235.583	79.75
235.817	77.75
236.051	81.75
236.285	74.75
236.519	72.75
236.753	83.75
236.987	73.75
237.221	77.75
237.455	78.75
237.689	94.75
237.922	72.75
238.156	68.75
238.39	69.75
238.624	80.75
238.858	75.75
239.091	69.75
239.325	64.75
239.559	69.75
239.793	63.75
240.027	70.75
240.26	62.75
240.494	62.75
240.728	73.75
240.961	74.75
241.195	100.75
241.429	72.75
241.662	70.75
241.896	69.75
242.13	64.75
242.363	64.75
242.597	74.75
242.83	74.75
243.064	68.75
243.298	74.75
243.531	81.75
243.765	69.75
243.998	71.75
244.232	67.75
244.465	70.75
244.699	58.75
244.932	77.75
245.166	77.75
245.399	79.75
245.633	76.75
245.866	72.75
246.099	74.75
246.333	69.75
246.566	68.75
246.8	70.75
247.033	78.75
247.266	81.75
247.5	80.75
247.733	85.75
247.966	82.75
248.2	71.75
248.433	84.75
248.666	72.75
248.899	89.75
249.133	99.75
249.366	79.75
249.599	86.75
249.832	88.75
250.066	74.75
250.299	75.75
250.532	73.75
250.765	89.75
250.998	76.75
251.231	76.75
251.465	77.75
251.698	83.75
251.931	81.75
252.164	72.75
252.397	85.75
252.63	84.75
252.863	75.75
253.096	76.75
253.329	92.75
253.562	74.75
253.795	70.75
254.028	80.75
254.261	71.75
254.494	67.75
254.727	80.75
254.96	79.75
255.193	76.75
255.426	85.75
255.659	84.75
255.892	71.75
256.124	78.75
256.357	82.75
256.59	82.75
256.823	80.75
257.056	92.75
257.289	73.75
257.521	80.75
257.754	85.75
257.987	79.75
258.22	73.75
258.452	78.75
258.685	65.75
258.918	86.75
259.151	86.75
259.383	74.75
259.616	70.75
259.849	91.75
260.081	80.75
260.314	74.75
260.547	65.75
260.779	64.75
261.012	89.75
261.244	73.75
261.477	77.75
261.71	86.75
261.942	72.75
262.175	78.75
262.407	76.75
262.64	68.75
262.872	80.75
263.105	71.75
263.337	78.75
263.57	82.75
263.802	86.75
264.035	77.75
264.267	77.75
264.499	96.75
264.732	89.75
264.964	73.75
265.197	84.75
265.429	76.75
265.661	86.75
265.894	66.75
266.126	66.75
266.358	85.75
266.591	81.75
266.823	80.75
267.055	82.75
267.287	66.75
267.52	88.75
267.752	92.75
267.984	65.75
268.216	79.75
268.448	73.75
268.681	78.75
268.913	80.75
269.145	88.75
269.377	80.75
269.609	75.75
269.841	89.75
270.073	78.75
270.306	85.75
270.538	72.75
270.77	87.75
271.002	81.75
271.234	83.75
271.466	90.75
271.698	71.75
271.93	70.75
272.162	87.75
272.394	74.75
272.626	69.75
272.858	69.75
273.09	81.75
273.322	80.75
273.553	82.75
273.785	93.75
274.017	75.75
274.249	86.75
274.481	80.75
274.713	79.75
274.945	70.75
275.176	74.75
275.408	86.75
275.64	81.75
275.872	90.75
276.104	87.75
276.335	77.75
276.567	77.75
276.799	89.75
277.031	89.75
277.262	84.75
277.494	99.75
277.726	74.75
277.957	89.75
278.189	81.75
278.421	80.75
278.652	86.75
278.884	82.75
279.115	74.75
279.347	85.75
279.579	89.75
279.81	92.75
280.042	82.75
280.273	76.75
280.505	73.75
280.736	73.75
280.968	81.75
281.199	88.75
281.431	77.75
281.662	70.75
281.894	78.75
282.125	79.75
282.356	74.75
282.588	79.75
282.819	76.75
283.051	89.75
283.282	90.75
283.513	89.75
283.745	86.75
283.976	81.75
284.207	79.75
284.439	88.75
284.67	93.75
284.901	90.75
285.132	82.75
285.364	70.75
285.595	74.75
285.826	81.75
286.057	75.75
286.288	79.75
286.52	71.75
286.751	69.75
286.982	83.75
287.213	73.75
287.444	65.75
287.675	84.75
287.906	73.75
288.138	82.75
288.369	78.75
288.6	94.75
288.831	79.75
289.062	66.75
289.293	76.75
289.524	88.75
289.755	66.75
289.986	86.75
290.217	74.75
290.448	85.75
290.679	100.75
290.91	93.75
291.141	84.75
291.371	73.75
291.602	81.75
291.833	68.75
292.064	92.75
292.295	88.75
292.526	64.75
292.757	81.75
292.987	67.75
293.218	69.75
293.449	80.75
293.68	87.75
293.91	83.75
294.141	90.75
294.372	90.75
294.603	68.75
294.833	68.75
295.064	84.75
295.295	64.75
295.525	81.75
295.756	74.75
295.987	87.75
296.217	103.75
296.448	77.75
296.679	80.75
296.909	91.75
297.14	94.75
297.37	86.75
297.601	81.75
297.831	80.75
298.062	72.75
298.292	69.75
298.523	88.75
298.753	79.75
298.984	73.75
299.214	72.75
299.445	87.75
299.675	89.75
299.905	84.75
300.136	74.75
300.366	87.75
300.597	85.75
300.827	78.75
301.057	82.75
301.288	75.75
301.518	69.75
301.748	78.75
301.979	66.75
302.209	75.75
302.439	78.75
302.669	74.75
302.9	84.75
303.13	90.75
303.36	72.75
303.59	81.75
303.82	90.75
304.051	74.75
304.281	97.75
304.511	84.75
304.741	82.75
304.971	83.75
305.201	89.75
305.431	80.75
305.661	69.75
305.891	87.75
306.121	82.75
306.352	100.75
306.582	79.75
306.812	70.75
307.042	96.75
307.272	82.75
307.502	68.75
307.731	88.75
307.961	73.75
308.191	88.75
308.421	78.75
308.651	70.75
308.881	92.75
309.111	83.75
309.341	80.75
309.571	93.75
309.8	83.75
310.03	74.75
310.26	73.75
310.49	73.75
310.72	87.75
310.949	93.75
311.179	81.75
311.409	81.75
311.639	77.75
311.868	83.75
312.098	85.75
312.328	88.75
312.557	68.75
312.787	72.75
313.017	92.75
313.246	76.75
313.476	82.75
313.706	84.75
313.935	81.75
314.165	79.75
314.394	78.75
314.624	88.75
314.853	93.75
315.083	84.75
315.312	76.75
315.542	76.75
315.771	77.75
316.001	75.75
316.23	71.75
316.46	68.75
316.689	83.75
316.919	94.75
317.148	100.75
317.377	92.75
317.607	72.75
317.836	78.75
318.065	91.75
318.295	69.75
318.524	79.75
318.753	70.75
318.983	82.75
319.212	62.75
319.441	83.75
319.67	86.75
319.9	72.75
320.129	88.75
320.358	69.75
320.587	78.75
320.816	84.75
321.046	88.75
321.275	89.75
321.504	79.75
321.733	77.75
321.962	89.75
322.191	89.75
322.42	91.75
322.649	85.75
322.878	86.75
323.108	94.75
323.337	84.75
323.566	79.75
323.795	84.75
324.024	92.75
324.253	72.75
324.482	83.75
324.71	86.75
324.939	77.75
325.168	78.75
325.397	85.75
325.626	77.75
325.855	80.75
326.084	99.75
326.313	92.75
326.542	89.75
326.77	70.75
326.999	63.75
327.228	83.75
327.457	99.75
327.686	87.75
327.914	91.75
328.143	75.75
328.372	83.75
328.6	78.75
328.829	82.75
329.058	79.75
329.287	74.75
329.515	72.75
329.744	77.75
329.972	84.75
330.201	68.75
330.43	85.75
330.658	88.75
330.887	75.75
331.115	85.75
331.344	78.75
331.572	81.75
331.801	76.75
332.03	84.75
332.258	68.75
332.486	72.75
332.715	84.75
332.943	81.75
333.172	74.75
333.4	85.75
333.629	74.75
333.857	96.75
334.085	84.75
334.314	83.75
334.542	95.75
334.771	85.75
334.999	78.75
335.227	75.75
335.455	82.75
335.684	74.75
335.912	85.75
336.14	92.75
336.369	86.75
336.597	87.75
336.825	89.75
337.053	72.75
337.281	73.75
337.51	85.75
337.738	88.75
337.966	86.75
338.194	78.75
338.422	79.75
338.65	78.75
338.878	74.75
339.106	82.75
339.334	87.75
339.562	91.75
339.79	80.75
340.018	87.75
340.246	79.75
340.474	80.75
340.702	81.75
340.93	77.75
341.158	74.75
341.386	73.75
341.614	81.75
341.842	84.75
342.07	79.75
342.298	80.75
342.526	71.75
342.754	84.75
342.981	98.75
343.209	81.75
343.437	93.75
343.665	91.75
343.893	82.75
344.12	80.75
344.348	81.75
344.576	78.75
344.804	75.75
345.031	74.75
345.259	81.75
345.487	71.75
345.714	76.75
345.942	78.75
346.17	94.75
346.397	93.75
346.625	88.75
346.853	63.75
347.08	69.75
347.308	73.75
347.535	82.75
347.763	78.75
347.99	86.75
348.218	89.75
348.445	76.75
348.673	77.75
348.9	81.75
349.128	88.75
349.355	87.75
349.583	86.75
349.81	74.75
350.037	95.75
350.265	100.75
350.492	96.75
350.72	85.75
350.947	87.75
351.174	90.75
351.402	75.75
351.629	75.75
351.856	73.75
352.083	92.75
352.311	79.75
352.538	90.75
352.765	75.75
352.992	87.75
353.22	85.75
353.447	76.75
353.674	82.75
353.901	83.75
354.128	76.75
354.355	73.75
354.583	74.75
354.81	84.75
355.037	87.75
355.264	93.75
355.491	91.75
355.718	77.75
355.945	84.75
356.172	83.75
356.399	78.75
356.626	80.75
356.853	95.75
357.08	81.75
357.307	90.75
357.534	93.75
357.761	70.75
357.988	71.75
358.215	92.75
358.441	89.75
358.668	95.75
358.895	85.75
359.122	78.75
359.349	82.75
359.576	86.75
359.802	78.75
360.029	95.75
360.256	89.75
360.483	76.75
360.709	75.75
360.936	86.75
361.163	102.75
361.39	79.75
361.616	86.75
361.843	84.75
362.07	85.75
362.296	80.75
362.523	89.75
362.749	70.75
362.976	84.75
363.203	87.75
363.429	80.75
363.656	96.75
363.882	87.75
364.109	85.75
364.335	83.75
364.562	85.75
364.788	78.75
365.015	87.75
365.241	94.75
365.468	82.75
365.694	80.75
365.92	82.75
366.147	74.75
366.373	84.75
366.599	83.75
366.826	80.75
367.052	78.75
367.278	83.75
367.505	84.75
367.731	85.75
367.957	71.75
368.184	100.75
368.41	93.75
368.636	69.75
368.862	91.75
369.089	86.75
369.315	102.75
369.541	104.75
369.767	83.75
369.993	82.75
370.219	75.75
370.445	85.75
370.672	93.75
370.898	79.75
371.124	79.75
371.35	93.75
371.576	103.75
371.802	98.75
372.028	94.75
372.254	84.75
372.48	96.75
372.706	95.75
372.932	83.75
373.158	87.75
373.384	98.75
373.61	92.75
373.835	86.75
374.061	76.75
374.287	103.75
374.513	88.75
374.739	92.75
374.965	99.75
375.191	94.75
375.416	87.75
375.642	82.75
375.868	88.75
376.094	86.75
376.319	81.75
376.545	81.75
376.771	80.75
376.997	98.75
377.222	91.75
377.448	88.75
377.674	92.75
377.899	92.75
378.125	75.75
378.35	111.75
378.576	99.75
378.802	100.75
379.027	100.75
379.253	89.75
379.478	102.75
379.704	90.75
379.929	87.75
380.155	103.75
380.38	90.75
380.606	104.75
380.831	104.75
381.057	109.75
381.282	98.75
381.507	103.75
381.733	97.75
381.958	86.75
382.184	90.75
382.409	86.75
382.634	97.75
382.86	97.75
383.085	103.75
383.31	90.75
383.535	105.75
383.761	100.75
383.986	86.75
384.211	81.75
384.436	92.75
384.662	94.75
384.887	88.75
385.112	89.75
385.337	95.75
385.562	97.75
385.787	105.75
386.013	106.75
386.238	104.75
386.463	105.75
386.688	93.75
386.913	95.75
387.138	85.75
387.363	89.75
387.588	86.75
387.813	103.75
388.038	91.75
388.263	94.75
388.488	89.75
388.713	99.75
388.938	96.75
389.163	106.75
389.387	108.75
389.612	108.75
389.837	117.75
390.062	93.75
390.287	97.75
390.512	103.75
390.736	98.75
390.961	90.75
391.186	99.75
391.411	111.75
391.636	103.75
391.86	121.75
392.085	99.75
392.31	108.75
392.534	82.75
392.759	111.75
392.984	101.75
393.208	89.75
393.433	110.75
393.658	104.75
393.882	118.75
394.107	107.75
394.331	98.75
394.556	112.75
394.78	110.75
395.005	115.75
395.229	102.75
395.454	101.75
395.678	102.75
395.903	95.75
396.127	94.75
396.352	102.75
396.576	106.75
396.801	113.75
397.025	113.75
397.249	106.75
397.474	126.75
397.698	111.75
397.922	114.75
398.147	111.75
398.371	119.75
398.595	99.75
398.82	118.75
399.044	102.75
399.268	104.75
399.492	92.75
399.717	118.75
399.941	105.75
400.165	117.75
400.389	111.75
400.613	110.75
400.837	116.75
401.062	110.75
401.286	102.75
401.51	116.75
401.734	110.75
401.958	128.75
402.182	112.75
402.406	127.75
402.63	111.75
402.854	121.75
403.078	111.75
403.302	90.75
403.526	128.75
403.75	136.75
403.974	112.75
404.198	116.75
404.422	111.75
404.645	109.75
404.869	109.75
405.093	120.75
405.317	108.75
405.541	109.75
405.765	96.75
405.988	118.75
406.212	126.75
406.436	120.75
406.66	115.75
406.883	119.75
407.107	118.75
407.331	119.75
407.555	102.75
407.778	121.75
408.002	117.75
408.226	112.75
408.449	129.75
408.673	120.75
408.896	144.75
409.12	111.75
409.344	134.75
409.567	114.75
409.791	123.75
410.014	125.75
410.238	125.75
410.461	123.75
410.685	117.75
410.908	121.75
411.132	129.75
411.355	120.75
411.578	130.75
411.802	142.75
412.025	134.75
412.249	110.75
412.472	124.75
412.695	120.75
412.919	122.75
413.142	118.75
413.365	128.75
413.589	111.75
413.812	119.75
414.035	125.75
414.258	109.75
414.482	119.75
414.705	137.75
414.928	132.75
415.151	121.75
415.374	133.75
415.597	128.75
415.821	124.75
416.044	123.75
416.267	120.75
416.49	119.75
416.713	117.75
416.936	127.75
417.159	133.75
417.382	127.75
417.605	122.75
417.828	133.75
418.051	113.75
418.274	115.75
418.497	132.75
418.72	130.75
418.943	127.75
419.166	130.75
419.389	142.75
419.611	137.75
419.834	137.75
420.057	131.75
420.28	134.75
420.503	130.75
420.726	126.75
420.948	144.75
421.171	119.75
421.394	138.75
421.617	139.75
421.839	137.75
422.062	150.75
422.285	130.75
422.507	121.75
422.73	126.75
422.953	123.75
423.175	129.75
423.398	121.75
423.621	123.75
423.843	128.75
424.066	142.75
424.288	152.75
424.511	141.75
424.733	144.75
424.956	142.75
425.178	142.75
425.401	140.75
425.623	125.75
425.846	145.75
426.068	126.75
426.291	134.75
426.513	133.75
426.735	122.75
426.958	123.75
427.18	148.75
427.402	138.75
427.625	130.75
427.847	120.75
428.069	121.75
428.292	117.75
428.514	125.75
428.736	126.75
428.958	141.75
429.181	137.75
429.403	117.75
429.625	122.75
429.847	119.75
430.069	128.75
430.292	138.75
430.514	131.75
430.736	132.75
430.958	137.75
431.18	134.75
431.402	132.75
431.624	129.75
431.846	105.75
432.068	103.75
432.29	103.75
432.512	102.75
432.734	123.75
432.956	124.75
433.178	131.75
433.4	136.75
433.622	134.75
433.844	124.75
434.066	132.75
434.287	101.75
434.509	90.75
434.731	119.75
434.953	111.75
435.175	136.75
435.397	133.75
435.618	122.75
435.84	110.75
436.062	112.75
436.284	129.75
436.505	128.75
436.727	128.75
436.949	116.75
437.17	124.75
437.392	145.75
437.614	120.75
437.835	112.75
438.057	115.75
438.278	104.75
438.5	126.75
438.721	128.75
438.943	148.75
439.165	151.75
439.386	144.75
439.608	148.75
439.829	143.75
440.05	149.75
440.272	146.75
440.493	145.75
440.715	146.75
440.936	141.75
441.158	149.75
441.379	135.75
441.6	153.75
441.822	143.75
442.043	149.75
442.264	153.75
442.486	137.75
442.707	147.75
442.928	139.75
443.149	140.75
443.371	133.75
443.592	154.75
443.813	148.75
444.034	143.75
444.255	160.75
444.476	154.75
444.698	133.75
444.919	145.75
445.14	271.75
445.361	202.75
445.582	165.75
445.803	149.75
446.024	153.75
446.245	153.75
446.466	156.75
446.687	153.75
446.908	144.75
447.129	138.75
447.35	146.75
447.571	141.75
447.792	136.75
448.013	149.75
448.234	147.75
448.455	138.75
448.675	143.75
448.896	152.75
449.117	152.75
449.338	126.75
449.559	151.75
449.779	143.75
450	130.75
450.221	126.75
450.442	146.75
450.662	134.75
450.883	136.75
451.104	138.75
451.324	134.75
451.545	137.75
451.766	127.75
451.986	126.75
452.207	120.75
452.428	128.75
452.648	121.75
452.869	136.75
453.089	115.75
453.31	121.75
453.53	125.75
453.751	104.75
453.971	94.75
454.192	106.75
454.412	116.75
454.633	120.75
454.853	130.75
455.073	139.75
455.294	121.75
455.514	123.75
455.734	125.75
455.955	128.75
456.175	108.75
456.395	110.75
456.616	111.75
456.836	111.75
457.056	113.75
457.276	113.75
457.497	104.75
457.717	115.75
457.937	112.75
458.157	108.75
458.377	101.75
458.598	99.75
458.818	100.75
459.038	101.75
459.258	82.75
459.478	89.75
459.698	82.75
459.918	95.75
460.138	109.75
460.358	102.75
460.578	119.75
460.798	113.75
461.018	126.75
461.238	120.75
461.458	118.75
461.678	116.75
461.898	113.75
462.118	105.75
462.338	108.75
462.558	103.75
462.777	114.75
462.997	120.75
463.217	105.75
463.437	114.75
463.657	120.75
463.876	104.75
464.096	111.75
464.316	108.75
464.536	123.75
464.755	121.75
464.975	107.75
465.195	102.75
465.414	119.75
465.634	117.75
465.854	128.75
466.073	122.75
466.293	114.75
466.512	114.75
466.732	124.75
466.951	134.75
467.171	133.75
467.391	128.75
467.61	132.75
467.829	147.75
468.049	142.75
468.268	125.75
468.488	119.75
468.707	130.75
468.927	128.75
469.146	147.75
469.365	135.75
469.585	149.75
469.804	156.75
470.023	128.75
470.243	151.75
470.462	138.75
470.681	142.75
470.901	142.75
471.12	136.75
471.339	150.75
471.558	150.75
471.777	132.75
471.997	133.75
472.216	127.75
472.435	116.75
472.654	92.75
472.873	100.75
473.092	124.75
473.311	128.75
473.53	133.75
473.749	128.75
473.968	134.75
474.187	127.75
474.406	133.75
474.625	120.75
474.844	122.75
475.063	129.75
475.282	124.75
475.501	112.75
475.72	113.75
475.939	132.75
476.158	136.75
476.377	135.75
476.596	136.75
476.814	121.75
477.033	119.75
477.252	105.75
477.471	114.75
477.69	132.75
477.908	128.75
478.127	129.75
478.346	128.75
478.564	146.75
478.783	144.75
479.002	153.75
479.22	144.75
479.439	130.75
479.658	125.75
479.876	113.75
480.095	105.75
480.313	118.75
480.532	122.75
480.751	115.75
480.969	84.75
481.188	83.75
481.406	83.75
481.624	94.75
481.843	85.75
482.061	111.75
482.28	113.75
482.498	104.75
482.717	112.75
482.935	118.75
483.153	160.75
483.372	153.75
483.59	150.75
483.808	149.75
484.027	144.75
484.245	139.75
484.463	148.75
484.681	179.75
484.9	151.75
485.118	148.75
485.336	118.75
485.554	104.75
485.772	105.75
485.99	118.75
486.209	106.75
486.427	116.75
486.645	130.75
486.863	145.75
487.081	139.75
487.299	129.75
487.517	148.75
487.735	182.75
487.953	184.75
488.171	193.75
488.389	182.75
488.607	162.75
488.825	136.75
489.043	137.75
489.261	135.75
489.479	144.75
489.696	146.75
489.914	137.75
490.132	142.75
490.35	146.75
490.568	161.75
490.786	169.75
491.003	173.75
491.221	184.75
491.439	198.75
491.657	198.75
491.874	208.75
492.092	255.75
492.31	242.75
492.527	240.75
492.745	218.75
492.963	198.75
493.18	192.75
493.398	192.75
493.615	181.75
493.833	185.75
494.05	180.75
494.268	195.75
494.485	169.75
494.703	154.75
494.92	165.75
495.138	178.75
495.355	176.75
495.573	181.75
495.79	163.75
496.008	167.75
496.225	180.75
496.442	180.75
496.66	181.75
496.877	165.75
497.094	171.75
497.312	175.75
497.529	162.75
497.746	163.75
497.963	148.75
498.181	144.75
498.398	118.75
498.615	123.75
498.832	114.75
499.049	105.75
499.267	121.75
499.484	125.75
499.701	127.75
499.918	154.75
500.135	142.75
500.352	133.75
500.569	150.75
500.786	135.75
501.003	132.75
501.22	152.75
501.437	144.75
501.654	137.75
501.871	121.75
502.088	144.75
502.305	111.75
502.522	136.75
502.739	143.75
502.956	134.75
503.172	129.75
503.389	127.75
503.606	126.75
503.823	138.75
504.04	127.75
504.256	120.75
504.473	120.75
504.69	119.75
504.907	128.75
505.123	119.75
505.34	124.75
505.557	112.75
505.773	131.75
505.99	133.75
506.207	114.75
506.423	118.75
506.64	119.75
506.856	120.75
507.073	119.75
507.289	133.75
507.506	120.75
507.722	124.75
507.939	110.75
508.155	130.75
508.372	119.75
508.588	107.75
508.805	108.75
509.021	122.75
509.238	100.75
509.454	99.75
509.67	102.75
509.887	82.75
510.103	93.75
510.319	94.75
510.536	90.75
510.752	86.75
510.968	92.75
511.184	70.75
511.401	91.75
511.617	83.75
511.833	89.75
512.049	111.75
512.265	86.75
512.481	92.75
512.698	94.75
512.914	100.75
513.13	96.75
513.346	89.75
513.562	82.75
513.778	97.75
513.994	96.75
514.21	93.75
514.426	80.75
514.642	92.75
514.858	95.75
515.074	88.75
515.29	89.75
515.506	81.75
515.721	104.75
515.937	91.75
516.153	76.75
516.369	87.75
516.585	85.75
516.801	84.75
517.016	90.75
517.232	89.75
517.448	103.75
517.664	87.75
517.879	89.75
518.095	93.75
518.311	84.75
518.527	100.75
518.742	85.75
518.958	96.75
519.173	104.75
519.389	108.75
519.605	114.75
519.82	101.75
520.036	112.75
520.251	103.75
520.467	105.75
520.682	113.75
520.898	92.75
521.113	98.75
521.329	90.75
521.544	92.75
521.76	89.75
521.975	94.75
522.19	90.75
522.406	98.75
522.621	100.75
522.836	104.75
523.052	109.75
523.267	110.75
523.482	125.75
523.698	124.75
523.913	128.75
524.128	129.75
524.343	129.75
524.559	123.75
524.774	95.75
524.989	110.75
525.204	120.75
525.419	122.75
525.634	116.75
525.849	120.75
526.064	114.75
526.28	105.75
526.495	114.75
526.71	81.75
526.925	74.75
527.14	85.75
527.355	80.75
527.57	89.75
527.785	100.75
527.999	104.75
528.214	108.75
528.429	119.75
528.644	122.75
528.859	128.75
529.074	137.75
529.289	159.75
529.503	159.75
529.718	147.75
529.933	129.75
530.148	116.75
530.363	94.75
530.577	84.75
530.792	74.75
531.007	80.75
531.221	84.75
531.436	88.75
531.651	84.75
531.865	83.75
532.08	84.75
532.295	91.75
532.509	93.75
532.724	75.75
532.938	87.75
533.153	110.75
533.367	104.75
533.582	121.75
533.796	135.75
534.011	127.75
534.225	109.75
534.44	100.75
534.654	106.75
534.868	96.75
535.083	97.75
535.297	118.75
535.511	115.75
535.726	110.75
535.94	105.75
536.154	104.75
536.369	77.75
536.583	84.75
536.797	93.75
537.011	77.75
537.225	87.75
537.44	90.75
537.654	98.75
537.868	97.75
538.082	86.75
538.296	101.75
538.51	103.75
538.724	108.75
538.938	136.75
539.153	129.75
539.367	121.75
539.581	104.75
539.795	107.75
540.009	93.75
540.222	108.75
540.436	101.75
540.65	128.75
540.864	124.75
541.078	144.75
541.292	146.75
541.506	168.75
541.72	196.75
541.934	176.75
542.147	187.75
542.361	198.75
542.575	178.75
542.789	153.75
543.002	136.75
543.216	131.75
543.43	136.75
543.644	142.75
543.857	134.75
544.071	157.75
544.285	158.75
544.498	160.75
544.712	174.75
544.925	160.75
545.139	165.75
545.352	162.75
545.566	152.75
545.779	170.75
545.993	164.75
546.206	160.75
546.42	160.75
546.633	174.75
546.847	168.75
547.06	157.75
547.274	174.75
547.487	166.75
547.7	189.75
547.914	173.75
548.127	152.75
548.34	177.75
548.554	163.75
548.767	168.75
548.98	155.75
549.193	156.75
549.407	153.75
549.62	161.75
549.833	154.75
550.046	153.75
550.259	150.75
550.473	149.75
550.686	153.75
550.899	152.75
551.112	156.75
551.325	144.75
551.538	144.75
551.751	142.75
551.964	120.75
552.177	117.75
552.39	144.75
552.603	155.75
552.816	161.75
553.029	154.75
553.242	164.75
553.455	168.75
553.667	148.75
553.88	157.75
554.093	135.75
554.306	150.75
554.519	144.75
554.732	143.75
554.944	156.75
555.157	140.75
555.37	132.75
555.583	159.75
555.795	134.75
556.008	142.75
556.221	141.75
556.433	145.75
556.646	132.75
556.859	142.75
557.071	155.75
557.284	139.75
557.496	133.75
557.709	141.75
557.921	137.75
558.134	141.75
558.346	151.75
558.559	153.75
558.771	151.75
558.984	135.75
559.196	138.75
559.409	151.75
559.621	126.75
559.833	123.75
560.046	135.75
560.258	129.75
560.47	132.75
560.683	147.75
560.895	133.75
561.107	129.75
561.32	135.75
561.532	135.75
561.744	118.75
561.956	147.75
562.168	141.75
562.381	125.75
562.593	140.75
562.805	128.75
563.017	126.75
563.229	119.75
563.441	140.75
563.653	126.75
563.865	114.75
564.077	132.75
564.289	128.75
564.501	125.75
564.713	132.75
564.925	119.75
565.137	118.75
565.349	121.75
565.561	121.75
565.773	122.75
565.985	111.75
566.197	124.75
566.408	108.75
566.62	118.75
566.832	128.75
567.044	122.75
567.255	126.75
567.467	109.75
567.679	109.75
567.891	121.75
568.102	102.75
568.314	103.75
568.526	95.75
568.737	97.75
568.949	82.75
569.161	82.75
569.372	81.75
569.584	79.75
569.795	91.75
570.007	84.75
570.218	87.75
570.43	87.75
570.641	104.75
570.853	96.75
571.064	96.75
571.276	100.75
571.487	98.75
571.698	101.75
571.91	108.75
572.121	99.75
572.333	95.75
572.544	91.75
572.755	93.75
572.966	89.75
573.178	108.75
573.389	82.75
573.6	87.75
573.811	86.75
574.023	83.75
574.234	72.75
574.445	92.75
574.656	96.75
574.867	98.75
575.078	76.75
575.289	91.75
575.501	98.75
575.712	94.75
575.923	103.75
576.134	101.75
576.345	102.75
576.556	121.75
576.767	104.75
576.978	110.75
577.188	94.75
577.399	88.75
577.61	87.75
577.821	96.75
578.032	94.75
578.243	72.75
578.454	82.75
578.665	87.75
578.875	95.75
579.086	76.75
579.297	90.75
579.508	95.75
579.718	96.75
579.929	80.75
580.14	83.75
580.35	82.75
580.561	86.75
580.772	90.75
580.982	100.75
581.193	106.75
581.403	101.75
581.614	91.75
581.825	101.75
582.035	87.75
582.246	81.75
582.456	96.75
582.667	84.75
582.877	97.75
583.087	93.75
583.298	92.75
583.508	92.75
583.719	85.75
583.929	106.75
584.139	93.75
584.35	78.75
584.56	94.75
584.77	69.75
584.981	87.75
585.191	92.75
585.401	73.75
585.611	85.75
585.821	83.75
586.032	92.75
586.242	92.75
586.452	77.75
586.662	82.75
586.872	81.75
587.082	82.75
587.292	85.75
587.502	71.75
587.713	89.75
587.923	82.75
588.133	90.75
588.343	80.75
588.553	79.75
588.762	80.75
588.972	83.75
589.182	83.75
589.392	84.75
589.602	87.75
589.812	95.75
590.022	79.75
590.232	96.75
590.441	80.75
590.651	87.75
590.861	77.75
591.071	99.75
591.281	81.75
591.49	93.75
591.7	74.75
591.91	84.75
592.119	80.75
592.329	77.75
592.539	90.75
592.748	88.75
592.958	82.75
593.167	85.75
593.377	88.75
593.587	100.75
593.796	88.75
594.006	85.75
594.215	65.75
594.424	88.75
594.634	99.75
594.843	92.75
595.053	93.75
595.262	100.75
595.472	80.75
595.681	93.75
595.89	78.75
596.1	75.75
596.309	98.75
596.518	92.75
596.727	92.75
596.937	96.75
597.146	105.75
597.355	89.75
597.564	97.75
597.774	93.75
597.983	79.75
598.192	84.75
598.401	87.75
598.61	80.75
598.819	85.75
599.028	105.75
599.237	94.75
599.446	78.75
599.655	96.75
599.864	97.75
600.073	96.75
600.282	88.75
600.491	85.75
600.7	103.75
600.909	93.75
601.118	98.75
601.327	95.75
601.536	94.75
601.745	99.75
601.953	120.75
602.162	106.75
602.371	100.75
602.58	107.75
602.789	112.75
602.997	104.75
603.206	103.75
603.415	118.75
603.623	112.75
603.832	103.75
604.041	115.75
604.249	110.75
604.458	85.75
604.666	100.75
604.875	94.75
605.084	112.75
605.292	114.75
605.501	118.75
605.709	114.75
605.918	126.75
606.126	130.75
606.334	101.75
606.543	101.75
606.751	127.75
606.96	112.75
607.168	112.75
607.376	103.75
607.585	107.75
607.793	118.75
608.001	117.75
608.21	114.75
608.418	132.75
608.626	102.75
608.834	124.75
609.043	102.75
609.251	108.75
609.459	109.75
609.667	122.75
609.875	120.75
610.083	128.75
610.291	111.75
610.499	106.75
610.707	117.75
610.916	111.75
611.124	113.75
611.332	131.75
611.54	115.75
611.748	103.75
611.955	109.75
612.163	116.75
612.371	124.75
612.579	108.75
612.787	112.75
612.995	105.75
613.203	116.75
613.411	120.75
613.618	102.75
613.826	118.75
614.034	107.75
614.242	112.75
614.449	114.75
614.657	100.75
614.865	117.75
615.072	104.75
615.28	108.75
615.488	112.75
615.695	103.75
615.903	107.75
616.111	109.75
616.318	116.75
616.526	104.75
616.733	119.75
616.941	115.75
617.148	101.75
617.356	105.75
617.563	112.75
617.771	108.75
617.978	104.75
618.185	93.75
618.393	110.75
618.6	121.75
618.807	118.75
619.015	119.75
619.222	108.75
619.429	96.75
619.637	121.75
619.844	110.75
620.051	104.75
620.258	104.75
620.466	122.75
620.673	120.75
620.88	101.75
621.087	105.75
621.294	117.75
621.501	98.75
621.708	110.75
621.915	87.75
622.122	120.75
622.329	108.75
622.536	105.75
622.743	105.75
622.95	127.75
623.157	109.75
623.364	88.75
623.571	108.75
623.778	113.75
623.985	112.75
624.192	100.75
624.399	112.75
624.606	111.75
624.812	102.75
625.019	96.75
625.226	103.75
625.433	106.75
625.639	98.75
625.846	105.75
626.053	111.75
626.259	99.75
626.466	94.75
626.673	96.75
626.879	96.75
627.086	101.75
627.293	100.75
627.499	112.75
627.706	115.75
627.912	97.75
628.119	108.75
628.325	100.75
628.532	94.75
628.738	110.75
628.945	98.75
629.151	100.75
629.357	95.75
629.564	114.75
629.77	109.75
629.976	93.75
630.183	97.75
630.389	97.75
630.595	103.75
630.802	113.75
631.008	100.75
631.214	103.75
631.42	97.75
631.627	106.75
631.833	103.75
632.039	97.75
632.245	105.75
632.451	112.75
632.657	103.75
632.863	114.75
633.069	87.75
633.275	108.75
633.481	100.75
633.688	92.75
633.893	93.75
634.099	96.75
634.305	104.75
634.511	97.75
634.717	92.75
634.923	92.75
635.129	103.75
635.335	105.75
635.541	95.75
635.747	101.75
635.952	101.75
636.158	84.75
636.364	96.75
636.57	97.75
636.775	104.75
636.981	97.75
637.187	104.75
637.392	105.75
637.598	99.75
637.804	100.75
638.009	110.75
638.215	99.75
638.421	95.75
638.626	97.75
638.832	96.75
639.037	92.75
639.243	101.75
639.448	98.75
639.654	102.75
639.859	93.75
640.065	99.75
640.27	108.75
640.475	100.75
640.681	94.75
640.886	94.75
641.091	112.75
641.297	102.75
641.502	111.75
641.707	100.75
641.913	98.75
642.118	113.75
642.323	103.75
642.528	98.75
642.733	97.75
642.939	105.75
643.144	100.75
643.349	92.75
643.554	89.75
643.759	92.75
643.964	88.75
644.169	90.75
644.374	94.75
644.579	108.75
644.784	109.75
644.989	106.75
645.194	82.75
645.399	94.75
645.604	96.75
645.809	102.75
646.014	95.75
646.219	98.75
646.423	87.75
646.628	95.75
646.833	93.75
647.038	103.75
647.243	102.75
647.447	109.75
647.652	101.75
647.857	103.75
648.062	116.75
648.266	98.75
648.471	97.75
648.676	102.75
648.88	94.75
649.085	103.75
649.289	85.75
649.494	90.75
649.698	93.75
649.903	89.75
650.107	93.75
650.312	103.75
650.516	99.75
650.721	97.75
650.925	100.75
651.13	96.75
651.334	87.75
651.539	102.75
651.743	98.75
651.947	98.75
652.152	95.75
652.356	104.75
652.56	115.75
652.764	92.75
652.969	94.75
653.173	93.75
653.377	98.75
653.581	82.75
653.785	77.75
653.99	89.75
654.194	89.75
654.398	76.75
654.602	94.75
654.806	93.75
655.01	96.75
655.214	86.75
655.418	89.75
655.622	90.75
655.826	96.75
656.03	89.75
656.234	78.75
656.438	103.75
656.642	101.75
656.846	91.75
657.049	83.75
657.253	89.75
657.457	76.75
657.661	79.75
657.865	74.75
658.068	76.75
658.272	80.75
658.476	92.75
658.68	88.75
658.883	95.75
659.087	88.75
659.291	92.75
659.494	82.75
659.698	94.75
659.901	93.75
660.105	82.75
660.309	86.75
660.512	90.75
660.716	76.75
660.919	93.75
661.123	75.75
661.326	71.75
661.53	76.75
661.733	73.75
661.936	87.75
662.14	68.75
662.343	84.75
662.546	78.75
662.75	87.75
662.953	78.75
663.156	80.75
663.36	74.75
663.563	70.75
663.766	72.75
663.969	88.75
664.173	79.75
664.376	75.75
664.579	81.75
664.782	70.75
664.985	85.75
665.188	95.75
665.391	80.75
665.594	80.75
665.797	85.75
666	81.75
666.203	81.75
666.406	69.75
666.609	79.75
666.812	77.75
667.015	80.75
667.218	84.75
667.421	84.75
667.624	75.75
667.827	78.75
668.03	93.75
668.232	97.75
668.435	90.75
668.638	84.75
668.841	96.75
669.043	84.75
669.246	79.75
669.449	87.75
669.651	87.75
669.854	77.75
670.057	86.75
670.259	92.75
670.462	79.75
670.665	78.75
670.867	69.75
671.07	75.75
671.272	69.75
671.475	86.75
671.677	86.75
671.88	75.75
672.082	71.75
672.284	80.75
672.487	72.75
672.689	84.75
672.892	74.75
