Data from Location6.07152019.Energy5.Lamp.07192019.3%Agarose_HRD10591_16-11-20-408.txt Node
Date: Fri Jul 19 16:11:20 EDT 2019
User: cochatt
Spectrometer: HR+D1059
Trigger mode: 1
Integration Time (sec): 1.000000E-1
Scans to average: 1
Electric dark correction enabled: true
Nonlinearity correction enabled: false
Boxcar width: 0
XAxis mode: Wavelengths
Number of Pixels in Spectrum: 2048
>>>>>Begin Spectral Data<<<<<
223.165	-18.31
223.4	-18.31
223.635	-18.31
223.869	-14.31
224.104	-17.31
224.338	-17.31
224.573	-16.31
224.808	-23.31
225.042	7.69
225.277	9.69
225.511	-9.31
225.746	7.69
225.98	10.69
226.215	12.69
226.449	14.69
226.683	1.69
226.918	11.69
227.152	39.69
227.387	41.69
227.621	34.69
227.856	51.69
228.09	57.69
228.324	51.69
228.559	49.69
228.793	53.69
229.027	42.69
229.262	67.69
229.496	58.69
229.73	80.69
229.964	67.69
230.199	76.69
230.433	55.69
230.667	72.69
230.901	77.69
231.136	89.69
231.37	74.69
231.604	72.69
231.838	84.69
232.072	73.69
232.306	94.69
232.541	85.69
232.775	89.69
233.009	74.69
233.243	91.69
233.477	81.69
233.711	88.69
233.945	80.69
234.179	80.69
234.413	87.69
234.647	77.69
234.881	91.69
235.115	79.69
235.349	86.69
235.583	86.69
235.817	65.69
236.051	83.69
236.285	86.69
236.519	75.69
236.753	75.69
236.987	76.69
237.221	79.69
237.455	66.69
237.689	73.69
237.922	76.69
238.156	72.69
238.39	61.69
238.624	75.69
238.858	81.69
239.091	81.69
239.325	67.69
239.559	70.69
239.793	79.69
240.027	67.69
240.26	67.69
240.494	74.69
240.728	69.69
240.961	61.69
241.195	88.69
241.429	82.69
241.662	69.69
241.896	73.69
242.13	85.69
242.363	86.69
242.597	88.69
242.83	81.69
243.064	77.69
243.298	72.69
243.531	46.69
243.765	70.69
243.998	81.69
244.232	83.69
244.465	82.69
244.699	84.69
244.932	65.69
245.166	70.69
245.399	71.69
245.633	81.69
245.866	76.69
246.099	81.69
246.333	76.69
246.566	76.69
246.8	67.69
247.033	76.69
247.266	82.69
247.5	83.69
247.733	66.69
247.966	80.69
248.2	80.69
248.433	74.69
248.666	84.69
248.899	98.69
249.133	80.69
249.366	88.69
249.599	71.69
249.832	69.69
250.066	93.69
250.299	85.69
250.532	78.69
250.765	91.69
250.998	75.69
251.231	77.69
251.465	71.69
251.698	73.69
251.931	80.69
252.164	67.69
252.397	76.69
252.63	88.69
252.863	75.69
253.096	69.69
253.329	77.69
253.562	79.69
253.795	75.69
254.028	87.69
254.261	73.69
254.494	93.69
254.727	87.69
254.96	78.69
255.193	89.69
255.426	77.69
255.659	71.69
255.892	94.69
256.124	72.69
256.357	87.69
256.59	91.69
256.823	75.69
257.056	76.69
257.289	81.69
257.521	87.69
257.754	58.69
257.987	79.69
258.22	90.69
258.452	77.69
258.685	79.69
258.918	65.69
259.151	85.69
259.383	74.69
259.616	71.69
259.849	84.69
260.081	77.69
260.314	73.69
260.547	85.69
260.779	79.69
261.012	80.69
261.244	70.69
261.477	68.69
261.71	79.69
261.942	75.69
262.175	90.69
262.407	83.69
262.64	79.69
262.872	89.69
263.105	82.69
263.337	81.69
263.57	84.69
263.802	76.69
264.035	89.69
264.267	82.69
264.499	81.69
264.732	89.69
264.964	67.69
265.197	73.69
265.429	85.69
265.661	89.69
265.894	90.69
266.126	90.69
266.358	82.69
266.591	74.69
266.823	76.69
267.055	74.69
267.287	77.69
267.52	71.69
267.752	85.69
267.984	86.69
268.216	82.69
268.448	83.69
268.681	80.69
268.913	74.69
269.145	83.69
269.377	85.69
269.609	75.69
269.841	73.69
270.073	94.69
270.306	69.69
270.538	81.69
270.77	75.69
271.002	81.69
271.234	79.69
271.466	79.69
271.698	78.69
271.93	78.69
272.162	74.69
272.394	83.69
272.626	83.69
272.858	77.69
273.09	79.69
273.322	83.69
273.553	79.69
273.785	83.69
274.017	75.69
274.249	83.69
274.481	64.69
274.713	87.69
274.945	80.69
275.176	91.69
275.408	83.69
275.64	76.69
275.872	80.69
276.104	94.69
276.335	75.69
276.567	79.69
276.799	88.69
277.031	80.69
277.262	75.69
277.494	86.69
277.726	88.69
277.957	92.69
278.189	70.69
278.421	72.69
278.652	85.69
278.884	71.69
279.115	88.69
279.347	69.69
279.579	87.69
279.81	81.69
280.042	75.69
280.273	98.69
280.505	88.69
280.736	80.69
280.968	84.69
281.199	70.69
281.431	86.69
281.662	93.69
281.894	79.69
282.125	77.69
282.356	89.69
282.588	60.69
282.819	79.69
283.051	84.69
283.282	79.69
283.513	88.69
283.745	81.69
283.976	89.69
284.207	77.69
284.439	86.69
284.67	83.69
284.901	88.69
285.132	84.69
285.364	78.69
285.595	76.69
285.826	82.69
286.057	92.69
286.288	75.69
286.52	86.69
286.751	87.69
286.982	85.69
287.213	75.69
287.444	81.69
287.675	98.69
287.906	92.69
288.138	82.69
288.369	77.69
288.6	98.69
288.831	80.69
289.062	94.69
289.293	75.69
289.524	62.69
289.755	81.69
289.986	81.69
290.217	76.69
290.448	94.69
290.679	89.69
290.91	81.69
291.141	72.69
291.371	82.69
291.602	86.69
291.833	90.69
292.064	80.69
292.295	87.69
292.526	86.69
292.757	81.69
292.987	98.69
293.218	87.69
293.449	73.69
293.68	75.69
293.91	79.69
294.141	69.69
294.372	79.69
294.603	93.69
294.833	100.69
295.064	70.69
295.295	93.69
295.525	68.69
295.756	75.69
295.987	74.69
296.217	65.69
296.448	85.69
296.679	88.69
296.909	84.69
297.14	86.69
297.37	82.69
297.601	98.69
297.831	90.69
298.062	89.69
298.292	80.69
298.523	86.69
298.753	91.69
298.984	88.69
299.214	82.69
299.445	80.69
299.675	77.69
299.905	79.69
300.136	86.69
300.366	81.69
300.597	95.69
300.827	72.69
301.057	81.69
301.288	97.69
301.518	84.69
301.748	100.69
301.979	86.69
302.209	72.69
302.439	83.69
302.669	81.69
302.9	91.69
303.13	89.69
303.36	86.69
303.59	72.69
303.82	79.69
304.051	80.69
304.281	87.69
304.511	98.69
304.741	96.69
304.971	84.69
305.201	81.69
305.431	81.69
305.661	91.69
305.891	83.69
306.121	85.69
306.352	79.69
306.582	83.69
306.812	65.69
307.042	82.69
307.272	90.69
307.502	80.69
307.731	94.69
307.961	85.69
308.191	82.69
308.421	78.69
308.651	83.69
308.881	82.69
309.111	95.69
309.341	82.69
309.571	87.69
309.8	95.69
310.03	84.69
310.26	89.69
310.49	81.69
310.72	82.69
310.949	80.69
311.179	89.69
311.409	81.69
311.639	73.69
311.868	95.69
312.098	81.69
312.328	85.69
312.557	91.69
312.787	75.69
313.017	86.69
313.246	78.69
313.476	79.69
313.706	82.69
313.935	73.69
314.165	76.69
314.394	89.69
314.624	98.69
314.853	85.69
315.083	91.69
315.312	73.69
315.542	83.69
315.771	64.69
316.001	84.69
316.23	98.69
316.46	83.69
316.689	82.69
316.919	82.69
317.148	96.69
317.377	98.69
317.607	84.69
317.836	83.69
318.065	77.69
318.295	78.69
318.524	82.69
318.753	86.69
318.983	99.69
319.212	87.69
319.441	90.69
319.67	83.69
319.9	89.69
320.129	86.69
320.358	86.69
320.587	64.69
320.816	84.69
321.046	93.69
321.275	77.69
321.504	86.69
321.733	84.69
321.962	87.69
322.191	89.69
322.42	84.69
322.649	88.69
322.878	81.69
323.108	79.69
323.337	78.69
323.566	89.69
323.795	83.69
324.024	69.69
324.253	86.69
324.482	109.69
324.71	71.69
324.939	82.69
325.168	90.69
325.397	78.69
325.626	91.69
325.855	87.69
326.084	70.69
326.313	86.69
326.542	92.69
326.77	93.69
326.999	90.69
327.228	103.69
327.457	81.69
327.686	79.69
327.914	74.69
328.143	84.69
328.372	90.69
328.6	84.69
328.829	97.69
329.058	79.69
329.287	93.69
329.515	78.69
329.744	90.69
329.972	77.69
330.201	85.69
330.43	93.69
330.658	86.69
330.887	82.69
331.115	81.69
331.344	93.69
331.572	93.69
331.801	91.69
332.03	94.69
332.258	94.69
332.486	83.69
332.715	86.69
332.943	81.69
333.172	69.69
333.4	98.69
333.629	77.69
333.857	93.69
334.085	94.69
334.314	71.69
334.542	81.69
334.771	82.69
334.999	82.69
335.227	88.69
335.455	77.69
335.684	96.69
335.912	82.69
336.14	74.69
336.369	93.69
336.597	84.69
336.825	80.69
337.053	81.69
337.281	77.69
337.51	87.69
337.738	78.69
337.966	86.69
338.194	75.69
338.422	75.69
338.65	81.69
338.878	69.69
339.106	69.69
339.334	76.69
339.562	75.69
339.79	70.69
340.018	98.69
340.246	75.69
340.474	80.69
340.702	83.69
340.93	77.69
341.158	99.69
341.386	86.69
341.614	84.69
341.842	80.69
342.07	74.69
342.298	87.69
342.526	75.69
342.754	75.69
342.981	83.69
343.209	65.69
343.437	81.69
343.665	77.69
343.893	88.69
344.12	95.69
344.348	82.69
344.576	82.69
344.804	86.69
345.031	88.69
345.259	76.69
345.487	73.69
345.714	89.69
345.942	87.69
346.17	80.69
346.397	83.69
346.625	85.69
346.853	102.69
347.08	90.69
347.308	82.69
347.535	65.69
347.763	70.69
347.99	80.69
348.218	86.69
348.445	82.69
348.673	88.69
348.9	82.69
349.128	101.69
349.355	80.69
349.583	79.69
349.81	87.69
350.037	72.69
350.265	85.69
350.492	87.69
350.72	75.69
350.947	78.69
351.174	85.69
351.402	82.69
351.629	79.69
351.856	85.69
352.083	71.69
352.311	85.69
352.538	82.69
352.765	71.69
352.992	89.69
353.22	84.69
353.447	88.69
353.674	77.69
353.901	67.69
354.128	98.69
354.355	79.69
354.583	87.69
354.81	82.69
355.037	79.69
355.264	74.69
355.491	58.69
355.718	91.69
355.945	79.69
356.172	84.69
356.399	87.69
356.626	85.69
356.853	83.69
357.08	82.69
357.307	74.69
357.534	90.69
357.761	82.69
357.988	79.69
358.215	70.69
358.441	89.69
358.668	79.69
358.895	76.69
359.122	63.69
359.349	76.69
359.576	82.69
359.802	83.69
360.029	84.69
360.256	82.69
360.483	89.69
360.709	86.69
360.936	87.69
361.163	79.69
361.39	87.69
361.616	72.69
361.843	80.69
362.07	90.69
362.296	79.69
362.523	75.69
362.749	97.69
362.976	77.69
363.203	80.69
363.429	88.69
363.656	77.69
363.882	78.69
364.109	77.69
364.335	81.69
364.562	80.69
364.788	84.69
365.015	76.69
365.241	78.69
365.468	81.69
365.694	80.69
365.92	70.69
366.147	89.69
366.373	74.69
366.599	83.69
366.826	80.69
367.052	98.69
367.278	75.69
367.505	62.69
367.731	82.69
367.957	87.69
368.184	86.69
368.41	95.69
368.636	99.69
368.862	95.69
369.089	77.69
369.315	89.69
369.541	95.69
369.767	93.69
369.993	96.69
370.219	95.69
370.445	90.69
370.672	89.69
370.898	89.69
371.124	93.69
371.35	83.69
371.576	98.69
371.802	103.69
372.028	79.69
372.254	92.69
372.48	84.69
372.706	87.69
372.932	92.69
373.158	84.69
373.384	90.69
373.61	82.69
373.835	93.69
374.061	75.69
374.287	86.69
374.513	87.69
374.739	90.69
374.965	95.69
375.191	88.69
375.416	94.69
375.642	87.69
375.868	106.69
376.094	87.69
376.319	90.69
376.545	90.69
376.771	93.69
376.997	102.69
377.222	97.69
377.448	100.69
377.674	85.69
377.899	86.69
378.125	81.69
378.35	98.69
378.576	85.69
378.802	111.69
379.027	99.69
379.253	97.69
379.478	80.69
379.704	99.69
379.929	82.69
380.155	112.69
380.38	94.69
380.606	89.69
380.831	97.69
381.057	94.69
381.282	103.69
381.507	82.69
381.733	95.69
381.958	111.69
382.184	102.69
382.409	79.69
382.634	86.69
382.86	101.69
383.085	96.69
383.31	103.69
383.535	110.69
383.761	96.69
383.986	103.69
384.211	92.69
384.436	90.69
384.662	99.69
384.887	95.69
385.112	98.69
385.337	88.69
385.562	90.69
385.787	83.69
386.013	110.69
386.238	108.69
386.463	111.69
386.688	104.69
386.913	101.69
387.138	90.69
387.363	88.69
387.588	101.69
387.813	99.69
388.038	100.69
388.263	98.69
388.488	105.69
388.713	101.69
388.938	109.69
389.163	102.69
389.387	106.69
389.612	92.69
389.837	113.69
390.062	111.69
390.287	97.69
390.512	111.69
390.736	117.69
390.961	106.69
391.186	93.69
391.411	100.69
391.636	97.69
391.86	114.69
392.085	96.69
392.31	96.69
392.534	105.69
392.759	99.69
392.984	106.69
393.208	109.69
393.433	118.69
393.658	110.69
393.882	97.69
394.107	112.69
394.331	120.69
394.556	103.69
394.78	105.69
395.005	97.69
395.229	122.69
395.454	113.69
395.678	107.69
395.903	114.69
396.127	111.69
396.352	112.69
396.576	94.69
396.801	100.69
397.025	106.69
397.249	105.69
397.474	118.69
397.698	112.69
397.922	103.69
398.147	110.69
398.371	113.69
398.595	102.69
398.82	111.69
399.044	115.69
399.268	120.69
399.492	120.69
399.717	107.69
399.941	119.69
400.165	112.69
400.389	101.69
400.613	115.69
400.837	102.69
401.062	110.69
401.286	100.69
401.51	121.69
401.734	106.69
401.958	116.69
402.182	119.69
402.406	98.69
402.63	118.69
402.854	103.69
403.078	120.69
403.302	115.69
403.526	112.69
403.75	116.69
403.974	109.69
404.198	119.69
404.422	105.69
404.645	117.69
404.869	129.69
405.093	126.69
405.317	133.69
405.541	123.69
405.765	117.69
405.988	125.69
406.212	125.69
406.436	131.69
406.66	120.69
406.883	120.69
407.107	123.69
407.331	135.69
407.555	118.69
407.778	118.69
408.002	120.69
408.226	111.69
408.449	127.69
408.673	122.69
408.896	122.69
409.12	118.69
409.344	121.69
409.567	112.69
409.791	127.69
410.014	149.69
410.238	114.69
410.461	115.69
410.685	123.69
410.908	116.69
411.132	132.69
411.355	119.69
411.578	119.69
411.802	117.69
412.025	116.69
412.249	121.69
412.472	113.69
412.695	130.69
412.919	121.69
413.142	124.69
413.365	123.69
413.589	139.69
413.812	126.69
414.035	123.69
414.258	115.69
414.482	114.69
414.705	113.69
414.928	117.69
415.151	131.69
415.374	123.69
415.597	125.69
415.821	129.69
416.044	110.69
416.267	131.69
416.49	131.69
416.713	126.69
416.936	117.69
417.159	138.69
417.382	125.69
417.605	124.69
417.828	138.69
418.051	126.69
418.274	128.69
418.497	124.69
418.72	129.69
418.943	129.69
419.166	151.69
419.389	140.69
419.611	133.69
419.834	123.69
420.057	144.69
420.28	125.69
420.503	118.69
420.726	138.69
420.948	141.69
421.171	143.69
421.394	119.69
421.617	144.69
421.839	144.69
422.062	150.69
422.285	137.69
422.507	135.69
422.73	138.69
422.953	130.69
423.175	132.69
423.398	141.69
423.621	146.69
423.843	131.69
424.066	139.69
424.288	131.69
424.511	150.69
424.733	145.69
424.956	150.69
425.178	129.69
425.401	138.69
425.623	130.69
425.846	134.69
426.068	139.69
426.291	137.69
426.513	133.69
426.735	142.69
426.958	137.69
427.18	146.69
427.402	128.69
427.625	131.69
427.847	130.69
428.069	130.69
428.292	140.69
428.514	127.69
428.736	145.69
428.958	129.69
429.181	118.69
429.403	124.69
429.625	120.69
429.847	127.69
430.069	138.69
430.292	127.69
430.514	129.69
430.736	123.69
430.958	124.69
431.18	133.69
431.402	125.69
431.624	135.69
431.846	115.69
432.068	101.69
432.29	102.69
432.512	120.69
432.734	123.69
432.956	126.69
433.178	135.69
433.4	149.69
433.622	162.69
433.844	122.69
434.066	131.69
434.287	99.69
434.509	77.69
434.731	86.69
434.953	109.69
435.175	131.69
435.397	128.69
435.618	123.69
435.84	100.69
436.062	122.69
436.284	119.69
436.505	139.69
436.727	147.69
436.949	136.69
437.17	125.69
437.392	131.69
437.614	134.69
437.835	114.69
438.057	116.69
438.278	101.69
438.5	125.69
438.721	131.69
438.943	149.69
439.165	137.69
439.386	140.69
439.608	144.69
439.829	144.69
440.05	146.69
440.272	145.69
440.493	139.69
440.715	149.69
440.936	150.69
441.158	142.69
441.379	142.69
441.6	161.69
441.822	159.69
442.043	162.69
442.264	124.69
442.486	146.69
442.707	130.69
442.928	134.69
443.149	143.69
443.371	124.69
443.592	138.69
443.813	139.69
444.034	145.69
444.255	133.69
444.476	150.69
444.698	144.69
444.919	145.69
445.14	254.69
445.361	203.69
445.582	159.69
445.803	155.69
446.024	151.69
446.245	158.69
446.466	141.69
446.687	150.69
446.908	160.69
447.129	159.69
447.35	156.69
447.571	150.69
447.792	154.69
448.013	155.69
448.234	133.69
448.455	146.69
448.675	143.69
448.896	145.69
449.117	153.69
449.338	145.69
449.559	140.69
449.779	122.69
450	145.69
450.221	137.69
450.442	152.69
450.662	150.69
450.883	137.69
451.104	145.69
451.324	133.69
451.545	130.69
451.766	125.69
451.986	127.69
452.207	138.69
452.428	129.69
452.648	141.69
452.869	145.69
453.089	116.69
453.31	120.69
453.53	101.69
453.751	96.69
453.971	90.69
454.192	104.69
454.412	103.69
454.633	114.69
454.853	129.69
455.073	112.69
455.294	111.69
455.514	129.69
455.734	130.69
455.955	114.69
456.175	119.69
456.395	125.69
456.616	109.69
456.836	108.69
457.056	121.69
457.276	100.69
457.497	117.69
457.717	110.69
457.937	104.69
458.157	111.69
458.377	115.69
458.598	98.69
458.818	93.69
459.038	95.69
459.258	94.69
459.478	92.69
459.698	88.69
459.918	110.69
460.138	110.69
460.358	120.69
460.578	123.69
460.798	122.69
461.018	118.69
461.238	107.69
461.458	103.69
461.678	125.69
461.898	116.69
462.118	113.69
462.338	111.69
462.558	115.69
462.777	102.69
462.997	113.69
463.217	106.69
463.437	109.69
463.657	109.69
463.876	105.69
464.096	127.69
464.316	113.69
464.536	112.69
464.755	110.69
464.975	104.69
465.195	115.69
465.414	96.69
465.634	121.69
465.854	123.69
466.073	126.69
466.293	115.69
466.512	145.69
466.732	127.69
466.951	131.69
467.171	131.69
467.391	126.69
467.61	139.69
467.829	143.69
468.049	143.69
468.268	131.69
468.488	136.69
468.707	139.69
468.927	130.69
469.146	129.69
469.365	144.69
469.585	155.69
469.804	155.69
470.023	152.69
470.243	156.69
470.462	135.69
470.681	166.69
470.901	151.69
471.12	151.69
471.339	149.69
471.558	150.69
471.777	142.69
471.997	150.69
472.216	132.69
472.435	118.69
472.654	112.69
472.873	109.69
473.092	106.69
473.311	117.69
473.53	122.69
473.749	110.69
473.968	127.69
474.187	119.69
474.406	119.69
474.625	129.69
474.844	128.69
475.063	125.69
475.282	131.69
475.501	119.69
475.72	134.69
475.939	129.69
476.158	132.69
476.377	137.69
476.596	127.69
476.814	113.69
477.033	113.69
477.252	130.69
477.471	133.69
477.69	133.69
477.908	143.69
478.127	144.69
478.346	139.69
478.564	143.69
478.783	126.69
479.002	153.69
479.22	137.69
479.439	136.69
479.658	119.69
479.876	106.69
480.095	120.69
480.313	118.69
480.532	116.69
480.751	96.69
480.969	111.69
481.188	90.69
481.406	102.69
481.624	86.69
481.843	96.69
482.061	110.69
482.28	115.69
482.498	116.69
482.717	113.69
482.935	121.69
483.153	136.69
483.372	147.69
483.59	162.69
483.808	160.69
484.027	145.69
484.245	133.69
484.463	153.69
484.681	164.69
484.9	159.69
485.118	153.69
485.336	129.69
485.554	111.69
485.772	98.69
485.99	119.69
486.209	101.69
486.427	109.69
486.645	118.69
486.863	145.69
487.081	157.69
487.299	125.69
487.517	143.69
487.735	177.69
487.953	202.69
488.171	186.69
488.389	187.69
488.607	173.69
488.825	159.69
489.043	134.69
489.261	129.69
489.479	155.69
489.696	129.69
489.914	152.69
490.132	167.69
490.35	164.69
490.568	175.69
490.786	187.69
491.003	183.69
491.221	188.69
491.439	208.69
491.657	199.69
491.874	206.69
492.092	226.69
492.31	244.69
492.527	223.69
492.745	227.69
492.963	203.69
493.18	201.69
493.398	185.69
493.615	193.69
493.833	173.69
494.05	177.69
494.268	193.69
494.485	159.69
494.703	160.69
494.92	178.69
495.138	203.69
495.355	163.69
495.573	188.69
495.79	184.69
496.008	178.69
496.225	182.69
496.442	164.69
496.66	189.69
496.877	175.69
497.094	167.69
497.312	170.69
497.529	147.69
497.746	143.69
497.963	157.69
498.181	130.69
498.398	127.69
498.615	123.69
498.832	135.69
499.049	122.69
499.267	142.69
499.484	133.69
499.701	142.69
499.918	155.69
500.135	144.69
500.352	143.69
500.569	145.69
500.786	153.69
501.003	145.69
501.22	143.69
501.437	137.69
501.654	149.69
501.871	136.69
502.088	133.69
502.305	130.69
502.522	129.69
502.739	125.69
502.956	143.69
503.172	143.69
503.389	137.69
503.606	121.69
503.823	115.69
504.04	122.69
504.256	132.69
504.473	125.69
504.69	132.69
504.907	131.69
505.123	127.69
505.34	125.69
505.557	121.69
505.773	135.69
505.99	116.69
506.207	138.69
506.423	126.69
506.64	133.69
506.856	123.69
507.073	111.69
507.289	123.69
507.506	117.69
507.722	120.69
507.939	117.69
508.155	120.69
508.372	103.69
508.588	112.69
508.805	117.69
509.021	115.69
509.238	113.69
509.454	116.69
509.67	113.69
509.887	95.69
510.103	92.69
510.319	86.69
510.536	84.69
510.752	91.69
510.968	90.69
511.184	88.69
511.401	82.69
511.617	90.69
511.833	91.69
512.049	96.69
512.265	98.69
512.481	98.69
512.698	88.69
512.914	109.69
513.13	97.69
513.346	86.69
513.562	91.69
513.778	99.69
513.994	98.69
514.21	93.69
514.426	103.69
514.642	98.69
514.858	94.69
515.074	76.69
515.29	91.69
515.506	85.69
515.721	84.69
515.937	112.69
516.153	79.69
516.369	86.69
516.585	81.69
516.801	79.69
517.016	100.69
517.232	88.69
517.448	86.69
517.664	90.69
517.879	107.69
518.095	92.69
518.311	94.69
518.527	84.69
518.742	98.69
518.958	103.69
519.173	115.69
519.389	111.69
519.605	110.69
519.82	103.69
520.036	119.69
520.251	97.69
520.467	113.69
520.682	84.69
520.898	89.69
521.113	90.69
521.329	111.69
521.544	85.69
521.76	98.69
521.975	93.69
522.19	99.69
522.406	97.69
522.621	95.69
522.836	94.69
523.052	83.69
523.267	118.69
523.482	123.69
523.698	122.69
523.913	98.69
524.128	125.69
524.343	126.69
524.559	121.69
524.774	123.69
524.989	141.69
525.204	129.69
525.419	117.69
525.634	115.69
525.849	113.69
526.064	88.69
526.28	113.69
526.495	98.69
526.71	77.69
526.925	83.69
527.14	82.69
527.355	80.69
527.57	99.69
527.785	95.69
527.999	86.69
528.214	119.69
528.429	117.69
528.644	115.69
528.859	138.69
529.074	162.69
529.289	169.69
529.503	164.69
529.718	150.69
529.933	137.69
530.148	99.69
530.363	103.69
530.577	86.69
530.792	84.69
531.007	74.69
531.221	89.69
531.436	77.69
531.651	85.69
531.865	91.69
532.08	73.69
532.295	82.69
532.509	95.69
532.724	91.69
532.938	88.69
533.153	106.69
533.367	118.69
533.582	119.69
533.796	127.69
534.011	113.69
534.225	109.69
534.44	89.69
534.654	86.69
534.868	92.69
535.083	97.69
535.297	111.69
535.511	102.69
535.726	113.69
535.94	81.69
536.154	111.69
536.369	105.69
536.583	89.69
536.797	85.69
537.011	98.69
537.225	84.69
537.44	94.69
537.654	116.69
537.868	94.69
538.082	102.69
538.296	88.69
538.51	105.69
538.724	105.69
538.938	132.69
539.153	135.69
539.367	133.69
539.581	114.69
539.795	116.69
540.009	113.69
540.222	88.69
540.436	104.69
540.65	106.69
540.864	141.69
541.078	148.69
541.292	160.69
541.506	161.69
541.72	174.69
541.934	194.69
542.147	201.69
542.361	197.69
542.575	165.69
542.789	146.69
543.002	155.69
543.216	147.69
543.43	134.69
543.644	145.69
543.857	144.69
544.071	168.69
544.285	161.69
544.498	157.69
544.712	154.69
544.925	173.69
545.139	155.69
545.352	182.69
545.566	167.69
545.779	157.69
545.993	182.69
546.206	175.69
546.42	161.69
546.633	155.69
546.847	163.69
547.06	189.69
547.274	198.69
547.487	195.69
547.7	181.69
547.914	183.69
548.127	172.69
548.34	159.69
548.554	159.69
548.767	161.69
548.98	146.69
549.193	165.69
549.407	157.69
549.62	165.69
549.833	160.69
550.046	153.69
550.259	137.69
550.473	178.69
550.686	168.69
550.899	155.69
551.112	157.69
551.325	149.69
551.538	129.69
551.751	125.69
551.964	120.69
552.177	130.69
552.39	146.69
552.603	159.69
552.816	160.69
553.029	145.69
553.242	153.69
553.455	158.69
553.667	153.69
553.88	164.69
554.093	165.69
554.306	149.69
554.519	162.69
554.732	161.69
554.944	156.69
555.157	163.69
555.37	155.69
555.583	151.69
555.795	152.69
556.008	141.69
556.221	128.69
556.433	151.69
556.646	131.69
556.859	127.69
557.071	139.69
557.284	138.69
557.496	149.69
557.709	140.69
557.921	133.69
558.134	134.69
558.346	149.69
558.559	149.69
558.771	133.69
558.984	137.69
559.196	129.69
559.409	135.69
559.621	134.69
559.833	131.69
560.046	127.69
560.258	143.69
560.47	115.69
560.683	138.69
560.895	134.69
561.107	143.69
561.32	128.69
561.532	133.69
561.744	138.69
561.956	152.69
562.168	130.69
562.381	138.69
562.593	138.69
562.805	122.69
563.017	133.69
563.229	129.69
563.441	130.69
563.653	126.69
563.865	122.69
564.077	126.69
564.289	127.69
564.501	119.69
564.713	122.69
564.925	134.69
565.137	116.69
565.349	124.69
565.561	114.69
565.773	123.69
565.985	122.69
566.197	125.69
566.408	133.69
566.62	120.69
566.832	122.69
567.044	127.69
567.255	124.69
567.467	115.69
567.679	117.69
567.891	122.69
568.102	96.69
568.314	116.69
568.526	83.69
568.737	105.69
568.949	81.69
569.161	67.69
569.372	80.69
569.584	81.69
569.795	89.69
570.007	85.69
570.218	81.69
570.43	94.69
570.641	88.69
570.853	100.69
571.064	121.69
571.276	111.69
571.487	106.69
571.698	106.69
571.91	110.69
572.121	103.69
572.333	96.69
572.544	99.69
572.755	88.69
572.966	95.69
573.178	84.69
573.389	82.69
573.6	87.69
573.811	70.69
574.023	81.69
574.234	78.69
574.445	95.69
574.656	88.69
574.867	94.69
575.078	100.69
575.289	88.69
575.501	92.69
575.712	102.69
575.923	88.69
576.134	92.69
576.345	95.69
576.556	100.69
576.767	88.69
576.978	98.69
577.188	97.69
577.399	103.69
577.61	102.69
577.821	79.69
578.032	83.69
578.243	96.69
578.454	88.69
578.665	100.69
578.875	89.69
579.086	90.69
579.297	74.69
579.508	89.69
579.718	83.69
579.929	68.69
580.14	90.69
580.35	97.69
580.561	98.69
580.772	95.69
580.982	84.69
581.193	97.69
581.403	83.69
581.614	99.69
581.825	86.69
582.035	93.69
582.246	79.69
582.456	83.69
582.667	90.69
582.877	78.69
583.087	89.69
583.298	91.69
583.508	82.69
583.719	76.69
583.929	90.69
584.139	95.69
584.35	87.69
584.56	90.69
584.77	95.69
584.981	90.69
585.191	114.69
585.401	81.69
585.611	88.69
585.821	87.69
586.032	79.69
586.242	96.69
586.452	90.69
586.662	77.69
586.872	93.69
587.082	83.69
587.292	81.69
587.502	94.69
587.713	82.69
587.923	85.69
588.133	94.69
588.343	79.69
588.553	81.69
588.762	86.69
588.972	86.69
589.182	86.69
589.392	88.69
589.602	90.69
589.812	79.69
590.022	88.69
590.232	71.69
590.441	77.69
590.651	87.69
590.861	89.69
591.071	70.69
591.281	87.69
591.49	89.69
591.7	67.69
591.91	85.69
592.119	89.69
592.329	91.69
592.539	84.69
592.748	93.69
592.958	85.69
593.167	88.69
593.377	86.69
593.587	76.69
593.796	87.69
594.006	94.69
594.215	92.69
594.424	86.69
594.634	95.69
594.843	107.69
595.053	98.69
595.262	109.69
595.472	89.69
595.681	87.69
595.89	84.69
596.1	94.69
596.309	81.69
596.518	99.69
596.727	90.69
596.937	96.69
597.146	111.69
597.355	95.69
597.564	91.69
597.774	90.69
597.983	89.69
598.192	89.69
598.401	82.69
598.61	84.69
598.819	95.69
599.028	93.69
599.237	84.69
599.446	106.69
599.655	80.69
599.864	95.69
600.073	93.69
600.282	89.69
600.491	77.69
600.7	88.69
600.909	87.69
601.118	103.69
601.327	113.69
601.536	106.69
601.745	102.69
601.953	97.69
602.162	109.69
602.371	105.69
602.58	115.69
602.789	106.69
602.997	121.69
603.206	104.69
603.415	105.69
603.623	115.69
603.832	101.69
604.041	109.69
604.249	105.69
604.458	103.69
604.666	98.69
604.875	100.69
605.084	111.69
605.292	106.69
605.501	117.69
605.709	109.69
605.918	106.69
606.126	120.69
606.334	123.69
606.543	129.69
606.751	123.69
606.96	101.69
607.168	125.69
607.376	113.69
607.585	114.69
607.793	118.69
608.001	118.69
608.21	115.69
608.418	114.69
608.626	118.69
608.834	119.69
609.043	105.69
609.251	123.69
609.459	123.69
609.667	117.69
609.875	110.69
610.083	122.69
610.291	115.69
610.499	121.69
610.707	122.69
610.916	119.69
611.124	120.69
611.332	109.69
611.54	118.69
611.748	112.69
611.955	123.69
612.163	122.69
612.371	114.69
612.579	117.69
612.787	109.69
612.995	110.69
613.203	120.69
613.411	125.69
613.618	111.69
613.826	99.69
614.034	128.69
614.242	117.69
614.449	117.69
614.657	104.69
614.865	111.69
615.072	115.69
615.28	119.69
615.488	108.69
615.695	110.69
615.903	111.69
616.111	129.69
616.318	132.69
616.526	112.69
616.733	131.69
616.941	119.69
617.148	117.69
617.356	93.69
617.563	119.69
617.771	114.69
617.978	106.69
618.185	117.69
618.393	98.69
618.6	111.69
618.807	125.69
619.015	96.69
619.222	109.69
619.429	105.69
619.637	106.69
619.844	98.69
620.051	110.69
620.258	120.69
620.466	115.69
620.673	110.69
620.88	108.69
621.087	121.69
621.294	113.69
621.501	115.69
621.708	121.69
621.915	102.69
622.122	113.69
622.329	127.69
622.536	107.69
622.743	104.69
622.95	105.69
623.157	104.69
623.364	102.69
623.571	110.69
623.778	110.69
623.985	114.69
624.192	127.69
624.399	97.69
624.606	109.69
624.812	109.69
625.019	105.69
625.226	108.69
625.433	101.69
625.639	99.69
625.846	101.69
626.053	83.69
626.259	97.69
626.466	91.69
626.673	93.69
626.879	99.69
627.086	114.69
627.293	91.69
627.499	115.69
627.706	112.69
627.912	105.69
628.119	98.69
628.325	105.69
628.532	105.69
628.738	102.69
628.945	98.69
629.151	103.69
629.357	98.69
629.564	104.69
629.77	110.69
629.976	104.69
630.183	89.69
630.389	91.69
630.595	113.69
630.802	99.69
631.008	103.69
631.214	106.69
631.42	103.69
631.627	121.69
631.833	94.69
632.039	104.69
632.245	117.69
632.451	98.69
632.657	98.69
632.863	117.69
633.069	102.69
633.275	115.69
633.481	86.69
633.688	91.69
633.893	98.69
634.099	102.69
634.305	106.69
634.511	113.69
634.717	101.69
634.923	106.69
635.129	105.69
635.335	89.69
635.541	104.69
635.747	95.69
635.952	92.69
636.158	101.69
636.364	106.69
636.57	106.69
636.775	110.69
636.981	89.69
637.187	106.69
637.392	101.69
637.598	105.69
637.804	116.69
638.009	114.69
638.215	81.69
638.421	99.69
638.626	119.69
638.832	107.69
639.037	104.69
639.243	94.69
639.448	98.69
639.654	98.69
639.859	102.69
640.065	112.69
640.27	117.69
640.475	89.69
640.681	96.69
640.886	98.69
641.091	97.69
641.297	117.69
641.502	76.69
641.707	113.69
641.913	101.69
642.118	98.69
642.323	95.69
642.528	98.69
642.733	105.69
642.939	103.69
643.144	94.69
643.349	93.69
643.554	92.69
643.759	88.69
643.964	105.69
644.169	103.69
644.374	93.69
644.579	94.69
644.784	98.69
644.989	91.69
645.194	103.69
645.399	104.69
645.604	98.69
645.809	91.69
646.014	100.69
646.219	88.69
646.423	109.69
646.628	82.69
646.833	91.69
647.038	104.69
647.243	114.69
647.447	117.69
647.652	100.69
647.857	91.69
648.062	103.69
648.266	109.69
648.471	105.69
648.676	109.69
648.88	96.69
649.085	93.69
649.289	93.69
649.494	95.69
649.698	106.69
649.903	107.69
650.107	104.69
650.312	87.69
650.516	97.69
650.721	105.69
650.925	109.69
651.13	99.69
651.334	100.69
651.539	112.69
651.743	97.69
651.947	105.69
652.152	104.69
652.356	89.69
652.56	105.69
652.764	109.69
652.969	96.69
653.173	91.69
653.377	87.69
653.581	87.69
653.785	97.69
653.99	88.69
654.194	102.69
654.398	102.69
654.602	112.69
654.806	93.69
655.01	81.69
655.214	99.69
655.418	74.69
655.622	76.69
655.826	88.69
656.03	88.69
656.234	88.69
656.438	94.69
656.642	69.69
656.846	92.69
657.049	80.69
657.253	88.69
657.457	88.69
657.661	86.69
657.865	84.69
658.068	87.69
658.272	84.69
658.476	89.69
658.68	80.69
658.883	69.69
659.087	91.69
659.291	92.69
659.494	87.69
659.698	89.69
659.901	90.69
660.105	94.69
660.309	81.69
660.512	84.69
660.716	83.69
660.919	78.69
661.123	76.69
661.326	90.69
661.53	87.69
661.733	88.69
661.936	78.69
662.14	74.69
662.343	71.69
662.546	89.69
662.75	79.69
662.953	87.69
663.156	79.69
663.36	66.69
663.563	83.69
663.766	73.69
663.969	85.69
664.173	62.69
664.376	75.69
664.579	82.69
664.782	86.69
664.985	80.69
665.188	78.69
665.391	83.69
665.594	83.69
665.797	82.69
666	82.69
666.203	74.69
666.406	82.69
666.609	79.69
666.812	90.69
667.015	70.69
667.218	84.69
667.421	88.69
667.624	82.69
667.827	90.69
668.03	61.69
668.232	83.69
668.435	79.69
668.638	82.69
668.841	79.69
669.043	73.69
669.246	79.69
669.449	78.69
669.651	80.69
669.854	81.69
670.057	83.69
670.259	86.69
670.462	83.69
670.665	84.69
670.867	86.69
671.07	79.69
671.272	75.69
671.475	79.69
671.677	84.69
671.88	83.69
672.082	59.69
672.284	75.69
672.487	80.69
672.689	86.69
672.892	66.69
