Data from Location6.07152019.Energy5.Lamp.07192019.3%Agarose_HRD10591_16-12-08-394.txt Node
Date: Fri Jul 19 16:12:08 EDT 2019
User: cochatt
Spectrometer: HR+D1059
Trigger mode: 1
Integration Time (sec): 1.000000E-1
Scans to average: 1
Electric dark correction enabled: true
Nonlinearity correction enabled: false
Boxcar width: 0
XAxis mode: Wavelengths
Number of Pixels in Spectrum: 2048
>>>>>Begin Spectral Data<<<<<
223.165	-14.12
223.4	-14.12
223.635	-14.12
223.869	-18.12
224.104	-16.12
224.338	-8.12
224.573	-18.12
224.808	-19.12
225.042	-15.12
225.277	-10.12
225.511	5.88
225.746	6.88
225.98	7.88
226.215	3.88
226.449	14.88
226.683	15.88
226.918	37.88
227.152	25.88
227.387	28.88
227.621	37.88
227.856	43.88
228.09	51.88
228.324	57.88
228.559	47.88
228.793	56.88
229.027	63.88
229.262	67.88
229.496	70.88
229.73	67.88
229.964	78.88
230.199	79.88
230.433	77.88
230.667	74.88
230.901	81.88
231.136	73.88
231.37	65.88
231.604	80.88
231.838	88.88
232.072	99.88
232.306	75.88
232.541	101.88
232.775	91.88
233.009	92.88
233.243	74.88
233.477	89.88
233.711	89.88
233.945	78.88
234.179	75.88
234.413	89.88
234.647	80.88
234.881	85.88
235.115	91.88
235.349	79.88
235.583	64.88
235.817	74.88
236.051	76.88
236.285	85.88
236.519	85.88
236.753	77.88
236.987	80.88
237.221	71.88
237.455	72.88
237.689	86.88
237.922	78.88
238.156	73.88
238.39	83.88
238.624	76.88
238.858	60.88
239.091	83.88
239.325	82.88
239.559	72.88
239.793	89.88
240.027	81.88
240.26	86.88
240.494	70.88
240.728	66.88
240.961	76.88
241.195	89.88
241.429	89.88
241.662	76.88
241.896	75.88
242.13	89.88
242.363	80.88
242.597	85.88
242.83	81.88
243.064	72.88
243.298	74.88
243.531	82.88
243.765	89.88
243.998	76.88
244.232	78.88
244.465	82.88
244.699	81.88
244.932	77.88
245.166	72.88
245.399	78.88
245.633	83.88
245.866	97.88
246.099	78.88
246.333	77.88
246.566	79.88
246.8	71.88
247.033	79.88
247.266	69.88
247.5	75.88
247.733	95.88
247.966	69.88
248.2	80.88
248.433	88.88
248.666	91.88
248.899	70.88
249.133	81.88
249.366	86.88
249.599	64.88
249.832	75.88
250.066	76.88
250.299	81.88
250.532	74.88
250.765	85.88
250.998	85.88
251.231	75.88
251.465	71.88
251.698	73.88
251.931	81.88
252.164	83.88
252.397	89.88
252.63	78.88
252.863	88.88
253.096	76.88
253.329	89.88
253.562	77.88
253.795	75.88
254.028	96.88
254.261	76.88
254.494	96.88
254.727	80.88
254.96	77.88
255.193	91.88
255.426	86.88
255.659	87.88
255.892	87.88
256.124	72.88
256.357	82.88
256.59	96.88
256.823	73.88
257.056	81.88
257.289	90.88
257.521	74.88
257.754	88.88
257.987	87.88
258.22	71.88
258.452	83.88
258.685	84.88
258.918	81.88
259.151	83.88
259.383	69.88
259.616	77.88
259.849	89.88
260.081	84.88
260.314	76.88
260.547	66.88
260.779	76.88
261.012	76.88
261.244	84.88
261.477	88.88
261.71	74.88
261.942	70.88
262.175	80.88
262.407	69.88
262.64	86.88
262.872	77.88
263.105	81.88
263.337	68.88
263.57	83.88
263.802	99.88
264.035	80.88
264.267	82.88
264.499	81.88
264.732	97.88
264.964	83.88
265.197	68.88
265.429	89.88
265.661	83.88
265.894	80.88
266.126	88.88
266.358	84.88
266.591	80.88
266.823	74.88
267.055	84.88
267.287	82.88
267.52	61.88
267.752	94.88
267.984	92.88
268.216	89.88
268.448	81.88
268.681	92.88
268.913	84.88
269.145	82.88
269.377	87.88
269.609	77.88
269.841	82.88
270.073	83.88
270.306	76.88
270.538	83.88
270.77	81.88
271.002	89.88
271.234	83.88
271.466	92.88
271.698	83.88
271.93	81.88
272.162	77.88
272.394	91.88
272.626	76.88
272.858	69.88
273.09	82.88
273.322	83.88
273.553	87.88
273.785	106.88
274.017	80.88
274.249	89.88
274.481	77.88
274.713	79.88
274.945	69.88
275.176	62.88
275.408	67.88
275.64	78.88
275.872	77.88
276.104	79.88
276.335	78.88
276.567	96.88
276.799	76.88
277.031	88.88
277.262	84.88
277.494	91.88
277.726	90.88
277.957	81.88
278.189	77.88
278.421	85.88
278.652	86.88
278.884	76.88
279.115	87.88
279.347	92.88
279.579	85.88
279.81	76.88
280.042	83.88
280.273	80.88
280.505	101.88
280.736	99.88
280.968	93.88
281.199	80.88
281.431	77.88
281.662	84.88
281.894	93.88
282.125	60.88
282.356	83.88
282.588	84.88
282.819	92.88
283.051	102.88
283.282	95.88
283.513	69.88
283.745	83.88
283.976	88.88
284.207	67.88
284.439	83.88
284.67	88.88
284.901	87.88
285.132	90.88
285.364	85.88
285.595	79.88
285.826	88.88
286.057	90.88
286.288	76.88
286.52	84.88
286.751	89.88
286.982	81.88
287.213	86.88
287.444	89.88
287.675	85.88
287.906	84.88
288.138	80.88
288.369	84.88
288.6	97.88
288.831	91.88
289.062	90.88
289.293	77.88
289.524	86.88
289.755	76.88
289.986	89.88
290.217	71.88
290.448	93.88
290.679	89.88
290.91	85.88
291.141	91.88
291.371	80.88
291.602	76.88
291.833	89.88
292.064	83.88
292.295	96.88
292.526	86.88
292.757	81.88
292.987	81.88
293.218	96.88
293.449	90.88
293.68	85.88
293.91	101.88
294.141	79.88
294.372	88.88
294.603	84.88
294.833	78.88
295.064	83.88
295.295	76.88
295.525	65.88
295.756	86.88
295.987	63.88
296.217	92.88
296.448	92.88
296.679	67.88
296.909	84.88
297.14	77.88
297.37	88.88
297.601	74.88
297.831	86.88
298.062	92.88
298.292	91.88
298.523	85.88
298.753	83.88
298.984	82.88
299.214	85.88
299.445	79.88
299.675	74.88
299.905	91.88
300.136	80.88
300.366	83.88
300.597	90.88
300.827	67.88
301.057	83.88
301.288	84.88
301.518	83.88
301.748	77.88
301.979	79.88
302.209	83.88
302.439	81.88
302.669	81.88
302.9	76.88
303.13	88.88
303.36	89.88
303.59	90.88
303.82	85.88
304.051	87.88
304.281	78.88
304.511	100.88
304.741	82.88
304.971	85.88
305.201	75.88
305.431	81.88
305.661	81.88
305.891	76.88
306.121	74.88
306.352	85.88
306.582	87.88
306.812	78.88
307.042	83.88
307.272	62.88
307.502	85.88
307.731	84.88
307.961	75.88
308.191	87.88
308.421	91.88
308.651	84.88
308.881	82.88
309.111	85.88
309.341	79.88
309.571	81.88
309.8	80.88
310.03	86.88
310.26	90.88
310.49	85.88
310.72	85.88
310.949	75.88
311.179	81.88
311.409	70.88
311.639	75.88
311.868	96.88
312.098	82.88
312.328	86.88
312.557	88.88
312.787	85.88
313.017	83.88
313.246	85.88
313.476	84.88
313.706	77.88
313.935	81.88
314.165	78.88
314.394	85.88
314.624	73.88
314.853	92.88
315.083	83.88
315.312	84.88
315.542	98.88
315.771	78.88
316.001	85.88
316.23	83.88
316.46	93.88
316.689	97.88
316.919	94.88
317.148	85.88
317.377	96.88
317.607	86.88
317.836	76.88
318.065	99.88
318.295	91.88
318.524	93.88
318.753	87.88
318.983	98.88
319.212	97.88
319.441	92.88
319.67	81.88
319.9	95.88
320.129	84.88
320.358	90.88
320.587	88.88
320.816	85.88
321.046	84.88
321.275	97.88
321.504	75.88
321.733	84.88
321.962	87.88
322.191	86.88
322.42	80.88
322.649	83.88
322.878	88.88
323.108	83.88
323.337	67.88
323.566	90.88
323.795	97.88
324.024	102.88
324.253	82.88
324.482	80.88
324.71	90.88
324.939	85.88
325.168	90.88
325.397	80.88
325.626	86.88
325.855	86.88
326.084	89.88
326.313	76.88
326.542	72.88
326.77	92.88
326.999	73.88
327.228	81.88
327.457	84.88
327.686	78.88
327.914	84.88
328.143	97.88
328.372	86.88
328.6	86.88
328.829	78.88
329.058	86.88
329.287	91.88
329.515	100.88
329.744	87.88
329.972	89.88
330.201	98.88
330.43	99.88
330.658	83.88
330.887	81.88
331.115	72.88
331.344	84.88
331.572	84.88
331.801	76.88
332.03	81.88
332.258	83.88
332.486	72.88
332.715	76.88
332.943	78.88
333.172	72.88
333.4	95.88
333.629	58.88
333.857	95.88
334.085	77.88
334.314	94.88
334.542	78.88
334.771	82.88
334.999	75.88
335.227	89.88
335.455	88.88
335.684	98.88
335.912	93.88
336.14	82.88
336.369	78.88
336.597	76.88
336.825	87.88
337.053	89.88
337.281	86.88
337.51	91.88
337.738	89.88
337.966	83.88
338.194	87.88
338.422	89.88
338.65	86.88
338.878	93.88
339.106	99.88
339.334	86.88
339.562	85.88
339.79	95.88
340.018	81.88
340.246	76.88
340.474	65.88
340.702	81.88
340.93	96.88
341.158	91.88
341.386	87.88
341.614	82.88
341.842	82.88
342.07	82.88
342.298	88.88
342.526	89.88
342.754	85.88
342.981	87.88
343.209	87.88
343.437	102.88
343.665	88.88
343.893	76.88
344.12	79.88
344.348	84.88
344.576	94.88
344.804	68.88
345.031	75.88
345.259	91.88
345.487	91.88
345.714	80.88
345.942	82.88
346.17	97.88
346.397	81.88
346.625	77.88
346.853	100.88
347.08	73.88
347.308	88.88
347.535	89.88
347.763	92.88
347.99	90.88
348.218	83.88
348.445	80.88
348.673	85.88
348.9	75.88
349.128	96.88
349.355	79.88
349.583	81.88
349.81	81.88
350.037	93.88
350.265	82.88
350.492	81.88
350.72	89.88
350.947	94.88
351.174	100.88
351.402	82.88
351.629	77.88
351.856	88.88
352.083	71.88
352.311	82.88
352.538	92.88
352.765	89.88
352.992	83.88
353.22	89.88
353.447	78.88
353.674	85.88
353.901	101.88
354.128	84.88
354.355	71.88
354.583	77.88
354.81	87.88
355.037	82.88
355.264	91.88
355.491	94.88
355.718	81.88
355.945	77.88
356.172	93.88
356.399	84.88
356.626	93.88
356.853	86.88
357.08	84.88
357.307	75.88
357.534	81.88
357.761	73.88
357.988	75.88
358.215	106.88
358.441	71.88
358.668	90.88
358.895	72.88
359.122	81.88
359.349	95.88
359.576	96.88
359.802	80.88
360.029	95.88
360.256	77.88
360.483	84.88
360.709	91.88
360.936	75.88
361.163	89.88
361.39	86.88
361.616	77.88
361.843	80.88
362.07	95.88
362.296	88.88
362.523	85.88
362.749	90.88
362.976	81.88
363.203	87.88
363.429	82.88
363.656	81.88
363.882	89.88
364.109	88.88
364.335	67.88
364.562	84.88
364.788	80.88
365.015	88.88
365.241	74.88
365.468	68.88
365.694	96.88
365.92	83.88
366.147	85.88
366.373	77.88
366.599	87.88
366.826	97.88
367.052	88.88
367.278	85.88
367.505	95.88
367.731	97.88
367.957	92.88
368.184	99.88
368.41	95.88
368.636	88.88
368.862	96.88
369.089	96.88
369.315	97.88
369.541	101.88
369.767	94.88
369.993	87.88
370.219	84.88
370.445	107.88
370.672	75.88
370.898	87.88
371.124	84.88
371.35	96.88
371.576	87.88
371.802	95.88
372.028	86.88
372.254	87.88
372.48	104.88
372.706	92.88
372.932	108.88
373.158	114.88
373.384	102.88
373.61	87.88
373.835	97.88
374.061	88.88
374.287	101.88
374.513	93.88
374.739	99.88
374.965	96.88
375.191	92.88
375.416	95.88
375.642	94.88
375.868	93.88
376.094	99.88
376.319	96.88
376.545	94.88
376.771	88.88
376.997	95.88
377.222	109.88
377.448	113.88
377.674	97.88
377.899	100.88
378.125	100.88
378.35	104.88
378.576	108.88
378.802	91.88
379.027	84.88
379.253	91.88
379.478	106.88
379.704	98.88
379.929	97.88
380.155	93.88
380.38	85.88
380.606	87.88
380.831	105.88
381.057	108.88
381.282	104.88
381.507	102.88
381.733	115.88
381.958	83.88
382.184	94.88
382.409	99.88
382.634	100.88
382.86	100.88
383.085	101.88
383.31	93.88
383.535	96.88
383.761	113.88
383.986	103.88
384.211	99.88
384.436	111.88
384.662	107.88
384.887	94.88
385.112	81.88
385.337	101.88
385.562	99.88
385.787	99.88
386.013	96.88
386.238	91.88
386.463	105.88
386.688	103.88
386.913	91.88
387.138	103.88
387.363	104.88
387.588	98.88
387.813	98.88
388.038	107.88
388.263	111.88
388.488	101.88
388.713	90.88
388.938	96.88
389.163	104.88
389.387	94.88
389.612	101.88
389.837	94.88
390.062	97.88
390.287	105.88
390.512	108.88
390.736	104.88
390.961	125.88
391.186	98.88
391.411	99.88
391.636	106.88
391.86	111.88
392.085	104.88
392.31	88.88
392.534	106.88
392.759	114.88
392.984	102.88
393.208	99.88
393.433	117.88
393.658	111.88
393.882	114.88
394.107	108.88
394.331	110.88
394.556	108.88
394.78	116.88
395.005	118.88
395.229	115.88
395.454	112.88
395.678	104.88
395.903	110.88
396.127	107.88
396.352	118.88
396.576	108.88
396.801	113.88
397.025	93.88
397.249	106.88
397.474	106.88
397.698	112.88
397.922	96.88
398.147	108.88
398.371	112.88
398.595	112.88
398.82	111.88
399.044	107.88
399.268	106.88
399.492	100.88
399.717	123.88
399.941	119.88
400.165	115.88
400.389	113.88
400.613	118.88
400.837	123.88
401.062	101.88
401.286	120.88
401.51	117.88
401.734	111.88
401.958	120.88
402.182	119.88
402.406	111.88
402.63	122.88
402.854	117.88
403.078	115.88
403.302	120.88
403.526	123.88
403.75	127.88
403.974	119.88
404.198	116.88
404.422	119.88
404.645	132.88
404.869	127.88
405.093	117.88
405.317	120.88
405.541	123.88
405.765	108.88
405.988	120.88
406.212	102.88
406.436	124.88
406.66	126.88
406.883	118.88
407.107	123.88
407.331	115.88
407.555	132.88
407.778	122.88
408.002	119.88
408.226	119.88
408.449	132.88
408.673	122.88
408.896	129.88
409.12	118.88
409.344	122.88
409.567	129.88
409.791	108.88
410.014	117.88
410.238	119.88
410.461	127.88
410.685	122.88
410.908	121.88
411.132	129.88
411.355	112.88
411.578	132.88
411.802	123.88
412.025	122.88
412.249	131.88
412.472	130.88
412.695	113.88
412.919	123.88
413.142	131.88
413.365	142.88
413.589	131.88
413.812	114.88
414.035	119.88
414.258	106.88
414.482	123.88
414.705	127.88
414.928	123.88
415.151	132.88
415.374	122.88
415.597	127.88
415.821	122.88
416.044	119.88
416.267	145.88
416.49	131.88
416.713	135.88
416.936	133.88
417.159	134.88
417.382	143.88
417.605	139.88
417.828	122.88
418.051	130.88
418.274	123.88
418.497	138.88
418.72	147.88
418.943	144.88
419.166	130.88
419.389	131.88
419.611	133.88
419.834	154.88
420.057	140.88
420.28	121.88
420.503	135.88
420.726	130.88
420.948	125.88
421.171	159.88
421.394	145.88
421.617	147.88
421.839	140.88
422.062	139.88
422.285	139.88
422.507	120.88
422.73	135.88
422.953	125.88
423.175	119.88
423.398	140.88
423.621	135.88
423.843	131.88
424.066	139.88
424.288	152.88
424.511	159.88
424.733	147.88
424.956	154.88
425.178	139.88
425.401	137.88
425.623	145.88
425.846	138.88
426.068	124.88
426.291	138.88
426.513	133.88
426.735	151.88
426.958	134.88
427.18	133.88
427.402	139.88
427.625	145.88
427.847	135.88
428.069	125.88
428.292	123.88
428.514	139.88
428.736	126.88
428.958	122.88
429.181	136.88
429.403	135.88
429.625	137.88
429.847	119.88
430.069	141.88
430.292	151.88
430.514	139.88
430.736	131.88
430.958	142.88
431.18	136.88
431.402	121.88
431.624	120.88
431.846	114.88
432.068	93.88
432.29	104.88
432.512	104.88
432.734	137.88
432.956	147.88
433.178	165.88
433.4	139.88
433.622	138.88
433.844	140.88
434.066	130.88
434.287	119.88
434.509	109.88
434.731	93.88
434.953	115.88
435.175	118.88
435.397	138.88
435.618	104.88
435.84	125.88
436.062	121.88
436.284	133.88
436.505	149.88
436.727	135.88
436.949	140.88
437.17	138.88
437.392	124.88
437.614	131.88
437.835	117.88
438.057	102.88
438.278	114.88
438.5	120.88
438.721	136.88
438.943	153.88
439.165	135.88
439.386	142.88
439.608	144.88
439.829	149.88
440.05	147.88
440.272	134.88
440.493	145.88
440.715	137.88
440.936	139.88
441.158	143.88
441.379	144.88
441.6	151.88
441.822	163.88
442.043	130.88
442.264	132.88
442.486	153.88
442.707	158.88
442.928	134.88
443.149	154.88
443.371	156.88
443.592	160.88
443.813	145.88
444.034	137.88
444.255	151.88
444.476	145.88
444.698	144.88
444.919	132.88
445.14	280.88
445.361	213.88
445.582	160.88
445.803	144.88
446.024	160.88
446.245	160.88
446.466	148.88
446.687	154.88
446.908	155.88
447.129	168.88
447.35	148.88
447.571	177.88
447.792	176.88
448.013	155.88
448.234	156.88
448.455	137.88
448.675	145.88
448.896	129.88
449.117	146.88
449.338	139.88
449.559	155.88
449.779	139.88
450	152.88
450.221	141.88
450.442	145.88
450.662	148.88
450.883	139.88
451.104	140.88
451.324	141.88
451.545	152.88
451.766	132.88
451.986	142.88
452.207	146.88
452.428	137.88
452.648	137.88
452.869	125.88
453.089	130.88
453.31	112.88
453.53	108.88
453.751	110.88
453.971	100.88
454.192	112.88
454.412	121.88
454.633	130.88
454.853	117.88
455.073	130.88
455.294	127.88
455.514	127.88
455.734	125.88
455.955	130.88
456.175	106.88
456.395	113.88
456.616	125.88
456.836	115.88
457.056	116.88
457.276	114.88
457.497	101.88
457.717	118.88
457.937	103.88
458.157	111.88
458.377	113.88
458.598	102.88
458.818	106.88
459.038	92.88
459.258	91.88
459.478	77.88
459.698	90.88
459.918	104.88
460.138	112.88
460.358	126.88
460.578	122.88
460.798	120.88
461.018	122.88
461.238	120.88
461.458	130.88
461.678	115.88
461.898	119.88
462.118	126.88
462.338	116.88
462.558	124.88
462.777	125.88
462.997	121.88
463.217	110.88
463.437	108.88
463.657	116.88
463.876	120.88
464.096	93.88
464.316	103.88
464.536	115.88
464.755	122.88
464.975	123.88
465.195	118.88
465.414	121.88
465.634	132.88
465.854	117.88
466.073	130.88
466.293	122.88
466.512	135.88
466.732	127.88
466.951	135.88
467.171	137.88
467.391	150.88
467.61	142.88
467.829	148.88
468.049	156.88
468.268	141.88
468.488	138.88
468.707	137.88
468.927	148.88
469.146	147.88
469.365	131.88
469.585	119.88
469.804	145.88
470.023	147.88
470.243	142.88
470.462	150.88
470.681	149.88
470.901	151.88
471.12	142.88
471.339	146.88
471.558	149.88
471.777	155.88
471.997	146.88
472.216	140.88
472.435	120.88
472.654	118.88
472.873	115.88
473.092	130.88
473.311	111.88
473.53	125.88
473.749	140.88
473.968	127.88
474.187	141.88
474.406	123.88
474.625	138.88
474.844	129.88
475.063	141.88
475.282	130.88
475.501	117.88
475.72	139.88
475.939	127.88
476.158	135.88
476.377	127.88
476.596	118.88
476.814	125.88
477.033	118.88
477.252	118.88
477.471	125.88
477.69	131.88
477.908	141.88
478.127	151.88
478.346	160.88
478.564	142.88
478.783	147.88
479.002	150.88
479.22	145.88
479.439	133.88
479.658	142.88
479.876	115.88
480.095	107.88
480.313	120.88
480.532	118.88
480.751	115.88
480.969	99.88
481.188	90.88
481.406	100.88
481.624	81.88
481.843	78.88
482.061	105.88
482.28	108.88
482.498	120.88
482.717	133.88
482.935	127.88
483.153	147.88
483.372	168.88
483.59	155.88
483.808	151.88
484.027	148.88
484.245	150.88
484.463	164.88
484.681	183.88
484.9	155.88
485.118	147.88
485.336	140.88
485.554	123.88
485.772	105.88
485.99	114.88
486.209	97.88
486.427	119.88
486.645	125.88
486.863	148.88
487.081	147.88
487.299	133.88
487.517	142.88
487.735	180.88
487.953	202.88
488.171	194.88
488.389	168.88
488.607	173.88
488.825	145.88
489.043	136.88
489.261	140.88
489.479	156.88
489.696	142.88
489.914	153.88
490.132	140.88
490.35	147.88
490.568	158.88
490.786	165.88
491.003	183.88
491.221	192.88
491.439	209.88
491.657	196.88
491.874	224.88
492.092	236.88
492.31	262.88
492.527	255.88
492.745	234.88
492.963	213.88
493.18	194.88
493.398	185.88
493.615	199.88
493.833	173.88
494.05	187.88
494.268	186.88
494.485	175.88
494.703	187.88
494.92	166.88
495.138	175.88
495.355	184.88
495.573	173.88
495.79	186.88
496.008	198.88
496.225	181.88
496.442	187.88
496.66	194.88
496.877	167.88
497.094	169.88
497.312	172.88
497.529	158.88
497.746	157.88
497.963	127.88
498.181	148.88
498.398	120.88
498.615	136.88
498.832	116.88
499.049	129.88
499.267	138.88
499.484	138.88
499.701	139.88
499.918	123.88
500.135	149.88
500.352	155.88
500.569	149.88
500.786	145.88
501.003	148.88
501.22	134.88
501.437	136.88
501.654	147.88
501.871	132.88
502.088	135.88
502.305	135.88
502.522	147.88
502.739	129.88
502.956	121.88
503.172	134.88
503.389	135.88
503.606	127.88
503.823	137.88
504.04	128.88
504.256	120.88
504.473	119.88
504.69	136.88
504.907	136.88
505.123	129.88
505.34	130.88
505.557	121.88
505.773	128.88
505.99	124.88
506.207	124.88
506.423	128.88
506.64	119.88
506.856	118.88
507.073	117.88
507.289	131.88
507.506	118.88
507.722	125.88
507.939	119.88
508.155	120.88
508.372	107.88
508.588	119.88
508.805	123.88
509.021	133.88
509.238	133.88
509.454	105.88
509.67	113.88
509.887	108.88
510.103	92.88
510.319	91.88
510.536	102.88
510.752	87.88
510.968	81.88
511.184	91.88
511.401	84.88
511.617	81.88
511.833	81.88
512.049	97.88
512.265	99.88
512.481	112.88
512.698	103.88
512.914	111.88
513.13	93.88
513.346	97.88
513.562	93.88
513.778	92.88
513.994	99.88
514.21	96.88
514.426	91.88
514.642	89.88
514.858	89.88
515.074	88.88
515.29	88.88
515.506	99.88
515.721	88.88
515.937	88.88
516.153	89.88
516.369	96.88
516.585	99.88
516.801	104.88
517.016	93.88
517.232	88.88
517.448	97.88
517.664	98.88
517.879	99.88
518.095	96.88
518.311	90.88
518.527	87.88
518.742	93.88
518.958	102.88
519.173	106.88
519.389	105.88
519.605	108.88
519.82	107.88
520.036	107.88
520.251	107.88
520.467	101.88
520.682	108.88
520.898	82.88
521.113	94.88
521.329	98.88
521.544	94.88
521.76	90.88
521.975	113.88
522.19	99.88
522.406	104.88
522.621	104.88
522.836	107.88
523.052	116.88
523.267	107.88
523.482	116.88
523.698	121.88
523.913	113.88
524.128	115.88
524.343	127.88
524.559	136.88
524.774	124.88
524.989	127.88
525.204	115.88
525.419	140.88
525.634	125.88
525.849	113.88
526.064	107.88
526.28	113.88
526.495	103.88
526.71	81.88
526.925	92.88
527.14	89.88
527.355	84.88
527.57	87.88
527.785	96.88
527.999	105.88
528.214	109.88
528.429	112.88
528.644	126.88
528.859	141.88
529.074	153.88
529.289	159.88
529.503	162.88
529.718	149.88
529.933	129.88
530.148	114.88
530.363	96.88
530.577	81.88
530.792	105.88
531.007	75.88
531.221	90.88
531.436	88.88
531.651	74.88
531.865	87.88
532.08	87.88
532.295	83.88
532.509	88.88
532.724	88.88
532.938	101.88
533.153	99.88
533.367	117.88
533.582	118.88
533.796	131.88
534.011	116.88
534.225	104.88
534.44	95.88
534.654	95.88
534.868	85.88
535.083	96.88
535.297	115.88
535.511	113.88
535.726	108.88
535.94	104.88
536.154	99.88
536.369	84.88
536.583	69.88
536.797	93.88
537.011	96.88
537.225	93.88
537.44	89.88
537.654	83.88
537.868	88.88
538.082	101.88
538.296	99.88
538.51	105.88
538.724	107.88
538.938	135.88
539.153	124.88
539.367	114.88
539.581	123.88
539.795	104.88
540.009	82.88
540.222	99.88
540.436	107.88
540.65	121.88
540.864	139.88
541.078	165.88
541.292	131.88
541.506	165.88
541.72	193.88
541.934	201.88
542.147	225.88
542.361	201.88
542.575	172.88
542.789	141.88
543.002	157.88
543.216	116.88
543.43	135.88
543.644	146.88
543.857	149.88
544.071	151.88
544.285	161.88
544.498	163.88
544.712	175.88
544.925	178.88
545.139	171.88
545.352	165.88
545.566	145.88
545.779	169.88
545.993	173.88
546.206	175.88
546.42	161.88
546.633	168.88
546.847	179.88
547.06	177.88
547.274	187.88
547.487	179.88
547.7	178.88
547.914	167.88
548.127	159.88
548.34	157.88
548.554	166.88
548.767	167.88
548.98	177.88
549.193	159.88
549.407	157.88
549.62	162.88
549.833	151.88
550.046	165.88
550.259	158.88
550.473	148.88
550.686	149.88
550.899	157.88
551.112	158.88
551.325	151.88
551.538	134.88
551.751	131.88
551.964	130.88
552.177	144.88
552.39	141.88
552.603	158.88
552.816	148.88
553.029	169.88
553.242	161.88
553.455	162.88
553.667	152.88
553.88	157.88
554.093	156.88
554.306	142.88
554.519	146.88
554.732	149.88
554.944	167.88
555.157	153.88
555.37	152.88
555.583	133.88
555.795	154.88
556.008	139.88
556.221	130.88
556.433	136.88
556.646	155.88
556.859	129.88
557.071	129.88
557.284	147.88
557.496	149.88
557.709	151.88
557.921	134.88
558.134	136.88
558.346	154.88
558.559	151.88
558.771	131.88
558.984	142.88
559.196	147.88
559.409	134.88
559.621	128.88
559.833	131.88
560.046	131.88
560.258	130.88
560.47	132.88
560.683	124.88
560.895	127.88
561.107	143.88
561.32	138.88
561.532	134.88
561.744	129.88
561.956	150.88
562.168	135.88
562.381	123.88
562.593	141.88
562.805	125.88
563.017	119.88
563.229	136.88
563.441	126.88
563.653	120.88
563.865	139.88
564.077	114.88
564.289	123.88
564.501	123.88
564.713	117.88
564.925	116.88
565.137	122.88
565.349	123.88
565.561	118.88
565.773	131.88
565.985	124.88
566.197	126.88
566.408	115.88
566.62	129.88
566.832	130.88
567.044	129.88
567.255	119.88
567.467	129.88
567.679	103.88
567.891	111.88
568.102	111.88
568.314	106.88
568.526	100.88
568.737	97.88
568.949	97.88
569.161	99.88
569.372	81.88
569.584	86.88
569.795	79.88
570.007	79.88
570.218	84.88
570.43	87.88
570.641	107.88
570.853	97.88
571.064	96.88
571.276	99.88
571.487	106.88
571.698	94.88
571.91	103.88
572.121	105.88
572.333	108.88
572.544	103.88
572.755	100.88
572.966	106.88
573.178	83.88
573.389	83.88
573.6	91.88
573.811	72.88
574.023	89.88
574.234	99.88
574.445	103.88
574.656	78.88
574.867	92.88
575.078	99.88
575.289	100.88
575.501	90.88
575.712	113.88
575.923	95.88
576.134	103.88
576.345	106.88
576.556	95.88
576.767	102.88
576.978	96.88
577.188	101.88
577.399	86.88
577.61	100.88
577.821	93.88
578.032	106.88
578.243	111.88
578.454	99.88
578.665	92.88
578.875	90.88
579.086	86.88
579.297	75.88
579.508	90.88
579.718	76.88
579.929	80.88
580.14	85.88
580.35	86.88
580.561	92.88
580.772	87.88
580.982	89.88
581.193	91.88
581.403	104.88
581.614	96.88
581.825	95.88
582.035	101.88
582.246	89.88
582.456	87.88
582.667	85.88
582.877	93.88
583.087	95.88
583.298	96.88
583.508	93.88
583.719	76.88
583.929	98.88
584.139	92.88
584.35	91.88
584.56	104.88
584.77	81.88
584.981	87.88
585.191	83.88
585.401	79.88
585.611	87.88
585.821	77.88
586.032	77.88
586.242	82.88
586.452	77.88
586.662	74.88
586.872	80.88
587.082	89.88
587.292	83.88
587.502	77.88
587.713	66.88
587.923	84.88
588.133	80.88
588.343	87.88
588.553	74.88
588.762	86.88
588.972	92.88
589.182	72.88
589.392	82.88
589.602	74.88
589.812	84.88
590.022	89.88
590.232	68.88
590.441	84.88
590.651	85.88
590.861	78.88
591.071	85.88
591.281	98.88
591.49	92.88
591.7	89.88
591.91	92.88
592.119	78.88
592.329	86.88
592.539	85.88
592.748	86.88
592.958	77.88
593.167	85.88
593.377	98.88
593.587	92.88
593.796	88.88
594.006	83.88
594.215	77.88
594.424	84.88
594.634	92.88
594.843	90.88
595.053	90.88
595.262	81.88
595.472	104.88
595.681	99.88
595.89	97.88
596.1	92.88
596.309	88.88
596.518	102.88
596.727	106.88
596.937	112.88
597.146	91.88
597.355	101.88
597.564	103.88
597.774	87.88
597.983	92.88
598.192	96.88
598.401	99.88
598.61	96.88
598.819	91.88
599.028	77.88
599.237	91.88
599.446	105.88
599.655	94.88
599.864	96.88
600.073	88.88
600.282	89.88
600.491	100.88
600.7	107.88
600.909	92.88
601.118	84.88
601.327	99.88
601.536	122.88
601.745	109.88
601.953	110.88
602.162	109.88
602.371	124.88
602.58	112.88
602.789	109.88
602.997	100.88
603.206	117.88
603.415	101.88
603.623	129.88
603.832	125.88
604.041	117.88
604.249	96.88
604.458	102.88
604.666	103.88
604.875	106.88
605.084	89.88
605.292	110.88
605.501	111.88
605.709	122.88
605.918	109.88
606.126	111.88
606.334	127.88
606.543	118.88
606.751	118.88
606.96	99.88
607.168	100.88
607.376	97.88
607.585	113.88
607.793	121.88
608.001	117.88
608.21	109.88
608.418	122.88
608.626	106.88
608.834	115.88
609.043	123.88
609.251	125.88
609.459	101.88
609.667	115.88
609.875	120.88
610.083	96.88
610.291	105.88
610.499	108.88
610.707	121.88
610.916	117.88
611.124	122.88
611.332	125.88
611.54	115.88
611.748	112.88
611.955	117.88
612.163	111.88
612.371	111.88
612.579	102.88
612.787	109.88
612.995	128.88
613.203	125.88
613.411	109.88
613.618	106.88
613.826	116.88
614.034	112.88
614.242	107.88
614.449	106.88
614.657	103.88
614.865	116.88
615.072	121.88
615.28	120.88
615.488	115.88
615.695	116.88
615.903	109.88
616.111	117.88
616.318	107.88
616.526	119.88
616.733	115.88
616.941	111.88
617.148	126.88
617.356	116.88
617.563	129.88
617.771	113.88
617.978	123.88
618.185	127.88
618.393	112.88
618.6	105.88
618.807	91.88
619.015	112.88
619.222	105.88
619.429	117.88
619.637	121.88
619.844	103.88
620.051	113.88
620.258	108.88
620.466	115.88
620.673	108.88
620.88	106.88
621.087	95.88
621.294	112.88
621.501	117.88
621.708	112.88
621.915	107.88
622.122	107.88
622.329	115.88
622.536	92.88
622.743	105.88
622.95	108.88
623.157	106.88
623.364	108.88
623.571	112.88
623.778	105.88
623.985	117.88
624.192	114.88
624.399	118.88
624.606	114.88
624.812	98.88
625.019	102.88
625.226	113.88
625.433	106.88
625.639	106.88
625.846	103.88
626.053	114.88
626.259	93.88
626.466	90.88
626.673	106.88
626.879	99.88
627.086	83.88
627.293	96.88
627.499	97.88
627.706	106.88
627.912	100.88
628.119	99.88
628.325	107.88
628.532	107.88
628.738	89.88
628.945	104.88
629.151	114.88
629.357	112.88
629.564	103.88
629.77	91.88
629.976	96.88
630.183	106.88
630.389	106.88
630.595	108.88
630.802	89.88
631.008	102.88
631.214	113.88
631.42	98.88
631.627	116.88
631.833	89.88
632.039	97.88
632.245	120.88
632.451	112.88
632.657	105.88
632.863	100.88
633.069	92.88
633.275	107.88
633.481	108.88
633.688	115.88
633.893	108.88
634.099	102.88
634.305	109.88
634.511	100.88
634.717	93.88
634.923	95.88
635.129	99.88
635.335	84.88
635.541	100.88
635.747	104.88
635.952	103.88
636.158	89.88
636.364	121.88
636.57	99.88
636.775	98.88
636.981	97.88
637.187	105.88
637.392	111.88
637.598	101.88
637.804	103.88
638.009	100.88
638.215	116.88
638.421	95.88
638.626	106.88
638.832	105.88
639.037	100.88
639.243	101.88
639.448	88.88
639.654	111.88
639.859	104.88
640.065	100.88
640.27	114.88
640.475	99.88
640.681	106.88
640.886	103.88
641.091	114.88
641.297	105.88
641.502	96.88
641.707	99.88
641.913	98.88
642.118	98.88
642.323	104.88
642.528	99.88
642.733	116.88
642.939	95.88
643.144	101.88
643.349	92.88
643.554	105.88
643.759	97.88
643.964	84.88
644.169	100.88
644.374	97.88
644.579	100.88
644.784	111.88
644.989	115.88
645.194	105.88
645.399	112.88
645.604	106.88
645.809	101.88
646.014	108.88
646.219	103.88
646.423	94.88
646.628	95.88
646.833	93.88
647.038	100.88
647.243	89.88
647.447	104.88
647.652	108.88
647.857	89.88
648.062	104.88
648.266	108.88
648.471	95.88
648.676	102.88
648.88	89.88
649.085	91.88
649.289	89.88
649.494	85.88
649.698	122.88
649.903	115.88
650.107	100.88
650.312	87.88
650.516	96.88
650.721	101.88
650.925	98.88
651.13	86.88
651.334	81.88
651.539	95.88
651.743	87.88
651.947	92.88
652.152	96.88
652.356	96.88
652.56	88.88
652.764	93.88
652.969	80.88
653.173	100.88
653.377	89.88
653.581	91.88
653.785	104.88
653.99	96.88
654.194	86.88
654.398	95.88
654.602	104.88
654.806	91.88
655.01	82.88
655.214	89.88
655.418	80.88
655.622	93.88
655.826	104.88
656.03	88.88
656.234	71.88
656.438	99.88
656.642	85.88
656.846	84.88
657.049	104.88
657.253	91.88
657.457	89.88
657.661	93.88
657.865	85.88
658.068	84.88
658.272	88.88
658.476	93.88
658.68	78.88
658.883	75.88
659.087	81.88
659.291	78.88
659.494	84.88
659.698	84.88
659.901	81.88
660.105	91.88
660.309	100.88
660.512	78.88
660.716	84.88
660.919	85.88
661.123	94.88
661.326	86.88
661.53	92.88
661.733	99.88
661.936	89.88
662.14	87.88
662.343	93.88
662.546	84.88
662.75	94.88
662.953	92.88
663.156	83.88
663.36	79.88
663.563	83.88
663.766	99.88
663.969	97.88
664.173	76.88
664.376	63.88
664.579	75.88
664.782	78.88
664.985	94.88
665.188	83.88
665.391	66.88
665.594	93.88
665.797	84.88
666	89.88
666.203	77.88
666.406	80.88
666.609	75.88
666.812	101.88
667.015	93.88
667.218	82.88
667.421	93.88
667.624	82.88
667.827	88.88
668.03	82.88
668.232	78.88
668.435	78.88
668.638	90.88
668.841	72.88
669.043	76.88
669.246	94.88
669.449	91.88
669.651	84.88
669.854	73.88
670.057	76.88
670.259	86.88
670.462	85.88
670.665	93.88
670.867	73.88
671.07	75.88
671.272	82.88
671.475	74.88
671.677	80.88
671.88	93.88
672.082	91.88
672.284	91.88
672.487	69.88
672.689	97.88
672.892	67.88
