Data from Location6.07152019.Energy5.Lamp.07192019.3%Agarose_HRD10591_16-13-06-395.txt Node
Date: Fri Jul 19 16:13:06 EDT 2019
User: cochatt
Spectrometer: HR+D1059
Trigger mode: 1
Integration Time (sec): 1.000000E-1
Scans to average: 1
Electric dark correction enabled: true
Nonlinearity correction enabled: false
Boxcar width: 0
XAxis mode: Wavelengths
Number of Pixels in Spectrum: 2048
>>>>>Begin Spectral Data<<<<<
223.165	-18.62
223.4	-18.62
223.635	-18.62
223.869	-14.62
224.104	-19.62
224.338	-18.62
224.573	-9.62
224.808	-3.62
225.042	-9.62
225.277	-19.62
225.511	-22.62
225.746	0.38
225.98	4.38
226.215	11.38
226.449	15.38
226.683	31.38
226.918	44.38
227.152	29.38
227.387	21.38
227.621	46.38
227.856	49.38
228.09	51.38
228.324	52.38
228.559	55.38
228.793	62.38
229.027	69.38
229.262	62.38
229.496	72.38
229.73	61.38
229.964	73.38
230.199	70.38
230.433	90.38
230.667	68.38
230.901	69.38
231.136	65.38
231.37	78.38
231.604	93.38
231.838	77.38
232.072	84.38
232.306	79.38
232.541	83.38
232.775	73.38
233.009	82.38
233.243	77.38
233.477	90.38
233.711	77.38
233.945	77.38
234.179	80.38
234.413	89.38
234.647	90.38
234.881	78.38
235.115	86.38
235.349	83.38
235.583	96.38
235.817	89.38
236.051	78.38
236.285	80.38
236.519	81.38
236.753	72.38
236.987	85.38
237.221	79.38
237.455	76.38
237.689	67.38
237.922	67.38
238.156	67.38
238.39	76.38
238.624	85.38
238.858	78.38
239.091	69.38
239.325	65.38
239.559	67.38
239.793	70.38
240.027	86.38
240.26	76.38
240.494	91.38
240.728	75.38
240.961	78.38
241.195	75.38
241.429	77.38
241.662	85.38
241.896	79.38
242.13	73.38
242.363	75.38
242.597	73.38
242.83	71.38
243.064	86.38
243.298	69.38
243.531	86.38
243.765	88.38
243.998	72.38
244.232	94.38
244.465	80.38
244.699	73.38
244.932	87.38
245.166	79.38
245.399	94.38
245.633	92.38
245.866	72.38
246.099	85.38
246.333	82.38
246.566	78.38
246.8	72.38
247.033	82.38
247.266	76.38
247.5	73.38
247.733	78.38
247.966	86.38
248.2	79.38
248.433	72.38
248.666	68.38
248.899	74.38
249.133	82.38
249.366	80.38
249.599	84.38
249.832	81.38
250.066	94.38
250.299	81.38
250.532	89.38
250.765	73.38
250.998	73.38
251.231	79.38
251.465	90.38
251.698	78.38
251.931	88.38
252.164	86.38
252.397	77.38
252.63	81.38
252.863	78.38
253.096	87.38
253.329	79.38
253.562	84.38
253.795	67.38
254.028	97.38
254.261	76.38
254.494	81.38
254.727	92.38
254.96	77.38
255.193	83.38
255.426	84.38
255.659	92.38
255.892	83.38
256.124	85.38
256.357	86.38
256.59	80.38
256.823	76.38
257.056	85.38
257.289	94.38
257.521	88.38
257.754	75.38
257.987	82.38
258.22	85.38
258.452	96.38
258.685	85.38
258.918	75.38
259.151	75.38
259.383	74.38
259.616	84.38
259.849	86.38
260.081	85.38
260.314	92.38
260.547	74.38
260.779	84.38
261.012	91.38
261.244	87.38
261.477	87.38
261.71	92.38
261.942	89.38
262.175	87.38
262.407	91.38
262.64	84.38
262.872	90.38
263.105	77.38
263.337	76.38
263.57	86.38
263.802	89.38
264.035	77.38
264.267	89.38
264.499	77.38
264.732	93.38
264.964	82.38
265.197	85.38
265.429	83.38
265.661	88.38
265.894	73.38
266.126	91.38
266.358	83.38
266.591	91.38
266.823	83.38
267.055	78.38
267.287	86.38
267.52	75.38
267.752	87.38
267.984	85.38
268.216	79.38
268.448	89.38
268.681	76.38
268.913	69.38
269.145	83.38
269.377	83.38
269.609	78.38
269.841	85.38
270.073	94.38
270.306	89.38
270.538	81.38
270.77	65.38
271.002	74.38
271.234	95.38
271.466	83.38
271.698	85.38
271.93	88.38
272.162	71.38
272.394	89.38
272.626	90.38
272.858	84.38
273.09	81.38
273.322	81.38
273.553	78.38
273.785	90.38
274.017	90.38
274.249	93.38
274.481	86.38
274.713	82.38
274.945	80.38
275.176	95.38
275.408	89.38
275.64	88.38
275.872	79.38
276.104	91.38
276.335	76.38
276.567	79.38
276.799	86.38
277.031	83.38
277.262	87.38
277.494	102.38
277.726	77.38
277.957	76.38
278.189	94.38
278.421	87.38
278.652	86.38
278.884	75.38
279.115	93.38
279.347	77.38
279.579	88.38
279.81	101.38
280.042	77.38
280.273	90.38
280.505	86.38
280.736	85.38
280.968	84.38
281.199	80.38
281.431	91.38
281.662	86.38
281.894	89.38
282.125	75.38
282.356	90.38
282.588	101.38
282.819	87.38
283.051	101.38
283.282	94.38
283.513	85.38
283.745	91.38
283.976	86.38
284.207	81.38
284.439	95.38
284.67	78.38
284.901	85.38
285.132	101.38
285.364	83.38
285.595	90.38
285.826	83.38
286.057	85.38
286.288	70.38
286.52	75.38
286.751	86.38
286.982	85.38
287.213	94.38
287.444	86.38
287.675	101.38
287.906	72.38
288.138	68.38
288.369	87.38
288.6	78.38
288.831	84.38
289.062	87.38
289.293	85.38
289.524	70.38
289.755	74.38
289.986	87.38
290.217	73.38
290.448	79.38
290.679	82.38
290.91	89.38
291.141	100.38
291.371	104.38
291.602	83.38
291.833	83.38
292.064	83.38
292.295	79.38
292.526	78.38
292.757	79.38
292.987	79.38
293.218	87.38
293.449	88.38
293.68	91.38
293.91	83.38
294.141	89.38
294.372	78.38
294.603	94.38
294.833	89.38
295.064	99.38
295.295	91.38
295.525	87.38
295.756	78.38
295.987	88.38
296.217	81.38
296.448	84.38
296.679	82.38
296.909	90.38
297.14	91.38
297.37	84.38
297.601	74.38
297.831	79.38
298.062	79.38
298.292	84.38
298.523	90.38
298.753	89.38
298.984	97.38
299.214	90.38
299.445	90.38
299.675	92.38
299.905	90.38
300.136	69.38
300.366	89.38
300.597	95.38
300.827	92.38
301.057	82.38
301.288	85.38
301.518	94.38
301.748	88.38
301.979	76.38
302.209	72.38
302.439	104.38
302.669	81.38
302.9	82.38
303.13	80.38
303.36	89.38
303.59	76.38
303.82	77.38
304.051	99.38
304.281	89.38
304.511	93.38
304.741	83.38
304.971	91.38
305.201	89.38
305.431	87.38
305.661	89.38
305.891	97.38
306.121	94.38
306.352	86.38
306.582	70.38
306.812	85.38
307.042	86.38
307.272	85.38
307.502	82.38
307.731	99.38
307.961	103.38
308.191	84.38
308.421	86.38
308.651	90.38
308.881	91.38
309.111	83.38
309.341	91.38
309.571	82.38
309.8	93.38
310.03	98.38
310.26	78.38
310.49	85.38
310.72	91.38
310.949	88.38
311.179	84.38
311.409	94.38
311.639	89.38
311.868	90.38
312.098	91.38
312.328	95.38
312.557	82.38
312.787	74.38
313.017	73.38
313.246	73.38
313.476	78.38
313.706	83.38
313.935	94.38
314.165	88.38
314.394	86.38
314.624	94.38
314.853	101.38
315.083	99.38
315.312	83.38
315.542	94.38
315.771	94.38
316.001	71.38
316.23	72.38
316.46	86.38
316.689	89.38
316.919	89.38
317.148	83.38
317.377	101.38
317.607	82.38
317.836	87.38
318.065	84.38
318.295	105.38
318.524	77.38
318.753	78.38
318.983	89.38
319.212	87.38
319.441	78.38
319.67	93.38
319.9	77.38
320.129	87.38
320.358	80.38
320.587	78.38
320.816	73.38
321.046	85.38
321.275	89.38
321.504	94.38
321.733	84.38
321.962	85.38
322.191	96.38
322.42	89.38
322.649	97.38
322.878	81.38
323.108	93.38
323.337	86.38
323.566	97.38
323.795	86.38
324.024	96.38
324.253	95.38
324.482	90.38
324.71	102.38
324.939	76.38
325.168	97.38
325.397	91.38
325.626	83.38
325.855	72.38
326.084	90.38
326.313	86.38
326.542	87.38
326.77	89.38
326.999	101.38
327.228	83.38
327.457	96.38
327.686	83.38
327.914	66.38
328.143	94.38
328.372	88.38
328.6	91.38
328.829	97.38
329.058	85.38
329.287	75.38
329.515	79.38
329.744	79.38
329.972	85.38
330.201	100.38
330.43	84.38
330.658	95.38
330.887	83.38
331.115	65.38
331.344	73.38
331.572	75.38
331.801	76.38
332.03	89.38
332.258	80.38
332.486	86.38
332.715	93.38
332.943	87.38
333.172	85.38
333.4	75.38
333.629	85.38
333.857	85.38
334.085	80.38
334.314	81.38
334.542	93.38
334.771	87.38
334.999	92.38
335.227	85.38
335.455	85.38
335.684	80.38
335.912	82.38
336.14	83.38
336.369	75.38
336.597	83.38
336.825	82.38
337.053	98.38
337.281	84.38
337.51	94.38
337.738	85.38
337.966	87.38
338.194	84.38
338.422	86.38
338.65	94.38
338.878	94.38
339.106	97.38
339.334	85.38
339.562	70.38
339.79	100.38
340.018	83.38
340.246	74.38
340.474	102.38
340.702	91.38
340.93	82.38
341.158	81.38
341.386	88.38
341.614	81.38
341.842	85.38
342.07	83.38
342.298	85.38
342.526	90.38
342.754	86.38
342.981	79.38
343.209	78.38
343.437	80.38
343.665	87.38
343.893	81.38
344.12	94.38
344.348	79.38
344.576	89.38
344.804	81.38
345.031	95.38
345.259	87.38
345.487	82.38
345.714	87.38
345.942	90.38
346.17	104.38
346.397	95.38
346.625	87.38
346.853	88.38
347.08	80.38
347.308	80.38
347.535	81.38
347.763	87.38
347.99	91.38
348.218	81.38
348.445	76.38
348.673	88.38
348.9	97.38
349.128	92.38
349.355	90.38
349.583	87.38
349.81	81.38
350.037	87.38
350.265	93.38
350.492	91.38
350.72	77.38
350.947	101.38
351.174	96.38
351.402	91.38
351.629	97.38
351.856	85.38
352.083	83.38
352.311	94.38
352.538	77.38
352.765	90.38
352.992	74.38
353.22	87.38
353.447	93.38
353.674	85.38
353.901	72.38
354.128	101.38
354.355	83.38
354.583	86.38
354.81	91.38
355.037	78.38
355.264	88.38
355.491	74.38
355.718	75.38
355.945	76.38
356.172	77.38
356.399	83.38
356.626	92.38
356.853	84.38
357.08	80.38
357.307	89.38
357.534	98.38
357.761	92.38
357.988	83.38
358.215	85.38
358.441	89.38
358.668	98.38
358.895	86.38
359.122	87.38
359.349	76.38
359.576	78.38
359.802	78.38
360.029	80.38
360.256	81.38
360.483	91.38
360.709	91.38
360.936	96.38
361.163	75.38
361.39	91.38
361.616	93.38
361.843	92.38
362.07	96.38
362.296	85.38
362.523	80.38
362.749	84.38
362.976	75.38
363.203	88.38
363.429	77.38
363.656	86.38
363.882	80.38
364.109	78.38
364.335	87.38
364.562	91.38
364.788	79.38
365.015	71.38
365.241	92.38
365.468	85.38
365.694	75.38
365.92	92.38
366.147	91.38
366.373	93.38
366.599	86.38
366.826	89.38
367.052	68.38
367.278	79.38
367.505	88.38
367.731	104.38
367.957	100.38
368.184	90.38
368.41	91.38
368.636	92.38
368.862	90.38
369.089	96.38
369.315	87.38
369.541	77.38
369.767	87.38
369.993	87.38
370.219	100.38
370.445	103.38
370.672	84.38
370.898	103.38
371.124	79.38
371.35	97.38
371.576	94.38
371.802	83.38
372.028	100.38
372.254	88.38
372.48	98.38
372.706	99.38
372.932	86.38
373.158	100.38
373.384	105.38
373.61	98.38
373.835	90.38
374.061	74.38
374.287	89.38
374.513	103.38
374.739	91.38
374.965	106.38
375.191	100.38
375.416	110.38
375.642	97.38
375.868	102.38
376.094	92.38
376.319	96.38
376.545	95.38
376.771	97.38
376.997	103.38
377.222	92.38
377.448	106.38
377.674	99.38
377.899	91.38
378.125	105.38
378.35	89.38
378.576	91.38
378.802	103.38
379.027	95.38
379.253	97.38
379.478	95.38
379.704	93.38
379.929	113.38
380.155	102.38
380.38	89.38
380.606	84.38
380.831	102.38
381.057	107.38
381.282	101.38
381.507	88.38
381.733	100.38
381.958	106.38
382.184	90.38
382.409	110.38
382.634	99.38
382.86	104.38
383.085	99.38
383.31	97.38
383.535	92.38
383.761	77.38
383.986	78.38
384.211	94.38
384.436	102.38
384.662	110.38
384.887	113.38
385.112	100.38
385.337	90.38
385.562	97.38
385.787	83.38
386.013	104.38
386.238	104.38
386.463	90.38
386.688	89.38
386.913	117.38
387.138	98.38
387.363	105.38
387.588	99.38
387.813	97.38
388.038	98.38
388.263	109.38
388.488	105.38
388.713	116.38
388.938	93.38
389.163	109.38
389.387	99.38
389.612	88.38
389.837	97.38
390.062	109.38
390.287	105.38
390.512	94.38
390.736	95.38
390.961	109.38
391.186	120.38
391.411	108.38
391.636	104.38
391.86	111.38
392.085	104.38
392.31	108.38
392.534	108.38
392.759	107.38
392.984	106.38
393.208	110.38
393.433	109.38
393.658	102.38
393.882	102.38
394.107	103.38
394.331	131.38
394.556	111.38
394.78	114.38
395.005	100.38
395.229	104.38
395.454	113.38
395.678	120.38
395.903	119.38
396.127	113.38
396.352	114.38
396.576	118.38
396.801	106.38
397.025	91.38
397.249	109.38
397.474	129.38
397.698	117.38
397.922	112.38
398.147	116.38
398.371	119.38
398.595	120.38
398.82	120.38
399.044	103.38
399.268	107.38
399.492	122.38
399.717	109.38
399.941	108.38
400.165	124.38
400.389	114.38
400.613	115.38
400.837	110.38
401.062	109.38
401.286	111.38
401.51	109.38
401.734	118.38
401.958	111.38
402.182	120.38
402.406	110.38
402.63	121.38
402.854	115.38
403.078	110.38
403.302	125.38
403.526	125.38
403.75	122.38
403.974	113.38
404.198	126.38
404.422	141.38
404.645	121.38
404.869	113.38
405.093	114.38
405.317	125.38
405.541	128.38
405.765	113.38
405.988	120.38
406.212	101.38
406.436	129.38
406.66	136.38
406.883	124.38
407.107	115.38
407.331	117.38
407.555	121.38
407.778	126.38
408.002	127.38
408.226	111.38
408.449	112.38
408.673	129.38
408.896	124.38
409.12	124.38
409.344	107.38
409.567	110.38
409.791	115.38
410.014	117.38
410.238	114.38
410.461	115.38
410.685	109.38
410.908	119.38
411.132	112.38
411.355	132.38
411.578	124.38
411.802	142.38
412.025	119.38
412.249	119.38
412.472	117.38
412.695	130.38
412.919	139.38
413.142	133.38
413.365	122.38
413.589	123.38
413.812	123.38
414.035	135.38
414.258	122.38
414.482	125.38
414.705	118.38
414.928	134.38
415.151	132.38
415.374	127.38
415.597	127.38
415.821	133.38
416.044	126.38
416.267	150.38
416.49	128.38
416.713	125.38
416.936	135.38
417.159	131.38
417.382	117.38
417.605	117.38
417.828	136.38
418.051	143.38
418.274	137.38
418.497	138.38
418.72	140.38
418.943	145.38
419.166	144.38
419.389	138.38
419.611	149.38
419.834	139.38
420.057	131.38
420.28	139.38
420.503	130.38
420.726	133.38
420.948	138.38
421.171	133.38
421.394	146.38
421.617	153.38
421.839	153.38
422.062	137.38
422.285	143.38
422.507	137.38
422.73	140.38
422.953	133.38
423.175	138.38
423.398	126.38
423.621	134.38
423.843	143.38
424.066	134.38
424.288	150.38
424.511	149.38
424.733	147.38
424.956	156.38
425.178	153.38
425.401	149.38
425.623	140.38
425.846	131.38
426.068	139.38
426.291	142.38
426.513	137.38
426.735	124.38
426.958	132.38
427.18	143.38
427.402	145.38
427.625	153.38
427.847	129.38
428.069	137.38
428.292	132.38
428.514	135.38
428.736	137.38
428.958	131.38
429.181	127.38
429.403	132.38
429.625	141.38
429.847	124.38
430.069	137.38
430.292	135.38
430.514	135.38
430.736	128.38
430.958	139.38
431.18	122.38
431.402	121.38
431.624	118.38
431.846	97.38
432.068	110.38
432.29	102.38
432.512	113.38
432.734	133.38
432.956	131.38
433.178	132.38
433.4	142.38
433.622	139.38
433.844	138.38
434.066	106.38
434.287	108.38
434.509	95.38
434.731	107.38
434.953	121.38
435.175	126.38
435.397	129.38
435.618	133.38
435.84	123.38
436.062	132.38
436.284	135.38
436.505	135.38
436.727	125.38
436.949	134.38
437.17	143.38
437.392	138.38
437.614	116.38
437.835	98.38
438.057	124.38
438.278	117.38
438.5	126.38
438.721	134.38
438.943	161.38
439.165	137.38
439.386	129.38
439.608	152.38
439.829	151.38
440.05	160.38
440.272	151.38
440.493	149.38
440.715	138.38
440.936	167.38
441.158	137.38
441.379	151.38
441.6	167.38
441.822	161.38
442.043	150.38
442.264	147.38
442.486	157.38
442.707	131.38
442.928	140.38
443.149	143.38
443.371	141.38
443.592	135.38
443.813	149.38
444.034	147.38
444.255	143.38
444.476	135.38
444.698	156.38
444.919	166.38
445.14	295.38
445.361	214.38
445.582	148.38
445.803	141.38
446.024	154.38
446.245	161.38
446.466	169.38
446.687	176.38
446.908	163.38
447.129	145.38
447.35	163.38
447.571	156.38
447.792	152.38
448.013	143.38
448.234	137.38
448.455	147.38
448.675	150.38
448.896	147.38
449.117	147.38
449.338	140.38
449.559	159.38
449.779	127.38
450	142.38
450.221	121.38
450.442	145.38
450.662	128.38
450.883	140.38
451.104	144.38
451.324	136.38
451.545	134.38
451.766	144.38
451.986	149.38
452.207	140.38
452.428	134.38
452.648	129.38
452.869	125.38
453.089	109.38
453.31	119.38
453.53	109.38
453.751	109.38
453.971	99.38
454.192	121.38
454.412	106.38
454.633	129.38
454.853	131.38
455.073	122.38
455.294	125.38
455.514	131.38
455.734	144.38
455.955	129.38
456.175	104.38
456.395	126.38
456.616	105.38
456.836	118.38
457.056	124.38
457.276	123.38
457.497	120.38
457.717	110.38
457.937	118.38
458.157	115.38
458.377	98.38
458.598	101.38
458.818	106.38
459.038	91.38
459.258	76.38
459.478	92.38
459.698	82.38
459.918	87.38
460.138	99.38
460.358	107.38
460.578	104.38
460.798	113.38
461.018	119.38
461.238	139.38
461.458	136.38
461.678	117.38
461.898	120.38
462.118	104.38
462.338	125.38
462.558	105.38
462.777	101.38
462.997	119.38
463.217	110.38
463.437	110.38
463.657	103.38
463.876	95.38
464.096	107.38
464.316	115.38
464.536	125.38
464.755	127.38
464.975	109.38
465.195	117.38
465.414	103.38
465.634	107.38
465.854	133.38
466.073	100.38
466.293	119.38
466.512	129.38
466.732	126.38
466.951	137.38
467.171	143.38
467.391	153.38
467.61	125.38
467.829	146.38
468.049	151.38
468.268	143.38
468.488	152.38
468.707	149.38
468.927	147.38
469.146	142.38
469.365	147.38
469.585	142.38
469.804	146.38
470.023	136.38
470.243	153.38
470.462	134.38
470.681	156.38
470.901	150.38
471.12	134.38
471.339	140.38
471.558	141.38
471.777	143.38
471.997	162.38
472.216	132.38
472.435	131.38
472.654	113.38
472.873	104.38
473.092	111.38
473.311	130.38
473.53	145.38
473.749	136.38
473.968	121.38
474.187	122.38
474.406	113.38
474.625	120.38
474.844	141.38
475.063	134.38
475.282	133.38
475.501	123.38
475.72	113.38
475.939	128.38
476.158	133.38
476.377	130.38
476.596	132.38
476.814	117.38
477.033	115.38
477.252	124.38
477.471	121.38
477.69	140.38
477.908	154.38
478.127	131.38
478.346	152.38
478.564	147.38
478.783	134.38
479.002	143.38
479.22	135.38
479.439	131.38
479.658	123.38
479.876	105.38
480.095	111.38
480.313	119.38
480.532	134.38
480.751	111.38
480.969	105.38
481.188	100.38
481.406	104.38
481.624	94.38
481.843	81.38
482.061	109.38
482.28	107.38
482.498	117.38
482.717	103.38
482.935	136.38
483.153	140.38
483.372	164.38
483.59	157.38
483.808	140.38
484.027	127.38
484.245	126.38
484.463	156.38
484.681	166.38
484.9	164.38
485.118	132.38
485.336	157.38
485.554	120.38
485.772	94.38
485.99	105.38
486.209	115.38
486.427	97.38
486.645	124.38
486.863	145.38
487.081	148.38
487.299	134.38
487.517	129.38
487.735	171.38
487.953	193.38
488.171	205.38
488.389	198.38
488.607	163.38
488.825	143.38
489.043	151.38
489.261	131.38
489.479	153.38
489.696	134.38
489.914	158.38
490.132	159.38
490.35	172.38
490.568	156.38
490.786	178.38
491.003	185.38
491.221	188.38
491.439	184.38
491.657	201.38
491.874	220.38
492.092	242.38
492.31	270.38
492.527	226.38
492.745	225.38
492.963	218.38
493.18	202.38
493.398	194.38
493.615	190.38
493.833	190.38
494.05	195.38
494.268	174.38
494.485	178.38
494.703	173.38
494.92	197.38
495.138	170.38
495.355	174.38
495.573	174.38
495.79	164.38
496.008	179.38
496.225	187.38
496.442	164.38
496.66	187.38
496.877	165.38
497.094	174.38
497.312	168.38
497.529	171.38
497.746	173.38
497.963	149.38
498.181	138.38
498.398	121.38
498.615	113.38
498.832	124.38
499.049	122.38
499.267	137.38
499.484	134.38
499.701	131.38
499.918	149.38
500.135	161.38
500.352	149.38
500.569	152.38
500.786	142.38
501.003	159.38
501.22	154.38
501.437	142.38
501.654	135.38
501.871	127.38
502.088	146.38
502.305	141.38
502.522	155.38
502.739	140.38
502.956	123.38
503.172	133.38
503.389	126.38
503.606	110.38
503.823	138.38
504.04	132.38
504.256	139.38
504.473	117.38
504.69	116.38
504.907	143.38
505.123	116.38
505.34	137.38
505.557	130.38
505.773	124.38
505.99	133.38
506.207	124.38
506.423	125.38
506.64	123.38
506.856	109.38
507.073	121.38
507.289	135.38
507.506	136.38
507.722	119.38
507.939	127.38
508.155	124.38
508.372	112.38
508.588	115.38
508.805	107.38
509.021	123.38
509.238	104.38
509.454	110.38
509.67	103.38
509.887	110.38
510.103	94.38
510.319	95.38
510.536	91.38
510.752	87.38
510.968	100.38
511.184	91.38
511.401	83.38
511.617	87.38
511.833	99.38
512.049	88.38
512.265	96.38
512.481	91.38
512.698	114.38
512.914	102.38
513.13	104.38
513.346	75.38
513.562	88.38
513.778	92.38
513.994	100.38
514.21	108.38
514.426	92.38
514.642	79.38
514.858	102.38
515.074	83.38
515.29	83.38
515.506	92.38
515.721	84.38
515.937	97.38
516.153	82.38
516.369	74.38
516.585	83.38
516.801	80.38
517.016	102.38
517.232	98.38
517.448	103.38
517.664	101.38
517.879	88.38
518.095	100.38
518.311	93.38
518.527	93.38
518.742	102.38
518.958	104.38
519.173	103.38
519.389	112.38
519.605	116.38
519.82	111.38
520.036	116.38
520.251	119.38
520.467	86.38
520.682	113.38
520.898	91.38
521.113	80.38
521.329	96.38
521.544	91.38
521.76	103.38
521.975	102.38
522.19	108.38
522.406	118.38
522.621	111.38
522.836	111.38
523.052	116.38
523.267	109.38
523.482	114.38
523.698	109.38
523.913	121.38
524.128	125.38
524.343	131.38
524.559	111.38
524.774	114.38
524.989	121.38
525.204	115.38
525.419	113.38
525.634	105.38
525.849	117.38
526.064	127.38
526.28	110.38
526.495	106.38
526.71	79.38
526.925	100.38
527.14	96.38
527.355	79.38
527.57	93.38
527.785	88.38
527.999	97.38
528.214	91.38
528.429	110.38
528.644	126.38
528.859	144.38
529.074	139.38
529.289	163.38
529.503	174.38
529.718	152.38
529.933	115.38
530.148	118.38
530.363	105.38
530.577	102.38
530.792	86.38
531.007	77.38
531.221	89.38
531.436	87.38
531.651	92.38
531.865	86.38
532.08	95.38
532.295	91.38
532.509	100.38
532.724	73.38
532.938	87.38
533.153	97.38
533.367	122.38
533.582	125.38
533.796	136.38
534.011	120.38
534.225	109.38
534.44	89.38
534.654	103.38
534.868	113.38
535.083	89.38
535.297	114.38
535.511	102.38
535.726	114.38
535.94	98.38
536.154	101.38
536.369	85.38
536.583	85.38
536.797	87.38
537.011	86.38
537.225	78.38
537.44	84.38
537.654	99.38
537.868	100.38
538.082	104.38
538.296	98.38
538.51	113.38
538.724	115.38
538.938	105.38
539.153	121.38
539.367	121.38
539.581	127.38
539.795	124.38
540.009	100.38
540.222	105.38
540.436	115.38
540.65	105.38
540.864	123.38
541.078	146.38
541.292	170.38
541.506	181.38
541.72	185.38
541.934	197.38
542.147	203.38
542.361	188.38
542.575	179.38
542.789	158.38
543.002	170.38
543.216	146.38
543.43	135.38
543.644	158.38
543.857	138.38
544.071	171.38
544.285	163.38
544.498	177.38
544.712	166.38
544.925	179.38
545.139	187.38
545.352	170.38
545.566	172.38
545.779	171.38
545.993	152.38
546.206	170.38
546.42	171.38
546.633	172.38
546.847	180.38
547.06	169.38
547.274	180.38
547.487	191.38
547.7	196.38
547.914	169.38
548.127	166.38
548.34	174.38
548.554	165.38
548.767	159.38
548.98	182.38
549.193	152.38
549.407	158.38
549.62	161.38
549.833	181.38
550.046	155.38
550.259	151.38
550.473	161.38
550.686	157.38
550.899	167.38
551.112	159.38
551.325	151.38
551.538	142.38
551.751	129.38
551.964	139.38
552.177	135.38
552.39	150.38
552.603	144.38
552.816	157.38
553.029	166.38
553.242	173.38
553.455	171.38
553.667	171.38
553.88	170.38
554.093	157.38
554.306	154.38
554.519	152.38
554.732	142.38
554.944	151.38
555.157	158.38
555.37	159.38
555.583	148.38
555.795	147.38
556.008	134.38
556.221	147.38
556.433	127.38
556.646	155.38
556.859	126.38
557.071	143.38
557.284	135.38
557.496	150.38
557.709	148.38
557.921	146.38
558.134	144.38
558.346	141.38
558.559	127.38
558.771	134.38
558.984	138.38
559.196	125.38
559.409	137.38
559.621	142.38
559.833	128.38
560.046	142.38
560.258	149.38
560.47	147.38
560.683	139.38
560.895	139.38
561.107	142.38
561.32	128.38
561.532	135.38
561.744	135.38
561.956	126.38
562.168	136.38
562.381	123.38
562.593	137.38
562.805	133.38
563.017	130.38
563.229	125.38
563.441	129.38
563.653	114.38
563.865	131.38
564.077	135.38
564.289	122.38
564.501	131.38
564.713	142.38
564.925	117.38
565.137	126.38
565.349	126.38
565.561	129.38
565.773	124.38
565.985	119.38
566.197	120.38
566.408	128.38
566.62	119.38
566.832	142.38
567.044	113.38
567.255	123.38
567.467	124.38
567.679	102.38
567.891	104.38
568.102	119.38
568.314	86.38
568.526	109.38
568.737	89.38
568.949	95.38
569.161	98.38
569.372	79.38
569.584	87.38
569.795	93.38
570.007	84.38
570.218	91.38
570.43	87.38
570.641	99.38
570.853	102.38
571.064	116.38
571.276	115.38
571.487	103.38
571.698	106.38
571.91	99.38
572.121	117.38
572.333	105.38
572.544	103.38
572.755	95.38
572.966	82.38
573.178	92.38
573.389	98.38
573.6	87.38
573.811	85.38
574.023	81.38
574.234	87.38
574.445	93.38
574.656	100.38
574.867	81.38
575.078	85.38
575.289	94.38
575.501	100.38
575.712	103.38
575.923	86.38
576.134	103.38
576.345	102.38
576.556	122.38
576.767	109.38
576.978	106.38
577.188	103.38
577.399	106.38
577.61	105.38
577.821	91.38
578.032	96.38
578.243	93.38
578.454	106.38
578.665	95.38
578.875	100.38
579.086	86.38
579.297	79.38
579.508	101.38
579.718	95.38
579.929	86.38
580.14	76.38
580.35	85.38
580.561	85.38
580.772	98.38
580.982	94.38
581.193	89.38
581.403	87.38
581.614	81.38
581.825	86.38
582.035	92.38
582.246	97.38
582.456	97.38
582.667	98.38
582.877	85.38
583.087	94.38
583.298	99.38
583.508	85.38
583.719	88.38
583.929	74.38
584.139	73.38
584.35	89.38
584.56	94.38
584.77	95.38
584.981	83.38
585.191	91.38
585.401	88.38
585.611	103.38
585.821	89.38
586.032	92.38
586.242	95.38
586.452	93.38
586.662	80.38
586.872	89.38
587.082	99.38
587.292	98.38
587.502	99.38
587.713	86.38
587.923	88.38
588.133	97.38
588.343	89.38
588.553	78.38
588.762	96.38
588.972	89.38
589.182	80.38
589.392	99.38
589.602	92.38
589.812	96.38
590.022	97.38
590.232	93.38
590.441	85.38
590.651	99.38
590.861	84.38
591.071	88.38
591.281	85.38
591.49	81.38
591.7	100.38
591.91	102.38
592.119	93.38
592.329	75.38
592.539	88.38
592.748	93.38
592.958	93.38
593.167	86.38
593.377	91.38
593.587	84.38
593.796	90.38
594.006	87.38
594.215	72.38
594.424	89.38
594.634	97.38
594.843	79.38
595.053	87.38
595.262	95.38
595.472	92.38
595.681	90.38
595.89	92.38
596.1	78.38
596.309	99.38
596.518	102.38
596.727	92.38
596.937	98.38
597.146	106.38
597.355	92.38
597.564	87.38
597.774	97.38
597.983	77.38
598.192	96.38
598.401	91.38
598.61	76.38
598.819	91.38
599.028	100.38
599.237	103.38
599.446	102.38
599.655	99.38
599.864	83.38
600.073	84.38
600.282	91.38
600.491	98.38
600.7	92.38
600.909	100.38
601.118	95.38
601.327	97.38
601.536	89.38
601.745	111.38
601.953	101.38
602.162	99.38
602.371	104.38
602.58	112.38
602.789	118.38
602.997	102.38
603.206	114.38
603.415	113.38
603.623	116.38
603.832	119.38
604.041	110.38
604.249	113.38
604.458	101.38
604.666	102.38
604.875	94.38
605.084	105.38
605.292	113.38
605.501	117.38
605.709	115.38
605.918	114.38
606.126	116.38
606.334	128.38
606.543	122.38
606.751	113.38
606.96	109.38
607.168	129.38
607.376	119.38
607.585	126.38
607.793	127.38
608.001	117.38
608.21	112.38
608.418	107.38
608.626	130.38
608.834	122.38
609.043	125.38
609.251	133.38
609.459	121.38
609.667	125.38
609.875	116.38
610.083	130.38
610.291	121.38
610.499	119.38
610.707	108.38
610.916	129.38
611.124	113.38
611.332	121.38
611.54	122.38
611.748	118.38
611.955	122.38
612.163	111.38
612.371	125.38
612.579	117.38
612.787	120.38
612.995	118.38
613.203	116.38
613.411	118.38
613.618	110.38
613.826	113.38
614.034	115.38
614.242	123.38
614.449	106.38
614.657	120.38
614.865	124.38
615.072	105.38
615.28	108.38
615.488	125.38
615.695	115.38
615.903	110.38
616.111	119.38
616.318	123.38
616.526	115.38
616.733	126.38
616.941	105.38
617.148	114.38
617.356	114.38
617.563	121.38
617.771	101.38
617.978	114.38
618.185	115.38
618.393	120.38
618.6	119.38
618.807	90.38
619.015	103.38
619.222	127.38
619.429	114.38
619.637	116.38
619.844	109.38
620.051	115.38
620.258	105.38
620.466	110.38
620.673	106.38
620.88	105.38
621.087	114.38
621.294	119.38
621.501	107.38
621.708	101.38
621.915	108.38
622.122	106.38
622.329	103.38
622.536	102.38
622.743	110.38
622.95	110.38
623.157	110.38
623.364	117.38
623.571	106.38
623.778	121.38
623.985	121.38
624.192	120.38
624.399	119.38
624.606	125.38
624.812	90.38
625.019	107.38
625.226	100.38
625.433	95.38
625.639	116.38
625.846	113.38
626.053	110.38
626.259	92.38
626.466	97.38
626.673	89.38
626.879	95.38
627.086	90.38
627.293	111.38
627.499	99.38
627.706	117.38
627.912	113.38
628.119	103.38
628.325	101.38
628.532	104.38
628.738	103.38
628.945	121.38
629.151	125.38
629.357	104.38
629.564	94.38
629.77	115.38
629.976	118.38
630.183	114.38
630.389	99.38
630.595	104.38
630.802	122.38
631.008	95.38
631.214	114.38
631.42	97.38
631.627	114.38
631.833	113.38
632.039	111.38
632.245	113.38
632.451	104.38
632.657	99.38
632.863	123.38
633.069	111.38
633.275	114.38
633.481	99.38
633.688	104.38
633.893	100.38
634.099	100.38
634.305	110.38
634.511	100.38
634.717	98.38
634.923	99.38
635.129	103.38
635.335	114.38
635.541	93.38
635.747	86.38
635.952	101.38
636.158	109.38
636.364	110.38
636.57	120.38
636.775	116.38
636.981	113.38
637.187	105.38
637.392	102.38
637.598	120.38
637.804	103.38
638.009	94.38
638.215	108.38
638.421	96.38
638.626	118.38
638.832	101.38
639.037	100.38
639.243	91.38
639.448	98.38
639.654	99.38
639.859	114.38
640.065	100.38
640.27	102.38
640.475	97.38
640.681	117.38
640.886	107.38
641.091	101.38
641.297	101.38
641.502	100.38
641.707	104.38
641.913	113.38
642.118	101.38
642.323	93.38
642.528	97.38
642.733	106.38
642.939	108.38
643.144	100.38
643.349	85.38
643.554	114.38
643.759	99.38
643.964	97.38
644.169	108.38
644.374	111.38
644.579	102.38
644.784	112.38
644.989	91.38
645.194	104.38
645.399	105.38
645.604	106.38
645.809	102.38
646.014	105.38
646.219	108.38
646.423	119.38
646.628	118.38
646.833	101.38
647.038	97.38
647.243	107.38
647.447	108.38
647.652	97.38
647.857	103.38
648.062	107.38
648.266	99.38
648.471	84.38
648.676	103.38
648.88	102.38
649.085	103.38
649.289	105.38
649.494	93.38
649.698	103.38
649.903	92.38
650.107	99.38
650.312	89.38
650.516	100.38
650.721	94.38
650.925	106.38
651.13	102.38
651.334	95.38
651.539	94.38
651.743	114.38
651.947	118.38
652.152	109.38
652.356	105.38
652.56	110.38
652.764	89.38
652.969	101.38
653.173	86.38
653.377	102.38
653.581	90.38
653.785	83.38
653.99	95.38
654.194	92.38
654.398	92.38
654.602	85.38
654.806	100.38
655.01	89.38
655.214	100.38
655.418	74.38
655.622	78.38
655.826	89.38
656.03	93.38
656.234	91.38
656.438	91.38
656.642	91.38
656.846	95.38
657.049	79.38
657.253	86.38
657.457	77.38
657.661	89.38
657.865	91.38
658.068	98.38
658.272	90.38
658.476	87.38
658.68	90.38
658.883	85.38
659.087	80.38
659.291	82.38
659.494	86.38
659.698	98.38
659.901	86.38
660.105	92.38
660.309	75.38
660.512	91.38
660.716	79.38
660.919	82.38
661.123	111.38
661.326	90.38
661.53	71.38
661.733	88.38
661.936	87.38
662.14	88.38
662.343	78.38
662.546	97.38
662.75	88.38
662.953	93.38
663.156	86.38
663.36	93.38
663.563	82.38
663.766	81.38
663.969	95.38
664.173	85.38
664.376	95.38
664.579	91.38
664.782	81.38
664.985	78.38
665.188	87.38
665.391	88.38
665.594	88.38
665.797	89.38
666	78.38
666.203	102.38
666.406	84.38
666.609	87.38
666.812	74.38
667.015	70.38
667.218	76.38
667.421	85.38
667.624	78.38
667.827	81.38
668.03	83.38
668.232	79.38
668.435	81.38
668.638	80.38
668.841	76.38
669.043	76.38
669.246	94.38
669.449	67.38
669.651	95.38
669.854	83.38
670.057	87.38
670.259	69.38
670.462	82.38
670.665	80.38
670.867	90.38
671.07	91.38
671.272	93.38
671.475	74.38
671.677	96.38
671.88	90.38
672.082	98.38
672.284	90.38
672.487	82.38
672.689	86.38
672.892	72.38
