Data from Location6.07152019.Energy5.Lamp.07192019.3%Agarose_HRD10591_16-13-14-397.txt Node
Date: Fri Jul 19 16:13:14 EDT 2019
User: cochatt
Spectrometer: HR+D1059
Trigger mode: 1
Integration Time (sec): 1.000000E-1
Scans to average: 1
Electric dark correction enabled: true
Nonlinearity correction enabled: false
Boxcar width: 0
XAxis mode: Wavelengths
Number of Pixels in Spectrum: 2048
>>>>>Begin Spectral Data<<<<<
223.165	-26.25
223.4	-26.25
223.635	-26.25
223.869	-15.25
224.104	-11.25
224.338	-20.25
224.573	-0.25
224.808	-22.25
225.042	-5.25
225.277	-8.25
225.511	0.75
225.746	13.75
225.98	7.75
226.215	10.75
226.449	15.75
226.683	6.75
226.918	19.75
227.152	33.75
227.387	32.75
227.621	49.75
227.856	28.75
228.09	51.75
228.324	53.75
228.559	60.75
228.793	53.75
229.027	63.75
229.262	70.75
229.496	74.75
229.73	74.75
229.964	75.75
230.199	80.75
230.433	68.75
230.667	88.75
230.901	76.75
231.136	78.75
231.37	79.75
231.604	64.75
231.838	82.75
232.072	88.75
232.306	72.75
232.541	82.75
232.775	86.75
233.009	70.75
233.243	87.75
233.477	79.75
233.711	73.75
233.945	92.75
234.179	78.75
234.413	74.75
234.647	75.75
234.881	83.75
235.115	81.75
235.349	80.75
235.583	72.75
235.817	87.75
236.051	79.75
236.285	85.75
236.519	94.75
236.753	74.75
236.987	73.75
237.221	89.75
237.455	71.75
237.689	86.75
237.922	85.75
238.156	84.75
238.39	65.75
238.624	74.75
238.858	67.75
239.091	78.75
239.325	75.75
239.559	75.75
239.793	75.75
240.027	78.75
240.26	85.75
240.494	76.75
240.728	74.75
240.961	80.75
241.195	74.75
241.429	85.75
241.662	74.75
241.896	88.75
242.13	82.75
242.363	95.75
242.597	88.75
242.83	81.75
243.064	76.75
243.298	77.75
243.531	65.75
243.765	80.75
243.998	61.75
244.232	86.75
244.465	79.75
244.699	85.75
244.932	85.75
245.166	84.75
245.399	101.75
245.633	69.75
245.866	98.75
246.099	81.75
246.333	71.75
246.566	77.75
246.8	78.75
247.033	69.75
247.266	68.75
247.5	85.75
247.733	75.75
247.966	93.75
248.2	62.75
248.433	76.75
248.666	76.75
248.899	62.75
249.133	81.75
249.366	74.75
249.599	81.75
249.832	84.75
250.066	85.75
250.299	79.75
250.532	86.75
250.765	82.75
250.998	73.75
251.231	94.75
251.465	79.75
251.698	81.75
251.931	87.75
252.164	73.75
252.397	82.75
252.63	73.75
252.863	85.75
253.096	80.75
253.329	82.75
253.562	61.75
253.795	88.75
254.028	76.75
254.261	85.75
254.494	75.75
254.727	91.75
254.96	81.75
255.193	82.75
255.426	87.75
255.659	77.75
255.892	78.75
256.124	81.75
256.357	89.75
256.59	83.75
256.823	78.75
257.056	96.75
257.289	68.75
257.521	79.75
257.754	71.75
257.987	84.75
258.22	93.75
258.452	78.75
258.685	90.75
258.918	89.75
259.151	90.75
259.383	92.75
259.616	83.75
259.849	91.75
260.081	75.75
260.314	81.75
260.547	82.75
260.779	89.75
261.012	85.75
261.244	80.75
261.477	83.75
261.71	91.75
261.942	70.75
262.175	82.75
262.407	72.75
262.64	71.75
262.872	58.75
263.105	75.75
263.337	76.75
263.57	82.75
263.802	88.75
264.035	75.75
264.267	73.75
264.499	77.75
264.732	88.75
264.964	74.75
265.197	83.75
265.429	83.75
265.661	88.75
265.894	84.75
266.126	96.75
266.358	80.75
266.591	79.75
266.823	97.75
267.055	82.75
267.287	99.75
267.52	100.75
267.752	92.75
267.984	76.75
268.216	82.75
268.448	71.75
268.681	79.75
268.913	89.75
269.145	75.75
269.377	77.75
269.609	75.75
269.841	91.75
270.073	76.75
270.306	84.75
270.538	83.75
270.77	95.75
271.002	92.75
271.234	97.75
271.466	86.75
271.698	80.75
271.93	87.75
272.162	80.75
272.394	77.75
272.626	81.75
272.858	88.75
273.09	72.75
273.322	80.75
273.553	92.75
273.785	78.75
274.017	90.75
274.249	65.75
274.481	77.75
274.713	92.75
274.945	82.75
275.176	85.75
275.408	80.75
275.64	89.75
275.872	106.75
276.104	91.75
276.335	80.75
276.567	97.75
276.799	85.75
277.031	81.75
277.262	84.75
277.494	76.75
277.726	83.75
277.957	72.75
278.189	75.75
278.421	65.75
278.652	88.75
278.884	75.75
279.115	86.75
279.347	79.75
279.579	85.75
279.81	85.75
280.042	90.75
280.273	87.75
280.505	81.75
280.736	78.75
280.968	76.75
281.199	79.75
281.431	86.75
281.662	84.75
281.894	92.75
282.125	80.75
282.356	74.75
282.588	98.75
282.819	84.75
283.051	76.75
283.282	100.75
283.513	75.75
283.745	92.75
283.976	73.75
284.207	88.75
284.439	104.75
284.67	86.75
284.901	76.75
285.132	91.75
285.364	84.75
285.595	86.75
285.826	83.75
286.057	89.75
286.288	92.75
286.52	100.75
286.751	89.75
286.982	95.75
287.213	95.75
287.444	83.75
287.675	85.75
287.906	81.75
288.138	76.75
288.369	82.75
288.6	95.75
288.831	72.75
289.062	70.75
289.293	104.75
289.524	80.75
289.755	90.75
289.986	77.75
290.217	75.75
290.448	69.75
290.679	80.75
290.91	83.75
291.141	78.75
291.371	93.75
291.602	92.75
291.833	92.75
292.064	87.75
292.295	77.75
292.526	82.75
292.757	88.75
292.987	93.75
293.218	98.75
293.449	81.75
293.68	88.75
293.91	85.75
294.141	76.75
294.372	75.75
294.603	79.75
294.833	80.75
295.064	71.75
295.295	83.75
295.525	76.75
295.756	82.75
295.987	75.75
296.217	95.75
296.448	82.75
296.679	77.75
296.909	75.75
297.14	80.75
297.37	87.75
297.601	93.75
297.831	86.75
298.062	71.75
298.292	84.75
298.523	78.75
298.753	85.75
298.984	89.75
299.214	78.75
299.445	81.75
299.675	103.75
299.905	99.75
300.136	87.75
300.366	76.75
300.597	89.75
300.827	79.75
301.057	82.75
301.288	85.75
301.518	90.75
301.748	81.75
301.979	74.75
302.209	88.75
302.439	87.75
302.669	84.75
302.9	91.75
303.13	92.75
303.36	96.75
303.59	86.75
303.82	89.75
304.051	73.75
304.281	78.75
304.511	95.75
304.741	82.75
304.971	81.75
305.201	84.75
305.431	86.75
305.661	78.75
305.891	96.75
306.121	83.75
306.352	75.75
306.582	75.75
306.812	82.75
307.042	72.75
307.272	85.75
307.502	81.75
307.731	89.75
307.961	77.75
308.191	89.75
308.421	79.75
308.651	87.75
308.881	75.75
309.111	84.75
309.341	82.75
309.571	76.75
309.8	81.75
310.03	90.75
310.26	72.75
310.49	91.75
310.72	75.75
310.949	68.75
311.179	87.75
311.409	88.75
311.639	90.75
311.868	87.75
312.098	88.75
312.328	99.75
312.557	88.75
312.787	91.75
313.017	85.75
313.246	89.75
313.476	81.75
313.706	99.75
313.935	99.75
314.165	89.75
314.394	88.75
314.624	72.75
314.853	90.75
315.083	72.75
315.312	81.75
315.542	83.75
315.771	73.75
316.001	103.75
316.23	96.75
316.46	89.75
316.689	82.75
316.919	91.75
317.148	86.75
317.377	99.75
317.607	87.75
317.836	89.75
318.065	74.75
318.295	76.75
318.524	86.75
318.753	91.75
318.983	93.75
319.212	74.75
319.441	87.75
319.67	79.75
319.9	79.75
320.129	87.75
320.358	81.75
320.587	77.75
320.816	91.75
321.046	88.75
321.275	86.75
321.504	95.75
321.733	86.75
321.962	73.75
322.191	97.75
322.42	83.75
322.649	90.75
322.878	74.75
323.108	82.75
323.337	77.75
323.566	91.75
323.795	81.75
324.024	76.75
324.253	82.75
324.482	76.75
324.71	82.75
324.939	89.75
325.168	102.75
325.397	99.75
325.626	85.75
325.855	94.75
326.084	106.75
326.313	80.75
326.542	72.75
326.77	72.75
326.999	94.75
327.228	95.75
327.457	103.75
327.686	99.75
327.914	88.75
328.143	87.75
328.372	81.75
328.6	94.75
328.829	78.75
329.058	76.75
329.287	87.75
329.515	80.75
329.744	91.75
329.972	92.75
330.201	86.75
330.43	89.75
330.658	83.75
330.887	86.75
331.115	86.75
331.344	80.75
331.572	89.75
331.801	74.75
332.03	81.75
332.258	84.75
332.486	77.75
332.715	91.75
332.943	83.75
333.172	84.75
333.4	81.75
333.629	70.75
333.857	93.75
334.085	85.75
334.314	83.75
334.542	88.75
334.771	82.75
334.999	75.75
335.227	82.75
335.455	81.75
335.684	77.75
335.912	79.75
336.14	81.75
336.369	89.75
336.597	89.75
336.825	79.75
337.053	89.75
337.281	86.75
337.51	89.75
337.738	90.75
337.966	73.75
338.194	81.75
338.422	81.75
338.65	83.75
338.878	88.75
339.106	78.75
339.334	84.75
339.562	89.75
339.79	78.75
340.018	81.75
340.246	82.75
340.474	79.75
340.702	95.75
340.93	74.75
341.158	78.75
341.386	83.75
341.614	78.75
341.842	98.75
342.07	82.75
342.298	79.75
342.526	82.75
342.754	73.75
342.981	85.75
343.209	85.75
343.437	86.75
343.665	78.75
343.893	92.75
344.12	89.75
344.348	59.75
344.576	76.75
344.804	74.75
345.031	92.75
345.259	85.75
345.487	79.75
345.714	79.75
345.942	93.75
346.17	83.75
346.397	82.75
346.625	85.75
346.853	81.75
347.08	81.75
347.308	79.75
347.535	88.75
347.763	97.75
347.99	72.75
348.218	77.75
348.445	93.75
348.673	77.75
348.9	93.75
349.128	81.75
349.355	85.75
349.583	77.75
349.81	92.75
350.037	83.75
350.265	81.75
350.492	83.75
350.72	96.75
350.947	83.75
351.174	79.75
351.402	92.75
351.629	85.75
351.856	83.75
352.083	84.75
352.311	90.75
352.538	87.75
352.765	88.75
352.992	89.75
353.22	78.75
353.447	90.75
353.674	86.75
353.901	84.75
354.128	89.75
354.355	83.75
354.583	74.75
354.81	81.75
355.037	85.75
355.264	87.75
355.491	73.75
355.718	72.75
355.945	88.75
356.172	100.75
356.399	85.75
356.626	86.75
356.853	82.75
357.08	88.75
357.307	90.75
357.534	79.75
357.761	83.75
357.988	82.75
358.215	96.75
358.441	74.75
358.668	79.75
358.895	77.75
359.122	81.75
359.349	72.75
359.576	83.75
359.802	96.75
360.029	79.75
360.256	84.75
360.483	83.75
360.709	70.75
360.936	96.75
361.163	81.75
361.39	80.75
361.616	90.75
361.843	73.75
362.07	89.75
362.296	99.75
362.523	72.75
362.749	77.75
362.976	78.75
363.203	81.75
363.429	75.75
363.656	87.75
363.882	87.75
364.109	80.75
364.335	93.75
364.562	90.75
364.788	72.75
365.015	90.75
365.241	83.75
365.468	99.75
365.694	80.75
365.92	82.75
366.147	79.75
366.373	71.75
366.599	76.75
366.826	86.75
367.052	81.75
367.278	93.75
367.505	97.75
367.731	86.75
367.957	93.75
368.184	88.75
368.41	89.75
368.636	105.75
368.862	90.75
369.089	105.75
369.315	90.75
369.541	89.75
369.767	95.75
369.993	92.75
370.219	91.75
370.445	82.75
370.672	101.75
370.898	79.75
371.124	78.75
371.35	95.75
371.576	80.75
371.802	91.75
372.028	97.75
372.254	81.75
372.48	77.75
372.706	99.75
372.932	95.75
373.158	102.75
373.384	111.75
373.61	92.75
373.835	99.75
374.061	86.75
374.287	97.75
374.513	92.75
374.739	101.75
374.965	100.75
375.191	105.75
375.416	86.75
375.642	102.75
375.868	108.75
376.094	94.75
376.319	87.75
376.545	70.75
376.771	86.75
376.997	87.75
377.222	88.75
377.448	103.75
377.674	102.75
377.899	98.75
378.125	99.75
378.35	95.75
378.576	88.75
378.802	92.75
379.027	94.75
379.253	93.75
379.478	84.75
379.704	96.75
379.929	83.75
380.155	101.75
380.38	95.75
380.606	98.75
380.831	93.75
381.057	103.75
381.282	89.75
381.507	100.75
381.733	93.75
381.958	94.75
382.184	89.75
382.409	90.75
382.634	103.75
382.86	93.75
383.085	105.75
383.31	101.75
383.535	103.75
383.761	104.75
383.986	100.75
384.211	99.75
384.436	91.75
384.662	92.75
384.887	91.75
385.112	81.75
385.337	97.75
385.562	93.75
385.787	92.75
386.013	107.75
386.238	106.75
386.463	106.75
386.688	105.75
386.913	110.75
387.138	89.75
387.363	93.75
387.588	95.75
387.813	106.75
388.038	101.75
388.263	114.75
388.488	87.75
388.713	96.75
388.938	89.75
389.163	104.75
389.387	109.75
389.612	104.75
389.837	100.75
390.062	100.75
390.287	102.75
390.512	101.75
390.736	97.75
390.961	113.75
391.186	97.75
391.411	104.75
391.636	98.75
391.86	107.75
392.085	98.75
392.31	98.75
392.534	127.75
392.759	113.75
392.984	109.75
393.208	113.75
393.433	107.75
393.658	98.75
393.882	123.75
394.107	111.75
394.331	112.75
394.556	107.75
394.78	111.75
395.005	110.75
395.229	114.75
395.454	97.75
395.678	100.75
395.903	118.75
396.127	111.75
396.352	105.75
396.576	99.75
396.801	101.75
397.025	103.75
397.249	109.75
397.474	116.75
397.698	121.75
397.922	125.75
398.147	126.75
398.371	115.75
398.595	115.75
398.82	116.75
399.044	117.75
399.268	121.75
399.492	107.75
399.717	133.75
399.941	117.75
400.165	112.75
400.389	110.75
400.613	105.75
400.837	125.75
401.062	113.75
401.286	106.75
401.51	119.75
401.734	127.75
401.958	113.75
402.182	123.75
402.406	119.75
402.63	118.75
402.854	127.75
403.078	118.75
403.302	123.75
403.526	123.75
403.75	118.75
403.974	123.75
404.198	119.75
404.422	129.75
404.645	123.75
404.869	124.75
405.093	108.75
405.317	120.75
405.541	120.75
405.765	118.75
405.988	114.75
406.212	115.75
406.436	132.75
406.66	128.75
406.883	129.75
407.107	123.75
407.331	117.75
407.555	123.75
407.778	131.75
408.002	117.75
408.226	121.75
408.449	117.75
408.673	115.75
408.896	129.75
409.12	138.75
409.344	117.75
409.567	122.75
409.791	125.75
410.014	130.75
410.238	118.75
410.461	112.75
410.685	129.75
410.908	122.75
411.132	120.75
411.355	116.75
411.578	124.75
411.802	124.75
412.025	130.75
412.249	115.75
412.472	131.75
412.695	114.75
412.919	131.75
413.142	133.75
413.365	121.75
413.589	120.75
413.812	119.75
414.035	133.75
414.258	128.75
414.482	123.75
414.705	132.75
414.928	147.75
415.151	126.75
415.374	120.75
415.597	119.75
415.821	121.75
416.044	133.75
416.267	130.75
416.49	116.75
416.713	117.75
416.936	119.75
417.159	123.75
417.382	123.75
417.605	139.75
417.828	138.75
418.051	120.75
418.274	142.75
418.497	137.75
418.72	132.75
418.943	135.75
419.166	127.75
419.389	128.75
419.611	128.75
419.834	143.75
420.057	132.75
420.28	124.75
420.503	130.75
420.726	135.75
420.948	138.75
421.171	143.75
421.394	136.75
421.617	144.75
421.839	137.75
422.062	142.75
422.285	122.75
422.507	131.75
422.73	127.75
422.953	125.75
423.175	134.75
423.398	141.75
423.621	129.75
423.843	144.75
424.066	151.75
424.288	139.75
424.511	141.75
424.733	147.75
424.956	141.75
425.178	139.75
425.401	141.75
425.623	141.75
425.846	141.75
426.068	136.75
426.291	136.75
426.513	130.75
426.735	139.75
426.958	117.75
427.18	134.75
427.402	127.75
427.625	137.75
427.847	132.75
428.069	143.75
428.292	119.75
428.514	133.75
428.736	124.75
428.958	125.75
429.181	131.75
429.403	115.75
429.625	127.75
429.847	138.75
430.069	132.75
430.292	123.75
430.514	131.75
430.736	125.75
430.958	134.75
431.18	134.75
431.402	135.75
431.624	120.75
431.846	95.75
432.068	108.75
432.29	109.75
432.512	114.75
432.734	123.75
432.956	147.75
433.178	145.75
433.4	145.75
433.622	150.75
433.844	129.75
434.066	108.75
434.287	99.75
434.509	90.75
434.731	100.75
434.953	108.75
435.175	130.75
435.397	131.75
435.618	115.75
435.84	124.75
436.062	131.75
436.284	145.75
436.505	146.75
436.727	136.75
436.949	145.75
437.17	139.75
437.392	133.75
437.614	125.75
437.835	120.75
438.057	127.75
438.278	116.75
438.5	123.75
438.721	139.75
438.943	152.75
439.165	153.75
439.386	158.75
439.608	156.75
439.829	147.75
440.05	152.75
440.272	145.75
440.493	129.75
440.715	153.75
440.936	152.75
441.158	138.75
441.379	171.75
441.6	173.75
441.822	145.75
442.043	152.75
442.264	145.75
442.486	130.75
442.707	146.75
442.928	147.75
443.149	136.75
443.371	123.75
443.592	133.75
443.813	151.75
444.034	149.75
444.255	161.75
444.476	148.75
444.698	156.75
444.919	162.75
445.14	280.75
445.361	207.75
445.582	151.75
445.803	151.75
446.024	161.75
446.245	161.75
446.466	150.75
446.687	168.75
446.908	153.75
447.129	169.75
447.35	163.75
447.571	156.75
447.792	143.75
448.013	147.75
448.234	148.75
448.455	145.75
448.675	150.75
448.896	134.75
449.117	148.75
449.338	138.75
449.559	147.75
449.779	137.75
450	134.75
450.221	132.75
450.442	138.75
450.662	144.75
450.883	149.75
451.104	129.75
451.324	141.75
451.545	131.75
451.766	117.75
451.986	135.75
452.207	148.75
452.428	130.75
452.648	136.75
452.869	125.75
453.089	128.75
453.31	125.75
453.53	102.75
453.751	95.75
453.971	94.75
454.192	101.75
454.412	119.75
454.633	112.75
454.853	123.75
455.073	126.75
455.294	113.75
455.514	137.75
455.734	127.75
455.955	112.75
456.175	120.75
456.395	114.75
456.616	111.75
456.836	131.75
457.056	112.75
457.276	104.75
457.497	110.75
457.717	115.75
457.937	106.75
458.157	104.75
458.377	107.75
458.598	90.75
458.818	104.75
459.038	94.75
459.258	90.75
459.478	91.75
459.698	102.75
459.918	103.75
460.138	111.75
460.358	121.75
460.578	116.75
460.798	123.75
461.018	133.75
461.238	127.75
461.458	129.75
461.678	116.75
461.898	111.75
462.118	109.75
462.338	110.75
462.558	105.75
462.777	106.75
462.997	118.75
463.217	116.75
463.437	111.75
463.657	109.75
463.876	113.75
464.096	116.75
464.316	122.75
464.536	118.75
464.755	119.75
464.975	117.75
465.195	96.75
465.414	109.75
465.634	139.75
465.854	131.75
466.073	131.75
466.293	117.75
466.512	135.75
466.732	134.75
466.951	142.75
467.171	156.75
467.391	131.75
467.61	138.75
467.829	164.75
468.049	147.75
468.268	142.75
468.488	141.75
468.707	149.75
468.927	132.75
469.146	147.75
469.365	135.75
469.585	151.75
469.804	145.75
470.023	143.75
470.243	145.75
470.462	156.75
470.681	150.75
470.901	137.75
471.12	150.75
471.339	144.75
471.558	145.75
471.777	147.75
471.997	139.75
472.216	133.75
472.435	130.75
472.654	111.75
472.873	112.75
473.092	110.75
473.311	123.75
473.53	140.75
473.749	139.75
473.968	127.75
474.187	139.75
474.406	135.75
474.625	131.75
474.844	125.75
475.063	133.75
475.282	127.75
475.501	118.75
475.72	123.75
475.939	115.75
476.158	121.75
476.377	128.75
476.596	126.75
476.814	133.75
477.033	103.75
477.252	112.75
477.471	133.75
477.69	140.75
477.908	154.75
478.127	146.75
478.346	150.75
478.564	143.75
478.783	140.75
479.002	159.75
479.22	157.75
479.439	123.75
479.658	131.75
479.876	130.75
480.095	118.75
480.313	119.75
480.532	127.75
480.751	119.75
480.969	80.75
481.188	81.75
481.406	94.75
481.624	85.75
481.843	95.75
482.061	111.75
482.28	111.75
482.498	119.75
482.717	108.75
482.935	123.75
483.153	147.75
483.372	151.75
483.59	155.75
483.808	135.75
484.027	127.75
484.245	139.75
484.463	167.75
484.681	168.75
484.9	150.75
485.118	150.75
485.336	129.75
485.554	127.75
485.772	103.75
485.99	119.75
486.209	127.75
486.427	100.75
486.645	111.75
486.863	138.75
487.081	149.75
487.299	142.75
487.517	149.75
487.735	170.75
487.953	201.75
488.171	196.75
488.389	187.75
488.607	165.75
488.825	151.75
489.043	133.75
489.261	145.75
489.479	143.75
489.696	155.75
489.914	145.75
490.132	135.75
490.35	164.75
490.568	170.75
490.786	169.75
491.003	196.75
491.221	173.75
491.439	195.75
491.657	185.75
491.874	215.75
492.092	236.75
492.31	260.75
492.527	256.75
492.745	209.75
492.963	201.75
493.18	187.75
493.398	185.75
493.615	184.75
493.833	184.75
494.05	180.75
494.268	196.75
494.485	176.75
494.703	187.75
494.92	177.75
495.138	176.75
495.355	184.75
495.573	187.75
495.79	197.75
496.008	188.75
496.225	165.75
496.442	163.75
496.66	166.75
496.877	168.75
497.094	156.75
497.312	178.75
497.529	179.75
497.746	153.75
497.963	151.75
498.181	157.75
498.398	140.75
498.615	122.75
498.832	137.75
499.049	133.75
499.267	122.75
499.484	127.75
499.701	136.75
499.918	135.75
500.135	140.75
500.352	155.75
500.569	163.75
500.786	147.75
501.003	157.75
501.22	151.75
501.437	135.75
501.654	152.75
501.871	149.75
502.088	142.75
502.305	138.75
502.522	123.75
502.739	124.75
502.956	138.75
503.172	126.75
503.389	117.75
503.606	128.75
503.823	122.75
504.04	134.75
504.256	119.75
504.473	134.75
504.69	139.75
504.907	128.75
505.123	133.75
505.34	131.75
505.557	129.75
505.773	134.75
505.99	127.75
506.207	120.75
506.423	114.75
506.64	123.75
506.856	121.75
507.073	124.75
507.289	131.75
507.506	126.75
507.722	114.75
507.939	127.75
508.155	113.75
508.372	115.75
508.588	105.75
508.805	99.75
509.021	113.75
509.238	103.75
509.454	108.75
509.67	100.75
509.887	104.75
510.103	88.75
510.319	102.75
510.536	106.75
510.752	93.75
510.968	82.75
511.184	88.75
511.401	79.75
511.617	85.75
511.833	90.75
512.049	82.75
512.265	90.75
512.481	85.75
512.698	97.75
512.914	95.75
513.13	95.75
513.346	100.75
513.562	97.75
513.778	90.75
513.994	98.75
514.21	100.75
514.426	91.75
514.642	81.75
514.858	95.75
515.074	95.75
515.29	87.75
515.506	82.75
515.721	90.75
515.937	93.75
516.153	91.75
516.369	85.75
516.585	100.75
516.801	77.75
517.016	106.75
517.232	104.75
517.448	91.75
517.664	104.75
517.879	89.75
518.095	100.75
518.311	96.75
518.527	104.75
518.742	105.75
518.958	96.75
519.173	96.75
519.389	120.75
519.605	131.75
519.82	113.75
520.036	118.75
520.251	108.75
520.467	113.75
520.682	93.75
520.898	109.75
521.113	89.75
521.329	86.75
521.544	87.75
521.76	107.75
521.975	103.75
522.19	111.75
522.406	103.75
522.621	103.75
522.836	101.75
523.052	100.75
523.267	125.75
523.482	117.75
523.698	120.75
523.913	110.75
524.128	129.75
524.343	129.75
524.559	142.75
524.774	122.75
524.989	115.75
525.204	120.75
525.419	115.75
525.634	111.75
525.849	122.75
526.064	118.75
526.28	123.75
526.495	107.75
526.71	81.75
526.925	96.75
527.14	93.75
527.355	86.75
527.57	101.75
527.785	95.75
527.999	113.75
528.214	105.75
528.429	120.75
528.644	121.75
528.859	142.75
529.074	143.75
529.289	175.75
529.503	171.75
529.718	157.75
529.933	122.75
530.148	112.75
530.363	99.75
530.577	85.75
530.792	82.75
531.007	81.75
531.221	90.75
531.436	100.75
531.651	95.75
531.865	91.75
532.08	95.75
532.295	101.75
532.509	79.75
532.724	75.75
532.938	92.75
533.153	102.75
533.367	123.75
533.582	124.75
533.796	133.75
534.011	117.75
534.225	102.75
534.44	84.75
534.654	97.75
534.868	99.75
535.083	96.75
535.297	89.75
535.511	105.75
535.726	101.75
535.94	114.75
536.154	99.75
536.369	73.75
536.583	90.75
536.797	92.75
537.011	90.75
537.225	79.75
537.44	84.75
537.654	95.75
537.868	95.75
538.082	93.75
538.296	95.75
538.51	96.75
538.724	96.75
538.938	126.75
539.153	111.75
539.367	123.75
539.581	126.75
539.795	113.75
540.009	85.75
540.222	106.75
540.436	113.75
540.65	127.75
540.864	136.75
541.078	141.75
541.292	155.75
541.506	174.75
541.72	179.75
541.934	212.75
542.147	211.75
542.361	190.75
542.575	159.75
542.789	149.75
543.002	129.75
543.216	131.75
543.43	107.75
543.644	139.75
543.857	133.75
544.071	144.75
544.285	168.75
544.498	175.75
544.712	157.75
544.925	167.75
545.139	155.75
545.352	169.75
545.566	156.75
545.779	165.75
545.993	160.75
546.206	169.75
546.42	161.75
546.633	181.75
546.847	163.75
547.06	154.75
547.274	171.75
547.487	185.75
547.7	187.75
547.914	166.75
548.127	169.75
548.34	155.75
548.554	164.75
548.767	175.75
548.98	157.75
549.193	153.75
549.407	176.75
549.62	160.75
549.833	158.75
550.046	161.75
550.259	161.75
550.473	148.75
550.686	147.75
550.899	133.75
551.112	158.75
551.325	151.75
551.538	145.75
551.751	149.75
551.964	121.75
552.177	147.75
552.39	146.75
552.603	151.75
552.816	162.75
553.029	161.75
553.242	153.75
553.455	155.75
553.667	168.75
553.88	153.75
554.093	148.75
554.306	167.75
554.519	155.75
554.732	148.75
554.944	150.75
555.157	152.75
555.37	148.75
555.583	148.75
555.795	134.75
556.008	133.75
556.221	141.75
556.433	141.75
556.646	131.75
556.859	146.75
557.071	151.75
557.284	148.75
557.496	145.75
557.709	157.75
557.921	140.75
558.134	137.75
558.346	138.75
558.559	145.75
558.771	115.75
558.984	145.75
559.196	141.75
559.409	132.75
559.621	135.75
559.833	145.75
560.046	130.75
560.258	126.75
560.47	128.75
560.683	139.75
560.895	114.75
561.107	149.75
561.32	134.75
561.532	125.75
561.744	127.75
561.956	135.75
562.168	128.75
562.381	141.75
562.593	143.75
562.805	125.75
563.017	135.75
563.229	136.75
563.441	132.75
563.653	129.75
563.865	133.75
564.077	136.75
564.289	125.75
564.501	122.75
564.713	130.75
564.925	131.75
565.137	129.75
565.349	117.75
565.561	128.75
565.773	129.75
565.985	117.75
566.197	123.75
566.408	123.75
566.62	120.75
566.832	129.75
567.044	123.75
567.255	110.75
567.467	131.75
567.679	103.75
567.891	115.75
568.102	100.75
568.314	86.75
568.526	99.75
568.737	93.75
568.949	87.75
569.161	93.75
569.372	85.75
569.584	84.75
569.795	99.75
570.007	96.75
570.218	96.75
570.43	98.75
570.641	108.75
570.853	107.75
571.064	104.75
571.276	99.75
571.487	121.75
571.698	103.75
571.91	98.75
572.121	107.75
572.333	118.75
572.544	105.75
572.755	90.75
572.966	87.75
573.178	91.75
573.389	92.75
573.6	68.75
573.811	88.75
574.023	85.75
574.234	98.75
574.445	85.75
574.656	84.75
574.867	92.75
575.078	89.75
575.289	88.75
575.501	96.75
575.712	96.75
575.923	88.75
576.134	100.75
576.345	77.75
576.556	100.75
576.767	101.75
576.978	103.75
577.188	109.75
577.399	96.75
577.61	100.75
577.821	101.75
578.032	87.75
578.243	87.75
578.454	93.75
578.665	103.75
578.875	89.75
579.086	89.75
579.297	83.75
579.508	88.75
579.718	76.75
579.929	84.75
580.14	88.75
580.35	87.75
580.561	78.75
580.772	84.75
580.982	96.75
581.193	69.75
581.403	85.75
581.614	94.75
581.825	95.75
582.035	93.75
582.246	92.75
582.456	86.75
582.667	85.75
582.877	98.75
583.087	92.75
583.298	89.75
583.508	83.75
583.719	82.75
583.929	83.75
584.139	88.75
584.35	81.75
584.56	108.75
584.77	84.75
584.981	90.75
585.191	94.75
585.401	90.75
585.611	87.75
585.821	104.75
586.032	86.75
586.242	82.75
586.452	92.75
586.662	80.75
586.872	95.75
587.082	81.75
587.292	83.75
587.502	86.75
587.713	80.75
587.923	84.75
588.133	90.75
588.343	73.75
588.553	91.75
588.762	100.75
588.972	83.75
589.182	91.75
589.392	76.75
589.602	76.75
589.812	88.75
590.022	98.75
590.232	89.75
590.441	97.75
590.651	90.75
590.861	84.75
591.071	80.75
591.281	81.75
591.49	83.75
591.7	81.75
591.91	77.75
592.119	81.75
592.329	89.75
592.539	96.75
592.748	87.75
592.958	84.75
593.167	78.75
593.377	92.75
593.587	75.75
593.796	78.75
594.006	84.75
594.215	103.75
594.424	92.75
594.634	101.75
594.843	99.75
595.053	88.75
595.262	95.75
595.472	90.75
595.681	76.75
595.89	91.75
596.1	77.75
596.309	76.75
596.518	91.75
596.727	101.75
596.937	98.75
597.146	97.75
597.355	105.75
597.564	112.75
597.774	105.75
597.983	81.75
598.192	99.75
598.401	101.75
598.61	96.75
598.819	88.75
599.028	101.75
599.237	96.75
599.446	86.75
599.655	82.75
599.864	95.75
600.073	110.75
600.282	101.75
600.491	86.75
600.7	97.75
600.909	117.75
601.118	101.75
601.327	101.75
601.536	92.75
601.745	83.75
601.953	101.75
602.162	114.75
602.371	101.75
602.58	91.75
602.789	97.75
602.997	105.75
603.206	109.75
603.415	122.75
603.623	102.75
603.832	104.75
604.041	94.75
604.249	94.75
604.458	109.75
604.666	107.75
604.875	104.75
605.084	97.75
605.292	102.75
605.501	104.75
605.709	128.75
605.918	103.75
606.126	111.75
606.334	103.75
606.543	120.75
606.751	115.75
606.96	122.75
607.168	106.75
607.376	115.75
607.585	107.75
607.793	114.75
608.001	108.75
608.21	120.75
608.418	120.75
608.626	133.75
608.834	116.75
609.043	114.75
609.251	120.75
609.459	113.75
609.667	125.75
609.875	116.75
610.083	114.75
610.291	110.75
610.499	113.75
610.707	119.75
610.916	113.75
611.124	114.75
611.332	104.75
611.54	118.75
611.748	123.75
611.955	122.75
612.163	122.75
612.371	123.75
612.579	99.75
612.787	102.75
612.995	99.75
613.203	118.75
613.411	121.75
613.618	90.75
613.826	113.75
614.034	111.75
614.242	105.75
614.449	118.75
614.657	120.75
614.865	104.75
615.072	119.75
615.28	116.75
615.488	108.75
615.695	123.75
615.903	133.75
616.111	106.75
616.318	120.75
616.526	119.75
616.733	93.75
616.941	123.75
617.148	125.75
617.356	111.75
617.563	106.75
617.771	118.75
617.978	94.75
618.185	100.75
618.393	97.75
618.6	111.75
618.807	118.75
619.015	118.75
619.222	111.75
619.429	101.75
619.637	106.75
619.844	111.75
620.051	100.75
620.258	109.75
620.466	88.75
620.673	103.75
620.88	105.75
621.087	116.75
621.294	125.75
621.501	102.75
621.708	96.75
621.915	103.75
622.122	105.75
622.329	119.75
622.536	108.75
622.743	104.75
622.95	105.75
623.157	116.75
623.364	118.75
623.571	121.75
623.778	122.75
623.985	112.75
624.192	118.75
624.399	97.75
624.606	103.75
624.812	107.75
625.019	117.75
625.226	104.75
625.433	119.75
625.639	103.75
625.846	100.75
626.053	79.75
626.259	94.75
626.466	119.75
626.673	102.75
626.879	97.75
627.086	98.75
627.293	102.75
627.499	104.75
627.706	103.75
627.912	101.75
628.119	100.75
628.325	111.75
628.532	117.75
628.738	115.75
628.945	106.75
629.151	123.75
629.357	119.75
629.564	95.75
629.77	117.75
629.976	106.75
630.183	104.75
630.389	102.75
630.595	98.75
630.802	104.75
631.008	90.75
631.214	113.75
631.42	100.75
631.627	89.75
631.833	96.75
632.039	99.75
632.245	99.75
632.451	104.75
632.657	106.75
632.863	101.75
633.069	108.75
633.275	108.75
633.481	102.75
633.688	112.75
633.893	91.75
634.099	99.75
634.305	103.75
634.511	111.75
634.717	100.75
634.923	101.75
635.129	100.75
635.335	92.75
635.541	91.75
635.747	113.75
635.952	102.75
636.158	95.75
636.364	112.75
636.57	111.75
636.775	103.75
636.981	118.75
637.187	119.75
637.392	96.75
637.598	107.75
637.804	94.75
638.009	104.75
638.215	110.75
638.421	99.75
638.626	101.75
638.832	91.75
639.037	88.75
639.243	107.75
639.448	108.75
639.654	98.75
639.859	101.75
640.065	106.75
640.27	112.75
640.475	101.75
640.681	93.75
640.886	96.75
641.091	108.75
641.297	94.75
641.502	105.75
641.707	103.75
641.913	96.75
642.118	99.75
642.323	102.75
642.528	103.75
642.733	97.75
642.939	107.75
643.144	104.75
643.349	93.75
643.554	105.75
643.759	103.75
643.964	92.75
644.169	103.75
644.374	98.75
644.579	99.75
644.784	91.75
644.989	106.75
645.194	95.75
645.399	101.75
645.604	102.75
645.809	91.75
646.014	97.75
646.219	95.75
646.423	100.75
646.628	111.75
646.833	111.75
647.038	108.75
647.243	97.75
647.447	106.75
647.652	107.75
647.857	84.75
648.062	99.75
648.266	107.75
648.471	98.75
648.676	92.75
648.88	97.75
649.085	85.75
649.289	105.75
649.494	95.75
649.698	89.75
649.903	98.75
650.107	82.75
650.312	88.75
650.516	101.75
650.721	96.75
650.925	94.75
651.13	92.75
651.334	99.75
651.539	97.75
651.743	96.75
651.947	104.75
652.152	93.75
652.356	93.75
652.56	99.75
652.764	85.75
652.969	107.75
653.173	87.75
653.377	83.75
653.581	102.75
653.785	91.75
653.99	94.75
654.194	89.75
654.398	77.75
654.602	84.75
654.806	96.75
655.01	77.75
655.214	93.75
655.418	91.75
655.622	91.75
655.826	92.75
656.03	87.75
656.234	79.75
656.438	95.75
656.642	87.75
656.846	89.75
657.049	80.75
657.253	87.75
657.457	102.75
657.661	90.75
657.865	91.75
658.068	82.75
658.272	95.75
658.476	80.75
658.68	102.75
658.883	73.75
659.087	83.75
659.291	94.75
659.494	91.75
659.698	88.75
659.901	88.75
660.105	88.75
660.309	80.75
660.512	91.75
660.716	91.75
660.919	84.75
661.123	88.75
661.326	72.75
661.53	79.75
661.733	90.75
661.936	88.75
662.14	87.75
662.343	81.75
662.546	66.75
662.75	73.75
662.953	76.75
663.156	88.75
663.36	96.75
663.563	76.75
663.766	82.75
663.969	77.75
664.173	62.75
664.376	77.75
664.579	88.75
664.782	72.75
664.985	78.75
665.188	77.75
665.391	79.75
665.594	84.75
665.797	96.75
666	80.75
666.203	76.75
666.406	89.75
666.609	89.75
666.812	87.75
667.015	78.75
667.218	78.75
667.421	96.75
667.624	78.75
667.827	80.75
668.03	71.75
668.232	79.75
668.435	83.75
668.638	84.75
668.841	77.75
669.043	77.75
669.246	83.75
669.449	82.75
669.651	82.75
669.854	84.75
670.057	80.75
670.259	76.75
670.462	86.75
670.665	80.75
670.867	91.75
671.07	100.75
671.272	89.75
671.475	73.75
671.677	74.75
671.88	75.75
672.082	73.75
672.284	91.75
672.487	81.75
672.689	74.75
672.892	77.75
