Data from Location6.07152019.Energy5.Lamp.07192019.3%Agarose_HRD10591_16-11-50-395.txt Node
Date: Fri Jul 19 16:11:50 EDT 2019
User: cochatt
Spectrometer: HR+D1059
Trigger mode: 1
Integration Time (sec): 1.000000E-1
Scans to average: 1
Electric dark correction enabled: true
Nonlinearity correction enabled: false
Boxcar width: 0
XAxis mode: Wavelengths
Number of Pixels in Spectrum: 2048
>>>>>Begin Spectral Data<<<<<
223.165	-12.25
223.4	-12.25
223.635	-12.25
223.869	-20.25
224.104	-6.25
224.338	-25.25
224.573	-3.25
224.808	-18.25
225.042	-13.25
225.277	1.75
225.511	3.75
225.746	-4.25
225.98	15.75
226.215	6.75
226.449	9.75
226.683	21.75
226.918	22.75
227.152	20.75
227.387	29.75
227.621	43.75
227.856	44.75
228.09	62.75
228.324	49.75
228.559	58.75
228.793	56.75
229.027	67.75
229.262	53.75
229.496	75.75
229.73	56.75
229.964	68.75
230.199	73.75
230.433	66.75
230.667	85.75
230.901	83.75
231.136	88.75
231.37	74.75
231.604	83.75
231.838	91.75
232.072	94.75
232.306	101.75
232.541	76.75
232.775	73.75
233.009	68.75
233.243	85.75
233.477	86.75
233.711	90.75
233.945	74.75
234.179	76.75
234.413	61.75
234.647	83.75
234.881	79.75
235.115	81.75
235.349	81.75
235.583	79.75
235.817	65.75
236.051	77.75
236.285	70.75
236.519	78.75
236.753	84.75
236.987	87.75
237.221	87.75
237.455	82.75
237.689	79.75
237.922	75.75
238.156	81.75
238.39	75.75
238.624	81.75
238.858	76.75
239.091	76.75
239.325	80.75
239.559	76.75
239.793	77.75
240.027	77.75
240.26	83.75
240.494	86.75
240.728	84.75
240.961	66.75
241.195	76.75
241.429	76.75
241.662	72.75
241.896	71.75
242.13	73.75
242.363	90.75
242.597	83.75
242.83	82.75
243.064	81.75
243.298	62.75
243.531	80.75
243.765	79.75
243.998	84.75
244.232	85.75
244.465	88.75
244.699	83.75
244.932	80.75
245.166	90.75
245.399	78.75
245.633	86.75
245.866	78.75
246.099	75.75
246.333	88.75
246.566	80.75
246.8	87.75
247.033	90.75
247.266	79.75
247.5	69.75
247.733	85.75
247.966	89.75
248.2	90.75
248.433	86.75
248.666	72.75
248.899	76.75
249.133	87.75
249.366	78.75
249.599	73.75
249.832	80.75
250.066	73.75
250.299	81.75
250.532	74.75
250.765	69.75
250.998	78.75
251.231	71.75
251.465	75.75
251.698	79.75
251.931	69.75
252.164	72.75
252.397	94.75
252.63	94.75
252.863	87.75
253.096	77.75
253.329	85.75
253.562	74.75
253.795	73.75
254.028	80.75
254.261	91.75
254.494	83.75
254.727	81.75
254.96	80.75
255.193	76.75
255.426	74.75
255.659	86.75
255.892	67.75
256.124	96.75
256.357	84.75
256.59	77.75
256.823	87.75
257.056	73.75
257.289	82.75
257.521	69.75
257.754	75.75
257.987	85.75
258.22	86.75
258.452	93.75
258.685	93.75
258.918	80.75
259.151	76.75
259.383	76.75
259.616	86.75
259.849	88.75
260.081	92.75
260.314	77.75
260.547	94.75
260.779	83.75
261.012	90.75
261.244	87.75
261.477	87.75
261.71	75.75
261.942	87.75
262.175	90.75
262.407	83.75
262.64	94.75
262.872	89.75
263.105	86.75
263.337	100.75
263.57	78.75
263.802	90.75
264.035	85.75
264.267	78.75
264.499	87.75
264.732	86.75
264.964	85.75
265.197	74.75
265.429	82.75
265.661	70.75
265.894	71.75
266.126	103.75
266.358	85.75
266.591	75.75
266.823	83.75
267.055	70.75
267.287	83.75
267.52	87.75
267.752	88.75
267.984	98.75
268.216	93.75
268.448	74.75
268.681	73.75
268.913	94.75
269.145	78.75
269.377	93.75
269.609	90.75
269.841	83.75
270.073	80.75
270.306	85.75
270.538	76.75
270.77	88.75
271.002	84.75
271.234	82.75
271.466	102.75
271.698	79.75
271.93	91.75
272.162	70.75
272.394	90.75
272.626	81.75
272.858	84.75
273.09	75.75
273.322	89.75
273.553	85.75
273.785	88.75
274.017	73.75
274.249	89.75
274.481	84.75
274.713	102.75
274.945	99.75
275.176	80.75
275.408	83.75
275.64	100.75
275.872	76.75
276.104	82.75
276.335	85.75
276.567	75.75
276.799	74.75
277.031	82.75
277.262	91.75
277.494	98.75
277.726	77.75
277.957	82.75
278.189	82.75
278.421	84.75
278.652	93.75
278.884	78.75
279.115	80.75
279.347	77.75
279.579	96.75
279.81	64.75
280.042	77.75
280.273	99.75
280.505	87.75
280.736	91.75
280.968	95.75
281.199	92.75
281.431	81.75
281.662	78.75
281.894	91.75
282.125	90.75
282.356	86.75
282.588	87.75
282.819	89.75
283.051	84.75
283.282	87.75
283.513	92.75
283.745	76.75
283.976	82.75
284.207	85.75
284.439	81.75
284.67	73.75
284.901	82.75
285.132	87.75
285.364	89.75
285.595	79.75
285.826	74.75
286.057	84.75
286.288	85.75
286.52	78.75
286.751	79.75
286.982	89.75
287.213	85.75
287.444	76.75
287.675	87.75
287.906	85.75
288.138	77.75
288.369	96.75
288.6	101.75
288.831	81.75
289.062	91.75
289.293	88.75
289.524	78.75
289.755	81.75
289.986	96.75
290.217	90.75
290.448	99.75
290.679	102.75
290.91	89.75
291.141	93.75
291.371	84.75
291.602	75.75
291.833	92.75
292.064	87.75
292.295	100.75
292.526	85.75
292.757	74.75
292.987	79.75
293.218	88.75
293.449	79.75
293.68	93.75
293.91	98.75
294.141	99.75
294.372	76.75
294.603	85.75
294.833	84.75
295.064	81.75
295.295	88.75
295.525	92.75
295.756	91.75
295.987	86.75
296.217	86.75
296.448	98.75
296.679	87.75
296.909	98.75
297.14	87.75
297.37	78.75
297.601	86.75
297.831	67.75
298.062	81.75
298.292	87.75
298.523	91.75
298.753	82.75
298.984	89.75
299.214	82.75
299.445	91.75
299.675	93.75
299.905	91.75
300.136	84.75
300.366	102.75
300.597	80.75
300.827	69.75
301.057	85.75
301.288	98.75
301.518	92.75
301.748	86.75
301.979	85.75
302.209	76.75
302.439	93.75
302.669	88.75
302.9	87.75
303.13	85.75
303.36	75.75
303.59	87.75
303.82	89.75
304.051	85.75
304.281	91.75
304.511	95.75
304.741	89.75
304.971	74.75
305.201	84.75
305.431	78.75
305.661	95.75
305.891	82.75
306.121	79.75
306.352	84.75
306.582	89.75
306.812	99.75
307.042	95.75
307.272	87.75
307.502	90.75
307.731	90.75
307.961	87.75
308.191	70.75
308.421	81.75
308.651	86.75
308.881	99.75
309.111	96.75
309.341	84.75
309.571	86.75
309.8	78.75
310.03	80.75
310.26	84.75
310.49	78.75
310.72	84.75
310.949	91.75
311.179	82.75
311.409	80.75
311.639	70.75
311.868	101.75
312.098	99.75
312.328	104.75
312.557	94.75
312.787	91.75
313.017	80.75
313.246	88.75
313.476	77.75
313.706	79.75
313.935	91.75
314.165	93.75
314.394	72.75
314.624	95.75
314.853	100.75
315.083	93.75
315.312	87.75
315.542	91.75
315.771	101.75
316.001	95.75
316.23	85.75
316.46	90.75
316.689	74.75
316.919	90.75
317.148	101.75
317.377	90.75
317.607	91.75
317.836	100.75
318.065	81.75
318.295	81.75
318.524	91.75
318.753	85.75
318.983	88.75
319.212	84.75
319.441	75.75
319.67	84.75
319.9	91.75
320.129	70.75
320.358	75.75
320.587	77.75
320.816	78.75
321.046	79.75
321.275	90.75
321.504	79.75
321.733	86.75
321.962	96.75
322.191	102.75
322.42	83.75
322.649	92.75
322.878	83.75
323.108	87.75
323.337	95.75
323.566	77.75
323.795	92.75
324.024	98.75
324.253	75.75
324.482	94.75
324.71	98.75
324.939	90.75
325.168	78.75
325.397	99.75
325.626	93.75
325.855	85.75
326.084	84.75
326.313	77.75
326.542	92.75
326.77	78.75
326.999	86.75
327.228	85.75
327.457	91.75
327.686	85.75
327.914	99.75
328.143	81.75
328.372	86.75
328.6	83.75
328.829	98.75
329.058	86.75
329.287	95.75
329.515	89.75
329.744	77.75
329.972	102.75
330.201	89.75
330.43	86.75
330.658	94.75
330.887	93.75
331.115	89.75
331.344	77.75
331.572	101.75
331.801	84.75
332.03	90.75
332.258	79.75
332.486	84.75
332.715	89.75
332.943	86.75
333.172	97.75
333.4	94.75
333.629	89.75
333.857	95.75
334.085	89.75
334.314	73.75
334.542	86.75
334.771	88.75
334.999	76.75
335.227	72.75
335.455	83.75
335.684	83.75
335.912	87.75
336.14	75.75
336.369	87.75
336.597	91.75
336.825	84.75
337.053	84.75
337.281	81.75
337.51	88.75
337.738	87.75
337.966	81.75
338.194	83.75
338.422	79.75
338.65	77.75
338.878	74.75
339.106	96.75
339.334	95.75
339.562	91.75
339.79	86.75
340.018	78.75
340.246	84.75
340.474	92.75
340.702	79.75
340.93	99.75
341.158	82.75
341.386	88.75
341.614	98.75
341.842	87.75
342.07	98.75
342.298	94.75
342.526	97.75
342.754	86.75
342.981	84.75
343.209	82.75
343.437	106.75
343.665	96.75
343.893	78.75
344.12	102.75
344.348	85.75
344.576	101.75
344.804	89.75
345.031	87.75
345.259	89.75
345.487	89.75
345.714	102.75
345.942	92.75
346.17	88.75
346.397	92.75
346.625	74.75
346.853	73.75
347.08	93.75
347.308	71.75
347.535	92.75
347.763	83.75
347.99	87.75
348.218	100.75
348.445	88.75
348.673	67.75
348.9	83.75
349.128	84.75
349.355	77.75
349.583	87.75
349.81	87.75
350.037	96.75
350.265	89.75
350.492	72.75
350.72	97.75
350.947	84.75
351.174	83.75
351.402	93.75
351.629	78.75
351.856	82.75
352.083	83.75
352.311	92.75
352.538	79.75
352.765	65.75
352.992	72.75
353.22	73.75
353.447	78.75
353.674	91.75
353.901	85.75
354.128	85.75
354.355	87.75
354.583	87.75
354.81	74.75
355.037	84.75
355.264	78.75
355.491	74.75
355.718	79.75
355.945	93.75
356.172	87.75
356.399	88.75
356.626	87.75
356.853	80.75
357.08	80.75
357.307	88.75
357.534	77.75
357.761	76.75
357.988	99.75
358.215	88.75
358.441	78.75
358.668	89.75
358.895	86.75
359.122	73.75
359.349	85.75
359.576	93.75
359.802	76.75
360.029	81.75
360.256	73.75
360.483	83.75
360.709	82.75
360.936	78.75
361.163	91.75
361.39	77.75
361.616	89.75
361.843	84.75
362.07	78.75
362.296	85.75
362.523	82.75
362.749	95.75
362.976	94.75
363.203	96.75
363.429	85.75
363.656	89.75
363.882	88.75
364.109	98.75
364.335	86.75
364.562	76.75
364.788	84.75
365.015	84.75
365.241	101.75
365.468	85.75
365.694	88.75
365.92	90.75
366.147	81.75
366.373	82.75
366.599	81.75
366.826	94.75
367.052	83.75
367.278	86.75
367.505	99.75
367.731	94.75
367.957	80.75
368.184	93.75
368.41	80.75
368.636	85.75
368.862	84.75
369.089	77.75
369.315	94.75
369.541	88.75
369.767	100.75
369.993	88.75
370.219	80.75
370.445	104.75
370.672	102.75
370.898	97.75
371.124	88.75
371.35	111.75
371.576	109.75
371.802	96.75
372.028	100.75
372.254	89.75
372.48	93.75
372.706	93.75
372.932	83.75
373.158	77.75
373.384	97.75
373.61	101.75
373.835	98.75
374.061	77.75
374.287	95.75
374.513	98.75
374.739	86.75
374.965	79.75
375.191	105.75
375.416	90.75
375.642	71.75
375.868	91.75
376.094	100.75
376.319	103.75
376.545	96.75
376.771	91.75
376.997	96.75
377.222	81.75
377.448	79.75
377.674	106.75
377.899	106.75
378.125	110.75
378.35	106.75
378.576	95.75
378.802	97.75
379.027	95.75
379.253	89.75
379.478	91.75
379.704	90.75
379.929	101.75
380.155	100.75
380.38	101.75
380.606	89.75
380.831	97.75
381.057	97.75
381.282	81.75
381.507	95.75
381.733	89.75
381.958	91.75
382.184	97.75
382.409	103.75
382.634	101.75
382.86	102.75
383.085	96.75
383.31	89.75
383.535	90.75
383.761	92.75
383.986	101.75
384.211	88.75
384.436	96.75
384.662	93.75
384.887	99.75
385.112	123.75
385.337	121.75
385.562	95.75
385.787	98.75
386.013	114.75
386.238	108.75
386.463	85.75
386.688	100.75
386.913	100.75
387.138	104.75
387.363	107.75
387.588	99.75
387.813	107.75
388.038	114.75
388.263	91.75
388.488	93.75
388.713	111.75
388.938	104.75
389.163	108.75
389.387	88.75
389.612	109.75
389.837	109.75
390.062	115.75
390.287	98.75
390.512	108.75
390.736	102.75
390.961	103.75
391.186	99.75
391.411	95.75
391.636	108.75
391.86	118.75
392.085	97.75
392.31	104.75
392.534	105.75
392.759	116.75
392.984	119.75
393.208	113.75
393.433	110.75
393.658	123.75
393.882	118.75
394.107	107.75
394.331	102.75
394.556	120.75
394.78	103.75
395.005	105.75
395.229	109.75
395.454	106.75
395.678	114.75
395.903	111.75
396.127	121.75
396.352	104.75
396.576	106.75
396.801	100.75
397.025	98.75
397.249	77.75
397.474	103.75
397.698	112.75
397.922	119.75
398.147	129.75
398.371	121.75
398.595	105.75
398.82	105.75
399.044	100.75
399.268	111.75
399.492	101.75
399.717	127.75
399.941	129.75
400.165	106.75
400.389	105.75
400.613	115.75
400.837	118.75
401.062	118.75
401.286	121.75
401.51	125.75
401.734	122.75
401.958	113.75
402.182	117.75
402.406	115.75
402.63	121.75
402.854	110.75
403.078	120.75
403.302	120.75
403.526	111.75
403.75	99.75
403.974	126.75
404.198	137.75
404.422	131.75
404.645	125.75
404.869	117.75
405.093	120.75
405.317	117.75
405.541	125.75
405.765	123.75
405.988	121.75
406.212	123.75
406.436	122.75
406.66	128.75
406.883	117.75
407.107	122.75
407.331	122.75
407.555	133.75
407.778	125.75
408.002	123.75
408.226	127.75
408.449	116.75
408.673	123.75
408.896	114.75
409.12	129.75
409.344	130.75
409.567	115.75
409.791	138.75
410.014	118.75
410.238	127.75
410.461	120.75
410.685	118.75
410.908	124.75
411.132	117.75
411.355	120.75
411.578	122.75
411.802	126.75
412.025	128.75
412.249	131.75
412.472	130.75
412.695	114.75
412.919	140.75
413.142	139.75
413.365	132.75
413.589	134.75
413.812	119.75
414.035	120.75
414.258	123.75
414.482	128.75
414.705	131.75
414.928	125.75
415.151	126.75
415.374	111.75
415.597	129.75
415.821	126.75
416.044	146.75
416.267	126.75
416.49	138.75
416.713	123.75
416.936	131.75
417.159	125.75
417.382	143.75
417.605	123.75
417.828	138.75
418.051	142.75
418.274	141.75
418.497	153.75
418.72	142.75
418.943	133.75
419.166	126.75
419.389	147.75
419.611	137.75
419.834	122.75
420.057	147.75
420.28	127.75
420.503	138.75
420.726	137.75
420.948	142.75
421.171	130.75
421.394	148.75
421.617	144.75
421.839	143.75
422.062	138.75
422.285	136.75
422.507	124.75
422.73	134.75
422.953	125.75
423.175	139.75
423.398	122.75
423.621	144.75
423.843	156.75
424.066	148.75
424.288	155.75
424.511	143.75
424.733	169.75
424.956	144.75
425.178	151.75
425.401	150.75
425.623	132.75
425.846	129.75
426.068	129.75
426.291	130.75
426.513	127.75
426.735	145.75
426.958	142.75
427.18	141.75
427.402	142.75
427.625	134.75
427.847	139.75
428.069	129.75
428.292	134.75
428.514	133.75
428.736	128.75
428.958	138.75
429.181	126.75
429.403	129.75
429.625	139.75
429.847	141.75
430.069	139.75
430.292	128.75
430.514	150.75
430.736	126.75
430.958	124.75
431.18	133.75
431.402	133.75
431.624	121.75
431.846	106.75
432.068	105.75
432.29	90.75
432.512	119.75
432.734	127.75
432.956	140.75
433.178	133.75
433.4	151.75
433.622	146.75
433.844	132.75
434.066	133.75
434.287	102.75
434.509	92.75
434.731	106.75
434.953	117.75
435.175	129.75
435.397	136.75
435.618	126.75
435.84	107.75
436.062	108.75
436.284	129.75
436.505	131.75
436.727	134.75
436.949	127.75
437.17	130.75
437.392	140.75
437.614	148.75
437.835	124.75
438.057	125.75
438.278	116.75
438.5	134.75
438.721	154.75
438.943	135.75
439.165	142.75
439.386	143.75
439.608	148.75
439.829	157.75
440.05	154.75
440.272	161.75
440.493	151.75
440.715	127.75
440.936	158.75
441.158	147.75
441.379	164.75
441.6	149.75
441.822	150.75
442.043	145.75
442.264	149.75
442.486	137.75
442.707	147.75
442.928	149.75
443.149	143.75
443.371	138.75
443.592	161.75
443.813	142.75
444.034	157.75
444.255	152.75
444.476	153.75
444.698	155.75
444.919	152.75
445.14	275.75
445.361	198.75
445.582	157.75
445.803	158.75
446.024	157.75
446.245	175.75
446.466	160.75
446.687	167.75
446.908	158.75
447.129	167.75
447.35	158.75
447.571	157.75
447.792	161.75
448.013	147.75
448.234	156.75
448.455	150.75
448.675	146.75
448.896	145.75
449.117	135.75
449.338	147.75
449.559	154.75
449.779	131.75
450	151.75
450.221	142.75
450.442	159.75
450.662	147.75
450.883	127.75
451.104	149.75
451.324	133.75
451.545	139.75
451.766	146.75
451.986	143.75
452.207	134.75
452.428	144.75
452.648	124.75
452.869	126.75
453.089	123.75
453.31	121.75
453.53	104.75
453.751	105.75
453.971	105.75
454.192	107.75
454.412	117.75
454.633	117.75
454.853	124.75
455.073	121.75
455.294	132.75
455.514	129.75
455.734	129.75
455.955	101.75
456.175	120.75
456.395	100.75
456.616	117.75
456.836	116.75
457.056	106.75
457.276	110.75
457.497	110.75
457.717	98.75
457.937	117.75
458.157	126.75
458.377	112.75
458.598	103.75
458.818	115.75
459.038	83.75
459.258	81.75
459.478	91.75
459.698	95.75
459.918	98.75
460.138	126.75
460.358	118.75
460.578	117.75
460.798	126.75
461.018	117.75
461.238	122.75
461.458	127.75
461.678	138.75
461.898	128.75
462.118	123.75
462.338	121.75
462.558	135.75
462.777	120.75
462.997	117.75
463.217	106.75
463.437	124.75
463.657	116.75
463.876	129.75
464.096	118.75
464.316	118.75
464.536	108.75
464.755	117.75
464.975	118.75
465.195	118.75
465.414	134.75
465.634	125.75
465.854	109.75
466.073	130.75
466.293	116.75
466.512	143.75
466.732	153.75
466.951	143.75
467.171	139.75
467.391	131.75
467.61	133.75
467.829	148.75
468.049	149.75
468.268	141.75
468.488	136.75
468.707	139.75
468.927	155.75
469.146	152.75
469.365	140.75
469.585	153.75
469.804	151.75
470.023	151.75
470.243	151.75
470.462	158.75
470.681	170.75
470.901	165.75
471.12	142.75
471.339	151.75
471.558	151.75
471.777	144.75
471.997	142.75
472.216	139.75
472.435	114.75
472.654	131.75
472.873	126.75
473.092	131.75
473.311	136.75
473.53	129.75
473.749	142.75
473.968	125.75
474.187	124.75
474.406	117.75
474.625	125.75
474.844	160.75
475.063	135.75
475.282	131.75
475.501	125.75
475.72	115.75
475.939	137.75
476.158	121.75
476.377	131.75
476.596	127.75
476.814	121.75
477.033	125.75
477.252	121.75
477.471	130.75
477.69	153.75
477.908	139.75
478.127	166.75
478.346	149.75
478.564	131.75
478.783	153.75
479.002	153.75
479.22	142.75
479.439	149.75
479.658	135.75
479.876	113.75
480.095	119.75
480.313	124.75
480.532	120.75
480.751	123.75
480.969	116.75
481.188	97.75
481.406	94.75
481.624	89.75
481.843	105.75
482.061	101.75
482.28	110.75
482.498	117.75
482.717	109.75
482.935	123.75
483.153	135.75
483.372	170.75
483.59	142.75
483.808	139.75
484.027	152.75
484.245	147.75
484.463	168.75
484.681	190.75
484.9	164.75
485.118	150.75
485.336	151.75
485.554	122.75
485.772	105.75
485.99	108.75
486.209	98.75
486.427	114.75
486.645	135.75
486.863	150.75
487.081	168.75
487.299	152.75
487.517	154.75
487.735	180.75
487.953	211.75
488.171	199.75
488.389	180.75
488.607	163.75
488.825	167.75
489.043	138.75
489.261	137.75
489.479	154.75
489.696	138.75
489.914	158.75
490.132	170.75
490.35	161.75
490.568	174.75
490.786	173.75
491.003	206.75
491.221	185.75
491.439	208.75
491.657	186.75
491.874	230.75
492.092	235.75
492.31	264.75
492.527	253.75
492.745	235.75
492.963	213.75
493.18	188.75
493.398	211.75
493.615	189.75
493.833	183.75
494.05	187.75
494.268	197.75
494.485	175.75
494.703	186.75
494.92	167.75
495.138	167.75
495.355	187.75
495.573	177.75
495.79	163.75
496.008	198.75
496.225	165.75
496.442	183.75
496.66	177.75
496.877	165.75
497.094	173.75
497.312	172.75
497.529	173.75
497.746	166.75
497.963	140.75
498.181	143.75
498.398	124.75
498.615	124.75
498.832	117.75
499.049	122.75
499.267	131.75
499.484	131.75
499.701	130.75
499.918	137.75
500.135	137.75
500.352	150.75
500.569	151.75
500.786	153.75
501.003	142.75
501.22	135.75
501.437	155.75
501.654	149.75
501.871	153.75
502.088	151.75
502.305	135.75
502.522	134.75
502.739	162.75
502.956	143.75
503.172	134.75
503.389	129.75
503.606	125.75
503.823	127.75
504.04	122.75
504.256	104.75
504.473	132.75
504.69	120.75
504.907	131.75
505.123	122.75
505.34	130.75
505.557	138.75
505.773	137.75
505.99	131.75
506.207	121.75
506.423	125.75
506.64	152.75
506.856	116.75
507.073	118.75
507.289	122.75
507.506	122.75
507.722	128.75
507.939	111.75
508.155	121.75
508.372	118.75
508.588	104.75
508.805	127.75
509.021	108.75
509.238	110.75
509.454	98.75
509.67	103.75
509.887	114.75
510.103	107.75
510.319	86.75
510.536	101.75
510.752	92.75
510.968	78.75
511.184	90.75
511.401	74.75
511.617	96.75
511.833	91.75
512.049	108.75
512.265	91.75
512.481	110.75
512.698	102.75
512.914	97.75
513.13	95.75
513.346	106.75
513.562	107.75
513.778	101.75
513.994	99.75
514.21	89.75
514.426	102.75
514.642	96.75
514.858	103.75
515.074	98.75
515.29	92.75
515.506	103.75
515.721	96.75
515.937	95.75
516.153	90.75
516.369	91.75
516.585	91.75
516.801	76.75
517.016	86.75
517.232	104.75
517.448	94.75
517.664	90.75
517.879	93.75
518.095	99.75
518.311	100.75
518.527	99.75
518.742	107.75
518.958	120.75
519.173	114.75
519.389	113.75
519.605	111.75
519.82	118.75
520.036	113.75
520.251	115.75
520.467	107.75
520.682	111.75
520.898	103.75
521.113	76.75
521.329	85.75
521.544	77.75
521.76	110.75
521.975	97.75
522.19	104.75
522.406	87.75
522.621	117.75
522.836	114.75
523.052	110.75
523.267	107.75
523.482	109.75
523.698	127.75
523.913	122.75
524.128	122.75
524.343	122.75
524.559	125.75
524.774	133.75
524.989	123.75
525.204	115.75
525.419	124.75
525.634	111.75
525.849	115.75
526.064	109.75
526.28	107.75
526.495	94.75
526.71	95.75
526.925	87.75
527.14	87.75
527.355	84.75
527.57	90.75
527.785	113.75
527.999	90.75
528.214	115.75
528.429	117.75
528.644	116.75
528.859	139.75
529.074	168.75
529.289	161.75
529.503	155.75
529.718	149.75
529.933	119.75
530.148	104.75
530.363	95.75
530.577	78.75
530.792	80.75
531.007	77.75
531.221	86.75
531.436	85.75
531.651	80.75
531.865	86.75
532.08	101.75
532.295	91.75
532.509	103.75
532.724	98.75
532.938	109.75
533.153	112.75
533.367	118.75
533.582	118.75
533.796	122.75
534.011	124.75
534.225	103.75
534.44	95.75
534.654	113.75
534.868	102.75
535.083	98.75
535.297	107.75
535.511	114.75
535.726	105.75
535.94	99.75
536.154	104.75
536.369	99.75
536.583	90.75
536.797	87.75
537.011	89.75
537.225	82.75
537.44	91.75
537.654	88.75
537.868	95.75
538.082	95.75
538.296	100.75
538.51	101.75
538.724	123.75
538.938	120.75
539.153	127.75
539.367	134.75
539.581	126.75
539.795	97.75
540.009	97.75
540.222	99.75
540.436	107.75
540.65	121.75
540.864	138.75
541.078	133.75
541.292	171.75
541.506	163.75
541.72	185.75
541.934	205.75
542.147	198.75
542.361	187.75
542.575	173.75
542.789	157.75
543.002	141.75
543.216	128.75
543.43	121.75
543.644	133.75
543.857	170.75
544.071	178.75
544.285	169.75
544.498	161.75
544.712	169.75
544.925	159.75
545.139	164.75
545.352	162.75
545.566	167.75
545.779	161.75
545.993	161.75
546.206	178.75
546.42	172.75
546.633	179.75
546.847	163.75
547.06	174.75
547.274	183.75
547.487	173.75
547.7	198.75
547.914	175.75
548.127	165.75
548.34	166.75
548.554	165.75
548.767	162.75
548.98	157.75
549.193	178.75
549.407	170.75
549.62	151.75
549.833	154.75
550.046	158.75
550.259	162.75
550.473	156.75
550.686	150.75
550.899	157.75
551.112	160.75
551.325	157.75
551.538	158.75
551.751	138.75
551.964	117.75
552.177	131.75
552.39	147.75
552.603	138.75
552.816	154.75
553.029	167.75
553.242	167.75
553.455	174.75
553.667	168.75
553.88	171.75
554.093	149.75
554.306	167.75
554.519	157.75
554.732	158.75
554.944	145.75
555.157	159.75
555.37	153.75
555.583	150.75
555.795	142.75
556.008	142.75
556.221	133.75
556.433	147.75
556.646	127.75
556.859	147.75
557.071	138.75
557.284	135.75
557.496	148.75
557.709	136.75
557.921	142.75
558.134	148.75
558.346	144.75
558.559	130.75
558.771	134.75
558.984	130.75
559.196	135.75
559.409	156.75
559.621	145.75
559.833	134.75
560.046	148.75
560.258	143.75
560.47	135.75
560.683	138.75
560.895	130.75
561.107	135.75
561.32	138.75
561.532	133.75
561.744	158.75
561.956	125.75
562.168	145.75
562.381	152.75
562.593	131.75
562.805	139.75
563.017	130.75
563.229	139.75
563.441	136.75
563.653	125.75
563.865	129.75
564.077	124.75
564.289	115.75
564.501	129.75
564.713	137.75
564.925	129.75
565.137	134.75
565.349	117.75
565.561	127.75
565.773	122.75
565.985	131.75
566.197	121.75
566.408	123.75
566.62	115.75
566.832	144.75
567.044	138.75
567.255	133.75
567.467	124.75
567.679	99.75
567.891	108.75
568.102	106.75
568.314	108.75
568.526	83.75
568.737	94.75
568.949	78.75
569.161	82.75
569.372	81.75
569.584	87.75
569.795	78.75
570.007	84.75
570.218	79.75
570.43	101.75
570.641	85.75
570.853	98.75
571.064	94.75
571.276	96.75
571.487	110.75
571.698	101.75
571.91	106.75
572.121	102.75
572.333	95.75
572.544	94.75
572.755	95.75
572.966	95.75
573.178	82.75
573.389	102.75
573.6	83.75
573.811	77.75
574.023	91.75
574.234	98.75
574.445	98.75
574.656	101.75
574.867	97.75
575.078	89.75
575.289	95.75
575.501	104.75
575.712	88.75
575.923	104.75
576.134	106.75
576.345	98.75
576.556	98.75
576.767	117.75
576.978	108.75
577.188	94.75
577.399	112.75
577.61	89.75
577.821	105.75
578.032	97.75
578.243	90.75
578.454	102.75
578.665	101.75
578.875	83.75
579.086	97.75
579.297	97.75
579.508	93.75
579.718	93.75
579.929	82.75
580.14	85.75
580.35	79.75
580.561	77.75
580.772	83.75
580.982	93.75
581.193	98.75
581.403	87.75
581.614	96.75
581.825	86.75
582.035	88.75
582.246	105.75
582.456	87.75
582.667	101.75
582.877	86.75
583.087	93.75
583.298	90.75
583.508	86.75
583.719	103.75
583.929	82.75
584.139	87.75
584.35	90.75
584.56	85.75
584.77	77.75
584.981	90.75
585.191	86.75
585.401	77.75
585.611	93.75
585.821	91.75
586.032	79.75
586.242	80.75
586.452	90.75
586.662	93.75
586.872	108.75
587.082	77.75
587.292	76.75
587.502	86.75
587.713	89.75
587.923	93.75
588.133	80.75
588.343	79.75
588.553	86.75
588.762	98.75
588.972	80.75
589.182	88.75
589.392	91.75
589.602	88.75
589.812	89.75
590.022	91.75
590.232	88.75
590.441	77.75
590.651	95.75
590.861	87.75
591.071	87.75
591.281	92.75
591.49	85.75
591.7	75.75
591.91	82.75
592.119	99.75
592.329	74.75
592.539	85.75
592.748	88.75
592.958	82.75
593.167	90.75
593.377	85.75
593.587	95.75
593.796	94.75
594.006	91.75
594.215	74.75
594.424	82.75
594.634	89.75
594.843	89.75
595.053	90.75
595.262	83.75
595.472	88.75
595.681	84.75
595.89	96.75
596.1	91.75
596.309	95.75
596.518	102.75
596.727	91.75
596.937	104.75
597.146	95.75
597.355	97.75
597.564	74.75
597.774	88.75
597.983	87.75
598.192	74.75
598.401	86.75
598.61	91.75
598.819	89.75
599.028	90.75
599.237	86.75
599.446	93.75
599.655	115.75
599.864	101.75
600.073	87.75
600.282	106.75
600.491	94.75
600.7	99.75
600.909	79.75
601.118	114.75
601.327	95.75
601.536	108.75
601.745	115.75
601.953	105.75
602.162	95.75
602.371	111.75
602.58	121.75
602.789	103.75
602.997	115.75
603.206	105.75
603.415	108.75
603.623	117.75
603.832	115.75
604.041	107.75
604.249	101.75
604.458	102.75
604.666	99.75
604.875	99.75
605.084	101.75
605.292	107.75
605.501	123.75
605.709	125.75
605.918	128.75
606.126	119.75
606.334	117.75
606.543	119.75
606.751	128.75
606.96	116.75
607.168	130.75
607.376	111.75
607.585	115.75
607.793	115.75
608.001	114.75
608.21	125.75
608.418	107.75
608.626	120.75
608.834	100.75
609.043	121.75
609.251	123.75
609.459	105.75
609.667	129.75
609.875	108.75
610.083	115.75
610.291	102.75
610.499	113.75
610.707	123.75
610.916	105.75
611.124	120.75
611.332	119.75
611.54	126.75
611.748	123.75
611.955	112.75
612.163	125.75
612.371	125.75
612.579	121.75
612.787	123.75
612.995	121.75
613.203	126.75
613.411	131.75
613.618	121.75
613.826	122.75
614.034	117.75
614.242	115.75
614.449	129.75
614.657	107.75
614.865	115.75
615.072	109.75
615.28	117.75
615.488	123.75
615.695	123.75
615.903	122.75
616.111	129.75
616.318	110.75
616.526	109.75
616.733	121.75
616.941	112.75
617.148	97.75
617.356	119.75
617.563	122.75
617.771	106.75
617.978	103.75
618.185	104.75
618.393	99.75
618.6	111.75
618.807	116.75
619.015	116.75
619.222	109.75
619.429	104.75
619.637	97.75
619.844	106.75
620.051	117.75
620.258	116.75
620.466	96.75
620.673	116.75
620.88	103.75
621.087	115.75
621.294	97.75
621.501	122.75
621.708	108.75
621.915	129.75
622.122	109.75
622.329	126.75
622.536	105.75
622.743	115.75
622.95	115.75
623.157	122.75
623.364	111.75
623.571	124.75
623.778	115.75
623.985	114.75
624.192	130.75
624.399	118.75
624.606	127.75
624.812	108.75
625.019	97.75
625.226	104.75
625.433	89.75
625.639	94.75
625.846	89.75
626.053	92.75
626.259	94.75
626.466	100.75
626.673	103.75
626.879	102.75
627.086	114.75
627.293	111.75
627.499	120.75
627.706	101.75
627.912	113.75
628.119	124.75
628.325	118.75
628.532	95.75
628.738	98.75
628.945	113.75
629.151	105.75
629.357	95.75
629.564	100.75
629.77	101.75
629.976	118.75
630.183	102.75
630.389	101.75
630.595	101.75
630.802	109.75
631.008	109.75
631.214	103.75
631.42	92.75
631.627	120.75
631.833	103.75
632.039	101.75
632.245	104.75
632.451	102.75
632.657	106.75
632.863	102.75
633.069	95.75
633.275	104.75
633.481	99.75
633.688	101.75
633.893	101.75
634.099	104.75
634.305	102.75
634.511	107.75
634.717	97.75
634.923	108.75
635.129	102.75
635.335	97.75
635.541	106.75
635.747	120.75
635.952	102.75
636.158	103.75
636.364	105.75
636.57	104.75
636.775	108.75
636.981	115.75
637.187	105.75
637.392	101.75
637.598	94.75
637.804	98.75
638.009	105.75
638.215	113.75
638.421	97.75
638.626	99.75
638.832	104.75
639.037	104.75
639.243	106.75
639.448	97.75
639.654	93.75
639.859	97.75
640.065	106.75
640.27	121.75
640.475	106.75
640.681	95.75
640.886	96.75
641.091	107.75
641.297	104.75
641.502	101.75
641.707	109.75
641.913	90.75
642.118	100.75
642.323	100.75
642.528	116.75
642.733	93.75
642.939	102.75
643.144	97.75
643.349	104.75
643.554	101.75
643.759	99.75
643.964	110.75
644.169	115.75
644.374	113.75
644.579	93.75
644.784	102.75
644.989	109.75
645.194	113.75
645.399	105.75
645.604	94.75
645.809	90.75
646.014	93.75
646.219	100.75
646.423	110.75
646.628	107.75
646.833	89.75
647.038	97.75
647.243	100.75
647.447	101.75
647.652	118.75
647.857	103.75
648.062	86.75
648.266	96.75
648.471	93.75
648.676	93.75
648.88	95.75
649.085	115.75
649.289	103.75
649.494	105.75
649.698	101.75
649.903	97.75
650.107	103.75
650.312	98.75
650.516	94.75
650.721	101.75
650.925	101.75
651.13	108.75
651.334	100.75
651.539	103.75
651.743	121.75
651.947	104.75
652.152	121.75
652.356	92.75
652.56	105.75
652.764	106.75
652.969	98.75
653.173	98.75
653.377	118.75
653.581	100.75
653.785	93.75
653.99	92.75
654.194	83.75
654.398	97.75
654.602	104.75
654.806	95.75
655.01	95.75
655.214	101.75
655.418	105.75
655.622	91.75
655.826	93.75
656.03	88.75
656.234	94.75
656.438	90.75
656.642	83.75
656.846	84.75
657.049	90.75
657.253	91.75
657.457	94.75
657.661	86.75
657.865	89.75
658.068	99.75
658.272	99.75
658.476	82.75
658.68	89.75
658.883	87.75
659.087	104.75
659.291	83.75
659.494	87.75
659.698	91.75
659.901	96.75
660.105	87.75
660.309	83.75
660.512	90.75
660.716	94.75
660.919	87.75
661.123	88.75
661.326	89.75
661.53	69.75
661.733	100.75
661.936	77.75
662.14	91.75
662.343	72.75
662.546	82.75
662.75	85.75
662.953	89.75
663.156	80.75
663.36	75.75
663.563	82.75
663.766	76.75
663.969	92.75
664.173	90.75
664.376	65.75
664.579	83.75
664.782	94.75
664.985	86.75
665.188	75.75
665.391	88.75
665.594	84.75
665.797	82.75
666	94.75
666.203	87.75
666.406	94.75
666.609	71.75
666.812	73.75
667.015	87.75
667.218	83.75
667.421	88.75
667.624	83.75
667.827	85.75
668.03	75.75
668.232	81.75
668.435	89.75
668.638	75.75
668.841	80.75
669.043	86.75
669.246	89.75
669.449	92.75
669.651	76.75
669.854	91.75
670.057	76.75
670.259	91.75
670.462	92.75
670.665	90.75
670.867	81.75
671.07	81.75
671.272	77.75
671.475	91.75
671.677	95.75
671.88	100.75
672.082	79.75
672.284	95.75
672.487	71.75
672.689	93.75
672.892	79.75
