Data from Location6.07152019.Energy5.Lamp.07192019.3%Agarose_HRD10591_16-13-44-395.txt Node
Date: Fri Jul 19 16:13:44 EDT 2019
User: cochatt
Spectrometer: HR+D1059
Trigger mode: 1
Integration Time (sec): 1.000000E-1
Scans to average: 1
Electric dark correction enabled: true
Nonlinearity correction enabled: false
Boxcar width: 0
XAxis mode: Wavelengths
Number of Pixels in Spectrum: 2048
>>>>>Begin Spectral Data<<<<<
223.165	-5.31
223.4	-5.31
223.635	-5.31
223.869	-19.31
224.104	-22.31
224.338	0.69
224.573	-19.31
224.808	-13.31
225.042	-13.31
225.277	-18.31
225.511	1.69
225.746	-9.31
225.98	-11.31
226.215	5.69
226.449	30.69
226.683	18.69
226.918	34.69
227.152	39.69
227.387	35.69
227.621	19.69
227.856	32.69
228.09	48.69
228.324	55.69
228.559	67.69
228.793	56.69
229.027	51.69
229.262	56.69
229.496	61.69
229.73	71.69
229.964	72.69
230.199	72.69
230.433	56.69
230.667	73.69
230.901	77.69
231.136	74.69
231.37	78.69
231.604	76.69
231.838	76.69
232.072	81.69
232.306	82.69
232.541	78.69
232.775	98.69
233.009	90.69
233.243	99.69
233.477	77.69
233.711	79.69
233.945	70.69
234.179	85.69
234.413	84.69
234.647	73.69
234.881	75.69
235.115	80.69
235.349	72.69
235.583	67.69
235.817	73.69
236.051	65.69
236.285	78.69
236.519	72.69
236.753	84.69
236.987	71.69
237.221	64.69
237.455	88.69
237.689	83.69
237.922	79.69
238.156	73.69
238.39	82.69
238.624	76.69
238.858	69.69
239.091	80.69
239.325	88.69
239.559	81.69
239.793	72.69
240.027	65.69
240.26	77.69
240.494	81.69
240.728	67.69
240.961	72.69
241.195	71.69
241.429	63.69
241.662	76.69
241.896	78.69
242.13	71.69
242.363	63.69
242.597	71.69
242.83	69.69
243.064	74.69
243.298	72.69
243.531	76.69
243.765	74.69
243.998	80.69
244.232	77.69
244.465	70.69
244.699	90.69
244.932	62.69
245.166	79.69
245.399	90.69
245.633	75.69
245.866	78.69
246.099	77.69
246.333	70.69
246.566	73.69
246.8	71.69
247.033	72.69
247.266	66.69
247.5	77.69
247.733	81.69
247.966	75.69
248.2	72.69
248.433	75.69
248.666	82.69
248.899	95.69
249.133	90.69
249.366	73.69
249.599	63.69
249.832	79.69
250.066	84.69
250.299	94.69
250.532	82.69
250.765	66.69
250.998	77.69
251.231	85.69
251.465	77.69
251.698	87.69
251.931	83.69
252.164	75.69
252.397	80.69
252.63	64.69
252.863	73.69
253.096	67.69
253.329	84.69
253.562	79.69
253.795	90.69
254.028	76.69
254.261	86.69
254.494	79.69
254.727	83.69
254.96	76.69
255.193	82.69
255.426	80.69
255.659	82.69
255.892	79.69
256.124	67.69
256.357	80.69
256.59	85.69
256.823	77.69
257.056	87.69
257.289	71.69
257.521	56.69
257.754	72.69
257.987	87.69
258.22	79.69
258.452	74.69
258.685	76.69
258.918	77.69
259.151	74.69
259.383	92.69
259.616	74.69
259.849	73.69
260.081	70.69
260.314	88.69
260.547	85.69
260.779	90.69
261.012	82.69
261.244	74.69
261.477	81.69
261.71	80.69
261.942	82.69
262.175	80.69
262.407	74.69
262.64	79.69
262.872	80.69
263.105	81.69
263.337	81.69
263.57	78.69
263.802	87.69
264.035	92.69
264.267	69.69
264.499	83.69
264.732	97.69
264.964	75.69
265.197	88.69
265.429	94.69
265.661	94.69
265.894	91.69
266.126	91.69
266.358	74.69
266.591	84.69
266.823	65.69
267.055	73.69
267.287	86.69
267.52	89.69
267.752	77.69
267.984	87.69
268.216	74.69
268.448	88.69
268.681	78.69
268.913	80.69
269.145	73.69
269.377	78.69
269.609	86.69
269.841	73.69
270.073	80.69
270.306	80.69
270.538	72.69
270.77	78.69
271.002	78.69
271.234	86.69
271.466	79.69
271.698	88.69
271.93	72.69
272.162	78.69
272.394	78.69
272.626	81.69
272.858	63.69
273.09	87.69
273.322	88.69
273.553	74.69
273.785	90.69
274.017	71.69
274.249	81.69
274.481	92.69
274.713	86.69
274.945	73.69
275.176	82.69
275.408	78.69
275.64	87.69
275.872	80.69
276.104	72.69
276.335	83.69
276.567	88.69
276.799	81.69
277.031	78.69
277.262	84.69
277.494	70.69
277.726	86.69
277.957	76.69
278.189	69.69
278.421	78.69
278.652	84.69
278.884	74.69
279.115	93.69
279.347	80.69
279.579	70.69
279.81	80.69
280.042	81.69
280.273	86.69
280.505	84.69
280.736	85.69
280.968	69.69
281.199	88.69
281.431	70.69
281.662	86.69
281.894	87.69
282.125	83.69
282.356	66.69
282.588	70.69
282.819	78.69
283.051	69.69
283.282	78.69
283.513	88.69
283.745	89.69
283.976	65.69
284.207	80.69
284.439	81.69
284.67	77.69
284.901	79.69
285.132	86.69
285.364	77.69
285.595	88.69
285.826	81.69
286.057	89.69
286.288	86.69
286.52	91.69
286.751	78.69
286.982	76.69
287.213	85.69
287.444	84.69
287.675	76.69
287.906	68.69
288.138	85.69
288.369	86.69
288.6	82.69
288.831	86.69
289.062	103.69
289.293	87.69
289.524	75.69
289.755	79.69
289.986	73.69
290.217	68.69
290.448	86.69
290.679	79.69
290.91	82.69
291.141	71.69
291.371	92.69
291.602	89.69
291.833	85.69
292.064	67.69
292.295	91.69
292.526	97.69
292.757	86.69
292.987	86.69
293.218	80.69
293.449	82.69
293.68	93.69
293.91	80.69
294.141	80.69
294.372	85.69
294.603	79.69
294.833	68.69
295.064	88.69
295.295	70.69
295.525	80.69
295.756	78.69
295.987	81.69
296.217	73.69
296.448	81.69
296.679	82.69
296.909	93.69
297.14	96.69
297.37	92.69
297.601	88.69
297.831	94.69
298.062	88.69
298.292	82.69
298.523	88.69
298.753	74.69
298.984	85.69
299.214	81.69
299.445	98.69
299.675	87.69
299.905	71.69
300.136	72.69
300.366	90.69
300.597	85.69
300.827	89.69
301.057	79.69
301.288	68.69
301.518	77.69
301.748	94.69
301.979	87.69
302.209	79.69
302.439	72.69
302.669	72.69
302.9	80.69
303.13	84.69
303.36	80.69
303.59	88.69
303.82	87.69
304.051	80.69
304.281	88.69
304.511	82.69
304.741	81.69
304.971	89.69
305.201	80.69
305.431	84.69
305.661	77.69
305.891	78.69
306.121	72.69
306.352	89.69
306.582	86.69
306.812	97.69
307.042	87.69
307.272	85.69
307.502	86.69
307.731	90.69
307.961	77.69
308.191	82.69
308.421	87.69
308.651	93.69
308.881	74.69
309.111	87.69
309.341	69.69
309.571	79.69
309.8	85.69
310.03	94.69
310.26	91.69
310.49	78.69
310.72	78.69
310.949	66.69
311.179	84.69
311.409	78.69
311.639	75.69
311.868	86.69
312.098	86.69
312.328	81.69
312.557	85.69
312.787	91.69
313.017	82.69
313.246	85.69
313.476	81.69
313.706	67.69
313.935	81.69
314.165	75.69
314.394	71.69
314.624	79.69
314.853	96.69
315.083	76.69
315.312	83.69
315.542	86.69
315.771	76.69
316.001	75.69
316.23	96.69
316.46	96.69
316.689	87.69
316.919	88.69
317.148	88.69
317.377	79.69
317.607	84.69
317.836	84.69
318.065	73.69
318.295	74.69
318.524	74.69
318.753	73.69
318.983	92.69
319.212	86.69
319.441	87.69
319.67	75.69
319.9	73.69
320.129	87.69
320.358	88.69
320.587	84.69
320.816	79.69
321.046	76.69
321.275	77.69
321.504	77.69
321.733	88.69
321.962	85.69
322.191	87.69
322.42	67.69
322.649	80.69
322.878	82.69
323.108	92.69
323.337	100.69
323.566	76.69
323.795	69.69
324.024	90.69
324.253	89.69
324.482	81.69
324.71	86.69
324.939	84.69
325.168	83.69
325.397	90.69
325.626	97.69
325.855	92.69
326.084	77.69
326.313	89.69
326.542	81.69
326.77	95.69
326.999	74.69
327.228	87.69
327.457	88.69
327.686	72.69
327.914	80.69
328.143	86.69
328.372	80.69
328.6	76.69
328.829	85.69
329.058	86.69
329.287	75.69
329.515	88.69
329.744	92.69
329.972	85.69
330.201	77.69
330.43	80.69
330.658	75.69
330.887	81.69
331.115	79.69
331.344	75.69
331.572	88.69
331.801	83.69
332.03	78.69
332.258	80.69
332.486	83.69
332.715	81.69
332.943	70.69
333.172	85.69
333.4	82.69
333.629	89.69
333.857	80.69
334.085	87.69
334.314	77.69
334.542	79.69
334.771	88.69
334.999	85.69
335.227	79.69
335.455	78.69
335.684	92.69
335.912	83.69
336.14	75.69
336.369	71.69
336.597	87.69
336.825	77.69
337.053	95.69
337.281	71.69
337.51	83.69
337.738	93.69
337.966	82.69
338.194	69.69
338.422	91.69
338.65	92.69
338.878	93.69
339.106	84.69
339.334	92.69
339.562	70.69
339.79	87.69
340.018	72.69
340.246	76.69
340.474	78.69
340.702	82.69
340.93	95.69
341.158	81.69
341.386	89.69
341.614	97.69
341.842	82.69
342.07	90.69
342.298	92.69
342.526	85.69
342.754	79.69
342.981	80.69
343.209	76.69
343.437	89.69
343.665	84.69
343.893	84.69
344.12	89.69
344.348	79.69
344.576	85.69
344.804	89.69
345.031	82.69
345.259	86.69
345.487	72.69
345.714	74.69
345.942	85.69
346.17	77.69
346.397	86.69
346.625	73.69
346.853	103.69
347.08	83.69
347.308	87.69
347.535	71.69
347.763	80.69
347.99	99.69
348.218	71.69
348.445	79.69
348.673	66.69
348.9	81.69
349.128	101.69
349.355	72.69
349.583	89.69
349.81	88.69
350.037	79.69
350.265	93.69
350.492	84.69
350.72	80.69
350.947	75.69
351.174	77.69
351.402	83.69
351.629	80.69
351.856	84.69
352.083	78.69
352.311	80.69
352.538	84.69
352.765	90.69
352.992	85.69
353.22	82.69
353.447	98.69
353.674	78.69
353.901	80.69
354.128	80.69
354.355	86.69
354.583	66.69
354.81	87.69
355.037	86.69
355.264	86.69
355.491	83.69
355.718	76.69
355.945	79.69
356.172	74.69
356.399	88.69
356.626	84.69
356.853	81.69
357.08	83.69
357.307	81.69
357.534	73.69
357.761	79.69
357.988	80.69
358.215	80.69
358.441	81.69
358.668	82.69
358.895	89.69
359.122	72.69
359.349	92.69
359.576	85.69
359.802	67.69
360.029	92.69
360.256	89.69
360.483	87.69
360.709	93.69
360.936	81.69
361.163	89.69
361.39	95.69
361.616	84.69
361.843	68.69
362.07	78.69
362.296	63.69
362.523	86.69
362.749	80.69
362.976	70.69
363.203	82.69
363.429	78.69
363.656	76.69
363.882	97.69
364.109	69.69
364.335	88.69
364.562	80.69
364.788	74.69
365.015	92.69
365.241	93.69
365.468	79.69
365.694	80.69
365.92	89.69
366.147	75.69
366.373	84.69
366.599	72.69
366.826	73.69
367.052	71.69
367.278	86.69
367.505	87.69
367.731	94.69
367.957	94.69
368.184	95.69
368.41	95.69
368.636	100.69
368.862	84.69
369.089	79.69
369.315	82.69
369.541	78.69
369.767	80.69
369.993	88.69
370.219	69.69
370.445	77.69
370.672	82.69
370.898	83.69
371.124	89.69
371.35	96.69
371.576	84.69
371.802	98.69
372.028	76.69
372.254	86.69
372.48	96.69
372.706	108.69
372.932	79.69
373.158	78.69
373.384	91.69
373.61	72.69
373.835	77.69
374.061	92.69
374.287	97.69
374.513	88.69
374.739	89.69
374.965	88.69
375.191	81.69
375.416	94.69
375.642	82.69
375.868	80.69
376.094	92.69
376.319	89.69
376.545	98.69
376.771	92.69
376.997	81.69
377.222	88.69
377.448	85.69
377.674	96.69
377.899	90.69
378.125	96.69
378.35	89.69
378.576	82.69
378.802	103.69
379.027	113.69
379.253	95.69
379.478	93.69
379.704	92.69
379.929	86.69
380.155	85.69
380.38	100.69
380.606	96.69
380.831	95.69
381.057	91.69
381.282	92.69
381.507	95.69
381.733	104.69
381.958	108.69
382.184	101.69
382.409	98.69
382.634	101.69
382.86	93.69
383.085	96.69
383.31	99.69
383.535	91.69
383.761	88.69
383.986	86.69
384.211	89.69
384.436	104.69
384.662	102.69
384.887	104.69
385.112	100.69
385.337	98.69
385.562	99.69
385.787	105.69
386.013	100.69
386.238	95.69
386.463	88.69
386.688	93.69
386.913	93.69
387.138	98.69
387.363	97.69
387.588	109.69
387.813	86.69
388.038	84.69
388.263	104.69
388.488	102.69
388.713	104.69
388.938	75.69
389.163	112.69
389.387	96.69
389.612	96.69
389.837	115.69
390.062	103.69
390.287	107.69
390.512	95.69
390.736	99.69
390.961	96.69
391.186	100.69
391.411	111.69
391.636	105.69
391.86	105.69
392.085	88.69
392.31	124.69
392.534	102.69
392.759	116.69
392.984	109.69
393.208	108.69
393.433	113.69
393.658	116.69
393.882	102.69
394.107	100.69
394.331	98.69
394.556	112.69
394.78	102.69
395.005	96.69
395.229	93.69
395.454	109.69
395.678	103.69
395.903	98.69
396.127	118.69
396.352	106.69
396.576	105.69
396.801	117.69
397.025	113.69
397.249	115.69
397.474	117.69
397.698	94.69
397.922	116.69
398.147	110.69
398.371	112.69
398.595	107.69
398.82	98.69
399.044	121.69
399.268	96.69
399.492	116.69
399.717	114.69
399.941	100.69
400.165	114.69
400.389	115.69
400.613	106.69
400.837	112.69
401.062	116.69
401.286	114.69
401.51	111.69
401.734	95.69
401.958	100.69
402.182	103.69
402.406	105.69
402.63	116.69
402.854	114.69
403.078	117.69
403.302	116.69
403.526	111.69
403.75	104.69
403.974	98.69
404.198	127.69
404.422	125.69
404.645	111.69
404.869	126.69
405.093	103.69
405.317	117.69
405.541	124.69
405.765	117.69
405.988	120.69
406.212	128.69
406.436	113.69
406.66	119.69
406.883	128.69
407.107	123.69
407.331	114.69
407.555	108.69
407.778	127.69
408.002	118.69
408.226	116.69
408.449	113.69
408.673	126.69
408.896	122.69
409.12	120.69
409.344	119.69
409.567	111.69
409.791	118.69
410.014	122.69
410.238	117.69
410.461	124.69
410.685	124.69
410.908	126.69
411.132	130.69
411.355	116.69
411.578	128.69
411.802	132.69
412.025	126.69
412.249	112.69
412.472	116.69
412.695	126.69
412.919	114.69
413.142	121.69
413.365	115.69
413.589	105.69
413.812	127.69
414.035	128.69
414.258	122.69
414.482	124.69
414.705	118.69
414.928	106.69
415.151	122.69
415.374	119.69
415.597	120.69
415.821	120.69
416.044	125.69
416.267	130.69
416.49	135.69
416.713	111.69
416.936	116.69
417.159	120.69
417.382	121.69
417.605	118.69
417.828	134.69
418.051	121.69
418.274	129.69
418.497	122.69
418.72	131.69
418.943	137.69
419.166	137.69
419.389	148.69
419.611	130.69
419.834	136.69
420.057	134.69
420.28	141.69
420.503	148.69
420.726	139.69
420.948	134.69
421.171	143.69
421.394	132.69
421.617	161.69
421.839	138.69
422.062	135.69
422.285	141.69
422.507	144.69
422.73	117.69
422.953	140.69
423.175	132.69
423.398	128.69
423.621	119.69
423.843	131.69
424.066	153.69
424.288	153.69
424.511	157.69
424.733	144.69
424.956	144.69
425.178	154.69
425.401	127.69
425.623	124.69
425.846	149.69
426.068	122.69
426.291	126.69
426.513	113.69
426.735	124.69
426.958	129.69
427.18	130.69
427.402	128.69
427.625	119.69
427.847	118.69
428.069	122.69
428.292	127.69
428.514	134.69
428.736	120.69
428.958	129.69
429.181	127.69
429.403	125.69
429.625	120.69
429.847	130.69
430.069	128.69
430.292	127.69
430.514	133.69
430.736	129.69
430.958	132.69
431.18	142.69
431.402	129.69
431.624	127.69
431.846	112.69
432.068	93.69
432.29	103.69
432.512	109.69
432.734	110.69
432.956	125.69
433.178	136.69
433.4	134.69
433.622	139.69
433.844	136.69
434.066	120.69
434.287	110.69
434.509	99.69
434.731	106.69
434.953	117.69
435.175	130.69
435.397	124.69
435.618	117.69
435.84	97.69
436.062	128.69
436.284	131.69
436.505	138.69
436.727	121.69
436.949	123.69
437.17	126.69
437.392	132.69
437.614	131.69
437.835	99.69
438.057	106.69
438.278	113.69
438.5	128.69
438.721	141.69
438.943	131.69
439.165	142.69
439.386	139.69
439.608	153.69
439.829	138.69
440.05	160.69
440.272	145.69
440.493	147.69
440.715	146.69
440.936	138.69
441.158	129.69
441.379	148.69
441.6	151.69
441.822	146.69
442.043	142.69
442.264	144.69
442.486	148.69
442.707	149.69
442.928	129.69
443.149	145.69
443.371	126.69
443.592	141.69
443.813	143.69
444.034	147.69
444.255	153.69
444.476	155.69
444.698	156.69
444.919	151.69
445.14	279.69
445.361	192.69
445.582	169.69
445.803	162.69
446.024	149.69
446.245	158.69
446.466	159.69
446.687	152.69
446.908	164.69
447.129	153.69
447.35	156.69
447.571	151.69
447.792	150.69
448.013	162.69
448.234	141.69
448.455	145.69
448.675	150.69
448.896	152.69
449.117	141.69
449.338	151.69
449.559	141.69
449.779	146.69
450	136.69
450.221	120.69
450.442	131.69
450.662	150.69
450.883	139.69
451.104	154.69
451.324	140.69
451.545	127.69
451.766	133.69
451.986	144.69
452.207	134.69
452.428	137.69
452.648	137.69
452.869	111.69
453.089	113.69
453.31	101.69
453.53	102.69
453.751	90.69
453.971	94.69
454.192	117.69
454.412	109.69
454.633	120.69
454.853	121.69
455.073	124.69
455.294	128.69
455.514	129.69
455.734	117.69
455.955	105.69
456.175	121.69
456.395	102.69
456.616	114.69
456.836	110.69
457.056	95.69
457.276	102.69
457.497	116.69
457.717	98.69
457.937	115.69
458.157	122.69
458.377	100.69
458.598	101.69
458.818	96.69
459.038	87.69
459.258	89.69
459.478	87.69
459.698	84.69
459.918	94.69
460.138	102.69
460.358	120.69
460.578	117.69
460.798	120.69
461.018	129.69
461.238	138.69
461.458	109.69
461.678	101.69
461.898	111.69
462.118	111.69
462.338	107.69
462.558	114.69
462.777	119.69
462.997	116.69
463.217	111.69
463.437	100.69
463.657	121.69
463.876	108.69
464.096	106.69
464.316	114.69
464.536	114.69
464.755	113.69
464.975	113.69
465.195	126.69
465.414	111.69
465.634	116.69
465.854	106.69
466.073	126.69
466.293	104.69
466.512	124.69
466.732	130.69
466.951	116.69
467.171	136.69
467.391	126.69
467.61	136.69
467.829	120.69
468.049	132.69
468.268	128.69
468.488	134.69
468.707	137.69
468.927	148.69
469.146	144.69
469.365	145.69
469.585	141.69
469.804	151.69
470.023	143.69
470.243	149.69
470.462	139.69
470.681	146.69
470.901	142.69
471.12	147.69
471.339	150.69
471.558	151.69
471.777	146.69
471.997	132.69
472.216	128.69
472.435	121.69
472.654	108.69
472.873	117.69
473.092	118.69
473.311	110.69
473.53	129.69
473.749	122.69
473.968	134.69
474.187	125.69
474.406	119.69
474.625	126.69
474.844	124.69
475.063	125.69
475.282	119.69
475.501	124.69
475.72	126.69
475.939	123.69
476.158	140.69
476.377	136.69
476.596	130.69
476.814	112.69
477.033	104.69
477.252	113.69
477.471	134.69
477.69	134.69
477.908	149.69
478.127	128.69
478.346	140.69
478.564	131.69
478.783	130.69
479.002	116.69
479.22	148.69
479.439	134.69
479.658	127.69
479.876	130.69
480.095	108.69
480.313	116.69
480.532	116.69
480.751	120.69
480.969	90.69
481.188	90.69
481.406	95.69
481.624	88.69
481.843	96.69
482.061	93.69
482.28	109.69
482.498	120.69
482.717	105.69
482.935	105.69
483.153	132.69
483.372	150.69
483.59	153.69
483.808	136.69
484.027	132.69
484.245	128.69
484.463	147.69
484.681	170.69
484.9	155.69
485.118	138.69
485.336	132.69
485.554	97.69
485.772	112.69
485.99	99.69
486.209	118.69
486.427	110.69
486.645	117.69
486.863	164.69
487.081	136.69
487.299	120.69
487.517	141.69
487.735	167.69
487.953	198.69
488.171	199.69
488.389	182.69
488.607	185.69
488.825	147.69
489.043	149.69
489.261	142.69
489.479	133.69
489.696	144.69
489.914	146.69
490.132	147.69
490.35	158.69
490.568	156.69
490.786	178.69
491.003	200.69
491.221	186.69
491.439	186.69
491.657	185.69
491.874	186.69
492.092	244.69
492.31	256.69
492.527	233.69
492.745	207.69
492.963	201.69
493.18	202.69
493.398	191.69
493.615	180.69
493.833	183.69
494.05	173.69
494.268	174.69
494.485	190.69
494.703	188.69
494.92	173.69
495.138	183.69
495.355	178.69
495.573	184.69
495.79	196.69
496.008	173.69
496.225	163.69
496.442	190.69
496.66	176.69
496.877	169.69
497.094	165.69
497.312	173.69
497.529	167.69
497.746	164.69
497.963	136.69
498.181	125.69
498.398	127.69
498.615	126.69
498.832	122.69
499.049	117.69
499.267	112.69
499.484	114.69
499.701	147.69
499.918	149.69
500.135	144.69
500.352	134.69
500.569	128.69
500.786	149.69
501.003	136.69
501.22	149.69
501.437	139.69
501.654	128.69
501.871	140.69
502.088	132.69
502.305	130.69
502.522	144.69
502.739	136.69
502.956	124.69
503.172	145.69
503.389	142.69
503.606	131.69
503.823	132.69
504.04	116.69
504.256	131.69
504.473	126.69
504.69	126.69
504.907	127.69
505.123	105.69
505.34	123.69
505.557	121.69
505.773	124.69
505.99	113.69
506.207	120.69
506.423	126.69
506.64	134.69
506.856	117.69
507.073	121.69
507.289	116.69
507.506	132.69
507.722	109.69
507.939	108.69
508.155	125.69
508.372	112.69
508.588	128.69
508.805	113.69
509.021	100.69
509.238	103.69
509.454	98.69
509.67	99.69
509.887	83.69
510.103	96.69
510.319	89.69
510.536	97.69
510.752	90.69
510.968	101.69
511.184	75.69
511.401	89.69
511.617	96.69
511.833	91.69
512.049	96.69
512.265	109.69
512.481	109.69
512.698	97.69
512.914	97.69
513.13	81.69
513.346	79.69
513.562	108.69
513.778	105.69
513.994	88.69
514.21	99.69
514.426	100.69
514.642	93.69
514.858	91.69
515.074	100.69
515.29	96.69
515.506	85.69
515.721	96.69
515.937	94.69
516.153	78.69
516.369	90.69
516.585	74.69
516.801	102.69
517.016	87.69
517.232	97.69
517.448	95.69
517.664	110.69
517.879	95.69
518.095	94.69
518.311	101.69
518.527	96.69
518.742	100.69
518.958	107.69
519.173	99.69
519.389	102.69
519.605	121.69
519.82	105.69
520.036	102.69
520.251	91.69
520.467	101.69
520.682	91.69
520.898	123.69
521.113	88.69
521.329	90.69
521.544	84.69
521.76	100.69
521.975	92.69
522.19	86.69
522.406	100.69
522.621	100.69
522.836	109.69
523.052	122.69
523.267	136.69
523.482	120.69
523.698	120.69
523.913	104.69
524.128	119.69
524.343	135.69
524.559	113.69
524.774	108.69
524.989	121.69
525.204	128.69
525.419	115.69
525.634	123.69
525.849	101.69
526.064	115.69
526.28	114.69
526.495	105.69
526.71	96.69
526.925	97.69
527.14	82.69
527.355	84.69
527.57	86.69
527.785	85.69
527.999	99.69
528.214	106.69
528.429	112.69
528.644	129.69
528.859	121.69
529.074	150.69
529.289	153.69
529.503	162.69
529.718	149.69
529.933	119.69
530.148	108.69
530.363	82.69
530.577	76.69
530.792	91.69
531.007	89.69
531.221	84.69
531.436	88.69
531.651	88.69
531.865	85.69
532.08	91.69
532.295	88.69
532.509	79.69
532.724	92.69
532.938	94.69
533.153	99.69
533.367	106.69
533.582	112.69
533.796	138.69
534.011	100.69
534.225	97.69
534.44	97.69
534.654	98.69
534.868	103.69
535.083	111.69
535.297	100.69
535.511	92.69
535.726	109.69
535.94	101.69
536.154	118.69
536.369	89.69
536.583	72.69
536.797	78.69
537.011	98.69
537.225	96.69
537.44	81.69
537.654	87.69
537.868	97.69
538.082	100.69
538.296	96.69
538.51	102.69
538.724	125.69
538.938	124.69
539.153	117.69
539.367	128.69
539.581	122.69
539.795	102.69
540.009	98.69
540.222	107.69
540.436	118.69
540.65	118.69
540.864	112.69
541.078	127.69
541.292	149.69
541.506	178.69
541.72	172.69
541.934	184.69
542.147	216.69
542.361	216.69
542.575	152.69
542.789	159.69
543.002	122.69
543.216	124.69
543.43	121.69
543.644	140.69
543.857	163.69
544.071	155.69
544.285	167.69
544.498	165.69
544.712	158.69
544.925	158.69
545.139	143.69
545.352	170.69
545.566	148.69
545.779	160.69
545.993	170.69
546.206	157.69
546.42	168.69
546.633	176.69
546.847	170.69
547.06	167.69
547.274	169.69
547.487	196.69
547.7	184.69
547.914	167.69
548.127	182.69
548.34	174.69
548.554	159.69
548.767	168.69
548.98	158.69
549.193	152.69
549.407	137.69
549.62	161.69
549.833	166.69
550.046	161.69
550.259	159.69
550.473	169.69
550.686	169.69
550.899	159.69
551.112	150.69
551.325	141.69
551.538	160.69
551.751	120.69
551.964	123.69
552.177	133.69
552.39	152.69
552.603	146.69
552.816	153.69
553.029	174.69
553.242	170.69
553.455	154.69
553.667	161.69
553.88	162.69
554.093	155.69
554.306	154.69
554.519	156.69
554.732	156.69
554.944	159.69
555.157	161.69
555.37	157.69
555.583	159.69
555.795	151.69
556.008	145.69
556.221	150.69
556.433	150.69
556.646	149.69
556.859	142.69
557.071	144.69
557.284	148.69
557.496	143.69
557.709	150.69
557.921	124.69
558.134	147.69
558.346	136.69
558.559	138.69
558.771	144.69
558.984	144.69
559.196	130.69
559.409	144.69
559.621	137.69
559.833	124.69
560.046	130.69
560.258	142.69
560.47	144.69
560.683	124.69
560.895	125.69
561.107	139.69
561.32	128.69
561.532	131.69
561.744	136.69
561.956	145.69
562.168	134.69
562.381	122.69
562.593	131.69
562.805	140.69
563.017	136.69
563.229	136.69
563.441	123.69
563.653	126.69
563.865	122.69
564.077	123.69
564.289	132.69
564.501	125.69
564.713	124.69
564.925	125.69
565.137	117.69
565.349	118.69
565.561	128.69
565.773	114.69
565.985	125.69
566.197	116.69
566.408	124.69
566.62	116.69
566.832	130.69
567.044	119.69
567.255	136.69
567.467	118.69
567.679	97.69
567.891	96.69
568.102	85.69
568.314	94.69
568.526	94.69
568.737	86.69
568.949	83.69
569.161	76.69
569.372	63.69
569.584	78.69
569.795	78.69
570.007	78.69
570.218	81.69
570.43	97.69
570.641	93.69
570.853	92.69
571.064	82.69
571.276	114.69
571.487	127.69
571.698	98.69
571.91	102.69
572.121	109.69
572.333	104.69
572.544	98.69
572.755	86.69
572.966	90.69
573.178	88.69
573.389	88.69
573.6	80.69
573.811	85.69
574.023	81.69
574.234	82.69
574.445	91.69
574.656	100.69
574.867	92.69
575.078	96.69
575.289	87.69
575.501	86.69
575.712	98.69
575.923	93.69
576.134	87.69
576.345	104.69
576.556	109.69
576.767	88.69
576.978	96.69
577.188	87.69
577.399	95.69
577.61	98.69
577.821	92.69
578.032	98.69
578.243	94.69
578.454	113.69
578.665	74.69
578.875	87.69
579.086	84.69
579.297	92.69
579.508	87.69
579.718	92.69
579.929	76.69
580.14	98.69
580.35	69.69
580.561	81.69
580.772	83.69
580.982	101.69
581.193	84.69
581.403	98.69
581.614	89.69
581.825	91.69
582.035	85.69
582.246	77.69
582.456	87.69
582.667	94.69
582.877	89.69
583.087	94.69
583.298	81.69
583.508	89.69
583.719	95.69
583.929	92.69
584.139	89.69
584.35	87.69
584.56	82.69
584.77	77.69
584.981	79.69
585.191	89.69
585.401	81.69
585.611	93.69
585.821	89.69
586.032	87.69
586.242	88.69
586.452	79.69
586.662	75.69
586.872	83.69
587.082	82.69
587.292	90.69
587.502	79.69
587.713	67.69
587.923	87.69
588.133	78.69
588.343	91.69
588.553	87.69
588.762	86.69
588.972	85.69
589.182	101.69
589.392	87.69
589.602	88.69
589.812	71.69
590.022	86.69
590.232	76.69
590.441	82.69
590.651	70.69
590.861	96.69
591.071	97.69
591.281	103.69
591.49	89.69
591.7	92.69
591.91	87.69
592.119	86.69
592.329	78.69
592.539	86.69
592.748	89.69
592.958	84.69
593.167	91.69
593.377	102.69
593.587	81.69
593.796	72.69
594.006	98.69
594.215	79.69
594.424	90.69
594.634	105.69
594.843	97.69
595.053	103.69
595.262	101.69
595.472	82.69
595.681	92.69
595.89	94.69
596.1	69.69
596.309	103.69
596.518	100.69
596.727	84.69
596.937	97.69
597.146	92.69
597.355	99.69
597.564	84.69
597.774	106.69
597.983	78.69
598.192	97.69
598.401	77.69
598.61	88.69
598.819	95.69
599.028	103.69
599.237	92.69
599.446	94.69
599.655	89.69
599.864	101.69
600.073	91.69
600.282	99.69
600.491	94.69
600.7	98.69
600.909	83.69
601.118	95.69
601.327	104.69
601.536	101.69
601.745	112.69
601.953	118.69
602.162	114.69
602.371	107.69
602.58	104.69
602.789	112.69
602.997	118.69
603.206	114.69
603.415	113.69
603.623	105.69
603.832	114.69
604.041	106.69
604.249	108.69
604.458	112.69
604.666	89.69
604.875	106.69
605.084	118.69
605.292	113.69
605.501	108.69
605.709	112.69
605.918	109.69
606.126	111.69
606.334	105.69
606.543	112.69
606.751	118.69
606.96	98.69
607.168	115.69
607.376	105.69
607.585	115.69
607.793	121.69
608.001	118.69
608.21	111.69
608.418	117.69
608.626	112.69
608.834	109.69
609.043	115.69
609.251	120.69
609.459	120.69
609.667	121.69
609.875	116.69
610.083	116.69
610.291	126.69
610.499	124.69
610.707	132.69
610.916	127.69
611.124	117.69
611.332	124.69
611.54	110.69
611.748	118.69
611.955	124.69
612.163	106.69
612.371	117.69
612.579	114.69
612.787	111.69
612.995	121.69
613.203	122.69
613.411	120.69
613.618	116.69
613.826	115.69
614.034	115.69
614.242	112.69
614.449	114.69
614.657	115.69
614.865	106.69
615.072	120.69
615.28	106.69
615.488	113.69
615.695	108.69
615.903	124.69
616.111	114.69
616.318	111.69
616.526	113.69
616.733	133.69
616.941	128.69
617.148	127.69
617.356	128.69
617.563	117.69
617.771	91.69
617.978	101.69
618.185	102.69
618.393	117.69
618.6	95.69
618.807	105.69
619.015	117.69
619.222	127.69
619.429	123.69
619.637	89.69
619.844	90.69
620.051	89.69
620.258	113.69
620.466	100.69
620.673	118.69
620.88	108.69
621.087	109.69
621.294	105.69
621.501	109.69
621.708	100.69
621.915	99.69
622.122	92.69
622.329	92.69
622.536	114.69
622.743	105.69
622.95	119.69
623.157	120.69
623.364	111.69
623.571	116.69
623.778	105.69
623.985	121.69
624.192	110.69
624.399	119.69
624.606	122.69
624.812	94.69
625.019	103.69
625.226	108.69
625.433	114.69
625.639	97.69
625.846	97.69
626.053	104.69
626.259	93.69
626.466	88.69
626.673	95.69
626.879	92.69
627.086	100.69
627.293	113.69
627.499	109.69
627.706	117.69
627.912	109.69
628.119	113.69
628.325	91.69
628.532	102.69
628.738	107.69
628.945	110.69
629.151	108.69
629.357	105.69
629.564	104.69
629.77	118.69
629.976	98.69
630.183	95.69
630.389	104.69
630.595	102.69
630.802	97.69
631.008	97.69
631.214	103.69
631.42	98.69
631.627	101.69
631.833	97.69
632.039	105.69
632.245	100.69
632.451	105.69
632.657	97.69
632.863	103.69
633.069	94.69
633.275	101.69
633.481	101.69
633.688	84.69
633.893	104.69
634.099	109.69
634.305	100.69
634.511	119.69
634.717	96.69
634.923	93.69
635.129	97.69
635.335	92.69
635.541	88.69
635.747	109.69
635.952	84.69
636.158	104.69
636.364	97.69
636.57	94.69
636.775	92.69
636.981	115.69
637.187	102.69
637.392	100.69
637.598	116.69
637.804	98.69
638.009	110.69
638.215	92.69
638.421	97.69
638.626	105.69
638.832	116.69
639.037	102.69
639.243	94.69
639.448	78.69
639.654	95.69
639.859	97.69
640.065	106.69
640.27	98.69
640.475	101.69
640.681	99.69
640.886	108.69
641.091	93.69
641.297	94.69
641.502	104.69
641.707	95.69
641.913	105.69
642.118	97.69
642.323	112.69
642.528	101.69
642.733	99.69
642.939	89.69
643.144	110.69
643.349	103.69
643.554	110.69
643.759	97.69
643.964	104.69
644.169	101.69
644.374	95.69
644.579	93.69
644.784	88.69
644.989	103.69
645.194	100.69
645.399	88.69
645.604	108.69
645.809	103.69
646.014	95.69
646.219	100.69
646.423	100.69
646.628	119.69
646.833	108.69
647.038	96.69
647.243	99.69
647.447	103.69
647.652	108.69
647.857	112.69
648.062	100.69
648.266	91.69
648.471	81.69
648.676	106.69
648.88	90.69
649.085	98.69
649.289	101.69
649.494	97.69
649.698	103.69
649.903	95.69
650.107	94.69
650.312	97.69
650.516	98.69
650.721	90.69
650.925	86.69
651.13	90.69
651.334	80.69
651.539	104.69
651.743	115.69
651.947	90.69
652.152	74.69
652.356	85.69
652.56	106.69
652.764	103.69
652.969	97.69
653.173	99.69
653.377	102.69
653.581	93.69
653.785	98.69
653.99	92.69
654.194	105.69
654.398	89.69
654.602	80.69
654.806	88.69
655.01	88.69
655.214	89.69
655.418	73.69
655.622	91.69
655.826	83.69
656.03	97.69
656.234	96.69
656.438	93.69
656.642	87.69
656.846	92.69
657.049	90.69
657.253	92.69
657.457	89.69
657.661	80.69
657.865	71.69
658.068	77.69
658.272	76.69
658.476	90.69
658.68	90.69
658.883	78.69
659.087	80.69
659.291	72.69
659.494	96.69
659.698	87.69
659.901	80.69
660.105	78.69
660.309	86.69
660.512	80.69
660.716	84.69
660.919	89.69
661.123	84.69
661.326	92.69
661.53	94.69
661.733	88.69
661.936	92.69
662.14	84.69
662.343	81.69
662.546	87.69
662.75	88.69
662.953	77.69
663.156	84.69
663.36	72.69
663.563	85.69
663.766	95.69
663.969	89.69
664.173	100.69
664.376	62.69
664.579	82.69
664.782	74.69
664.985	85.69
665.188	79.69
665.391	78.69
665.594	71.69
665.797	86.69
666	96.69
666.203	86.69
666.406	76.69
666.609	88.69
666.812	83.69
667.015	79.69
667.218	79.69
667.421	74.69
667.624	82.69
667.827	86.69
668.03	88.69
668.232	71.69
668.435	76.69
668.638	91.69
668.841	82.69
669.043	84.69
669.246	78.69
669.449	85.69
669.651	81.69
669.854	94.69
670.057	103.69
670.259	78.69
670.462	87.69
670.665	73.69
670.867	90.69
671.07	89.69
671.272	87.69
671.475	69.69
671.677	81.69
671.88	72.69
672.082	82.69
672.284	84.69
672.487	74.69
672.689	82.69
672.892	86.69
