Data from Location6.07152019.Energy5.Lamp.07192019.3%Agarose_HRD10591_16-10-57-395.txt Node
Date: Fri Jul 19 16:10:57 EDT 2019
User: cochatt
Spectrometer: HR+D1059
Trigger mode: 1
Integration Time (sec): 1.000000E-1
Scans to average: 1
Electric dark correction enabled: true
Nonlinearity correction enabled: false
Boxcar width: 0
XAxis mode: Wavelengths
Number of Pixels in Spectrum: 2048
>>>>>Begin Spectral Data<<<<<
223.165	-14.25
223.4	-14.25
223.635	-14.25
223.869	-23.25
224.104	-17.25
224.338	-9.25
224.573	-16.25
224.808	-20.25
225.042	-21.25
225.277	-3.25
225.511	1.75
225.746	16.75
225.98	-4.25
226.215	8.75
226.449	1.75
226.683	25.75
226.918	30.75
227.152	43.75
227.387	45.75
227.621	31.75
227.856	45.75
228.09	43.75
228.324	52.75
228.559	46.75
228.793	68.75
229.027	71.75
229.262	41.75
229.496	59.75
229.73	75.75
229.964	62.75
230.199	63.75
230.433	60.75
230.667	72.75
230.901	69.75
231.136	63.75
231.37	64.75
231.604	73.75
231.838	68.75
232.072	78.75
232.306	91.75
232.541	63.75
232.775	86.75
233.009	60.75
233.243	68.75
233.477	74.75
233.711	77.75
233.945	79.75
234.179	72.75
234.413	79.75
234.647	80.75
234.881	82.75
235.115	79.75
235.349	82.75
235.583	88.75
235.817	77.75
236.051	65.75
236.285	77.75
236.519	77.75
236.753	61.75
236.987	75.75
237.221	68.75
237.455	83.75
237.689	83.75
237.922	69.75
238.156	75.75
238.39	62.75
238.624	76.75
238.858	71.75
239.091	68.75
239.325	70.75
239.559	64.75
239.793	81.75
240.027	75.75
240.26	67.75
240.494	70.75
240.728	62.75
240.961	75.75
241.195	83.75
241.429	66.75
241.662	66.75
241.896	70.75
242.13	79.75
242.363	82.75
242.597	75.75
242.83	80.75
243.064	66.75
243.298	72.75
243.531	71.75
243.765	69.75
243.998	70.75
244.232	76.75
244.465	70.75
244.699	72.75
244.932	76.75
245.166	74.75
245.399	62.75
245.633	77.75
245.866	81.75
246.099	71.75
246.333	68.75
246.566	70.75
246.8	77.75
247.033	67.75
247.266	89.75
247.5	86.75
247.733	65.75
247.966	67.75
248.2	64.75
248.433	75.75
248.666	81.75
248.899	88.75
249.133	72.75
249.366	66.75
249.599	70.75
249.832	76.75
250.066	70.75
250.299	71.75
250.532	65.75
250.765	62.75
250.998	78.75
251.231	73.75
251.465	68.75
251.698	64.75
251.931	85.75
252.164	76.75
252.397	78.75
252.63	82.75
252.863	74.75
253.096	87.75
253.329	85.75
253.562	72.75
253.795	62.75
254.028	72.75
254.261	80.75
254.494	82.75
254.727	81.75
254.96	73.75
255.193	84.75
255.426	87.75
255.659	77.75
255.892	78.75
256.124	81.75
256.357	74.75
256.59	68.75
256.823	72.75
257.056	69.75
257.289	69.75
257.521	74.75
257.754	59.75
257.987	84.75
258.22	90.75
258.452	67.75
258.685	84.75
258.918	80.75
259.151	77.75
259.383	89.75
259.616	95.75
259.849	83.75
260.081	76.75
260.314	92.75
260.547	65.75
260.779	89.75
261.012	81.75
261.244	76.75
261.477	72.75
261.71	72.75
261.942	79.75
262.175	74.75
262.407	78.75
262.64	92.75
262.872	78.75
263.105	69.75
263.337	77.75
263.57	74.75
263.802	74.75
264.035	74.75
264.267	85.75
264.499	77.75
264.732	67.75
264.964	73.75
265.197	72.75
265.429	85.75
265.661	73.75
265.894	77.75
266.126	80.75
266.358	89.75
266.591	73.75
266.823	73.75
267.055	68.75
267.287	66.75
267.52	83.75
267.752	97.75
267.984	83.75
268.216	86.75
268.448	87.75
268.681	75.75
268.913	77.75
269.145	78.75
269.377	79.75
269.609	73.75
269.841	83.75
270.073	84.75
270.306	81.75
270.538	86.75
270.77	71.75
271.002	82.75
271.234	83.75
271.466	87.75
271.698	78.75
271.93	51.75
272.162	78.75
272.394	78.75
272.626	78.75
272.858	88.75
273.09	71.75
273.322	69.75
273.553	69.75
273.785	77.75
274.017	79.75
274.249	77.75
274.481	73.75
274.713	71.75
274.945	80.75
275.176	80.75
275.408	74.75
275.64	84.75
275.872	81.75
276.104	71.75
276.335	72.75
276.567	78.75
276.799	75.75
277.031	72.75
277.262	81.75
277.494	86.75
277.726	70.75
277.957	80.75
278.189	85.75
278.421	94.75
278.652	83.75
278.884	71.75
279.115	72.75
279.347	75.75
279.579	77.75
279.81	74.75
280.042	80.75
280.273	85.75
280.505	78.75
280.736	77.75
280.968	81.75
281.199	71.75
281.431	69.75
281.662	81.75
281.894	76.75
282.125	83.75
282.356	87.75
282.588	99.75
282.819	75.75
283.051	83.75
283.282	77.75
283.513	90.75
283.745	71.75
283.976	81.75
284.207	80.75
284.439	81.75
284.67	84.75
284.901	81.75
285.132	87.75
285.364	84.75
285.595	80.75
285.826	70.75
286.057	80.75
286.288	82.75
286.52	73.75
286.751	83.75
286.982	100.75
287.213	84.75
287.444	83.75
287.675	73.75
287.906	81.75
288.138	83.75
288.369	86.75
288.6	86.75
288.831	81.75
289.062	82.75
289.293	66.75
289.524	84.75
289.755	86.75
289.986	80.75
290.217	80.75
290.448	78.75
290.679	88.75
290.91	80.75
291.141	84.75
291.371	92.75
291.602	91.75
291.833	102.75
292.064	83.75
292.295	90.75
292.526	74.75
292.757	87.75
292.987	97.75
293.218	81.75
293.449	79.75
293.68	87.75
293.91	81.75
294.141	77.75
294.372	76.75
294.603	67.75
294.833	77.75
295.064	83.75
295.295	83.75
295.525	77.75
295.756	70.75
295.987	89.75
296.217	88.75
296.448	77.75
296.679	75.75
296.909	79.75
297.14	73.75
297.37	69.75
297.601	86.75
297.831	78.75
298.062	70.75
298.292	65.75
298.523	72.75
298.753	78.75
298.984	84.75
299.214	73.75
299.445	75.75
299.675	87.75
299.905	88.75
300.136	93.75
300.366	75.75
300.597	70.75
300.827	98.75
301.057	81.75
301.288	65.75
301.518	75.75
301.748	90.75
301.979	99.75
302.209	68.75
302.439	90.75
302.669	81.75
302.9	75.75
303.13	72.75
303.36	83.75
303.59	86.75
303.82	81.75
304.051	80.75
304.281	85.75
304.511	79.75
304.741	70.75
304.971	69.75
305.201	87.75
305.431	93.75
305.661	81.75
305.891	78.75
306.121	79.75
306.352	77.75
306.582	86.75
306.812	85.75
307.042	76.75
307.272	83.75
307.502	77.75
307.731	76.75
307.961	90.75
308.191	74.75
308.421	81.75
308.651	84.75
308.881	77.75
309.111	72.75
309.341	82.75
309.571	92.75
309.8	77.75
310.03	72.75
310.26	85.75
310.49	86.75
310.72	87.75
310.949	62.75
311.179	78.75
311.409	80.75
311.639	83.75
311.868	92.75
312.098	89.75
312.328	79.75
312.557	87.75
312.787	84.75
313.017	64.75
313.246	79.75
313.476	81.75
313.706	71.75
313.935	88.75
314.165	75.75
314.394	84.75
314.624	93.75
314.853	67.75
315.083	86.75
315.312	81.75
315.542	75.75
315.771	66.75
316.001	85.75
316.23	84.75
316.46	90.75
316.689	75.75
316.919	83.75
317.148	72.75
317.377	88.75
317.607	83.75
317.836	78.75
318.065	76.75
318.295	80.75
318.524	88.75
318.753	89.75
318.983	91.75
319.212	88.75
319.441	92.75
319.67	79.75
319.9	80.75
320.129	79.75
320.358	92.75
320.587	92.75
320.816	73.75
321.046	71.75
321.275	78.75
321.504	97.75
321.733	78.75
321.962	83.75
322.191	62.75
322.42	88.75
322.649	86.75
322.878	78.75
323.108	81.75
323.337	86.75
323.566	82.75
323.795	85.75
324.024	93.75
324.253	77.75
324.482	63.75
324.71	81.75
324.939	76.75
325.168	85.75
325.397	75.75
325.626	77.75
325.855	67.75
326.084	83.75
326.313	94.75
326.542	79.75
326.77	77.75
326.999	97.75
327.228	83.75
327.457	89.75
327.686	78.75
327.914	73.75
328.143	85.75
328.372	77.75
328.6	92.75
328.829	76.75
329.058	66.75
329.287	71.75
329.515	88.75
329.744	78.75
329.972	84.75
330.201	74.75
330.43	102.75
330.658	88.75
330.887	81.75
331.115	82.75
331.344	89.75
331.572	71.75
331.801	82.75
332.03	75.75
332.258	92.75
332.486	69.75
332.715	57.75
332.943	72.75
333.172	77.75
333.4	78.75
333.629	88.75
333.857	94.75
334.085	83.75
334.314	77.75
334.542	97.75
334.771	73.75
334.999	89.75
335.227	77.75
335.455	75.75
335.684	83.75
335.912	77.75
336.14	82.75
336.369	71.75
336.597	84.75
336.825	81.75
337.053	85.75
337.281	86.75
337.51	85.75
337.738	84.75
337.966	70.75
338.194	71.75
338.422	83.75
338.65	88.75
338.878	77.75
339.106	88.75
339.334	69.75
339.562	77.75
339.79	79.75
340.018	82.75
340.246	77.75
340.474	88.75
340.702	65.75
340.93	89.75
341.158	85.75
341.386	86.75
341.614	81.75
341.842	88.75
342.07	92.75
342.298	79.75
342.526	79.75
342.754	80.75
342.981	89.75
343.209	79.75
343.437	71.75
343.665	77.75
343.893	83.75
344.12	88.75
344.348	88.75
344.576	70.75
344.804	79.75
345.031	81.75
345.259	86.75
345.487	81.75
345.714	67.75
345.942	79.75
346.17	92.75
346.397	80.75
346.625	81.75
346.853	76.75
347.08	67.75
347.308	72.75
347.535	82.75
347.763	81.75
347.99	92.75
348.218	85.75
348.445	91.75
348.673	75.75
348.9	78.75
349.128	86.75
349.355	101.75
349.583	83.75
349.81	78.75
350.037	84.75
350.265	77.75
350.492	80.75
350.72	85.75
350.947	83.75
351.174	77.75
351.402	73.75
351.629	93.75
351.856	73.75
352.083	68.75
352.311	78.75
352.538	79.75
352.765	85.75
352.992	76.75
353.22	82.75
353.447	92.75
353.674	82.75
353.901	76.75
354.128	86.75
354.355	92.75
354.583	85.75
354.81	77.75
355.037	87.75
355.264	89.75
355.491	83.75
355.718	69.75
355.945	79.75
356.172	86.75
356.399	76.75
356.626	74.75
356.853	76.75
357.08	68.75
357.307	81.75
357.534	92.75
357.761	71.75
357.988	88.75
358.215	65.75
358.441	92.75
358.668	83.75
358.895	77.75
359.122	94.75
359.349	72.75
359.576	73.75
359.802	67.75
360.029	71.75
360.256	71.75
360.483	89.75
360.709	77.75
360.936	81.75
361.163	92.75
361.39	79.75
361.616	80.75
361.843	80.75
362.07	86.75
362.296	84.75
362.523	75.75
362.749	68.75
362.976	82.75
363.203	85.75
363.429	75.75
363.656	78.75
363.882	90.75
364.109	88.75
364.335	98.75
364.562	94.75
364.788	91.75
365.015	76.75
365.241	79.75
365.468	81.75
365.694	72.75
365.92	78.75
366.147	78.75
366.373	82.75
366.599	91.75
366.826	83.75
367.052	79.75
367.278	81.75
367.505	84.75
367.731	79.75
367.957	87.75
368.184	89.75
368.41	92.75
368.636	85.75
368.862	87.75
369.089	72.75
369.315	74.75
369.541	73.75
369.767	88.75
369.993	88.75
370.219	83.75
370.445	78.75
370.672	94.75
370.898	83.75
371.124	94.75
371.35	73.75
371.576	85.75
371.802	88.75
372.028	87.75
372.254	87.75
372.48	82.75
372.706	83.75
372.932	86.75
373.158	78.75
373.384	89.75
373.61	88.75
373.835	92.75
374.061	91.75
374.287	86.75
374.513	93.75
374.739	81.75
374.965	84.75
375.191	100.75
375.416	89.75
375.642	91.75
375.868	91.75
376.094	83.75
376.319	90.75
376.545	96.75
376.771	102.75
376.997	91.75
377.222	84.75
377.448	77.75
377.674	93.75
377.899	91.75
378.125	77.75
378.35	84.75
378.576	90.75
378.802	82.75
379.027	104.75
379.253	92.75
379.478	88.75
379.704	88.75
379.929	96.75
380.155	89.75
380.38	79.75
380.606	99.75
380.831	87.75
381.057	100.75
381.282	98.75
381.507	76.75
381.733	98.75
381.958	101.75
382.184	88.75
382.409	89.75
382.634	86.75
382.86	92.75
383.085	88.75
383.31	92.75
383.535	89.75
383.761	96.75
383.986	96.75
384.211	99.75
384.436	99.75
384.662	86.75
384.887	95.75
385.112	84.75
385.337	99.75
385.562	84.75
385.787	85.75
386.013	94.75
386.238	99.75
386.463	95.75
386.688	104.75
386.913	93.75
387.138	106.75
387.363	94.75
387.588	112.75
387.813	98.75
388.038	107.75
388.263	100.75
388.488	114.75
388.713	106.75
388.938	93.75
389.163	99.75
389.387	104.75
389.612	103.75
389.837	96.75
390.062	100.75
390.287	88.75
390.512	102.75
390.736	102.75
390.961	117.75
391.186	110.75
391.411	97.75
391.636	100.75
391.86	93.75
392.085	99.75
392.31	103.75
392.534	114.75
392.759	94.75
392.984	111.75
393.208	109.75
393.433	111.75
393.658	105.75
393.882	103.75
394.107	100.75
394.331	95.75
394.556	103.75
394.78	104.75
395.005	114.75
395.229	114.75
395.454	117.75
395.678	103.75
395.903	107.75
396.127	108.75
396.352	99.75
396.576	107.75
396.801	102.75
397.025	112.75
397.249	107.75
397.474	107.75
397.698	118.75
397.922	100.75
398.147	100.75
398.371	98.75
398.595	82.75
398.82	97.75
399.044	114.75
399.268	109.75
399.492	118.75
399.717	119.75
399.941	118.75
400.165	111.75
400.389	117.75
400.613	127.75
400.837	120.75
401.062	110.75
401.286	117.75
401.51	100.75
401.734	108.75
401.958	113.75
402.182	109.75
402.406	125.75
402.63	103.75
402.854	114.75
403.078	107.75
403.302	110.75
403.526	104.75
403.75	123.75
403.974	133.75
404.198	112.75
404.422	115.75
404.645	112.75
404.869	107.75
405.093	111.75
405.317	114.75
405.541	104.75
405.765	120.75
405.988	118.75
406.212	123.75
406.436	118.75
406.66	105.75
406.883	123.75
407.107	111.75
407.331	116.75
407.555	130.75
407.778	121.75
408.002	124.75
408.226	106.75
408.449	128.75
408.673	129.75
408.896	119.75
409.12	118.75
409.344	112.75
409.567	117.75
409.791	113.75
410.014	117.75
410.238	129.75
410.461	123.75
410.685	114.75
410.908	117.75
411.132	114.75
411.355	127.75
411.578	127.75
411.802	112.75
412.025	119.75
412.249	126.75
412.472	120.75
412.695	119.75
412.919	127.75
413.142	117.75
413.365	118.75
413.589	126.75
413.812	117.75
414.035	120.75
414.258	112.75
414.482	120.75
414.705	114.75
414.928	125.75
415.151	133.75
415.374	129.75
415.597	126.75
415.821	131.75
416.044	120.75
416.267	127.75
416.49	135.75
416.713	135.75
416.936	131.75
417.159	118.75
417.382	143.75
417.605	126.75
417.828	148.75
418.051	123.75
418.274	121.75
418.497	130.75
418.72	136.75
418.943	128.75
419.166	125.75
419.389	146.75
419.611	125.75
419.834	144.75
420.057	139.75
420.28	132.75
420.503	134.75
420.726	117.75
420.948	132.75
421.171	141.75
421.394	140.75
421.617	144.75
421.839	142.75
422.062	136.75
422.285	143.75
422.507	133.75
422.73	119.75
422.953	130.75
423.175	131.75
423.398	120.75
423.621	145.75
423.843	138.75
424.066	133.75
424.288	144.75
424.511	135.75
424.733	136.75
424.956	147.75
425.178	143.75
425.401	125.75
425.623	146.75
425.846	131.75
426.068	132.75
426.291	143.75
426.513	125.75
426.735	136.75
426.958	140.75
427.18	123.75
427.402	125.75
427.625	124.75
427.847	118.75
428.069	109.75
428.292	131.75
428.514	129.75
428.736	142.75
428.958	140.75
429.181	143.75
429.403	124.75
429.625	131.75
429.847	123.75
430.069	124.75
430.292	136.75
430.514	119.75
430.736	130.75
430.958	119.75
431.18	122.75
431.402	123.75
431.624	115.75
431.846	99.75
432.068	105.75
432.29	84.75
432.512	96.75
432.734	128.75
432.956	135.75
433.178	139.75
433.4	138.75
433.622	135.75
433.844	141.75
434.066	126.75
434.287	112.75
434.509	91.75
434.731	88.75
434.953	104.75
435.175	119.75
435.397	129.75
435.618	111.75
435.84	108.75
436.062	104.75
436.284	105.75
436.505	111.75
436.727	129.75
436.949	145.75
437.17	127.75
437.392	131.75
437.614	127.75
437.835	99.75
438.057	114.75
438.278	113.75
438.5	119.75
438.721	135.75
438.943	145.75
439.165	141.75
439.386	122.75
439.608	137.75
439.829	145.75
440.05	145.75
440.272	147.75
440.493	138.75
440.715	143.75
440.936	148.75
441.158	143.75
441.379	140.75
441.6	152.75
441.822	163.75
442.043	139.75
442.264	135.75
442.486	112.75
442.707	128.75
442.928	138.75
443.149	137.75
443.371	137.75
443.592	138.75
443.813	128.75
444.034	147.75
444.255	139.75
444.476	147.75
444.698	143.75
444.919	149.75
445.14	260.75
445.361	206.75
445.582	158.75
445.803	144.75
446.024	153.75
446.245	160.75
446.466	163.75
446.687	156.75
446.908	158.75
447.129	163.75
447.35	141.75
447.571	153.75
447.792	147.75
448.013	150.75
448.234	149.75
448.455	154.75
448.675	125.75
448.896	117.75
449.117	143.75
449.338	137.75
449.559	143.75
449.779	129.75
450	132.75
450.221	117.75
450.442	124.75
450.662	139.75
450.883	117.75
451.104	130.75
451.324	131.75
451.545	124.75
451.766	123.75
451.986	120.75
452.207	129.75
452.428	127.75
452.648	115.75
452.869	124.75
453.089	118.75
453.31	102.75
453.53	117.75
453.751	117.75
453.971	111.75
454.192	102.75
454.412	118.75
454.633	121.75
454.853	112.75
455.073	118.75
455.294	134.75
455.514	127.75
455.734	113.75
455.955	110.75
456.175	125.75
456.395	118.75
456.616	92.75
456.836	121.75
457.056	105.75
457.276	107.75
457.497	103.75
457.717	107.75
457.937	111.75
458.157	90.75
458.377	104.75
458.598	98.75
458.818	97.75
459.038	83.75
459.258	81.75
459.478	100.75
459.698	89.75
459.918	101.75
460.138	101.75
460.358	112.75
460.578	112.75
460.798	108.75
461.018	113.75
461.238	122.75
461.458	119.75
461.678	105.75
461.898	108.75
462.118	111.75
462.338	109.75
462.558	109.75
462.777	116.75
462.997	121.75
463.217	103.75
463.437	120.75
463.657	117.75
463.876	109.75
464.096	109.75
464.316	105.75
464.536	117.75
464.755	118.75
464.975	128.75
465.195	124.75
465.414	122.75
465.634	102.75
465.854	120.75
466.073	115.75
466.293	109.75
466.512	122.75
466.732	131.75
466.951	141.75
467.171	139.75
467.391	123.75
467.61	151.75
467.829	136.75
468.049	146.75
468.268	135.75
468.488	121.75
468.707	128.75
468.927	146.75
469.146	132.75
469.365	136.75
469.585	151.75
469.804	137.75
470.023	139.75
470.243	134.75
470.462	145.75
470.681	153.75
470.901	142.75
471.12	148.75
471.339	143.75
471.558	149.75
471.777	137.75
471.997	133.75
472.216	129.75
472.435	118.75
472.654	104.75
472.873	105.75
473.092	111.75
473.311	121.75
473.53	131.75
473.749	141.75
473.968	133.75
474.187	121.75
474.406	119.75
474.625	129.75
474.844	141.75
475.063	137.75
475.282	133.75
475.501	108.75
475.72	133.75
475.939	113.75
476.158	129.75
476.377	142.75
476.596	134.75
476.814	128.75
477.033	112.75
477.252	112.75
477.471	125.75
477.69	127.75
477.908	136.75
478.127	144.75
478.346	133.75
478.564	136.75
478.783	128.75
479.002	129.75
479.22	147.75
479.439	134.75
479.658	129.75
479.876	110.75
480.095	117.75
480.313	112.75
480.532	118.75
480.751	119.75
480.969	92.75
481.188	81.75
481.406	71.75
481.624	94.75
481.843	86.75
482.061	94.75
482.28	118.75
482.498	119.75
482.717	109.75
482.935	112.75
483.153	148.75
483.372	159.75
483.59	141.75
483.808	144.75
484.027	122.75
484.245	141.75
484.463	146.75
484.681	179.75
484.9	164.75
485.118	136.75
485.336	121.75
485.554	116.75
485.772	95.75
485.99	94.75
486.209	109.75
486.427	105.75
486.645	116.75
486.863	132.75
487.081	138.75
487.299	129.75
487.517	131.75
487.735	168.75
487.953	187.75
488.171	163.75
488.389	179.75
488.607	176.75
488.825	153.75
489.043	131.75
489.261	149.75
489.479	130.75
489.696	144.75
489.914	131.75
490.132	141.75
490.35	143.75
490.568	156.75
490.786	174.75
491.003	182.75
491.221	195.75
491.439	192.75
491.657	203.75
491.874	208.75
492.092	231.75
492.31	249.75
492.527	226.75
492.745	211.75
492.963	193.75
493.18	207.75
493.398	190.75
493.615	195.75
493.833	178.75
494.05	175.75
494.268	175.75
494.485	182.75
494.703	176.75
494.92	196.75
495.138	175.75
495.355	175.75
495.573	173.75
495.79	182.75
496.008	178.75
496.225	187.75
496.442	149.75
496.66	179.75
496.877	175.75
497.094	188.75
497.312	159.75
497.529	157.75
497.746	146.75
497.963	129.75
498.181	138.75
498.398	123.75
498.615	128.75
498.832	119.75
499.049	113.75
499.267	125.75
499.484	133.75
499.701	141.75
499.918	125.75
500.135	133.75
500.352	140.75
500.569	153.75
500.786	127.75
501.003	155.75
501.22	148.75
501.437	128.75
501.654	136.75
501.871	130.75
502.088	123.75
502.305	146.75
502.522	138.75
502.739	138.75
502.956	117.75
503.172	134.75
503.389	123.75
503.606	112.75
503.823	123.75
504.04	123.75
504.256	121.75
504.473	123.75
504.69	127.75
504.907	119.75
505.123	113.75
505.34	113.75
505.557	137.75
505.773	126.75
505.99	129.75
506.207	143.75
506.423	117.75
506.64	131.75
506.856	116.75
507.073	122.75
507.289	112.75
507.506	126.75
507.722	108.75
507.939	110.75
508.155	123.75
508.372	118.75
508.588	100.75
508.805	111.75
509.021	94.75
509.238	101.75
509.454	115.75
509.67	102.75
509.887	95.75
510.103	113.75
510.319	94.75
510.536	100.75
510.752	80.75
510.968	74.75
511.184	91.75
511.401	76.75
511.617	99.75
511.833	94.75
512.049	91.75
512.265	104.75
512.481	91.75
512.698	106.75
512.914	83.75
513.13	97.75
513.346	84.75
513.562	81.75
513.778	89.75
513.994	97.75
514.21	85.75
514.426	91.75
514.642	91.75
514.858	88.75
515.074	89.75
515.29	76.75
515.506	98.75
515.721	92.75
515.937	96.75
516.153	80.75
516.369	100.75
516.585	80.75
516.801	83.75
517.016	84.75
517.232	81.75
517.448	92.75
517.664	84.75
517.879	94.75
518.095	100.75
518.311	81.75
518.527	94.75
518.742	97.75
518.958	88.75
519.173	109.75
519.389	111.75
519.605	102.75
519.82	109.75
520.036	112.75
520.251	99.75
520.467	101.75
520.682	100.75
520.898	89.75
521.113	92.75
521.329	86.75
521.544	81.75
521.76	97.75
521.975	111.75
522.19	98.75
522.406	100.75
522.621	106.75
522.836	103.75
523.052	110.75
523.267	99.75
523.482	120.75
523.698	109.75
523.913	127.75
524.128	115.75
524.343	114.75
524.559	118.75
524.774	116.75
524.989	114.75
525.204	120.75
525.419	130.75
525.634	103.75
525.849	119.75
526.064	112.75
526.28	94.75
526.495	101.75
526.71	78.75
526.925	74.75
527.14	79.75
527.355	83.75
527.57	80.75
527.785	84.75
527.999	96.75
528.214	100.75
528.429	114.75
528.644	121.75
528.859	125.75
529.074	151.75
529.289	155.75
529.503	170.75
529.718	149.75
529.933	128.75
530.148	104.75
530.363	100.75
530.577	84.75
530.792	83.75
531.007	75.75
531.221	75.75
531.436	82.75
531.651	84.75
531.865	93.75
532.08	86.75
532.295	75.75
532.509	77.75
532.724	79.75
532.938	93.75
533.153	94.75
533.367	116.75
533.582	113.75
533.796	119.75
534.011	117.75
534.225	108.75
534.44	88.75
534.654	93.75
534.868	102.75
535.083	102.75
535.297	90.75
535.511	111.75
535.726	107.75
535.94	102.75
536.154	99.75
536.369	95.75
536.583	87.75
536.797	91.75
537.011	76.75
537.225	89.75
537.44	88.75
537.654	92.75
537.868	91.75
538.082	87.75
538.296	91.75
538.51	101.75
538.724	99.75
538.938	120.75
539.153	123.75
539.367	114.75
539.581	123.75
539.795	96.75
540.009	109.75
540.222	87.75
540.436	109.75
540.65	115.75
540.864	123.75
541.078	121.75
541.292	145.75
541.506	161.75
541.72	169.75
541.934	205.75
542.147	220.75
542.361	191.75
542.575	164.75
542.789	150.75
543.002	134.75
543.216	122.75
543.43	131.75
543.644	132.75
543.857	152.75
544.071	175.75
544.285	164.75
544.498	173.75
544.712	147.75
544.925	155.75
545.139	173.75
545.352	164.75
545.566	151.75
545.779	158.75
545.993	176.75
546.206	172.75
546.42	175.75
546.633	161.75
546.847	168.75
547.06	166.75
547.274	152.75
547.487	179.75
547.7	179.75
547.914	174.75
548.127	161.75
548.34	164.75
548.554	160.75
548.767	160.75
548.98	166.75
549.193	134.75
549.407	147.75
549.62	143.75
549.833	147.75
550.046	156.75
550.259	145.75
550.473	155.75
550.686	148.75
550.899	145.75
551.112	143.75
551.325	142.75
551.538	136.75
551.751	137.75
551.964	135.75
552.177	130.75
552.39	148.75
552.603	152.75
552.816	155.75
553.029	151.75
553.242	160.75
553.455	168.75
553.667	151.75
553.88	151.75
554.093	145.75
554.306	142.75
554.519	146.75
554.732	144.75
554.944	144.75
555.157	158.75
555.37	151.75
555.583	134.75
555.795	141.75
556.008	145.75
556.221	134.75
556.433	143.75
556.646	135.75
556.859	137.75
557.071	136.75
557.284	136.75
557.496	137.75
557.709	144.75
557.921	151.75
558.134	132.75
558.346	125.75
558.559	135.75
558.771	149.75
558.984	134.75
559.196	137.75
559.409	121.75
559.621	140.75
559.833	137.75
560.046	135.75
560.258	138.75
560.47	143.75
560.683	134.75
560.895	112.75
561.107	135.75
561.32	135.75
561.532	142.75
561.744	131.75
561.956	144.75
562.168	134.75
562.381	132.75
562.593	137.75
562.805	144.75
563.017	137.75
563.229	128.75
563.441	124.75
563.653	122.75
563.865	123.75
564.077	127.75
564.289	112.75
564.501	138.75
564.713	127.75
564.925	120.75
565.137	111.75
565.349	127.75
565.561	114.75
565.773	113.75
565.985	134.75
566.197	124.75
566.408	124.75
566.62	124.75
566.832	109.75
567.044	119.75
567.255	123.75
567.467	120.75
567.679	119.75
567.891	100.75
568.102	111.75
568.314	81.75
568.526	93.75
568.737	84.75
568.949	72.75
569.161	72.75
569.372	74.75
569.584	74.75
569.795	72.75
570.007	74.75
570.218	93.75
570.43	92.75
570.641	83.75
570.853	76.75
571.064	104.75
571.276	115.75
571.487	111.75
571.698	99.75
571.91	95.75
572.121	114.75
572.333	94.75
572.544	95.75
572.755	87.75
572.966	87.75
573.178	84.75
573.389	92.75
573.6	84.75
573.811	90.75
574.023	87.75
574.234	68.75
574.445	85.75
574.656	87.75
574.867	95.75
575.078	107.75
575.289	97.75
575.501	88.75
575.712	108.75
575.923	100.75
576.134	105.75
576.345	95.75
576.556	82.75
576.767	98.75
576.978	97.75
577.188	98.75
577.399	103.75
577.61	95.75
577.821	95.75
578.032	108.75
578.243	89.75
578.454	91.75
578.665	88.75
578.875	99.75
579.086	73.75
579.297	76.75
579.508	71.75
579.718	80.75
579.929	83.75
580.14	86.75
580.35	78.75
580.561	82.75
580.772	93.75
580.982	79.75
581.193	76.75
581.403	81.75
581.614	96.75
581.825	89.75
582.035	82.75
582.246	80.75
582.456	81.75
582.667	103.75
582.877	93.75
583.087	84.75
583.298	93.75
583.508	86.75
583.719	88.75
583.929	96.75
584.139	94.75
584.35	88.75
584.56	87.75
584.77	88.75
584.981	81.75
585.191	79.75
585.401	100.75
585.611	82.75
585.821	88.75
586.032	83.75
586.242	81.75
586.452	71.75
586.662	92.75
586.872	90.75
587.082	87.75
587.292	79.75
587.502	90.75
587.713	86.75
587.923	87.75
588.133	88.75
588.343	71.75
588.553	68.75
588.762	87.75
588.972	85.75
589.182	83.75
589.392	95.75
589.602	74.75
589.812	82.75
590.022	91.75
590.232	72.75
590.441	82.75
590.651	83.75
590.861	91.75
591.071	84.75
591.281	79.75
591.49	89.75
591.7	79.75
591.91	91.75
592.119	97.75
592.329	78.75
592.539	82.75
592.748	92.75
592.958	88.75
593.167	71.75
593.377	74.75
593.587	77.75
593.796	89.75
594.006	87.75
594.215	86.75
594.424	94.75
594.634	83.75
594.843	92.75
595.053	98.75
595.262	99.75
595.472	89.75
595.681	86.75
595.89	72.75
596.1	106.75
596.309	91.75
596.518	92.75
596.727	94.75
596.937	95.75
597.146	92.75
597.355	101.75
597.564	99.75
597.774	89.75
597.983	83.75
598.192	73.75
598.401	76.75
598.61	84.75
598.819	93.75
599.028	93.75
599.237	88.75
599.446	82.75
599.655	82.75
599.864	90.75
600.073	96.75
600.282	82.75
600.491	80.75
600.7	88.75
600.909	85.75
601.118	111.75
601.327	115.75
601.536	103.75
601.745	93.75
601.953	97.75
602.162	97.75
602.371	108.75
602.58	110.75
602.789	87.75
602.997	107.75
603.206	108.75
603.415	94.75
603.623	123.75
603.832	106.75
604.041	113.75
604.249	103.75
604.458	91.75
604.666	103.75
604.875	94.75
605.084	99.75
605.292	112.75
605.501	111.75
605.709	109.75
605.918	116.75
606.126	113.75
606.334	116.75
606.543	102.75
606.751	108.75
606.96	119.75
607.168	103.75
607.376	113.75
607.585	108.75
607.793	109.75
608.001	114.75
608.21	116.75
608.418	102.75
608.626	102.75
608.834	121.75
609.043	109.75
609.251	112.75
609.459	115.75
609.667	119.75
609.875	125.75
610.083	126.75
610.291	104.75
610.499	101.75
610.707	116.75
610.916	100.75
611.124	115.75
611.332	104.75
611.54	119.75
611.748	117.75
611.955	116.75
612.163	107.75
612.371	119.75
612.579	96.75
612.787	107.75
612.995	106.75
613.203	110.75
613.411	110.75
613.618	92.75
613.826	105.75
614.034	112.75
614.242	110.75
614.449	100.75
614.657	122.75
614.865	110.75
615.072	110.75
615.28	112.75
615.488	108.75
615.695	117.75
615.903	106.75
616.111	115.75
616.318	109.75
616.526	116.75
616.733	115.75
616.941	117.75
617.148	114.75
617.356	109.75
617.563	112.75
617.771	99.75
617.978	111.75
618.185	116.75
618.393	110.75
618.6	100.75
618.807	111.75
619.015	110.75
619.222	132.75
619.429	112.75
619.637	109.75
619.844	95.75
620.051	94.75
620.258	107.75
620.466	109.75
620.673	112.75
620.88	112.75
621.087	98.75
621.294	119.75
621.501	97.75
621.708	111.75
621.915	109.75
622.122	114.75
622.329	103.75
622.536	103.75
622.743	104.75
622.95	95.75
623.157	98.75
623.364	100.75
623.571	111.75
623.778	111.75
623.985	110.75
624.192	116.75
624.399	100.75
624.606	91.75
624.812	92.75
625.019	98.75
625.226	116.75
625.433	108.75
625.639	107.75
625.846	105.75
626.053	81.75
626.259	83.75
626.466	88.75
626.673	82.75
626.879	92.75
627.086	89.75
627.293	96.75
627.499	102.75
627.706	102.75
627.912	89.75
628.119	91.75
628.325	100.75
628.532	101.75
628.738	105.75
628.945	92.75
629.151	97.75
629.357	88.75
629.564	103.75
629.77	112.75
629.976	104.75
630.183	105.75
630.389	103.75
630.595	94.75
630.802	94.75
631.008	108.75
631.214	99.75
631.42	95.75
631.627	103.75
631.833	95.75
632.039	95.75
632.245	93.75
632.451	83.75
632.657	113.75
632.863	92.75
633.069	101.75
633.275	100.75
633.481	103.75
633.688	108.75
633.893	96.75
634.099	89.75
634.305	91.75
634.511	91.75
634.717	104.75
634.923	89.75
635.129	94.75
635.335	81.75
635.541	76.75
635.747	87.75
635.952	87.75
636.158	116.75
636.364	117.75
636.57	107.75
636.775	100.75
636.981	85.75
637.187	77.75
637.392	92.75
637.598	107.75
637.804	95.75
638.009	99.75
638.215	99.75
638.421	87.75
638.626	94.75
638.832	77.75
639.037	99.75
639.243	98.75
639.448	94.75
639.654	105.75
639.859	97.75
640.065	87.75
640.27	101.75
640.475	88.75
640.681	95.75
640.886	93.75
641.091	96.75
641.297	95.75
641.502	97.75
641.707	96.75
641.913	103.75
642.118	96.75
642.323	89.75
642.528	108.75
642.733	83.75
642.939	101.75
643.144	104.75
643.349	100.75
643.554	92.75
643.759	94.75
643.964	91.75
644.169	94.75
644.374	93.75
644.579	96.75
644.784	109.75
644.989	99.75
645.194	93.75
645.399	102.75
645.604	101.75
645.809	105.75
646.014	92.75
646.219	73.75
646.423	98.75
646.628	95.75
646.833	94.75
647.038	88.75
647.243	98.75
647.447	87.75
647.652	104.75
647.857	75.75
648.062	101.75
648.266	97.75
648.471	95.75
648.676	92.75
648.88	87.75
649.085	109.75
649.289	105.75
649.494	101.75
649.698	91.75
649.903	92.75
650.107	106.75
650.312	85.75
650.516	96.75
650.721	78.75
650.925	85.75
651.13	83.75
651.334	103.75
651.539	101.75
651.743	77.75
651.947	102.75
652.152	86.75
652.356	101.75
652.56	87.75
652.764	87.75
652.969	78.75
653.173	88.75
653.377	98.75
653.581	77.75
653.785	97.75
653.99	95.75
654.194	92.75
654.398	96.75
654.602	99.75
654.806	77.75
655.01	87.75
655.214	66.75
655.418	101.75
655.622	88.75
655.826	92.75
656.03	85.75
656.234	96.75
656.438	77.75
656.642	87.75
656.846	86.75
657.049	84.75
657.253	75.75
657.457	94.75
657.661	87.75
657.865	89.75
658.068	85.75
658.272	73.75
658.476	73.75
658.68	82.75
658.883	102.75
659.087	85.75
659.291	88.75
659.494	89.75
659.698	104.75
659.901	92.75
660.105	78.75
660.309	88.75
660.512	100.75
660.716	94.75
660.919	82.75
661.123	71.75
661.326	72.75
661.53	69.75
661.733	73.75
661.936	84.75
662.14	72.75
662.343	85.75
662.546	69.75
662.75	79.75
662.953	85.75
663.156	88.75
663.36	76.75
663.563	77.75
663.766	68.75
663.969	80.75
664.173	75.75
664.376	86.75
664.579	78.75
664.782	71.75
664.985	79.75
665.188	86.75
665.391	80.75
665.594	78.75
665.797	76.75
666	83.75
666.203	68.75
666.406	70.75
666.609	80.75
666.812	92.75
667.015	87.75
667.218	94.75
667.421	67.75
667.624	83.75
667.827	67.75
668.03	75.75
668.232	69.75
668.435	77.75
668.638	71.75
668.841	71.75
669.043	78.75
669.246	65.75
669.449	77.75
669.651	79.75
669.854	76.75
670.057	77.75
670.259	73.75
670.462	88.75
670.665	81.75
670.867	67.75
671.07	76.75
671.272	79.75
671.475	78.75
671.677	80.75
671.88	65.75
672.082	79.75
672.284	77.75
672.487	93.75
672.689	75.75
672.892	85.75
