Data from Location6.07152019.Energy5.Lamp.07192019.3%Agarose_HRD10591_16-12-00-397.txt Node
Date: Fri Jul 19 16:12:00 EDT 2019
User: cochatt
Spectrometer: HR+D1059
Trigger mode: 1
Integration Time (sec): 1.000000E-1
Scans to average: 1
Electric dark correction enabled: true
Nonlinearity correction enabled: false
Boxcar width: 0
XAxis mode: Wavelengths
Number of Pixels in Spectrum: 2048
>>>>>Begin Spectral Data<<<<<
223.165	-12.62
223.4	-12.62
223.635	-12.62
223.869	-12.62
224.104	-17.62
224.338	-12.62
224.573	-16.62
224.808	-2.62
225.042	-14.62
225.277	-13.62
225.511	-6.62
225.746	-4.62
225.98	18.38
226.215	32.38
226.449	16.38
226.683	20.38
226.918	4.38
227.152	22.38
227.387	39.38
227.621	45.38
227.856	58.38
228.09	39.38
228.324	65.38
228.559	50.38
228.793	50.38
229.027	70.38
229.262	68.38
229.496	57.38
229.73	65.38
229.964	70.38
230.199	71.38
230.433	83.38
230.667	73.38
230.901	78.38
231.136	79.38
231.37	71.38
231.604	88.38
231.838	82.38
232.072	81.38
232.306	93.38
232.541	86.38
232.775	90.38
233.009	73.38
233.243	82.38
233.477	72.38
233.711	78.38
233.945	85.38
234.179	83.38
234.413	81.38
234.647	66.38
234.881	78.38
235.115	79.38
235.349	69.38
235.583	78.38
235.817	92.38
236.051	79.38
236.285	62.38
236.519	77.38
236.753	79.38
236.987	83.38
237.221	69.38
237.455	80.38
237.689	74.38
237.922	71.38
238.156	85.38
238.39	72.38
238.624	73.38
238.858	80.38
239.091	67.38
239.325	77.38
239.559	85.38
239.793	75.38
240.027	89.38
240.26	74.38
240.494	69.38
240.728	81.38
240.961	72.38
241.195	75.38
241.429	78.38
241.662	85.38
241.896	78.38
242.13	75.38
242.363	73.38
242.597	71.38
242.83	85.38
243.064	62.38
243.298	73.38
243.531	93.38
243.765	70.38
243.998	75.38
244.232	87.38
244.465	99.38
244.699	84.38
244.932	73.38
245.166	71.38
245.399	86.38
245.633	78.38
245.866	75.38
246.099	79.38
246.333	81.38
246.566	87.38
246.8	82.38
247.033	80.38
247.266	70.38
247.5	79.38
247.733	65.38
247.966	66.38
248.2	92.38
248.433	71.38
248.666	79.38
248.899	85.38
249.133	84.38
249.366	75.38
249.599	74.38
249.832	81.38
250.066	93.38
250.299	80.38
250.532	84.38
250.765	73.38
250.998	68.38
251.231	70.38
251.465	84.38
251.698	88.38
251.931	75.38
252.164	71.38
252.397	53.38
252.63	85.38
252.863	76.38
253.096	87.38
253.329	76.38
253.562	87.38
253.795	82.38
254.028	90.38
254.261	89.38
254.494	71.38
254.727	94.38
254.96	96.38
255.193	73.38
255.426	77.38
255.659	79.38
255.892	95.38
256.124	83.38
256.357	86.38
256.59	84.38
256.823	77.38
257.056	88.38
257.289	72.38
257.521	88.38
257.754	69.38
257.987	87.38
258.22	88.38
258.452	78.38
258.685	87.38
258.918	63.38
259.151	82.38
259.383	76.38
259.616	70.38
259.849	85.38
260.081	78.38
260.314	81.38
260.547	80.38
260.779	86.38
261.012	70.38
261.244	81.38
261.477	88.38
261.71	79.38
261.942	90.38
262.175	87.38
262.407	78.38
262.64	87.38
262.872	72.38
263.105	69.38
263.337	85.38
263.57	97.38
263.802	82.38
264.035	86.38
264.267	74.38
264.499	81.38
264.732	91.38
264.964	73.38
265.197	69.38
265.429	97.38
265.661	78.38
265.894	83.38
266.126	82.38
266.358	69.38
266.591	87.38
266.823	84.38
267.055	85.38
267.287	84.38
267.52	85.38
267.752	93.38
267.984	83.38
268.216	86.38
268.448	63.38
268.681	76.38
268.913	80.38
269.145	77.38
269.377	104.38
269.609	82.38
269.841	72.38
270.073	85.38
270.306	75.38
270.538	76.38
270.77	69.38
271.002	78.38
271.234	83.38
271.466	76.38
271.698	77.38
271.93	83.38
272.162	74.38
272.394	74.38
272.626	82.38
272.858	71.38
273.09	79.38
273.322	72.38
273.553	79.38
273.785	75.38
274.017	77.38
274.249	100.38
274.481	88.38
274.713	77.38
274.945	60.38
275.176	83.38
275.408	75.38
275.64	96.38
275.872	83.38
276.104	89.38
276.335	73.38
276.567	85.38
276.799	84.38
277.031	76.38
277.262	87.38
277.494	95.38
277.726	73.38
277.957	97.38
278.189	72.38
278.421	100.38
278.652	79.38
278.884	86.38
279.115	75.38
279.347	79.38
279.579	80.38
279.81	80.38
280.042	84.38
280.273	74.38
280.505	76.38
280.736	84.38
280.968	82.38
281.199	81.38
281.431	76.38
281.662	81.38
281.894	80.38
282.125	89.38
282.356	75.38
282.588	86.38
282.819	96.38
283.051	86.38
283.282	97.38
283.513	102.38
283.745	90.38
283.976	86.38
284.207	92.38
284.439	65.38
284.67	86.38
284.901	74.38
285.132	85.38
285.364	81.38
285.595	83.38
285.826	78.38
286.057	89.38
286.288	80.38
286.52	76.38
286.751	86.38
286.982	78.38
287.213	75.38
287.444	92.38
287.675	89.38
287.906	106.38
288.138	82.38
288.369	91.38
288.6	88.38
288.831	82.38
289.062	109.38
289.293	85.38
289.524	93.38
289.755	69.38
289.986	101.38
290.217	92.38
290.448	88.38
290.679	82.38
290.91	85.38
291.141	77.38
291.371	85.38
291.602	82.38
291.833	91.38
292.064	90.38
292.295	82.38
292.526	76.38
292.757	82.38
292.987	76.38
293.218	82.38
293.449	81.38
293.68	69.38
293.91	83.38
294.141	81.38
294.372	83.38
294.603	93.38
294.833	70.38
295.064	88.38
295.295	84.38
295.525	74.38
295.756	88.38
295.987	73.38
296.217	86.38
296.448	76.38
296.679	82.38
296.909	78.38
297.14	85.38
297.37	76.38
297.601	96.38
297.831	81.38
298.062	82.38
298.292	64.38
298.523	76.38
298.753	74.38
298.984	90.38
299.214	73.38
299.445	80.38
299.675	79.38
299.905	80.38
300.136	71.38
300.366	74.38
300.597	91.38
300.827	97.38
301.057	90.38
301.288	88.38
301.518	83.38
301.748	79.38
301.979	88.38
302.209	81.38
302.439	70.38
302.669	83.38
302.9	82.38
303.13	93.38
303.36	80.38
303.59	89.38
303.82	89.38
304.051	88.38
304.281	85.38
304.511	87.38
304.741	97.38
304.971	86.38
305.201	74.38
305.431	101.38
305.661	72.38
305.891	96.38
306.121	73.38
306.352	74.38
306.582	79.38
306.812	73.38
307.042	63.38
307.272	82.38
307.502	98.38
307.731	71.38
307.961	82.38
308.191	93.38
308.421	85.38
308.651	90.38
308.881	85.38
309.111	82.38
309.341	71.38
309.571	84.38
309.8	84.38
310.03	88.38
310.26	98.38
310.49	90.38
310.72	75.38
310.949	87.38
311.179	87.38
311.409	73.38
311.639	85.38
311.868	93.38
312.098	93.38
312.328	84.38
312.557	90.38
312.787	73.38
313.017	82.38
313.246	83.38
313.476	91.38
313.706	72.38
313.935	75.38
314.165	82.38
314.394	90.38
314.624	87.38
314.853	83.38
315.083	67.38
315.312	66.38
315.542	82.38
315.771	80.38
316.001	78.38
316.23	71.38
316.46	77.38
316.689	79.38
316.919	86.38
317.148	94.38
317.377	83.38
317.607	79.38
317.836	88.38
318.065	83.38
318.295	75.38
318.524	64.38
318.753	80.38
318.983	83.38
319.212	77.38
319.441	85.38
319.67	75.38
319.9	84.38
320.129	81.38
320.358	85.38
320.587	81.38
320.816	77.38
321.046	94.38
321.275	87.38
321.504	72.38
321.733	78.38
321.962	85.38
322.191	90.38
322.42	79.38
322.649	76.38
322.878	85.38
323.108	75.38
323.337	80.38
323.566	75.38
323.795	89.38
324.024	91.38
324.253	69.38
324.482	79.38
324.71	81.38
324.939	79.38
325.168	80.38
325.397	86.38
325.626	100.38
325.855	80.38
326.084	95.38
326.313	86.38
326.542	87.38
326.77	74.38
326.999	90.38
327.228	93.38
327.457	79.38
327.686	82.38
327.914	89.38
328.143	87.38
328.372	95.38
328.6	99.38
328.829	85.38
329.058	86.38
329.287	82.38
329.515	91.38
329.744	95.38
329.972	77.38
330.201	90.38
330.43	77.38
330.658	69.38
330.887	78.38
331.115	87.38
331.344	78.38
331.572	89.38
331.801	78.38
332.03	73.38
332.258	82.38
332.486	83.38
332.715	89.38
332.943	85.38
333.172	81.38
333.4	78.38
333.629	78.38
333.857	75.38
334.085	84.38
334.314	86.38
334.542	74.38
334.771	83.38
334.999	85.38
335.227	67.38
335.455	74.38
335.684	96.38
335.912	88.38
336.14	86.38
336.369	79.38
336.597	73.38
336.825	81.38
337.053	81.38
337.281	86.38
337.51	79.38
337.738	96.38
337.966	85.38
338.194	88.38
338.422	90.38
338.65	72.38
338.878	90.38
339.106	87.38
339.334	79.38
339.562	66.38
339.79	93.38
340.018	90.38
340.246	85.38
340.474	70.38
340.702	86.38
340.93	81.38
341.158	68.38
341.386	84.38
341.614	90.38
341.842	89.38
342.07	78.38
342.298	89.38
342.526	73.38
342.754	70.38
342.981	75.38
343.209	86.38
343.437	84.38
343.665	83.38
343.893	71.38
344.12	88.38
344.348	95.38
344.576	88.38
344.804	96.38
345.031	86.38
345.259	83.38
345.487	87.38
345.714	75.38
345.942	74.38
346.17	83.38
346.397	84.38
346.625	81.38
346.853	80.38
347.08	69.38
347.308	85.38
347.535	84.38
347.763	98.38
347.99	90.38
348.218	85.38
348.445	83.38
348.673	89.38
348.9	91.38
349.128	86.38
349.355	96.38
349.583	86.38
349.81	69.38
350.037	94.38
350.265	81.38
350.492	69.38
350.72	80.38
350.947	80.38
351.174	88.38
351.402	78.38
351.629	98.38
351.856	69.38
352.083	84.38
352.311	75.38
352.538	82.38
352.765	71.38
352.992	81.38
353.22	68.38
353.447	81.38
353.674	74.38
353.901	80.38
354.128	87.38
354.355	97.38
354.583	84.38
354.81	80.38
355.037	91.38
355.264	86.38
355.491	91.38
355.718	79.38
355.945	103.38
356.172	91.38
356.399	83.38
356.626	94.38
356.853	87.38
357.08	77.38
357.307	74.38
357.534	79.38
357.761	80.38
357.988	82.38
358.215	68.38
358.441	79.38
358.668	72.38
358.895	85.38
359.122	89.38
359.349	80.38
359.576	74.38
359.802	83.38
360.029	79.38
360.256	88.38
360.483	85.38
360.709	72.38
360.936	95.38
361.163	85.38
361.39	89.38
361.616	81.38
361.843	78.38
362.07	82.38
362.296	86.38
362.523	86.38
362.749	78.38
362.976	91.38
363.203	91.38
363.429	85.38
363.656	79.38
363.882	93.38
364.109	76.38
364.335	77.38
364.562	93.38
364.788	92.38
365.015	92.38
365.241	89.38
365.468	86.38
365.694	67.38
365.92	78.38
366.147	99.38
366.373	81.38
366.599	92.38
366.826	90.38
367.052	88.38
367.278	86.38
367.505	90.38
367.731	88.38
367.957	89.38
368.184	82.38
368.41	99.38
368.636	85.38
368.862	98.38
369.089	81.38
369.315	99.38
369.541	95.38
369.767	89.38
369.993	87.38
370.219	94.38
370.445	94.38
370.672	95.38
370.898	77.38
371.124	78.38
371.35	99.38
371.576	93.38
371.802	83.38
372.028	88.38
372.254	89.38
372.48	90.38
372.706	100.38
372.932	83.38
373.158	102.38
373.384	88.38
373.61	82.38
373.835	91.38
374.061	95.38
374.287	94.38
374.513	74.38
374.739	95.38
374.965	80.38
375.191	93.38
375.416	85.38
375.642	89.38
375.868	82.38
376.094	96.38
376.319	94.38
376.545	90.38
376.771	72.38
376.997	92.38
377.222	91.38
377.448	89.38
377.674	91.38
377.899	96.38
378.125	97.38
378.35	95.38
378.576	100.38
378.802	78.38
379.027	81.38
379.253	79.38
379.478	82.38
379.704	103.38
379.929	96.38
380.155	90.38
380.38	91.38
380.606	78.38
380.831	93.38
381.057	105.38
381.282	97.38
381.507	91.38
381.733	103.38
381.958	105.38
382.184	89.38
382.409	96.38
382.634	88.38
382.86	80.38
383.085	104.38
383.31	96.38
383.535	99.38
383.761	103.38
383.986	90.38
384.211	90.38
384.436	88.38
384.662	98.38
384.887	93.38
385.112	96.38
385.337	90.38
385.562	102.38
385.787	109.38
386.013	115.38
386.238	99.38
386.463	101.38
386.688	103.38
386.913	95.38
387.138	103.38
387.363	119.38
387.588	103.38
387.813	96.38
388.038	101.38
388.263	109.38
388.488	100.38
388.713	101.38
388.938	117.38
389.163	81.38
389.387	100.38
389.612	98.38
389.837	100.38
390.062	100.38
390.287	102.38
390.512	92.38
390.736	91.38
390.961	91.38
391.186	98.38
391.411	102.38
391.636	103.38
391.86	103.38
392.085	94.38
392.31	98.38
392.534	103.38
392.759	120.38
392.984	113.38
393.208	112.38
393.433	104.38
393.658	99.38
393.882	103.38
394.107	104.38
394.331	116.38
394.556	105.38
394.78	101.38
395.005	99.38
395.229	102.38
395.454	101.38
395.678	103.38
395.903	101.38
396.127	111.38
396.352	107.38
396.576	105.38
396.801	117.38
397.025	113.38
397.249	98.38
397.474	117.38
397.698	106.38
397.922	118.38
398.147	105.38
398.371	103.38
398.595	104.38
398.82	107.38
399.044	117.38
399.268	117.38
399.492	107.38
399.717	112.38
399.941	110.38
400.165	99.38
400.389	106.38
400.613	119.38
400.837	103.38
401.062	107.38
401.286	114.38
401.51	114.38
401.734	118.38
401.958	107.38
402.182	97.38
402.406	115.38
402.63	113.38
402.854	99.38
403.078	124.38
403.302	102.38
403.526	123.38
403.75	101.38
403.974	131.38
404.198	121.38
404.422	107.38
404.645	97.38
404.869	108.38
405.093	113.38
405.317	117.38
405.541	115.38
405.765	122.38
405.988	98.38
406.212	129.38
406.436	119.38
406.66	121.38
406.883	135.38
407.107	120.38
407.331	123.38
407.555	133.38
407.778	125.38
408.002	102.38
408.226	118.38
408.449	104.38
408.673	109.38
408.896	115.38
409.12	119.38
409.344	136.38
409.567	133.38
409.791	125.38
410.014	138.38
410.238	122.38
410.461	113.38
410.685	132.38
410.908	125.38
411.132	131.38
411.355	137.38
411.578	131.38
411.802	142.38
412.025	127.38
412.249	128.38
412.472	125.38
412.695	124.38
412.919	125.38
413.142	121.38
413.365	129.38
413.589	124.38
413.812	123.38
414.035	137.38
414.258	140.38
414.482	122.38
414.705	122.38
414.928	106.38
415.151	129.38
415.374	133.38
415.597	124.38
415.821	141.38
416.044	127.38
416.267	127.38
416.49	128.38
416.713	133.38
416.936	129.38
417.159	131.38
417.382	148.38
417.605	126.38
417.828	135.38
418.051	126.38
418.274	133.38
418.497	137.38
418.72	134.38
418.943	139.38
419.166	133.38
419.389	133.38
419.611	127.38
419.834	129.38
420.057	127.38
420.28	129.38
420.503	137.38
420.726	150.38
420.948	131.38
421.171	141.38
421.394	147.38
421.617	143.38
421.839	146.38
422.062	127.38
422.285	131.38
422.507	137.38
422.73	125.38
422.953	128.38
423.175	151.38
423.398	130.38
423.621	118.38
423.843	127.38
424.066	134.38
424.288	143.38
424.511	141.38
424.733	152.38
424.956	143.38
425.178	145.38
425.401	147.38
425.623	156.38
425.846	142.38
426.068	134.38
426.291	135.38
426.513	116.38
426.735	137.38
426.958	129.38
427.18	139.38
427.402	134.38
427.625	130.38
427.847	125.38
428.069	119.38
428.292	129.38
428.514	143.38
428.736	137.38
428.958	129.38
429.181	121.38
429.403	133.38
429.625	138.38
429.847	121.38
430.069	137.38
430.292	126.38
430.514	121.38
430.736	136.38
430.958	130.38
431.18	132.38
431.402	117.38
431.624	115.38
431.846	129.38
432.068	102.38
432.29	90.38
432.512	123.38
432.734	118.38
432.956	118.38
433.178	130.38
433.4	147.38
433.622	137.38
433.844	117.38
434.066	122.38
434.287	113.38
434.509	97.38
434.731	104.38
434.953	105.38
435.175	129.38
435.397	129.38
435.618	122.38
435.84	115.38
436.062	101.38
436.284	131.38
436.505	123.38
436.727	137.38
436.949	130.38
437.17	144.38
437.392	117.38
437.614	129.38
437.835	113.38
438.057	107.38
438.278	121.38
438.5	127.38
438.721	132.38
438.943	155.38
439.165	149.38
439.386	145.38
439.608	144.38
439.829	155.38
440.05	145.38
440.272	156.38
440.493	131.38
440.715	124.38
440.936	151.38
441.158	158.38
441.379	156.38
441.6	152.38
441.822	152.38
442.043	143.38
442.264	153.38
442.486	140.38
442.707	130.38
442.928	140.38
443.149	147.38
443.371	154.38
443.592	134.38
443.813	161.38
444.034	145.38
444.255	130.38
444.476	147.38
444.698	153.38
444.919	153.38
445.14	262.38
445.361	197.38
445.582	165.38
445.803	149.38
446.024	149.38
446.245	144.38
446.466	147.38
446.687	157.38
446.908	157.38
447.129	174.38
447.35	166.38
447.571	150.38
447.792	145.38
448.013	151.38
448.234	142.38
448.455	145.38
448.675	154.38
448.896	145.38
449.117	147.38
449.338	136.38
449.559	145.38
449.779	131.38
450	128.38
450.221	143.38
450.442	145.38
450.662	140.38
450.883	134.38
451.104	161.38
451.324	119.38
451.545	133.38
451.766	122.38
451.986	133.38
452.207	139.38
452.428	134.38
452.648	122.38
452.869	119.38
453.089	110.38
453.31	106.38
453.53	115.38
453.751	103.38
453.971	105.38
454.192	91.38
454.412	113.38
454.633	129.38
454.853	125.38
455.073	126.38
455.294	135.38
455.514	135.38
455.734	129.38
455.955	131.38
456.175	122.38
456.395	110.38
456.616	121.38
456.836	127.38
457.056	111.38
457.276	113.38
457.497	112.38
457.717	109.38
457.937	125.38
458.157	97.38
458.377	97.38
458.598	105.38
458.818	98.38
459.038	90.38
459.258	87.38
459.478	85.38
459.698	97.38
459.918	104.38
460.138	100.38
460.358	114.38
460.578	109.38
460.798	111.38
461.018	114.38
461.238	112.38
461.458	111.38
461.678	109.38
461.898	111.38
462.118	110.38
462.338	110.38
462.558	117.38
462.777	108.38
462.997	117.38
463.217	102.38
463.437	121.38
463.657	109.38
463.876	119.38
464.096	103.38
464.316	116.38
464.536	111.38
464.755	127.38
464.975	127.38
465.195	122.38
465.414	130.38
465.634	129.38
465.854	127.38
466.073	119.38
466.293	121.38
466.512	123.38
466.732	134.38
466.951	127.38
467.171	141.38
467.391	138.38
467.61	125.38
467.829	140.38
468.049	120.38
468.268	134.38
468.488	129.38
468.707	131.38
468.927	129.38
469.146	151.38
469.365	149.38
469.585	157.38
469.804	151.38
470.023	143.38
470.243	146.38
470.462	145.38
470.681	136.38
470.901	150.38
471.12	149.38
471.339	137.38
471.558	143.38
471.777	146.38
471.997	147.38
472.216	135.38
472.435	113.38
472.654	119.38
472.873	115.38
473.092	124.38
473.311	123.38
473.53	131.38
473.749	133.38
473.968	134.38
474.187	128.38
474.406	128.38
474.625	133.38
474.844	129.38
475.063	130.38
475.282	143.38
475.501	119.38
475.72	113.38
475.939	137.38
476.158	126.38
476.377	124.38
476.596	130.38
476.814	126.38
477.033	110.38
477.252	122.38
477.471	123.38
477.69	143.38
477.908	141.38
478.127	139.38
478.346	139.38
478.564	148.38
478.783	123.38
479.002	141.38
479.22	148.38
479.439	142.38
479.658	113.38
479.876	102.38
480.095	109.38
480.313	122.38
480.532	126.38
480.751	106.38
480.969	105.38
481.188	97.38
481.406	103.38
481.624	97.38
481.843	80.38
482.061	100.38
482.28	106.38
482.498	132.38
482.717	101.38
482.935	115.38
483.153	146.38
483.372	164.38
483.59	154.38
483.808	154.38
484.027	125.38
484.245	123.38
484.463	152.38
484.681	147.38
484.9	150.38
485.118	149.38
485.336	151.38
485.554	115.38
485.772	113.38
485.99	94.38
486.209	111.38
486.427	111.38
486.645	141.38
486.863	145.38
487.081	137.38
487.299	137.38
487.517	154.38
487.735	175.38
487.953	195.38
488.171	189.38
488.389	188.38
488.607	163.38
488.825	137.38
489.043	129.38
489.261	134.38
489.479	142.38
489.696	145.38
489.914	153.38
490.132	137.38
490.35	176.38
490.568	159.38
490.786	169.38
491.003	169.38
491.221	193.38
491.439	188.38
491.657	184.38
491.874	194.38
492.092	237.38
492.31	231.38
492.527	233.38
492.745	210.38
492.963	189.38
493.18	193.38
493.398	189.38
493.615	194.38
493.833	176.38
494.05	178.38
494.268	177.38
494.485	181.38
494.703	194.38
494.92	161.38
495.138	183.38
495.355	182.38
495.573	174.38
495.79	175.38
496.008	175.38
496.225	175.38
496.442	162.38
496.66	165.38
496.877	191.38
497.094	165.38
497.312	178.38
497.529	161.38
497.746	147.38
497.963	137.38
498.181	131.38
498.398	138.38
498.615	131.38
498.832	119.38
499.049	113.38
499.267	130.38
499.484	116.38
499.701	110.38
499.918	128.38
500.135	144.38
500.352	150.38
500.569	153.38
500.786	125.38
501.003	137.38
501.22	153.38
501.437	133.38
501.654	148.38
501.871	131.38
502.088	127.38
502.305	143.38
502.522	135.38
502.739	143.38
502.956	133.38
503.172	135.38
503.389	118.38
503.606	131.38
503.823	121.38
504.04	114.38
504.256	126.38
504.473	124.38
504.69	119.38
504.907	143.38
505.123	123.38
505.34	136.38
505.557	122.38
505.773	132.38
505.99	112.38
506.207	128.38
506.423	134.38
506.64	136.38
506.856	114.38
507.073	116.38
507.289	127.38
507.506	130.38
507.722	115.38
507.939	116.38
508.155	129.38
508.372	112.38
508.588	106.38
508.805	117.38
509.021	106.38
509.238	118.38
509.454	101.38
509.67	95.38
509.887	110.38
510.103	96.38
510.319	76.38
510.536	87.38
510.752	93.38
510.968	82.38
511.184	82.38
511.401	84.38
511.617	97.38
511.833	94.38
512.049	88.38
512.265	97.38
512.481	113.38
512.698	94.38
512.914	93.38
513.13	91.38
513.346	78.38
513.562	91.38
513.778	86.38
513.994	92.38
514.21	94.38
514.426	89.38
514.642	90.38
514.858	91.38
515.074	93.38
515.29	83.38
515.506	88.38
515.721	92.38
515.937	85.38
516.153	90.38
516.369	94.38
516.585	86.38
516.801	89.38
517.016	95.38
517.232	94.38
517.448	93.38
517.664	82.38
517.879	95.38
518.095	106.38
518.311	91.38
518.527	91.38
518.742	95.38
518.958	107.38
519.173	119.38
519.389	112.38
519.605	114.38
519.82	107.38
520.036	109.38
520.251	110.38
520.467	122.38
520.682	102.38
520.898	90.38
521.113	90.38
521.329	95.38
521.544	81.38
521.76	90.38
521.975	101.38
522.19	89.38
522.406	93.38
522.621	103.38
522.836	102.38
523.052	108.38
523.267	107.38
523.482	117.38
523.698	117.38
523.913	122.38
524.128	125.38
524.343	118.38
524.559	125.38
524.774	121.38
524.989	134.38
525.204	109.38
525.419	126.38
525.634	90.38
525.849	97.38
526.064	101.38
526.28	116.38
526.495	95.38
526.71	72.38
526.925	84.38
527.14	89.38
527.355	78.38
527.57	86.38
527.785	86.38
527.999	94.38
528.214	112.38
528.429	115.38
528.644	129.38
528.859	144.38
529.074	167.38
529.289	175.38
529.503	159.38
529.718	137.38
529.933	123.38
530.148	116.38
530.363	109.38
530.577	77.38
530.792	63.38
531.007	79.38
531.221	81.38
531.436	67.38
531.651	78.38
531.865	81.38
532.08	78.38
532.295	84.38
532.509	93.38
532.724	77.38
532.938	104.38
533.153	97.38
533.367	105.38
533.582	130.38
533.796	138.38
534.011	120.38
534.225	115.38
534.44	89.38
534.654	91.38
534.868	91.38
535.083	102.38
535.297	97.38
535.511	83.38
535.726	93.38
535.94	106.38
536.154	85.38
536.369	102.38
536.583	88.38
536.797	91.38
537.011	85.38
537.225	90.38
537.44	95.38
537.654	88.38
537.868	97.38
538.082	103.38
538.296	88.38
538.51	92.38
538.724	114.38
538.938	128.38
539.153	140.38
539.367	115.38
539.581	112.38
539.795	114.38
540.009	82.38
540.222	107.38
540.436	94.38
540.65	113.38
540.864	131.38
541.078	137.38
541.292	157.38
541.506	151.38
541.72	181.38
541.934	207.38
542.147	214.38
542.361	191.38
542.575	179.38
542.789	147.38
543.002	134.38
543.216	133.38
543.43	125.38
543.644	118.38
543.857	150.38
544.071	166.38
544.285	158.38
544.498	154.38
544.712	160.38
544.925	164.38
545.139	161.38
545.352	160.38
545.566	179.38
545.779	160.38
545.993	174.38
546.206	170.38
546.42	177.38
546.633	165.38
546.847	177.38
547.06	162.38
547.274	181.38
547.487	188.38
547.7	177.38
547.914	161.38
548.127	169.38
548.34	166.38
548.554	175.38
548.767	166.38
548.98	162.38
549.193	157.38
549.407	154.38
549.62	161.38
549.833	148.38
550.046	165.38
550.259	154.38
550.473	143.38
550.686	174.38
550.899	150.38
551.112	148.38
551.325	148.38
551.538	130.38
551.751	125.38
551.964	127.38
552.177	143.38
552.39	136.38
552.603	143.38
552.816	145.38
553.029	155.38
553.242	164.38
553.455	169.38
553.667	163.38
553.88	150.38
554.093	157.38
554.306	154.38
554.519	170.38
554.732	155.38
554.944	149.38
555.157	151.38
555.37	151.38
555.583	144.38
555.795	150.38
556.008	157.38
556.221	127.38
556.433	122.38
556.646	127.38
556.859	141.38
557.071	144.38
557.284	143.38
557.496	152.38
557.709	149.38
557.921	143.38
558.134	143.38
558.346	145.38
558.559	146.38
558.771	128.38
558.984	124.38
559.196	139.38
559.409	118.38
559.621	129.38
559.833	140.38
560.046	113.38
560.258	127.38
560.47	123.38
560.683	136.38
560.895	125.38
561.107	135.38
561.32	134.38
561.532	127.38
561.744	134.38
561.956	119.38
562.168	126.38
562.381	129.38
562.593	134.38
562.805	131.38
563.017	133.38
563.229	128.38
563.441	127.38
563.653	119.38
563.865	125.38
564.077	119.38
564.289	116.38
564.501	134.38
564.713	138.38
564.925	110.38
565.137	129.38
565.349	120.38
565.561	117.38
565.773	122.38
565.985	131.38
566.197	116.38
566.408	127.38
566.62	118.38
566.832	117.38
567.044	115.38
567.255	122.38
567.467	110.38
567.679	89.38
567.891	98.38
568.102	85.38
568.314	93.38
568.526	73.38
568.737	97.38
568.949	82.38
569.161	81.38
569.372	83.38
569.584	87.38
569.795	79.38
570.007	93.38
570.218	103.38
570.43	80.38
570.641	97.38
570.853	87.38
571.064	96.38
571.276	106.38
571.487	101.38
571.698	94.38
571.91	110.38
572.121	107.38
572.333	100.38
572.544	90.38
572.755	99.38
572.966	94.38
573.178	87.38
573.389	89.38
573.6	89.38
573.811	87.38
574.023	74.38
574.234	91.38
574.445	91.38
574.656	94.38
574.867	86.38
575.078	92.38
575.289	77.38
575.501	101.38
575.712	98.38
575.923	79.38
576.134	86.38
576.345	94.38
576.556	92.38
576.767	103.38
576.978	87.38
577.188	100.38
577.399	97.38
577.61	96.38
577.821	93.38
578.032	83.38
578.243	90.38
578.454	85.38
578.665	77.38
578.875	81.38
579.086	79.38
579.297	89.38
579.508	79.38
579.718	77.38
579.929	78.38
580.14	78.38
580.35	85.38
580.561	87.38
580.772	85.38
580.982	86.38
581.193	101.38
581.403	97.38
581.614	99.38
581.825	88.38
582.035	93.38
582.246	95.38
582.456	101.38
582.667	86.38
582.877	103.38
583.087	90.38
583.298	97.38
583.508	93.38
583.719	70.38
583.929	84.38
584.139	91.38
584.35	75.38
584.56	95.38
584.77	92.38
584.981	82.38
585.191	79.38
585.401	98.38
585.611	92.38
585.821	79.38
586.032	81.38
586.242	83.38
586.452	81.38
586.662	77.38
586.872	83.38
587.082	87.38
587.292	80.38
587.502	85.38
587.713	89.38
587.923	84.38
588.133	81.38
588.343	72.38
588.553	71.38
588.762	85.38
588.972	86.38
589.182	95.38
589.392	88.38
589.602	79.38
589.812	73.38
590.022	99.38
590.232	83.38
590.441	81.38
590.651	85.38
590.861	90.38
591.071	74.38
591.281	87.38
591.49	93.38
591.7	71.38
591.91	87.38
592.119	85.38
592.329	78.38
592.539	82.38
592.748	82.38
592.958	76.38
593.167	80.38
593.377	83.38
593.587	91.38
593.796	75.38
594.006	85.38
594.215	88.38
594.424	89.38
594.634	109.38
594.843	85.38
595.053	112.38
595.262	102.38
595.472	99.38
595.681	77.38
595.89	87.38
596.1	89.38
596.309	90.38
596.518	74.38
596.727	106.38
596.937	108.38
597.146	109.38
597.355	89.38
597.564	98.38
597.774	103.38
597.983	100.38
598.192	99.38
598.401	93.38
598.61	81.38
598.819	91.38
599.028	101.38
599.237	97.38
599.446	103.38
599.655	84.38
599.864	97.38
600.073	96.38
600.282	98.38
600.491	89.38
600.7	105.38
600.909	103.38
601.118	87.38
601.327	105.38
601.536	105.38
601.745	116.38
601.953	123.38
602.162	101.38
602.371	97.38
602.58	111.38
602.789	119.38
602.997	112.38
603.206	117.38
603.415	117.38
603.623	98.38
603.832	116.38
604.041	121.38
604.249	107.38
604.458	101.38
604.666	100.38
604.875	96.38
605.084	111.38
605.292	114.38
605.501	121.38
605.709	131.38
605.918	111.38
606.126	109.38
606.334	102.38
606.543	129.38
606.751	103.38
606.96	105.38
607.168	99.38
607.376	116.38
607.585	111.38
607.793	117.38
608.001	119.38
608.21	118.38
608.418	109.38
608.626	95.38
608.834	116.38
609.043	97.38
609.251	122.38
609.459	116.38
609.667	113.38
609.875	120.38
610.083	106.38
610.291	111.38
610.499	109.38
610.707	101.38
610.916	125.38
611.124	121.38
611.332	114.38
611.54	118.38
611.748	109.38
611.955	114.38
612.163	115.38
612.371	100.38
612.579	99.38
612.787	99.38
612.995	116.38
613.203	126.38
613.411	119.38
613.618	101.38
613.826	125.38
614.034	94.38
614.242	103.38
614.449	113.38
614.657	114.38
614.865	102.38
615.072	113.38
615.28	112.38
615.488	117.38
615.695	100.38
615.903	97.38
616.111	125.38
616.318	119.38
616.526	118.38
616.733	116.38
616.941	111.38
617.148	118.38
617.356	102.38
617.563	111.38
617.771	114.38
617.978	109.38
618.185	111.38
618.393	120.38
618.6	106.38
618.807	118.38
619.015	121.38
619.222	101.38
619.429	116.38
619.637	106.38
619.844	118.38
620.051	96.38
620.258	99.38
620.466	115.38
620.673	123.38
620.88	103.38
621.087	121.38
621.294	114.38
621.501	93.38
621.708	113.38
621.915	104.38
622.122	128.38
622.329	103.38
622.536	119.38
622.743	102.38
622.95	88.38
623.157	107.38
623.364	109.38
623.571	118.38
623.778	102.38
623.985	115.38
624.192	101.38
624.399	110.38
624.606	118.38
624.812	107.38
625.019	84.38
625.226	91.38
625.433	109.38
625.639	111.38
625.846	100.38
626.053	91.38
626.259	92.38
626.466	96.38
626.673	86.38
626.879	86.38
627.086	114.38
627.293	102.38
627.499	107.38
627.706	100.38
627.912	124.38
628.119	127.38
628.325	98.38
628.532	112.38
628.738	106.38
628.945	90.38
629.151	115.38
629.357	110.38
629.564	89.38
629.77	102.38
629.976	109.38
630.183	101.38
630.389	102.38
630.595	101.38
630.802	116.38
631.008	105.38
631.214	98.38
631.42	99.38
631.627	100.38
631.833	94.38
632.039	103.38
632.245	88.38
632.451	119.38
632.657	108.38
632.863	101.38
633.069	104.38
633.275	94.38
633.481	96.38
633.688	94.38
633.893	112.38
634.099	107.38
634.305	93.38
634.511	111.38
634.717	93.38
634.923	89.38
635.129	87.38
635.335	99.38
635.541	103.38
635.747	91.38
635.952	107.38
636.158	89.38
636.364	93.38
636.57	103.38
636.775	97.38
636.981	101.38
637.187	109.38
637.392	112.38
637.598	90.38
637.804	113.38
638.009	104.38
638.215	103.38
638.421	107.38
638.626	103.38
638.832	105.38
639.037	93.38
639.243	107.38
639.448	99.38
639.654	103.38
639.859	94.38
640.065	109.38
640.27	117.38
640.475	95.38
640.681	104.38
640.886	110.38
641.091	101.38
641.297	109.38
641.502	103.38
641.707	86.38
641.913	92.38
642.118	101.38
642.323	106.38
642.528	106.38
642.733	99.38
642.939	109.38
643.144	93.38
643.349	102.38
643.554	87.38
643.759	97.38
643.964	84.38
644.169	94.38
644.374	104.38
644.579	98.38
644.784	99.38
644.989	105.38
645.194	87.38
645.399	97.38
645.604	96.38
645.809	104.38
646.014	109.38
646.219	96.38
646.423	109.38
646.628	95.38
646.833	93.38
647.038	95.38
647.243	102.38
647.447	96.38
647.652	90.38
647.857	101.38
648.062	95.38
648.266	90.38
648.471	97.38
648.676	98.38
648.88	101.38
649.085	100.38
649.289	90.38
649.494	88.38
649.698	99.38
649.903	94.38
650.107	102.38
650.312	100.38
650.516	85.38
650.721	113.38
650.925	103.38
651.13	93.38
651.334	97.38
651.539	98.38
651.743	97.38
651.947	101.38
652.152	87.38
652.356	98.38
652.56	94.38
652.764	90.38
652.969	93.38
653.173	86.38
653.377	80.38
653.581	97.38
653.785	95.38
653.99	89.38
654.194	85.38
654.398	101.38
654.602	86.38
654.806	94.38
655.01	99.38
655.214	93.38
655.418	90.38
655.622	80.38
655.826	88.38
656.03	82.38
656.234	87.38
656.438	84.38
656.642	78.38
656.846	85.38
657.049	85.38
657.253	88.38
657.457	90.38
657.661	82.38
657.865	84.38
658.068	67.38
658.272	75.38
658.476	93.38
658.68	102.38
658.883	96.38
659.087	76.38
659.291	86.38
659.494	95.38
659.698	94.38
659.901	86.38
660.105	84.38
660.309	87.38
660.512	81.38
660.716	74.38
660.919	57.38
661.123	86.38
661.326	74.38
661.53	81.38
661.733	90.38
661.936	75.38
662.14	70.38
662.343	78.38
662.546	86.38
662.75	81.38
662.953	73.38
663.156	87.38
663.36	85.38
663.563	93.38
663.766	92.38
663.969	84.38
664.173	74.38
664.376	73.38
664.579	87.38
664.782	80.38
664.985	78.38
665.188	87.38
665.391	78.38
665.594	82.38
665.797	79.38
666	80.38
666.203	80.38
666.406	78.38
666.609	90.38
666.812	86.38
667.015	80.38
667.218	82.38
667.421	74.38
667.624	82.38
667.827	81.38
668.03	84.38
668.232	89.38
668.435	75.38
668.638	93.38
668.841	85.38
669.043	65.38
669.246	80.38
669.449	91.38
669.651	80.38
669.854	72.38
670.057	88.38
670.259	75.38
670.462	75.38
670.665	66.38
670.867	80.38
671.07	88.38
671.272	80.38
671.475	84.38
671.677	84.38
671.88	65.38
672.082	71.38
672.284	77.38
672.487	85.38
672.689	65.38
672.892	97.38
