Data from Location6.07152019.Energy5.Lamp.07192019.3%Agarose_HRD10591_16-11-15-394.txt Node
Date: Fri Jul 19 16:11:15 EDT 2019
User: cochatt
Spectrometer: HR+D1059
Trigger mode: 1
Integration Time (sec): 1.000000E-1
Scans to average: 1
Electric dark correction enabled: true
Nonlinearity correction enabled: false
Boxcar width: 0
XAxis mode: Wavelengths
Number of Pixels in Spectrum: 2048
>>>>>Begin Spectral Data<<<<<
223.165	-15.62
223.4	-15.62
223.635	-15.62
223.869	-21.62
224.104	-22.62
224.338	-29.62
224.573	4.38
224.808	-9.62
225.042	-4.62
225.277	2.38
225.511	7.38
225.746	3.38
225.98	8.38
226.215	12.38
226.449	6.38
226.683	16.38
226.918	16.38
227.152	26.38
227.387	39.38
227.621	40.38
227.856	49.38
228.09	49.38
228.324	37.38
228.559	55.38
228.793	62.38
229.027	69.38
229.262	65.38
229.496	66.38
229.73	61.38
229.964	72.38
230.199	73.38
230.433	82.38
230.667	73.38
230.901	75.38
231.136	80.38
231.37	71.38
231.604	76.38
231.838	92.38
232.072	85.38
232.306	93.38
232.541	78.38
232.775	82.38
233.009	77.38
233.243	62.38
233.477	89.38
233.711	76.38
233.945	83.38
234.179	79.38
234.413	75.38
234.647	87.38
234.881	82.38
235.115	82.38
235.349	84.38
235.583	80.38
235.817	99.38
236.051	84.38
236.285	65.38
236.519	71.38
236.753	75.38
236.987	66.38
237.221	90.38
237.455	74.38
237.689	64.38
237.922	66.38
238.156	85.38
238.39	67.38
238.624	68.38
238.858	71.38
239.091	77.38
239.325	86.38
239.559	92.38
239.793	67.38
240.027	75.38
240.26	85.38
240.494	72.38
240.728	84.38
240.961	83.38
241.195	85.38
241.429	78.38
241.662	74.38
241.896	74.38
242.13	85.38
242.363	84.38
242.597	68.38
242.83	76.38
243.064	70.38
243.298	79.38
243.531	81.38
243.765	77.38
243.998	78.38
244.232	83.38
244.465	93.38
244.699	84.38
244.932	65.38
245.166	77.38
245.399	62.38
245.633	84.38
245.866	88.38
246.099	84.38
246.333	81.38
246.566	69.38
246.8	88.38
247.033	64.38
247.266	67.38
247.5	79.38
247.733	78.38
247.966	75.38
248.2	97.38
248.433	79.38
248.666	71.38
248.899	81.38
249.133	58.38
249.366	77.38
249.599	69.38
249.832	72.38
250.066	98.38
250.299	88.38
250.532	80.38
250.765	78.38
250.998	90.38
251.231	88.38
251.465	90.38
251.698	61.38
251.931	74.38
252.164	64.38
252.397	94.38
252.63	78.38
252.863	80.38
253.096	78.38
253.329	76.38
253.562	88.38
253.795	76.38
254.028	68.38
254.261	83.38
254.494	82.38
254.727	72.38
254.96	81.38
255.193	87.38
255.426	74.38
255.659	83.38
255.892	88.38
256.124	78.38
256.357	83.38
256.59	81.38
256.823	68.38
257.056	93.38
257.289	77.38
257.521	71.38
257.754	89.38
257.987	91.38
258.22	84.38
258.452	84.38
258.685	91.38
258.918	82.38
259.151	92.38
259.383	84.38
259.616	75.38
259.849	81.38
260.081	73.38
260.314	72.38
260.547	83.38
260.779	79.38
261.012	95.38
261.244	77.38
261.477	78.38
261.71	84.38
261.942	85.38
262.175	78.38
262.407	92.38
262.64	86.38
262.872	74.38
263.105	63.38
263.337	74.38
263.57	77.38
263.802	75.38
264.035	72.38
264.267	87.38
264.499	98.38
264.732	90.38
264.964	90.38
265.197	81.38
265.429	83.38
265.661	78.38
265.894	73.38
266.126	90.38
266.358	78.38
266.591	92.38
266.823	77.38
267.055	83.38
267.287	73.38
267.52	77.38
267.752	90.38
267.984	81.38
268.216	87.38
268.448	79.38
268.681	87.38
268.913	87.38
269.145	86.38
269.377	67.38
269.609	81.38
269.841	70.38
270.073	69.38
270.306	81.38
270.538	68.38
270.77	76.38
271.002	74.38
271.234	80.38
271.466	95.38
271.698	89.38
271.93	81.38
272.162	85.38
272.394	74.38
272.626	89.38
272.858	100.38
273.09	82.38
273.322	70.38
273.553	78.38
273.785	70.38
274.017	88.38
274.249	80.38
274.481	82.38
274.713	86.38
274.945	85.38
275.176	74.38
275.408	77.38
275.64	78.38
275.872	95.38
276.104	83.38
276.335	95.38
276.567	72.38
276.799	93.38
277.031	80.38
277.262	64.38
277.494	83.38
277.726	78.38
277.957	74.38
278.189	95.38
278.421	80.38
278.652	90.38
278.884	84.38
279.115	98.38
279.347	90.38
279.579	80.38
279.81	85.38
280.042	84.38
280.273	92.38
280.505	91.38
280.736	81.38
280.968	83.38
281.199	81.38
281.431	76.38
281.662	97.38
281.894	85.38
282.125	78.38
282.356	92.38
282.588	83.38
282.819	88.38
283.051	77.38
283.282	85.38
283.513	88.38
283.745	83.38
283.976	86.38
284.207	86.38
284.439	86.38
284.67	90.38
284.901	82.38
285.132	87.38
285.364	85.38
285.595	87.38
285.826	80.38
286.057	90.38
286.288	79.38
286.52	66.38
286.751	71.38
286.982	68.38
287.213	76.38
287.444	75.38
287.675	92.38
287.906	83.38
288.138	92.38
288.369	73.38
288.6	90.38
288.831	86.38
289.062	84.38
289.293	82.38
289.524	92.38
289.755	84.38
289.986	80.38
290.217	81.38
290.448	83.38
290.679	80.38
290.91	85.38
291.141	84.38
291.371	112.38
291.602	78.38
291.833	91.38
292.064	86.38
292.295	82.38
292.526	82.38
292.757	87.38
292.987	80.38
293.218	89.38
293.449	75.38
293.68	70.38
293.91	84.38
294.141	88.38
294.372	84.38
294.603	95.38
294.833	87.38
295.064	73.38
295.295	75.38
295.525	81.38
295.756	88.38
295.987	87.38
296.217	81.38
296.448	81.38
296.679	85.38
296.909	83.38
297.14	88.38
297.37	94.38
297.601	95.38
297.831	74.38
298.062	77.38
298.292	70.38
298.523	96.38
298.753	83.38
298.984	84.38
299.214	84.38
299.445	75.38
299.675	72.38
299.905	81.38
300.136	84.38
300.366	97.38
300.597	95.38
300.827	92.38
301.057	79.38
301.288	89.38
301.518	77.38
301.748	81.38
301.979	87.38
302.209	77.38
302.439	91.38
302.669	76.38
302.9	74.38
303.13	75.38
303.36	93.38
303.59	88.38
303.82	71.38
304.051	84.38
304.281	93.38
304.511	96.38
304.741	89.38
304.971	83.38
305.201	100.38
305.431	93.38
305.661	89.38
305.891	84.38
306.121	87.38
306.352	96.38
306.582	77.38
306.812	86.38
307.042	94.38
307.272	88.38
307.502	79.38
307.731	83.38
307.961	82.38
308.191	86.38
308.421	95.38
308.651	88.38
308.881	96.38
309.111	89.38
309.341	89.38
309.571	103.38
309.8	100.38
310.03	83.38
310.26	83.38
310.49	85.38
310.72	88.38
310.949	80.38
311.179	72.38
311.409	70.38
311.639	73.38
311.868	95.38
312.098	91.38
312.328	79.38
312.557	85.38
312.787	73.38
313.017	80.38
313.246	90.38
313.476	94.38
313.706	73.38
313.935	84.38
314.165	91.38
314.394	93.38
314.624	86.38
314.853	91.38
315.083	89.38
315.312	82.38
315.542	85.38
315.771	87.38
316.001	70.38
316.23	82.38
316.46	81.38
316.689	74.38
316.919	86.38
317.148	78.38
317.377	91.38
317.607	93.38
317.836	79.38
318.065	73.38
318.295	69.38
318.524	88.38
318.753	87.38
318.983	91.38
319.212	86.38
319.441	84.38
319.67	82.38
319.9	82.38
320.129	75.38
320.358	79.38
320.587	79.38
320.816	86.38
321.046	80.38
321.275	92.38
321.504	95.38
321.733	88.38
321.962	77.38
322.191	84.38
322.42	82.38
322.649	83.38
322.878	75.38
323.108	95.38
323.337	81.38
323.566	89.38
323.795	82.38
324.024	89.38
324.253	84.38
324.482	87.38
324.71	87.38
324.939	81.38
325.168	80.38
325.397	87.38
325.626	81.38
325.855	82.38
326.084	84.38
326.313	96.38
326.542	95.38
326.77	82.38
326.999	88.38
327.228	95.38
327.457	83.38
327.686	93.38
327.914	91.38
328.143	77.38
328.372	83.38
328.6	76.38
328.829	92.38
329.058	94.38
329.287	92.38
329.515	80.38
329.744	77.38
329.972	89.38
330.201	97.38
330.43	77.38
330.658	78.38
330.887	90.38
331.115	88.38
331.344	81.38
331.572	76.38
331.801	88.38
332.03	82.38
332.258	87.38
332.486	88.38
332.715	93.38
332.943	83.38
333.172	80.38
333.4	104.38
333.629	86.38
333.857	77.38
334.085	82.38
334.314	79.38
334.542	87.38
334.771	93.38
334.999	84.38
335.227	89.38
335.455	70.38
335.684	88.38
335.912	86.38
336.14	85.38
336.369	87.38
336.597	83.38
336.825	87.38
337.053	86.38
337.281	94.38
337.51	89.38
337.738	85.38
337.966	88.38
338.194	85.38
338.422	83.38
338.65	92.38
338.878	83.38
339.106	91.38
339.334	93.38
339.562	87.38
339.79	92.38
340.018	76.38
340.246	84.38
340.474	85.38
340.702	81.38
340.93	83.38
341.158	71.38
341.386	90.38
341.614	76.38
341.842	88.38
342.07	75.38
342.298	74.38
342.526	80.38
342.754	86.38
342.981	99.38
343.209	85.38
343.437	75.38
343.665	90.38
343.893	80.38
344.12	89.38
344.348	76.38
344.576	89.38
344.804	88.38
345.031	87.38
345.259	92.38
345.487	87.38
345.714	83.38
345.942	100.38
346.17	77.38
346.397	84.38
346.625	77.38
346.853	92.38
347.08	79.38
347.308	57.38
347.535	86.38
347.763	83.38
347.99	91.38
348.218	77.38
348.445	85.38
348.673	75.38
348.9	105.38
349.128	85.38
349.355	99.38
349.583	80.38
349.81	80.38
350.037	86.38
350.265	95.38
350.492	94.38
350.72	82.38
350.947	88.38
351.174	81.38
351.402	91.38
351.629	92.38
351.856	93.38
352.083	91.38
352.311	90.38
352.538	84.38
352.765	95.38
352.992	77.38
353.22	91.38
353.447	70.38
353.674	92.38
353.901	94.38
354.128	84.38
354.355	89.38
354.583	75.38
354.81	73.38
355.037	82.38
355.264	83.38
355.491	75.38
355.718	84.38
355.945	76.38
356.172	86.38
356.399	77.38
356.626	80.38
356.853	83.38
357.08	78.38
357.307	89.38
357.534	84.38
357.761	85.38
357.988	86.38
358.215	89.38
358.441	100.38
358.668	83.38
358.895	95.38
359.122	79.38
359.349	85.38
359.576	86.38
359.802	75.38
360.029	76.38
360.256	91.38
360.483	90.38
360.709	81.38
360.936	73.38
361.163	83.38
361.39	88.38
361.616	84.38
361.843	71.38
362.07	77.38
362.296	89.38
362.523	109.38
362.749	77.38
362.976	84.38
363.203	98.38
363.429	89.38
363.656	87.38
363.882	84.38
364.109	95.38
364.335	84.38
364.562	86.38
364.788	97.38
365.015	88.38
365.241	87.38
365.468	86.38
365.694	85.38
365.92	83.38
366.147	87.38
366.373	96.38
366.599	81.38
366.826	84.38
367.052	74.38
367.278	90.38
367.505	99.38
367.731	111.38
367.957	83.38
368.184	80.38
368.41	106.38
368.636	93.38
368.862	86.38
369.089	100.38
369.315	87.38
369.541	101.38
369.767	92.38
369.993	83.38
370.219	100.38
370.445	84.38
370.672	84.38
370.898	91.38
371.124	100.38
371.35	87.38
371.576	102.38
371.802	95.38
372.028	100.38
372.254	94.38
372.48	105.38
372.706	96.38
372.932	95.38
373.158	93.38
373.384	89.38
373.61	101.38
373.835	97.38
374.061	91.38
374.287	101.38
374.513	92.38
374.739	102.38
374.965	77.38
375.191	95.38
375.416	99.38
375.642	84.38
375.868	102.38
376.094	100.38
376.319	98.38
376.545	93.38
376.771	98.38
376.997	83.38
377.222	91.38
377.448	85.38
377.674	93.38
377.899	85.38
378.125	95.38
378.35	90.38
378.576	97.38
378.802	98.38
379.027	97.38
379.253	103.38
379.478	88.38
379.704	97.38
379.929	92.38
380.155	89.38
380.38	99.38
380.606	90.38
380.831	112.38
381.057	102.38
381.282	95.38
381.507	101.38
381.733	103.38
381.958	106.38
382.184	92.38
382.409	87.38
382.634	102.38
382.86	91.38
383.085	91.38
383.31	104.38
383.535	95.38
383.761	107.38
383.986	97.38
384.211	93.38
384.436	96.38
384.662	96.38
384.887	104.38
385.112	95.38
385.337	103.38
385.562	101.38
385.787	105.38
386.013	121.38
386.238	93.38
386.463	87.38
386.688	82.38
386.913	106.38
387.138	98.38
387.363	106.38
387.588	119.38
387.813	101.38
388.038	104.38
388.263	98.38
388.488	98.38
388.713	102.38
388.938	108.38
389.163	123.38
389.387	98.38
389.612	100.38
389.837	101.38
390.062	93.38
390.287	103.38
390.512	104.38
390.736	109.38
390.961	115.38
391.186	115.38
391.411	83.38
391.636	116.38
391.86	115.38
392.085	108.38
392.31	113.38
392.534	107.38
392.759	104.38
392.984	111.38
393.208	100.38
393.433	109.38
393.658	103.38
393.882	115.38
394.107	113.38
394.331	115.38
394.556	97.38
394.78	99.38
395.005	108.38
395.229	111.38
395.454	103.38
395.678	113.38
395.903	119.38
396.127	111.38
396.352	101.38
396.576	104.38
396.801	105.38
397.025	104.38
397.249	119.38
397.474	111.38
397.698	105.38
397.922	115.38
398.147	114.38
398.371	116.38
398.595	110.38
398.82	115.38
399.044	111.38
399.268	114.38
399.492	106.38
399.717	129.38
399.941	123.38
400.165	116.38
400.389	108.38
400.613	111.38
400.837	115.38
401.062	112.38
401.286	103.38
401.51	124.38
401.734	115.38
401.958	122.38
402.182	110.38
402.406	129.38
402.63	96.38
402.854	112.38
403.078	108.38
403.302	112.38
403.526	98.38
403.75	119.38
403.974	135.38
404.198	122.38
404.422	111.38
404.645	107.38
404.869	107.38
405.093	109.38
405.317	125.38
405.541	105.38
405.765	125.38
405.988	125.38
406.212	117.38
406.436	121.38
406.66	127.38
406.883	115.38
407.107	105.38
407.331	108.38
407.555	124.38
407.778	124.38
408.002	124.38
408.226	123.38
408.449	120.38
408.673	122.38
408.896	133.38
409.12	121.38
409.344	113.38
409.567	133.38
409.791	136.38
410.014	142.38
410.238	121.38
410.461	123.38
410.685	136.38
410.908	130.38
411.132	116.38
411.355	120.38
411.578	129.38
411.802	112.38
412.025	116.38
412.249	121.38
412.472	122.38
412.695	132.38
412.919	121.38
413.142	135.38
413.365	124.38
413.589	131.38
413.812	121.38
414.035	129.38
414.258	128.38
414.482	116.38
414.705	136.38
414.928	139.38
415.151	118.38
415.374	133.38
415.597	134.38
415.821	136.38
416.044	130.38
416.267	147.38
416.49	147.38
416.713	134.38
416.936	122.38
417.159	135.38
417.382	135.38
417.605	128.38
417.828	119.38
418.051	140.38
418.274	145.38
418.497	139.38
418.72	128.38
418.943	141.38
419.166	118.38
419.389	151.38
419.611	135.38
419.834	142.38
420.057	139.38
420.28	145.38
420.503	151.38
420.726	126.38
420.948	135.38
421.171	143.38
421.394	131.38
421.617	173.38
421.839	160.38
422.062	132.38
422.285	141.38
422.507	155.38
422.73	130.38
422.953	128.38
423.175	118.38
423.398	135.38
423.621	144.38
423.843	143.38
424.066	148.38
424.288	142.38
424.511	157.38
424.733	148.38
424.956	157.38
425.178	141.38
425.401	161.38
425.623	145.38
425.846	135.38
426.068	146.38
426.291	142.38
426.513	149.38
426.735	137.38
426.958	129.38
427.18	123.38
427.402	130.38
427.625	119.38
427.847	135.38
428.069	139.38
428.292	126.38
428.514	129.38
428.736	147.38
428.958	139.38
429.181	129.38
429.403	133.38
429.625	136.38
429.847	161.38
430.069	141.38
430.292	133.38
430.514	133.38
430.736	129.38
430.958	137.38
431.18	123.38
431.402	125.38
431.624	137.38
431.846	129.38
432.068	86.38
432.29	91.38
432.512	127.38
432.734	123.38
432.956	127.38
433.178	145.38
433.4	133.38
433.622	137.38
433.844	138.38
434.066	127.38
434.287	109.38
434.509	111.38
434.731	106.38
434.953	108.38
435.175	115.38
435.397	119.38
435.618	137.38
435.84	115.38
436.062	125.38
436.284	137.38
436.505	123.38
436.727	125.38
436.949	148.38
437.17	142.38
437.392	131.38
437.614	127.38
437.835	117.38
438.057	116.38
438.278	110.38
438.5	129.38
438.721	136.38
438.943	130.38
439.165	136.38
439.386	145.38
439.608	162.38
439.829	145.38
440.05	149.38
440.272	161.38
440.493	163.38
440.715	165.38
440.936	153.38
441.158	152.38
441.379	142.38
441.6	157.38
441.822	146.38
442.043	140.38
442.264	143.38
442.486	138.38
442.707	149.38
442.928	145.38
443.149	161.38
443.371	136.38
443.592	143.38
443.813	154.38
444.034	151.38
444.255	138.38
444.476	139.38
444.698	149.38
444.919	149.38
445.14	269.38
445.361	199.38
445.582	153.38
445.803	151.38
446.024	177.38
446.245	166.38
446.466	143.38
446.687	163.38
446.908	177.38
447.129	169.38
447.35	169.38
447.571	161.38
447.792	155.38
448.013	147.38
448.234	144.38
448.455	137.38
448.675	140.38
448.896	151.38
449.117	146.38
449.338	151.38
449.559	137.38
449.779	140.38
450	135.38
450.221	134.38
450.442	132.38
450.662	141.38
450.883	154.38
451.104	159.38
451.324	138.38
451.545	133.38
451.766	132.38
451.986	139.38
452.207	125.38
452.428	122.38
452.648	115.38
452.869	132.38
453.089	138.38
453.31	113.38
453.53	113.38
453.751	115.38
453.971	119.38
454.192	106.38
454.412	106.38
454.633	128.38
454.853	119.38
455.073	124.38
455.294	144.38
455.514	129.38
455.734	114.38
455.955	117.38
456.175	117.38
456.395	124.38
456.616	100.38
456.836	108.38
457.056	117.38
457.276	106.38
457.497	105.38
457.717	121.38
457.937	110.38
458.157	102.38
458.377	95.38
458.598	105.38
458.818	93.38
459.038	93.38
459.258	95.38
459.478	100.38
459.698	89.38
459.918	86.38
460.138	107.38
460.358	100.38
460.578	109.38
460.798	114.38
461.018	106.38
461.238	133.38
461.458	122.38
461.678	112.38
461.898	120.38
462.118	113.38
462.338	127.38
462.558	131.38
462.777	119.38
462.997	113.38
463.217	103.38
463.437	105.38
463.657	115.38
463.876	106.38
464.096	93.38
464.316	115.38
464.536	113.38
464.755	130.38
464.975	124.38
465.195	141.38
465.414	122.38
465.634	125.38
465.854	125.38
466.073	127.38
466.293	133.38
466.512	134.38
466.732	135.38
466.951	128.38
467.171	150.38
467.391	134.38
467.61	153.38
467.829	135.38
468.049	137.38
468.268	129.38
468.488	134.38
468.707	153.38
468.927	139.38
469.146	146.38
469.365	144.38
469.585	153.38
469.804	132.38
470.023	140.38
470.243	152.38
470.462	153.38
470.681	147.38
470.901	151.38
471.12	143.38
471.339	157.38
471.558	140.38
471.777	133.38
471.997	146.38
472.216	134.38
472.435	115.38
472.654	114.38
472.873	118.38
473.092	127.38
473.311	128.38
473.53	131.38
473.749	127.38
473.968	127.38
474.187	125.38
474.406	128.38
474.625	155.38
474.844	138.38
475.063	124.38
475.282	130.38
475.501	139.38
475.72	137.38
475.939	131.38
476.158	142.38
476.377	154.38
476.596	120.38
476.814	125.38
477.033	115.38
477.252	121.38
477.471	125.38
477.69	140.38
477.908	153.38
478.127	146.38
478.346	143.38
478.564	149.38
478.783	160.38
479.002	141.38
479.22	140.38
479.439	138.38
479.658	120.38
479.876	131.38
480.095	128.38
480.313	126.38
480.532	125.38
480.751	106.38
480.969	102.38
481.188	92.38
481.406	91.38
481.624	76.38
481.843	73.38
482.061	92.38
482.28	116.38
482.498	111.38
482.717	115.38
482.935	129.38
483.153	141.38
483.372	148.38
483.59	158.38
483.808	146.38
484.027	142.38
484.245	155.38
484.463	147.38
484.681	165.38
484.9	156.38
485.118	151.38
485.336	121.38
485.554	101.38
485.772	103.38
485.99	117.38
486.209	115.38
486.427	113.38
486.645	126.38
486.863	117.38
487.081	147.38
487.299	152.38
487.517	133.38
487.735	172.38
487.953	178.38
488.171	188.38
488.389	166.38
488.607	169.38
488.825	149.38
489.043	155.38
489.261	145.38
489.479	144.38
489.696	154.38
489.914	137.38
490.132	145.38
490.35	164.38
490.568	159.38
490.786	184.38
491.003	173.38
491.221	165.38
491.439	197.38
491.657	205.38
491.874	228.38
492.092	246.38
492.31	245.38
492.527	253.38
492.745	220.38
492.963	200.38
493.18	191.38
493.398	207.38
493.615	195.38
493.833	186.38
494.05	183.38
494.268	178.38
494.485	191.38
494.703	184.38
494.92	196.38
495.138	202.38
495.355	175.38
495.573	179.38
495.79	167.38
496.008	187.38
496.225	191.38
496.442	183.38
496.66	177.38
496.877	177.38
497.094	180.38
497.312	167.38
497.529	183.38
497.746	159.38
497.963	147.38
498.181	131.38
498.398	133.38
498.615	126.38
498.832	129.38
499.049	121.38
499.267	124.38
499.484	142.38
499.701	137.38
499.918	137.38
500.135	143.38
500.352	159.38
500.569	150.38
500.786	147.38
501.003	139.38
501.22	139.38
501.437	140.38
501.654	135.38
501.871	147.38
502.088	142.38
502.305	139.38
502.522	137.38
502.739	134.38
502.956	125.38
503.172	124.38
503.389	128.38
503.606	118.38
503.823	138.38
504.04	122.38
504.256	133.38
504.473	125.38
504.69	119.38
504.907	137.38
505.123	124.38
505.34	121.38
505.557	116.38
505.773	133.38
505.99	131.38
506.207	121.38
506.423	115.38
506.64	137.38
506.856	119.38
507.073	113.38
507.289	123.38
507.506	118.38
507.722	122.38
507.939	99.38
508.155	121.38
508.372	128.38
508.588	121.38
508.805	129.38
509.021	106.38
509.238	114.38
509.454	97.38
509.67	113.38
509.887	107.38
510.103	103.38
510.319	107.38
510.536	90.38
510.752	94.38
510.968	91.38
511.184	89.38
511.401	87.38
511.617	95.38
511.833	91.38
512.049	103.38
512.265	105.38
512.481	108.38
512.698	86.38
512.914	93.38
513.13	98.38
513.346	97.38
513.562	72.38
513.778	106.38
513.994	90.38
514.21	72.38
514.426	91.38
514.642	97.38
514.858	99.38
515.074	89.38
515.29	87.38
515.506	76.38
515.721	87.38
515.937	96.38
516.153	93.38
516.369	103.38
516.585	95.38
516.801	69.38
517.016	91.38
517.232	99.38
517.448	95.38
517.664	96.38
517.879	97.38
518.095	98.38
518.311	93.38
518.527	108.38
518.742	97.38
518.958	104.38
519.173	113.38
519.389	125.38
519.605	106.38
519.82	113.38
520.036	117.38
520.251	100.38
520.467	98.38
520.682	99.38
520.898	105.38
521.113	98.38
521.329	92.38
521.544	86.38
521.76	84.38
521.975	110.38
522.19	105.38
522.406	97.38
522.621	116.38
522.836	116.38
523.052	108.38
523.267	118.38
523.482	103.38
523.698	115.38
523.913	122.38
524.128	128.38
524.343	120.38
524.559	115.38
524.774	113.38
524.989	115.38
525.204	118.38
525.419	112.38
525.634	126.38
525.849	125.38
526.064	121.38
526.28	103.38
526.495	103.38
526.71	91.38
526.925	89.38
527.14	76.38
527.355	77.38
527.57	84.38
527.785	90.38
527.999	103.38
528.214	105.38
528.429	111.38
528.644	137.38
528.859	141.38
529.074	142.38
529.289	155.38
529.503	182.38
529.718	137.38
529.933	120.38
530.148	99.38
530.363	89.38
530.577	85.38
530.792	89.38
531.007	74.38
531.221	80.38
531.436	101.38
531.651	93.38
531.865	84.38
532.08	76.38
532.295	83.38
532.509	96.38
532.724	83.38
532.938	103.38
533.153	99.38
533.367	104.38
533.582	134.38
533.796	127.38
534.011	119.38
534.225	101.38
534.44	106.38
534.654	102.38
534.868	106.38
535.083	108.38
535.297	104.38
535.511	98.38
535.726	125.38
535.94	93.38
536.154	105.38
536.369	95.38
536.583	89.38
536.797	93.38
537.011	89.38
537.225	98.38
537.44	93.38
537.654	92.38
537.868	87.38
538.082	101.38
538.296	89.38
538.51	111.38
538.724	115.38
538.938	120.38
539.153	124.38
539.367	113.38
539.581	113.38
539.795	99.38
540.009	111.38
540.222	107.38
540.436	112.38
540.65	118.38
540.864	143.38
541.078	147.38
541.292	139.38
541.506	163.38
541.72	173.38
541.934	196.38
542.147	220.38
542.361	199.38
542.575	175.38
542.789	168.38
543.002	145.38
543.216	139.38
543.43	135.38
543.644	140.38
543.857	141.38
544.071	148.38
544.285	156.38
544.498	177.38
544.712	147.38
544.925	167.38
545.139	162.38
545.352	178.38
545.566	160.38
545.779	157.38
545.993	169.38
546.206	157.38
546.42	181.38
546.633	167.38
546.847	167.38
547.06	173.38
547.274	182.38
547.487	189.38
547.7	183.38
547.914	181.38
548.127	176.38
548.34	162.38
548.554	164.38
548.767	162.38
548.98	171.38
549.193	160.38
549.407	163.38
549.62	154.38
549.833	149.38
550.046	152.38
550.259	152.38
550.473	171.38
550.686	144.38
550.899	165.38
551.112	155.38
551.325	142.38
551.538	144.38
551.751	137.38
551.964	127.38
552.177	137.38
552.39	133.38
552.603	147.38
552.816	147.38
553.029	141.38
553.242	164.38
553.455	170.38
553.667	168.38
553.88	176.38
554.093	178.38
554.306	160.38
554.519	150.38
554.732	137.38
554.944	155.38
555.157	156.38
555.37	138.38
555.583	149.38
555.795	153.38
556.008	137.38
556.221	144.38
556.433	145.38
556.646	152.38
556.859	141.38
557.071	144.38
557.284	143.38
557.496	137.38
557.709	139.38
557.921	134.38
558.134	148.38
558.346	145.38
558.559	133.38
558.771	136.38
558.984	149.38
559.196	135.38
559.409	141.38
559.621	133.38
559.833	135.38
560.046	121.38
560.258	142.38
560.47	138.38
560.683	141.38
560.895	117.38
561.107	131.38
561.32	136.38
561.532	139.38
561.744	132.38
561.956	150.38
562.168	134.38
562.381	135.38
562.593	140.38
562.805	124.38
563.017	131.38
563.229	140.38
563.441	129.38
563.653	133.38
563.865	126.38
564.077	126.38
564.289	128.38
564.501	113.38
564.713	123.38
564.925	125.38
565.137	113.38
565.349	106.38
565.561	128.38
565.773	118.38
565.985	123.38
566.197	115.38
566.408	117.38
566.62	116.38
566.832	123.38
567.044	128.38
567.255	111.38
567.467	134.38
567.679	102.38
567.891	123.38
568.102	100.38
568.314	93.38
568.526	97.38
568.737	106.38
568.949	95.38
569.161	98.38
569.372	91.38
569.584	84.38
569.795	96.38
570.007	85.38
570.218	71.38
570.43	91.38
570.641	88.38
570.853	105.38
571.064	96.38
571.276	107.38
571.487	133.38
571.698	111.38
571.91	107.38
572.121	111.38
572.333	119.38
572.544	105.38
572.755	103.38
572.966	91.38
573.178	95.38
573.389	90.38
573.6	90.38
573.811	78.38
574.023	78.38
574.234	81.38
574.445	90.38
574.656	84.38
574.867	99.38
575.078	114.38
575.289	91.38
575.501	89.38
575.712	107.38
575.923	86.38
576.134	105.38
576.345	96.38
576.556	116.38
576.767	92.38
576.978	101.38
577.188	86.38
577.399	87.38
577.61	95.38
577.821	106.38
578.032	91.38
578.243	83.38
578.454	106.38
578.665	73.38
578.875	80.38
579.086	75.38
579.297	96.38
579.508	89.38
579.718	89.38
579.929	87.38
580.14	78.38
580.35	83.38
580.561	85.38
580.772	96.38
580.982	81.38
581.193	82.38
581.403	105.38
581.614	94.38
581.825	87.38
582.035	92.38
582.246	92.38
582.456	89.38
582.667	95.38
582.877	85.38
583.087	103.38
583.298	105.38
583.508	87.38
583.719	91.38
583.929	90.38
584.139	78.38
584.35	87.38
584.56	89.38
584.77	95.38
584.981	79.38
585.191	89.38
585.401	86.38
585.611	97.38
585.821	87.38
586.032	104.38
586.242	92.38
586.452	88.38
586.662	83.38
586.872	84.38
587.082	84.38
587.292	91.38
587.502	84.38
587.713	89.38
587.923	90.38
588.133	96.38
588.343	106.38
588.553	99.38
588.762	84.38
588.972	111.38
589.182	94.38
589.392	90.38
589.602	81.38
589.812	87.38
590.022	85.38
590.232	89.38
590.441	87.38
590.651	96.38
590.861	83.38
591.071	88.38
591.281	100.38
591.49	86.38
591.7	74.38
591.91	85.38
592.119	100.38
592.329	83.38
592.539	73.38
592.748	83.38
592.958	90.38
593.167	99.38
593.377	95.38
593.587	93.38
593.796	91.38
594.006	81.38
594.215	91.38
594.424	91.38
594.634	90.38
594.843	103.38
595.053	113.38
595.262	82.38
595.472	89.38
595.681	88.38
595.89	91.38
596.1	101.38
596.309	91.38
596.518	93.38
596.727	98.38
596.937	109.38
597.146	105.38
597.355	87.38
597.564	101.38
597.774	102.38
597.983	89.38
598.192	91.38
598.401	79.38
598.61	87.38
598.819	100.38
599.028	92.38
599.237	95.38
599.446	94.38
599.655	97.38
599.864	107.38
600.073	100.38
600.282	97.38
600.491	89.38
600.7	103.38
600.909	106.38
601.118	102.38
601.327	117.38
601.536	109.38
601.745	106.38
601.953	97.38
602.162	97.38
602.371	105.38
602.58	117.38
602.789	104.38
602.997	111.38
603.206	124.38
603.415	114.38
603.623	100.38
603.832	114.38
604.041	113.38
604.249	117.38
604.458	101.38
604.666	102.38
604.875	92.38
605.084	96.38
605.292	100.38
605.501	121.38
605.709	115.38
605.918	127.38
606.126	111.38
606.334	108.38
606.543	119.38
606.751	113.38
606.96	103.38
607.168	104.38
607.376	102.38
607.585	107.38
607.793	100.38
608.001	124.38
608.21	110.38
608.418	104.38
608.626	104.38
608.834	119.38
609.043	115.38
609.251	115.38
609.459	114.38
609.667	121.38
609.875	121.38
610.083	137.38
610.291	115.38
610.499	121.38
610.707	117.38
610.916	114.38
611.124	115.38
611.332	120.38
611.54	114.38
611.748	122.38
611.955	141.38
612.163	122.38
612.371	116.38
612.579	123.38
612.787	127.38
612.995	124.38
613.203	130.38
613.411	125.38
613.618	127.38
613.826	113.38
614.034	108.38
614.242	124.38
614.449	112.38
614.657	128.38
614.865	115.38
615.072	121.38
615.28	102.38
615.488	118.38
615.695	108.38
615.903	123.38
616.111	127.38
616.318	116.38
616.526	116.38
616.733	119.38
616.941	111.38
617.148	124.38
617.356	121.38
617.563	109.38
617.771	119.38
617.978	116.38
618.185	112.38
618.393	106.38
618.6	103.38
618.807	104.38
619.015	122.38
619.222	112.38
619.429	105.38
619.637	102.38
619.844	101.38
620.051	117.38
620.258	103.38
620.466	113.38
620.673	106.38
620.88	104.38
621.087	126.38
621.294	120.38
621.501	90.38
621.708	113.38
621.915	99.38
622.122	106.38
622.329	104.38
622.536	107.38
622.743	100.38
622.95	102.38
623.157	111.38
623.364	107.38
623.571	109.38
623.778	122.38
623.985	118.38
624.192	116.38
624.399	129.38
624.606	115.38
624.812	106.38
625.019	109.38
625.226	110.38
625.433	102.38
625.639	108.38
625.846	97.38
626.053	92.38
626.259	111.38
626.466	100.38
626.673	113.38
626.879	108.38
627.086	110.38
627.293	109.38
627.499	102.38
627.706	103.38
627.912	113.38
628.119	112.38
628.325	127.38
628.532	124.38
628.738	104.38
628.945	117.38
629.151	104.38
629.357	102.38
629.564	108.38
629.77	99.38
629.976	95.38
630.183	124.38
630.389	104.38
630.595	86.38
630.802	103.38
631.008	104.38
631.214	113.38
631.42	103.38
631.627	101.38
631.833	103.38
632.039	115.38
632.245	98.38
632.451	113.38
632.657	109.38
632.863	110.38
633.069	101.38
633.275	106.38
633.481	96.38
633.688	102.38
633.893	115.38
634.099	115.38
634.305	95.38
634.511	105.38
634.717	106.38
634.923	89.38
635.129	103.38
635.335	86.38
635.541	96.38
635.747	118.38
635.952	112.38
636.158	99.38
636.364	108.38
636.57	102.38
636.775	88.38
636.981	101.38
637.187	104.38
637.392	112.38
637.598	114.38
637.804	104.38
638.009	99.38
638.215	89.38
638.421	98.38
638.626	95.38
638.832	111.38
639.037	101.38
639.243	101.38
639.448	111.38
639.654	89.38
639.859	98.38
640.065	103.38
640.27	98.38
640.475	100.38
640.681	103.38
640.886	105.38
641.091	93.38
641.297	104.38
641.502	122.38
641.707	97.38
641.913	111.38
642.118	100.38
642.323	88.38
642.528	103.38
642.733	108.38
642.939	113.38
643.144	103.38
643.349	95.38
643.554	89.38
643.759	100.38
643.964	106.38
644.169	105.38
644.374	101.38
644.579	85.38
644.784	92.38
644.989	107.38
645.194	106.38
645.399	113.38
645.604	103.38
645.809	101.38
646.014	102.38
646.219	111.38
646.423	106.38
646.628	108.38
646.833	85.38
647.038	100.38
647.243	100.38
647.447	108.38
647.652	108.38
647.857	98.38
648.062	97.38
648.266	107.38
648.471	97.38
648.676	98.38
648.88	101.38
649.085	101.38
649.289	87.38
649.494	111.38
649.698	107.38
649.903	101.38
650.107	106.38
650.312	92.38
650.516	92.38
650.721	102.38
650.925	92.38
651.13	94.38
651.334	95.38
651.539	78.38
651.743	100.38
651.947	99.38
652.152	84.38
652.356	94.38
652.56	96.38
652.764	96.38
652.969	96.38
653.173	93.38
653.377	95.38
653.581	90.38
653.785	98.38
653.99	90.38
654.194	108.38
654.398	109.38
654.602	97.38
654.806	87.38
655.01	92.38
655.214	92.38
655.418	87.38
655.622	104.38
655.826	88.38
656.03	93.38
656.234	90.38
656.438	85.38
656.642	95.38
656.846	81.38
657.049	75.38
657.253	89.38
657.457	97.38
657.661	68.38
657.865	84.38
658.068	80.38
658.272	82.38
658.476	99.38
658.68	84.38
658.883	97.38
659.087	91.38
659.291	92.38
659.494	77.38
659.698	90.38
659.901	91.38
660.105	91.38
660.309	91.38
660.512	81.38
660.716	93.38
660.919	86.38
661.123	85.38
661.326	84.38
661.53	94.38
661.733	88.38
661.936	90.38
662.14	74.38
662.343	81.38
662.546	74.38
662.75	88.38
662.953	92.38
663.156	90.38
663.36	89.38
663.563	70.38
663.766	77.38
663.969	81.38
664.173	92.38
664.376	77.38
664.579	78.38
664.782	81.38
664.985	93.38
665.188	88.38
665.391	66.38
665.594	85.38
665.797	76.38
666	88.38
666.203	72.38
666.406	90.38
666.609	65.38
666.812	91.38
667.015	77.38
667.218	88.38
667.421	90.38
667.624	88.38
667.827	85.38
668.03	81.38
668.232	76.38
668.435	97.38
668.638	80.38
668.841	76.38
669.043	79.38
669.246	73.38
669.449	92.38
669.651	83.38
669.854	89.38
670.057	84.38
670.259	88.38
670.462	82.38
670.665	88.38
670.867	79.38
671.07	88.38
671.272	87.38
671.475	90.38
671.677	90.38
671.88	80.38
672.082	83.38
672.284	90.38
672.487	88.38
672.689	80.38
672.892	80.38
