Data from Location6.07152019.Energy5.Lamp.07192019.3%Agarose_HRD10591_16-13-49-395.txt Node
Date: Fri Jul 19 16:13:49 EDT 2019
User: cochatt
Spectrometer: HR+D1059
Trigger mode: 1
Integration Time (sec): 1.000000E-1
Scans to average: 1
Electric dark correction enabled: true
Nonlinearity correction enabled: false
Boxcar width: 0
XAxis mode: Wavelengths
Number of Pixels in Spectrum: 2048
>>>>>Begin Spectral Data<<<<<
223.165	-16.94
223.4	-16.94
223.635	-16.94
223.869	-11.94
224.104	-22.94
224.338	-22.94
224.573	-10.94
224.808	-9.94
225.042	-9.94
225.277	-15.94
225.511	-3.94
225.746	18.06
225.98	3.06
226.215	11.06
226.449	9.06
226.683	20.06
226.918	33.06
227.152	31.06
227.387	39.06
227.621	47.06
227.856	35.06
228.09	48.06
228.324	59.06
228.559	51.06
228.793	49.06
229.027	48.06
229.262	69.06
229.496	64.06
229.73	75.06
229.964	76.06
230.199	73.06
230.433	82.06
230.667	74.06
230.901	79.06
231.136	77.06
231.37	76.06
231.604	84.06
231.838	86.06
232.072	64.06
232.306	78.06
232.541	89.06
232.775	81.06
233.009	83.06
233.243	74.06
233.477	77.06
233.711	82.06
233.945	87.06
234.179	91.06
234.413	64.06
234.647	83.06
234.881	82.06
235.115	70.06
235.349	75.06
235.583	75.06
235.817	80.06
236.051	72.06
236.285	89.06
236.519	92.06
236.753	69.06
236.987	70.06
237.221	76.06
237.455	68.06
237.689	62.06
237.922	86.06
238.156	82.06
238.39	72.06
238.624	79.06
238.858	75.06
239.091	91.06
239.325	67.06
239.559	79.06
239.793	82.06
240.027	61.06
240.26	87.06
240.494	63.06
240.728	70.06
240.961	84.06
241.195	74.06
241.429	73.06
241.662	74.06
241.896	68.06
242.13	77.06
242.363	77.06
242.597	62.06
242.83	72.06
243.064	68.06
243.298	61.06
243.531	74.06
243.765	74.06
243.998	70.06
244.232	79.06
244.465	78.06
244.699	64.06
244.932	71.06
245.166	80.06
245.399	75.06
245.633	79.06
245.866	80.06
246.099	80.06
246.333	74.06
246.566	67.06
246.8	67.06
247.033	79.06
247.266	90.06
247.5	67.06
247.733	77.06
247.966	80.06
248.2	66.06
248.433	85.06
248.666	80.06
248.899	68.06
249.133	80.06
249.366	80.06
249.599	72.06
249.832	64.06
250.066	75.06
250.299	81.06
250.532	79.06
250.765	78.06
250.998	102.06
251.231	74.06
251.465	69.06
251.698	66.06
251.931	70.06
252.164	74.06
252.397	87.06
252.63	78.06
252.863	74.06
253.096	78.06
253.329	70.06
253.562	82.06
253.795	94.06
254.028	82.06
254.261	71.06
254.494	85.06
254.727	70.06
254.96	81.06
255.193	83.06
255.426	65.06
255.659	74.06
255.892	81.06
256.124	74.06
256.357	81.06
256.59	90.06
256.823	72.06
257.056	92.06
257.289	80.06
257.521	74.06
257.754	92.06
257.987	78.06
258.22	92.06
258.452	86.06
258.685	75.06
258.918	72.06
259.151	75.06
259.383	81.06
259.616	82.06
259.849	75.06
260.081	72.06
260.314	92.06
260.547	82.06
260.779	82.06
261.012	91.06
261.244	83.06
261.477	81.06
261.71	75.06
261.942	84.06
262.175	71.06
262.407	88.06
262.64	81.06
262.872	75.06
263.105	70.06
263.337	84.06
263.57	73.06
263.802	73.06
264.035	96.06
264.267	86.06
264.499	82.06
264.732	89.06
264.964	85.06
265.197	85.06
265.429	88.06
265.661	86.06
265.894	70.06
266.126	92.06
266.358	89.06
266.591	95.06
266.823	78.06
267.055	80.06
267.287	81.06
267.52	81.06
267.752	75.06
267.984	83.06
268.216	86.06
268.448	86.06
268.681	81.06
268.913	83.06
269.145	72.06
269.377	74.06
269.609	91.06
269.841	85.06
270.073	81.06
270.306	72.06
270.538	70.06
270.77	80.06
271.002	82.06
271.234	87.06
271.466	87.06
271.698	68.06
271.93	83.06
272.162	67.06
272.394	93.06
272.626	81.06
272.858	77.06
273.09	87.06
273.322	90.06
273.553	86.06
273.785	88.06
274.017	82.06
274.249	69.06
274.481	85.06
274.713	83.06
274.945	94.06
275.176	72.06
275.408	87.06
275.64	82.06
275.872	73.06
276.104	72.06
276.335	99.06
276.567	81.06
276.799	70.06
277.031	79.06
277.262	81.06
277.494	64.06
277.726	80.06
277.957	85.06
278.189	86.06
278.421	91.06
278.652	80.06
278.884	81.06
279.115	79.06
279.347	90.06
279.579	81.06
279.81	83.06
280.042	89.06
280.273	80.06
280.505	91.06
280.736	83.06
280.968	87.06
281.199	82.06
281.431	78.06
281.662	94.06
281.894	86.06
282.125	85.06
282.356	81.06
282.588	76.06
282.819	87.06
283.051	83.06
283.282	76.06
283.513	94.06
283.745	82.06
283.976	78.06
284.207	80.06
284.439	81.06
284.67	87.06
284.901	67.06
285.132	76.06
285.364	92.06
285.595	76.06
285.826	79.06
286.057	80.06
286.288	76.06
286.52	89.06
286.751	82.06
286.982	83.06
287.213	91.06
287.444	98.06
287.675	80.06
287.906	91.06
288.138	82.06
288.369	77.06
288.6	85.06
288.831	74.06
289.062	87.06
289.293	94.06
289.524	90.06
289.755	86.06
289.986	79.06
290.217	76.06
290.448	91.06
290.679	80.06
290.91	87.06
291.141	72.06
291.371	82.06
291.602	70.06
291.833	80.06
292.064	75.06
292.295	85.06
292.526	80.06
292.757	67.06
292.987	86.06
293.218	89.06
293.449	86.06
293.68	87.06
293.91	79.06
294.141	79.06
294.372	79.06
294.603	82.06
294.833	81.06
295.064	81.06
295.295	86.06
295.525	90.06
295.756	98.06
295.987	94.06
296.217	78.06
296.448	90.06
296.679	77.06
296.909	88.06
297.14	87.06
297.37	66.06
297.601	77.06
297.831	87.06
298.062	80.06
298.292	91.06
298.523	85.06
298.753	73.06
298.984	87.06
299.214	82.06
299.445	90.06
299.675	90.06
299.905	86.06
300.136	90.06
300.366	69.06
300.597	77.06
300.827	95.06
301.057	81.06
301.288	78.06
301.518	83.06
301.748	77.06
301.979	81.06
302.209	84.06
302.439	95.06
302.669	89.06
302.9	92.06
303.13	98.06
303.36	89.06
303.59	76.06
303.82	81.06
304.051	81.06
304.281	102.06
304.511	77.06
304.741	73.06
304.971	88.06
305.201	87.06
305.431	91.06
305.661	91.06
305.891	92.06
306.121	86.06
306.352	94.06
306.582	87.06
306.812	85.06
307.042	81.06
307.272	75.06
307.502	65.06
307.731	75.06
307.961	84.06
308.191	78.06
308.421	91.06
308.651	87.06
308.881	79.06
309.111	87.06
309.341	79.06
309.571	89.06
309.8	86.06
310.03	77.06
310.26	98.06
310.49	76.06
310.72	80.06
310.949	82.06
311.179	78.06
311.409	90.06
311.639	93.06
311.868	81.06
312.098	92.06
312.328	80.06
312.557	93.06
312.787	78.06
313.017	79.06
313.246	71.06
313.476	91.06
313.706	84.06
313.935	70.06
314.165	95.06
314.394	92.06
314.624	83.06
314.853	96.06
315.083	82.06
315.312	86.06
315.542	87.06
315.771	74.06
316.001	82.06
316.23	94.06
316.46	94.06
316.689	95.06
316.919	90.06
317.148	88.06
317.377	80.06
317.607	87.06
317.836	92.06
318.065	94.06
318.295	91.06
318.524	84.06
318.753	85.06
318.983	88.06
319.212	92.06
319.441	94.06
319.67	84.06
319.9	74.06
320.129	77.06
320.358	72.06
320.587	86.06
320.816	73.06
321.046	79.06
321.275	82.06
321.504	83.06
321.733	82.06
321.962	76.06
322.191	74.06
322.42	89.06
322.649	93.06
322.878	87.06
323.108	98.06
323.337	75.06
323.566	87.06
323.795	83.06
324.024	80.06
324.253	80.06
324.482	80.06
324.71	98.06
324.939	85.06
325.168	89.06
325.397	86.06
325.626	84.06
325.855	76.06
326.084	91.06
326.313	83.06
326.542	83.06
326.77	86.06
326.999	86.06
327.228	69.06
327.457	87.06
327.686	68.06
327.914	96.06
328.143	83.06
328.372	92.06
328.6	77.06
328.829	91.06
329.058	73.06
329.287	70.06
329.515	74.06
329.744	78.06
329.972	85.06
330.201	74.06
330.43	87.06
330.658	87.06
330.887	79.06
331.115	81.06
331.344	77.06
331.572	78.06
331.801	86.06
332.03	65.06
332.258	88.06
332.486	82.06
332.715	78.06
332.943	84.06
333.172	95.06
333.4	78.06
333.629	74.06
333.857	84.06
334.085	89.06
334.314	79.06
334.542	87.06
334.771	90.06
334.999	86.06
335.227	88.06
335.455	91.06
335.684	81.06
335.912	79.06
336.14	86.06
336.369	73.06
336.597	70.06
336.825	91.06
337.053	84.06
337.281	89.06
337.51	78.06
337.738	72.06
337.966	78.06
338.194	80.06
338.422	76.06
338.65	87.06
338.878	84.06
339.106	90.06
339.334	91.06
339.562	91.06
339.79	89.06
340.018	87.06
340.246	80.06
340.474	75.06
340.702	82.06
340.93	65.06
341.158	73.06
341.386	98.06
341.614	85.06
341.842	69.06
342.07	91.06
342.298	92.06
342.526	80.06
342.754	90.06
342.981	81.06
343.209	81.06
343.437	74.06
343.665	83.06
343.893	80.06
344.12	97.06
344.348	92.06
344.576	85.06
344.804	70.06
345.031	72.06
345.259	86.06
345.487	89.06
345.714	86.06
345.942	75.06
346.17	86.06
346.397	88.06
346.625	79.06
346.853	97.06
347.08	82.06
347.308	65.06
347.535	88.06
347.763	78.06
347.99	92.06
348.218	89.06
348.445	96.06
348.673	95.06
348.9	69.06
349.128	96.06
349.355	87.06
349.583	88.06
349.81	74.06
350.037	86.06
350.265	89.06
350.492	103.06
350.72	83.06
350.947	89.06
351.174	92.06
351.402	79.06
351.629	80.06
351.856	91.06
352.083	93.06
352.311	94.06
352.538	91.06
352.765	95.06
352.992	83.06
353.22	79.06
353.447	86.06
353.674	90.06
353.901	88.06
354.128	91.06
354.355	84.06
354.583	70.06
354.81	80.06
355.037	96.06
355.264	94.06
355.491	95.06
355.718	84.06
355.945	89.06
356.172	88.06
356.399	96.06
356.626	76.06
356.853	77.06
357.08	90.06
357.307	84.06
357.534	86.06
357.761	95.06
357.988	88.06
358.215	88.06
358.441	92.06
358.668	86.06
358.895	90.06
359.122	91.06
359.349	93.06
359.576	94.06
359.802	85.06
360.029	88.06
360.256	80.06
360.483	78.06
360.709	80.06
360.936	91.06
361.163	90.06
361.39	94.06
361.616	85.06
361.843	91.06
362.07	83.06
362.296	91.06
362.523	73.06
362.749	81.06
362.976	81.06
363.203	77.06
363.429	78.06
363.656	81.06
363.882	89.06
364.109	88.06
364.335	78.06
364.562	87.06
364.788	82.06
365.015	84.06
365.241	93.06
365.468	77.06
365.694	83.06
365.92	82.06
366.147	83.06
366.373	104.06
366.599	74.06
366.826	82.06
367.052	86.06
367.278	95.06
367.505	94.06
367.731	94.06
367.957	84.06
368.184	93.06
368.41	83.06
368.636	72.06
368.862	100.06
369.089	86.06
369.315	84.06
369.541	95.06
369.767	90.06
369.993	82.06
370.219	89.06
370.445	87.06
370.672	89.06
370.898	82.06
371.124	83.06
371.35	78.06
371.576	81.06
371.802	99.06
372.028	78.06
372.254	91.06
372.48	100.06
372.706	95.06
372.932	78.06
373.158	105.06
373.384	89.06
373.61	99.06
373.835	92.06
374.061	96.06
374.287	89.06
374.513	95.06
374.739	83.06
374.965	99.06
375.191	89.06
375.416	98.06
375.642	82.06
375.868	93.06
376.094	83.06
376.319	104.06
376.545	98.06
376.771	95.06
376.997	94.06
377.222	97.06
377.448	84.06
377.674	88.06
377.899	94.06
378.125	92.06
378.35	104.06
378.576	89.06
378.802	88.06
379.027	94.06
379.253	112.06
379.478	109.06
379.704	86.06
379.929	100.06
380.155	98.06
380.38	80.06
380.606	91.06
380.831	99.06
381.057	101.06
381.282	102.06
381.507	103.06
381.733	89.06
381.958	97.06
382.184	105.06
382.409	91.06
382.634	97.06
382.86	103.06
383.085	91.06
383.31	111.06
383.535	98.06
383.761	98.06
383.986	99.06
384.211	107.06
384.436	96.06
384.662	105.06
384.887	94.06
385.112	98.06
385.337	84.06
385.562	100.06
385.787	90.06
386.013	112.06
386.238	99.06
386.463	99.06
386.688	103.06
386.913	96.06
387.138	104.06
387.363	91.06
387.588	77.06
387.813	110.06
388.038	102.06
388.263	112.06
388.488	107.06
388.713	101.06
388.938	84.06
389.163	118.06
389.387	96.06
389.612	92.06
389.837	115.06
390.062	103.06
390.287	118.06
390.512	92.06
390.736	75.06
390.961	104.06
391.186	96.06
391.411	91.06
391.636	82.06
391.86	104.06
392.085	108.06
392.31	101.06
392.534	99.06
392.759	89.06
392.984	103.06
393.208	102.06
393.433	113.06
393.658	121.06
393.882	116.06
394.107	103.06
394.331	98.06
394.556	97.06
394.78	104.06
395.005	106.06
395.229	121.06
395.454	101.06
395.678	105.06
395.903	91.06
396.127	100.06
396.352	111.06
396.576	102.06
396.801	115.06
397.025	102.06
397.249	114.06
397.474	106.06
397.698	111.06
397.922	89.06
398.147	115.06
398.371	118.06
398.595	104.06
398.82	100.06
399.044	118.06
399.268	119.06
399.492	110.06
399.717	106.06
399.941	119.06
400.165	107.06
400.389	119.06
400.613	118.06
400.837	108.06
401.062	113.06
401.286	103.06
401.51	120.06
401.734	108.06
401.958	102.06
402.182	93.06
402.406	136.06
402.63	120.06
402.854	127.06
403.078	118.06
403.302	120.06
403.526	116.06
403.75	125.06
403.974	120.06
404.198	114.06
404.422	120.06
404.645	117.06
404.869	124.06
405.093	120.06
405.317	122.06
405.541	124.06
405.765	106.06
405.988	120.06
406.212	130.06
406.436	122.06
406.66	113.06
406.883	118.06
407.107	115.06
407.331	106.06
407.555	122.06
407.778	116.06
408.002	128.06
408.226	126.06
408.449	132.06
408.673	123.06
408.896	118.06
409.12	118.06
409.344	130.06
409.567	121.06
409.791	118.06
410.014	117.06
410.238	116.06
410.461	115.06
410.685	127.06
410.908	131.06
411.132	122.06
411.355	125.06
411.578	126.06
411.802	116.06
412.025	122.06
412.249	123.06
412.472	116.06
412.695	117.06
412.919	107.06
413.142	107.06
413.365	106.06
413.589	128.06
413.812	116.06
414.035	141.06
414.258	122.06
414.482	115.06
414.705	123.06
414.928	131.06
415.151	132.06
415.374	131.06
415.597	134.06
415.821	126.06
416.044	128.06
416.267	118.06
416.49	128.06
416.713	127.06
416.936	136.06
417.159	134.06
417.382	130.06
417.605	125.06
417.828	129.06
418.051	133.06
418.274	133.06
418.497	122.06
418.72	119.06
418.943	129.06
419.166	136.06
419.389	134.06
419.611	128.06
419.834	133.06
420.057	124.06
420.28	138.06
420.503	137.06
420.726	140.06
420.948	130.06
421.171	148.06
421.394	124.06
421.617	146.06
421.839	137.06
422.062	150.06
422.285	144.06
422.507	136.06
422.73	115.06
422.953	122.06
423.175	144.06
423.398	144.06
423.621	140.06
423.843	124.06
424.066	144.06
424.288	136.06
424.511	138.06
424.733	147.06
424.956	142.06
425.178	144.06
425.401	145.06
425.623	136.06
425.846	138.06
426.068	137.06
426.291	142.06
426.513	124.06
426.735	122.06
426.958	129.06
427.18	134.06
427.402	118.06
427.625	123.06
427.847	131.06
428.069	129.06
428.292	133.06
428.514	134.06
428.736	122.06
428.958	144.06
429.181	127.06
429.403	121.06
429.625	132.06
429.847	129.06
430.069	124.06
430.292	135.06
430.514	134.06
430.736	115.06
430.958	136.06
431.18	121.06
431.402	128.06
431.624	106.06
431.846	110.06
432.068	102.06
432.29	96.06
432.512	112.06
432.734	124.06
432.956	137.06
433.178	144.06
433.4	152.06
433.622	144.06
433.844	133.06
434.066	115.06
434.287	90.06
434.509	88.06
434.731	100.06
434.953	122.06
435.175	124.06
435.397	144.06
435.618	122.06
435.84	128.06
436.062	120.06
436.284	128.06
436.505	136.06
436.727	132.06
436.949	139.06
437.17	127.06
437.392	123.06
437.614	129.06
437.835	102.06
438.057	113.06
438.278	110.06
438.5	126.06
438.721	128.06
438.943	137.06
439.165	143.06
439.386	137.06
439.608	153.06
439.829	145.06
440.05	154.06
440.272	137.06
440.493	152.06
440.715	151.06
440.936	147.06
441.158	148.06
441.379	135.06
441.6	141.06
441.822	150.06
442.043	138.06
442.264	133.06
442.486	132.06
442.707	135.06
442.928	158.06
443.149	139.06
443.371	141.06
443.592	142.06
443.813	149.06
444.034	151.06
444.255	138.06
444.476	134.06
444.698	131.06
444.919	151.06
445.14	272.06
445.361	205.06
445.582	132.06
445.803	165.06
446.024	146.06
446.245	151.06
446.466	176.06
446.687	160.06
446.908	154.06
447.129	149.06
447.35	150.06
447.571	159.06
447.792	133.06
448.013	143.06
448.234	160.06
448.455	121.06
448.675	143.06
448.896	132.06
449.117	135.06
449.338	138.06
449.559	146.06
449.779	143.06
450	134.06
450.221	127.06
450.442	132.06
450.662	145.06
450.883	132.06
451.104	130.06
451.324	144.06
451.545	144.06
451.766	143.06
451.986	136.06
452.207	123.06
452.428	123.06
452.648	133.06
452.869	138.06
453.089	107.06
453.31	118.06
453.53	119.06
453.751	109.06
453.971	118.06
454.192	110.06
454.412	118.06
454.633	115.06
454.853	110.06
455.073	126.06
455.294	114.06
455.514	124.06
455.734	115.06
455.955	130.06
456.175	115.06
456.395	111.06
456.616	108.06
456.836	114.06
457.056	106.06
457.276	107.06
457.497	96.06
457.717	100.06
457.937	107.06
458.157	115.06
458.377	92.06
458.598	104.06
458.818	91.06
459.038	90.06
459.258	103.06
459.478	86.06
459.698	96.06
459.918	104.06
460.138	114.06
460.358	111.06
460.578	105.06
460.798	116.06
461.018	119.06
461.238	117.06
461.458	122.06
461.678	111.06
461.898	108.06
462.118	112.06
462.338	108.06
462.558	121.06
462.777	114.06
462.997	114.06
463.217	109.06
463.437	107.06
463.657	97.06
463.876	119.06
464.096	106.06
464.316	116.06
464.536	124.06
464.755	112.06
464.975	113.06
465.195	114.06
465.414	108.06
465.634	120.06
465.854	122.06
466.073	118.06
466.293	137.06
466.512	136.06
466.732	124.06
466.951	132.06
467.171	138.06
467.391	144.06
467.61	146.06
467.829	142.06
468.049	134.06
468.268	146.06
468.488	142.06
468.707	130.06
468.927	138.06
469.146	147.06
469.365	143.06
469.585	142.06
469.804	126.06
470.023	148.06
470.243	146.06
470.462	135.06
470.681	150.06
470.901	132.06
471.12	139.06
471.339	138.06
471.558	161.06
471.777	126.06
471.997	138.06
472.216	131.06
472.435	119.06
472.654	114.06
472.873	129.06
473.092	108.06
473.311	128.06
473.53	140.06
473.749	131.06
473.968	130.06
474.187	129.06
474.406	134.06
474.625	133.06
474.844	133.06
475.063	145.06
475.282	121.06
475.501	122.06
475.72	114.06
475.939	127.06
476.158	136.06
476.377	132.06
476.596	127.06
476.814	112.06
477.033	111.06
477.252	113.06
477.471	118.06
477.69	118.06
477.908	155.06
478.127	140.06
478.346	143.06
478.564	137.06
478.783	137.06
479.002	146.06
479.22	140.06
479.439	132.06
479.658	118.06
479.876	118.06
480.095	111.06
480.313	126.06
480.532	130.06
480.751	130.06
480.969	112.06
481.188	95.06
481.406	91.06
481.624	82.06
481.843	84.06
482.061	103.06
482.28	118.06
482.498	113.06
482.717	118.06
482.935	128.06
483.153	153.06
483.372	151.06
483.59	166.06
483.808	150.06
484.027	144.06
484.245	119.06
484.463	154.06
484.681	170.06
484.9	166.06
485.118	145.06
485.336	138.06
485.554	122.06
485.772	122.06
485.99	107.06
486.209	94.06
486.427	101.06
486.645	127.06
486.863	135.06
487.081	135.06
487.299	132.06
487.517	140.06
487.735	168.06
487.953	200.06
488.171	192.06
488.389	183.06
488.607	169.06
488.825	136.06
489.043	122.06
489.261	131.06
489.479	153.06
489.696	157.06
489.914	154.06
490.132	146.06
490.35	159.06
490.568	169.06
490.786	183.06
491.003	183.06
491.221	196.06
491.439	188.06
491.657	196.06
491.874	216.06
492.092	223.06
492.31	261.06
492.527	238.06
492.745	222.06
492.963	208.06
493.18	191.06
493.398	204.06
493.615	174.06
493.833	176.06
494.05	190.06
494.268	184.06
494.485	160.06
494.703	172.06
494.92	178.06
495.138	186.06
495.355	170.06
495.573	174.06
495.79	170.06
496.008	169.06
496.225	180.06
496.442	152.06
496.66	176.06
496.877	163.06
497.094	175.06
497.312	171.06
497.529	181.06
497.746	159.06
497.963	136.06
498.181	128.06
498.398	130.06
498.615	115.06
498.832	123.06
499.049	119.06
499.267	133.06
499.484	119.06
499.701	137.06
499.918	146.06
500.135	140.06
500.352	128.06
500.569	135.06
500.786	144.06
501.003	146.06
501.22	140.06
501.437	154.06
501.654	135.06
501.871	128.06
502.088	132.06
502.305	138.06
502.522	134.06
502.739	148.06
502.956	134.06
503.172	123.06
503.389	121.06
503.606	119.06
503.823	112.06
504.04	118.06
504.256	118.06
504.473	115.06
504.69	129.06
504.907	110.06
505.123	122.06
505.34	124.06
505.557	126.06
505.773	124.06
505.99	124.06
506.207	122.06
506.423	131.06
506.64	125.06
506.856	113.06
507.073	131.06
507.289	122.06
507.506	114.06
507.722	117.06
507.939	118.06
508.155	107.06
508.372	98.06
508.588	103.06
508.805	110.06
509.021	116.06
509.238	106.06
509.454	90.06
509.67	111.06
509.887	95.06
510.103	96.06
510.319	92.06
510.536	98.06
510.752	81.06
510.968	88.06
511.184	96.06
511.401	84.06
511.617	95.06
511.833	97.06
512.049	91.06
512.265	93.06
512.481	101.06
512.698	90.06
512.914	96.06
513.13	78.06
513.346	90.06
513.562	103.06
513.778	90.06
513.994	91.06
514.21	87.06
514.426	95.06
514.642	104.06
514.858	94.06
515.074	79.06
515.29	102.06
515.506	86.06
515.721	96.06
515.937	89.06
516.153	96.06
516.369	84.06
516.585	95.06
516.801	81.06
517.016	94.06
517.232	97.06
517.448	97.06
517.664	92.06
517.879	99.06
518.095	97.06
518.311	100.06
518.527	84.06
518.742	113.06
518.958	113.06
519.173	120.06
519.389	108.06
519.605	97.06
519.82	105.06
520.036	106.06
520.251	107.06
520.467	106.06
520.682	103.06
520.898	87.06
521.113	95.06
521.329	103.06
521.544	82.06
521.76	88.06
521.975	96.06
522.19	109.06
522.406	99.06
522.621	86.06
522.836	105.06
523.052	105.06
523.267	109.06
523.482	119.06
523.698	106.06
523.913	117.06
524.128	112.06
524.343	130.06
524.559	122.06
524.774	120.06
524.989	126.06
525.204	124.06
525.419	108.06
525.634	113.06
525.849	95.06
526.064	96.06
526.28	96.06
526.495	74.06
526.71	83.06
526.925	84.06
527.14	87.06
527.355	102.06
527.57	80.06
527.785	105.06
527.999	97.06
528.214	113.06
528.429	98.06
528.644	124.06
528.859	133.06
529.074	154.06
529.289	163.06
529.503	168.06
529.718	140.06
529.933	129.06
530.148	117.06
530.363	100.06
530.577	92.06
530.792	90.06
531.007	80.06
531.221	82.06
531.436	65.06
531.651	78.06
531.865	91.06
532.08	98.06
532.295	88.06
532.509	89.06
532.724	79.06
532.938	88.06
533.153	98.06
533.367	119.06
533.582	120.06
533.796	128.06
534.011	120.06
534.225	106.06
534.44	94.06
534.654	94.06
534.868	101.06
535.083	101.06
535.297	89.06
535.511	103.06
535.726	96.06
535.94	93.06
536.154	104.06
536.369	90.06
536.583	93.06
536.797	88.06
537.011	92.06
537.225	79.06
537.44	96.06
537.654	89.06
537.868	91.06
538.082	93.06
538.296	98.06
538.51	104.06
538.724	118.06
538.938	122.06
539.153	135.06
539.367	130.06
539.581	116.06
539.795	114.06
540.009	102.06
540.222	90.06
540.436	103.06
540.65	117.06
540.864	135.06
541.078	138.06
541.292	147.06
541.506	150.06
541.72	184.06
541.934	193.06
542.147	188.06
542.361	204.06
542.575	177.06
542.789	169.06
543.002	141.06
543.216	130.06
543.43	130.06
543.644	141.06
543.857	148.06
544.071	166.06
544.285	173.06
544.498	163.06
544.712	166.06
544.925	177.06
545.139	169.06
545.352	186.06
545.566	163.06
545.779	159.06
545.993	180.06
546.206	184.06
546.42	170.06
546.633	168.06
546.847	163.06
547.06	168.06
547.274	169.06
547.487	159.06
547.7	168.06
547.914	183.06
548.127	166.06
548.34	148.06
548.554	156.06
548.767	168.06
548.98	166.06
549.193	148.06
549.407	155.06
549.62	158.06
549.833	160.06
550.046	147.06
550.259	149.06
550.473	153.06
550.686	173.06
550.899	156.06
551.112	143.06
551.325	146.06
551.538	156.06
551.751	124.06
551.964	130.06
552.177	136.06
552.39	144.06
552.603	156.06
552.816	161.06
553.029	170.06
553.242	167.06
553.455	166.06
553.667	156.06
553.88	155.06
554.093	158.06
554.306	152.06
554.519	160.06
554.732	159.06
554.944	145.06
555.157	159.06
555.37	146.06
555.583	132.06
555.795	139.06
556.008	150.06
556.221	130.06
556.433	140.06
556.646	127.06
556.859	132.06
557.071	155.06
557.284	146.06
557.496	153.06
557.709	129.06
557.921	140.06
558.134	138.06
558.346	156.06
558.559	130.06
558.771	136.06
558.984	133.06
559.196	136.06
559.409	141.06
559.621	132.06
559.833	122.06
560.046	133.06
560.258	134.06
560.47	135.06
560.683	138.06
560.895	118.06
561.107	127.06
561.32	121.06
561.532	120.06
561.744	128.06
561.956	147.06
562.168	137.06
562.381	136.06
562.593	135.06
562.805	128.06
563.017	132.06
563.229	122.06
563.441	134.06
563.653	125.06
563.865	118.06
564.077	136.06
564.289	139.06
564.501	115.06
564.713	130.06
564.925	111.06
565.137	114.06
565.349	112.06
565.561	90.06
565.773	111.06
565.985	120.06
566.197	121.06
566.408	107.06
566.62	126.06
566.832	119.06
567.044	122.06
567.255	126.06
567.467	120.06
567.679	105.06
567.891	112.06
568.102	109.06
568.314	103.06
568.526	99.06
568.737	89.06
568.949	76.06
569.161	88.06
569.372	84.06
569.584	80.06
569.795	86.06
570.007	84.06
570.218	104.06
570.43	87.06
570.641	102.06
570.853	97.06
571.064	100.06
571.276	108.06
571.487	105.06
571.698	105.06
571.91	107.06
572.121	107.06
572.333	101.06
572.544	96.06
572.755	88.06
572.966	83.06
573.178	86.06
573.389	88.06
573.6	76.06
573.811	83.06
574.023	82.06
574.234	88.06
574.445	81.06
574.656	102.06
574.867	106.06
575.078	87.06
575.289	94.06
575.501	85.06
575.712	92.06
575.923	97.06
576.134	95.06
576.345	97.06
576.556	104.06
576.767	101.06
576.978	107.06
577.188	109.06
577.399	90.06
577.61	96.06
577.821	101.06
578.032	97.06
578.243	96.06
578.454	107.06
578.665	100.06
578.875	75.06
579.086	87.06
579.297	87.06
579.508	86.06
579.718	88.06
579.929	84.06
580.14	70.06
580.35	75.06
580.561	80.06
580.772	87.06
580.982	103.06
581.193	107.06
581.403	107.06
581.614	92.06
581.825	89.06
582.035	82.06
582.246	92.06
582.456	98.06
582.667	86.06
582.877	96.06
583.087	95.06
583.298	103.06
583.508	83.06
583.719	83.06
583.929	85.06
584.139	83.06
584.35	85.06
584.56	89.06
584.77	91.06
584.981	95.06
585.191	86.06
585.401	78.06
585.611	81.06
585.821	90.06
586.032	87.06
586.242	75.06
586.452	87.06
586.662	81.06
586.872	82.06
587.082	87.06
587.292	84.06
587.502	82.06
587.713	65.06
587.923	89.06
588.133	86.06
588.343	89.06
588.553	80.06
588.762	86.06
588.972	82.06
589.182	75.06
589.392	80.06
589.602	85.06
589.812	80.06
590.022	91.06
590.232	79.06
590.441	84.06
590.651	83.06
590.861	86.06
591.071	90.06
591.281	83.06
591.49	91.06
591.7	78.06
591.91	96.06
592.119	83.06
592.329	92.06
592.539	92.06
592.748	89.06
592.958	83.06
593.167	79.06
593.377	87.06
593.587	95.06
593.796	80.06
594.006	79.06
594.215	84.06
594.424	85.06
594.634	99.06
594.843	91.06
595.053	96.06
595.262	87.06
595.472	99.06
595.681	89.06
595.89	86.06
596.1	81.06
596.309	95.06
596.518	85.06
596.727	96.06
596.937	95.06
597.146	106.06
597.355	92.06
597.564	96.06
597.774	87.06
597.983	102.06
598.192	85.06
598.401	91.06
598.61	84.06
598.819	103.06
599.028	92.06
599.237	94.06
599.446	110.06
599.655	84.06
599.864	89.06
600.073	99.06
600.282	98.06
600.491	100.06
600.7	106.06
600.909	107.06
601.118	92.06
601.327	111.06
601.536	124.06
601.745	128.06
601.953	112.06
602.162	102.06
602.371	103.06
602.58	94.06
602.789	106.06
602.997	121.06
603.206	110.06
603.415	98.06
603.623	115.06
603.832	114.06
604.041	97.06
604.249	102.06
604.458	94.06
604.666	92.06
604.875	95.06
605.084	116.06
605.292	115.06
605.501	107.06
605.709	114.06
605.918	122.06
606.126	126.06
606.334	104.06
606.543	129.06
606.751	104.06
606.96	107.06
607.168	105.06
607.376	96.06
607.585	118.06
607.793	114.06
608.001	103.06
608.21	88.06
608.418	100.06
608.626	113.06
608.834	116.06
609.043	131.06
609.251	116.06
609.459	108.06
609.667	120.06
609.875	121.06
610.083	111.06
610.291	119.06
610.499	124.06
610.707	112.06
610.916	110.06
611.124	121.06
611.332	99.06
611.54	104.06
611.748	119.06
611.955	117.06
612.163	115.06
612.371	106.06
612.579	106.06
612.787	120.06
612.995	111.06
613.203	120.06
613.411	107.06
613.618	122.06
613.826	119.06
614.034	114.06
614.242	110.06
614.449	110.06
614.657	106.06
614.865	121.06
615.072	126.06
615.28	105.06
615.488	94.06
615.695	112.06
615.903	118.06
616.111	105.06
616.318	113.06
616.526	116.06
616.733	111.06
616.941	110.06
617.148	137.06
617.356	113.06
617.563	101.06
617.771	103.06
617.978	111.06
618.185	118.06
618.393	111.06
618.6	112.06
618.807	112.06
619.015	104.06
619.222	99.06
619.429	111.06
619.637	99.06
619.844	108.06
620.051	104.06
620.258	120.06
620.466	114.06
620.673	95.06
620.88	120.06
621.087	102.06
621.294	101.06
621.501	94.06
621.708	112.06
621.915	126.06
622.122	116.06
622.329	97.06
622.536	96.06
622.743	114.06
622.95	122.06
623.157	100.06
623.364	102.06
623.571	107.06
623.778	117.06
623.985	104.06
624.192	103.06
624.399	120.06
624.606	115.06
624.812	103.06
625.019	113.06
625.226	110.06
625.433	111.06
625.639	107.06
625.846	112.06
626.053	106.06
626.259	94.06
626.466	102.06
626.673	97.06
626.879	98.06
627.086	92.06
627.293	102.06
627.499	110.06
627.706	122.06
627.912	103.06
628.119	112.06
628.325	127.06
628.532	115.06
628.738	102.06
628.945	101.06
629.151	100.06
629.357	109.06
629.564	109.06
629.77	99.06
629.976	90.06
630.183	99.06
630.389	108.06
630.595	103.06
630.802	106.06
631.008	107.06
631.214	99.06
631.42	107.06
631.627	90.06
631.833	107.06
632.039	115.06
632.245	112.06
632.451	116.06
632.657	110.06
632.863	91.06
633.069	107.06
633.275	91.06
633.481	90.06
633.688	97.06
633.893	109.06
634.099	99.06
634.305	94.06
634.511	98.06
634.717	99.06
634.923	89.06
635.129	94.06
635.335	90.06
635.541	81.06
635.747	99.06
635.952	98.06
636.158	112.06
636.364	106.06
636.57	98.06
636.775	99.06
636.981	114.06
637.187	112.06
637.392	114.06
637.598	100.06
637.804	112.06
638.009	96.06
638.215	94.06
638.421	102.06
638.626	111.06
638.832	98.06
639.037	116.06
639.243	109.06
639.448	88.06
639.654	89.06
639.859	108.06
640.065	105.06
640.27	107.06
640.475	101.06
640.681	102.06
640.886	101.06
641.091	106.06
641.297	110.06
641.502	88.06
641.707	108.06
641.913	110.06
642.118	99.06
642.323	101.06
642.528	103.06
642.733	105.06
642.939	108.06
643.144	98.06
643.349	97.06
643.554	115.06
643.759	107.06
643.964	114.06
644.169	101.06
644.374	118.06
644.579	103.06
644.784	110.06
644.989	103.06
645.194	104.06
645.399	94.06
645.604	98.06
645.809	102.06
646.014	98.06
646.219	90.06
646.423	107.06
646.628	97.06
646.833	112.06
647.038	97.06
647.243	90.06
647.447	94.06
647.652	92.06
647.857	104.06
648.062	89.06
648.266	89.06
648.471	86.06
648.676	110.06
648.88	100.06
649.085	99.06
649.289	100.06
649.494	92.06
649.698	88.06
649.903	93.06
650.107	107.06
650.312	93.06
650.516	103.06
650.721	109.06
650.925	89.06
651.13	98.06
651.334	99.06
651.539	81.06
651.743	95.06
651.947	112.06
652.152	89.06
652.356	86.06
652.56	89.06
652.764	96.06
652.969	96.06
653.173	103.06
653.377	94.06
653.581	76.06
653.785	90.06
653.99	95.06
654.194	98.06
654.398	97.06
654.602	97.06
654.806	92.06
655.01	90.06
655.214	94.06
655.418	91.06
655.622	104.06
655.826	95.06
656.03	84.06
656.234	83.06
656.438	74.06
656.642	92.06
656.846	80.06
657.049	103.06
657.253	83.06
657.457	85.06
657.661	109.06
657.865	87.06
658.068	86.06
658.272	89.06
658.476	86.06
658.68	88.06
658.883	89.06
659.087	75.06
659.291	91.06
659.494	74.06
659.698	86.06
659.901	81.06
660.105	86.06
660.309	85.06
660.512	91.06
660.716	79.06
660.919	75.06
661.123	95.06
661.326	81.06
661.53	90.06
661.733	81.06
661.936	71.06
662.14	84.06
662.343	78.06
662.546	74.06
662.75	88.06
662.953	76.06
663.156	69.06
663.36	74.06
663.563	74.06
663.766	76.06
663.969	86.06
664.173	73.06
664.376	86.06
664.579	82.06
664.782	76.06
664.985	83.06
665.188	71.06
665.391	81.06
665.594	85.06
665.797	77.06
666	70.06
666.203	83.06
666.406	78.06
666.609	90.06
666.812	83.06
667.015	68.06
667.218	72.06
667.421	78.06
667.624	88.06
667.827	81.06
668.03	75.06
668.232	84.06
668.435	72.06
668.638	78.06
668.841	98.06
669.043	88.06
669.246	83.06
669.449	65.06
669.651	100.06
669.854	81.06
670.057	89.06
670.259	75.06
670.462	96.06
670.665	84.06
670.867	85.06
671.07	94.06
671.272	78.06
671.475	87.06
671.677	80.06
671.88	70.06
672.082	83.06
672.284	80.06
672.487	73.06
672.689	82.06
672.892	80.06
