Data from Location6.07152019.Energy5.Lamp.07192019.3%Agarose_HRD10591_16-11-33-395.txt Node
Date: Fri Jul 19 16:11:33 EDT 2019
User: cochatt
Spectrometer: HR+D1059
Trigger mode: 1
Integration Time (sec): 1.000000E-1
Scans to average: 1
Electric dark correction enabled: true
Nonlinearity correction enabled: false
Boxcar width: 0
XAxis mode: Wavelengths
Number of Pixels in Spectrum: 2048
>>>>>Begin Spectral Data<<<<<
223.165	-15.94
223.4	-15.94
223.635	-15.94
223.869	-23.94
224.104	-23.94
224.338	-24.94
224.573	-9.94
224.808	-4.94
225.042	-0.94
225.277	-3.94
225.511	4.06
225.746	12.06
225.98	4.06
226.215	11.06
226.449	5.06
226.683	18.06
226.918	18.06
227.152	36.06
227.387	42.06
227.621	38.06
227.856	39.06
228.09	44.06
228.324	40.06
228.559	51.06
228.793	50.06
229.027	53.06
229.262	63.06
229.496	66.06
229.73	83.06
229.964	68.06
230.199	77.06
230.433	88.06
230.667	68.06
230.901	68.06
231.136	82.06
231.37	78.06
231.604	86.06
231.838	85.06
232.072	78.06
232.306	81.06
232.541	80.06
232.775	57.06
233.009	86.06
233.243	70.06
233.477	83.06
233.711	81.06
233.945	69.06
234.179	77.06
234.413	77.06
234.647	66.06
234.881	84.06
235.115	79.06
235.349	69.06
235.583	69.06
235.817	80.06
236.051	75.06
236.285	76.06
236.519	68.06
236.753	79.06
236.987	86.06
237.221	81.06
237.455	89.06
237.689	87.06
237.922	75.06
238.156	76.06
238.39	75.06
238.624	86.06
238.858	74.06
239.091	90.06
239.325	68.06
239.559	79.06
239.793	87.06
240.027	84.06
240.26	78.06
240.494	83.06
240.728	91.06
240.961	84.06
241.195	76.06
241.429	71.06
241.662	70.06
241.896	63.06
242.13	81.06
242.363	83.06
242.597	71.06
242.83	67.06
243.064	70.06
243.298	88.06
243.531	75.06
243.765	80.06
243.998	84.06
244.232	66.06
244.465	85.06
244.699	84.06
244.932	79.06
245.166	80.06
245.399	82.06
245.633	70.06
245.866	74.06
246.099	79.06
246.333	77.06
246.566	81.06
246.8	86.06
247.033	77.06
247.266	82.06
247.5	71.06
247.733	60.06
247.966	74.06
248.2	83.06
248.433	87.06
248.666	75.06
248.899	86.06
249.133	72.06
249.366	79.06
249.599	80.06
249.832	80.06
250.066	90.06
250.299	81.06
250.532	68.06
250.765	75.06
250.998	89.06
251.231	88.06
251.465	86.06
251.698	89.06
251.931	60.06
252.164	82.06
252.397	71.06
252.63	83.06
252.863	75.06
253.096	69.06
253.329	81.06
253.562	86.06
253.795	91.06
254.028	82.06
254.261	93.06
254.494	81.06
254.727	84.06
254.96	78.06
255.193	85.06
255.426	85.06
255.659	71.06
255.892	75.06
256.124	85.06
256.357	75.06
256.59	76.06
256.823	74.06
257.056	85.06
257.289	72.06
257.521	87.06
257.754	70.06
257.987	76.06
258.22	88.06
258.452	75.06
258.685	74.06
258.918	63.06
259.151	69.06
259.383	71.06
259.616	70.06
259.849	80.06
260.081	79.06
260.314	75.06
260.547	72.06
260.779	85.06
261.012	64.06
261.244	88.06
261.477	88.06
261.71	78.06
261.942	78.06
262.175	75.06
262.407	89.06
262.64	86.06
262.872	75.06
263.105	86.06
263.337	91.06
263.57	72.06
263.802	80.06
264.035	81.06
264.267	68.06
264.499	74.06
264.732	82.06
264.964	76.06
265.197	70.06
265.429	79.06
265.661	54.06
265.894	83.06
266.126	84.06
266.358	89.06
266.591	66.06
266.823	68.06
267.055	80.06
267.287	87.06
267.52	96.06
267.752	92.06
267.984	72.06
268.216	97.06
268.448	92.06
268.681	75.06
268.913	74.06
269.145	82.06
269.377	74.06
269.609	73.06
269.841	87.06
270.073	74.06
270.306	77.06
270.538	79.06
270.77	73.06
271.002	77.06
271.234	84.06
271.466	85.06
271.698	78.06
271.93	72.06
272.162	85.06
272.394	91.06
272.626	89.06
272.858	82.06
273.09	86.06
273.322	74.06
273.553	86.06
273.785	74.06
274.017	77.06
274.249	87.06
274.481	83.06
274.713	85.06
274.945	82.06
275.176	84.06
275.408	84.06
275.64	81.06
275.872	79.06
276.104	72.06
276.335	86.06
276.567	76.06
276.799	74.06
277.031	80.06
277.262	79.06
277.494	67.06
277.726	78.06
277.957	80.06
278.189	93.06
278.421	76.06
278.652	90.06
278.884	90.06
279.115	93.06
279.347	83.06
279.579	71.06
279.81	81.06
280.042	85.06
280.273	84.06
280.505	66.06
280.736	80.06
280.968	76.06
281.199	83.06
281.431	84.06
281.662	83.06
281.894	83.06
282.125	83.06
282.356	88.06
282.588	87.06
282.819	97.06
283.051	77.06
283.282	81.06
283.513	76.06
283.745	87.06
283.976	88.06
284.207	79.06
284.439	83.06
284.67	76.06
284.901	89.06
285.132	82.06
285.364	87.06
285.595	79.06
285.826	72.06
286.057	83.06
286.288	91.06
286.52	77.06
286.751	87.06
286.982	73.06
287.213	90.06
287.444	90.06
287.675	92.06
287.906	90.06
288.138	84.06
288.369	102.06
288.6	88.06
288.831	79.06
289.062	90.06
289.293	92.06
289.524	69.06
289.755	70.06
289.986	80.06
290.217	82.06
290.448	86.06
290.679	84.06
290.91	69.06
291.141	83.06
291.371	83.06
291.602	86.06
291.833	91.06
292.064	81.06
292.295	96.06
292.526	86.06
292.757	83.06
292.987	77.06
293.218	93.06
293.449	86.06
293.68	79.06
293.91	73.06
294.141	86.06
294.372	76.06
294.603	86.06
294.833	88.06
295.064	95.06
295.295	82.06
295.525	76.06
295.756	92.06
295.987	88.06
296.217	84.06
296.448	86.06
296.679	76.06
296.909	71.06
297.14	89.06
297.37	93.06
297.601	79.06
297.831	70.06
298.062	80.06
298.292	89.06
298.523	85.06
298.753	78.06
298.984	73.06
299.214	88.06
299.445	91.06
299.675	84.06
299.905	80.06
300.136	79.06
300.366	79.06
300.597	92.06
300.827	91.06
301.057	84.06
301.288	91.06
301.518	80.06
301.748	75.06
301.979	70.06
302.209	91.06
302.439	81.06
302.669	87.06
302.9	85.06
303.13	84.06
303.36	84.06
303.59	82.06
303.82	79.06
304.051	67.06
304.281	89.06
304.511	85.06
304.741	74.06
304.971	88.06
305.201	94.06
305.431	78.06
305.661	86.06
305.891	86.06
306.121	92.06
306.352	84.06
306.582	89.06
306.812	69.06
307.042	82.06
307.272	74.06
307.502	75.06
307.731	86.06
307.961	84.06
308.191	88.06
308.421	86.06
308.651	93.06
308.881	88.06
309.111	76.06
309.341	74.06
309.571	79.06
309.8	73.06
310.03	80.06
310.26	91.06
310.49	94.06
310.72	88.06
310.949	74.06
311.179	81.06
311.409	72.06
311.639	77.06
311.868	70.06
312.098	82.06
312.328	98.06
312.557	76.06
312.787	71.06
313.017	97.06
313.246	82.06
313.476	83.06
313.706	95.06
313.935	83.06
314.165	88.06
314.394	72.06
314.624	79.06
314.853	77.06
315.083	84.06
315.312	101.06
315.542	82.06
315.771	82.06
316.001	67.06
316.23	63.06
316.46	81.06
316.689	81.06
316.919	86.06
317.148	96.06
317.377	98.06
317.607	98.06
317.836	73.06
318.065	92.06
318.295	99.06
318.524	72.06
318.753	64.06
318.983	78.06
319.212	86.06
319.441	91.06
319.67	99.06
319.9	84.06
320.129	84.06
320.358	83.06
320.587	65.06
320.816	91.06
321.046	95.06
321.275	81.06
321.504	79.06
321.733	72.06
321.962	77.06
322.191	91.06
322.42	76.06
322.649	71.06
322.878	84.06
323.108	76.06
323.337	90.06
323.566	95.06
323.795	86.06
324.024	84.06
324.253	87.06
324.482	94.06
324.71	78.06
324.939	79.06
325.168	74.06
325.397	72.06
325.626	84.06
325.855	88.06
326.084	74.06
326.313	91.06
326.542	83.06
326.77	84.06
326.999	74.06
327.228	73.06
327.457	88.06
327.686	92.06
327.914	83.06
328.143	77.06
328.372	89.06
328.6	79.06
328.829	83.06
329.058	71.06
329.287	88.06
329.515	92.06
329.744	89.06
329.972	76.06
330.201	82.06
330.43	83.06
330.658	68.06
330.887	86.06
331.115	79.06
331.344	83.06
331.572	92.06
331.801	78.06
332.03	80.06
332.258	90.06
332.486	95.06
332.715	88.06
332.943	76.06
333.172	82.06
333.4	82.06
333.629	83.06
333.857	72.06
334.085	90.06
334.314	101.06
334.542	95.06
334.771	79.06
334.999	66.06
335.227	85.06
335.455	95.06
335.684	92.06
335.912	79.06
336.14	86.06
336.369	87.06
336.597	92.06
336.825	74.06
337.053	90.06
337.281	96.06
337.51	90.06
337.738	96.06
337.966	92.06
338.194	76.06
338.422	85.06
338.65	84.06
338.878	84.06
339.106	84.06
339.334	91.06
339.562	95.06
339.79	92.06
340.018	86.06
340.246	80.06
340.474	85.06
340.702	76.06
340.93	83.06
341.158	95.06
341.386	82.06
341.614	82.06
341.842	81.06
342.07	102.06
342.298	83.06
342.526	88.06
342.754	80.06
342.981	77.06
343.209	83.06
343.437	88.06
343.665	78.06
343.893	75.06
344.12	81.06
344.348	80.06
344.576	90.06
344.804	89.06
345.031	76.06
345.259	80.06
345.487	97.06
345.714	82.06
345.942	77.06
346.17	96.06
346.397	83.06
346.625	68.06
346.853	77.06
347.08	92.06
347.308	73.06
347.535	81.06
347.763	79.06
347.99	95.06
348.218	84.06
348.445	81.06
348.673	84.06
348.9	87.06
349.128	82.06
349.355	84.06
349.583	84.06
349.81	95.06
350.037	86.06
350.265	78.06
350.492	85.06
350.72	85.06
350.947	84.06
351.174	83.06
351.402	83.06
351.629	74.06
351.856	79.06
352.083	86.06
352.311	82.06
352.538	81.06
352.765	93.06
352.992	94.06
353.22	73.06
353.447	86.06
353.674	86.06
353.901	94.06
354.128	72.06
354.355	75.06
354.583	88.06
354.81	99.06
355.037	80.06
355.264	83.06
355.491	86.06
355.718	91.06
355.945	75.06
356.172	71.06
356.399	90.06
356.626	68.06
356.853	81.06
357.08	80.06
357.307	77.06
357.534	79.06
357.761	88.06
357.988	81.06
358.215	85.06
358.441	87.06
358.668	82.06
358.895	92.06
359.122	91.06
359.349	75.06
359.576	92.06
359.802	89.06
360.029	88.06
360.256	90.06
360.483	77.06
360.709	77.06
360.936	91.06
361.163	71.06
361.39	72.06
361.616	79.06
361.843	82.06
362.07	98.06
362.296	91.06
362.523	81.06
362.749	73.06
362.976	80.06
363.203	72.06
363.429	76.06
363.656	64.06
363.882	79.06
364.109	83.06
364.335	87.06
364.562	75.06
364.788	80.06
365.015	87.06
365.241	88.06
365.468	86.06
365.694	75.06
365.92	104.06
366.147	94.06
366.373	81.06
366.599	79.06
366.826	95.06
367.052	86.06
367.278	76.06
367.505	92.06
367.731	99.06
367.957	102.06
368.184	93.06
368.41	86.06
368.636	98.06
368.862	93.06
369.089	93.06
369.315	99.06
369.541	93.06
369.767	105.06
369.993	94.06
370.219	81.06
370.445	96.06
370.672	94.06
370.898	93.06
371.124	80.06
371.35	90.06
371.576	93.06
371.802	98.06
372.028	92.06
372.254	82.06
372.48	98.06
372.706	83.06
372.932	94.06
373.158	100.06
373.384	88.06
373.61	98.06
373.835	91.06
374.061	90.06
374.287	90.06
374.513	98.06
374.739	87.06
374.965	89.06
375.191	90.06
375.416	96.06
375.642	94.06
375.868	85.06
376.094	92.06
376.319	99.06
376.545	97.06
376.771	103.06
376.997	79.06
377.222	85.06
377.448	95.06
377.674	94.06
377.899	87.06
378.125	87.06
378.35	107.06
378.576	86.06
378.802	91.06
379.027	97.06
379.253	102.06
379.478	85.06
379.704	107.06
379.929	92.06
380.155	84.06
380.38	94.06
380.606	104.06
380.831	98.06
381.057	96.06
381.282	80.06
381.507	100.06
381.733	112.06
381.958	105.06
382.184	109.06
382.409	97.06
382.634	102.06
382.86	101.06
383.085	103.06
383.31	99.06
383.535	94.06
383.761	96.06
383.986	100.06
384.211	101.06
384.436	99.06
384.662	98.06
384.887	89.06
385.112	99.06
385.337	88.06
385.562	84.06
385.787	105.06
386.013	122.06
386.238	91.06
386.463	92.06
386.688	97.06
386.913	88.06
387.138	105.06
387.363	93.06
387.588	110.06
387.813	100.06
388.038	104.06
388.263	98.06
388.488	102.06
388.713	106.06
388.938	101.06
389.163	104.06
389.387	102.06
389.612	104.06
389.837	98.06
390.062	111.06
390.287	106.06
390.512	105.06
390.736	106.06
390.961	104.06
391.186	101.06
391.411	103.06
391.636	100.06
391.86	117.06
392.085	118.06
392.31	110.06
392.534	123.06
392.759	95.06
392.984	112.06
393.208	102.06
393.433	97.06
393.658	114.06
393.882	100.06
394.107	107.06
394.331	106.06
394.556	95.06
394.78	108.06
395.005	102.06
395.229	107.06
395.454	106.06
395.678	105.06
395.903	114.06
396.127	115.06
396.352	104.06
396.576	102.06
396.801	102.06
397.025	117.06
397.249	117.06
397.474	116.06
397.698	112.06
397.922	108.06
398.147	108.06
398.371	127.06
398.595	110.06
398.82	117.06
399.044	111.06
399.268	115.06
399.492	103.06
399.717	122.06
399.941	117.06
400.165	119.06
400.389	108.06
400.613	119.06
400.837	120.06
401.062	122.06
401.286	97.06
401.51	105.06
401.734	113.06
401.958	120.06
402.182	120.06
402.406	119.06
402.63	124.06
402.854	112.06
403.078	110.06
403.302	121.06
403.526	121.06
403.75	117.06
403.974	111.06
404.198	100.06
404.422	114.06
404.645	113.06
404.869	113.06
405.093	119.06
405.317	123.06
405.541	123.06
405.765	105.06
405.988	104.06
406.212	110.06
406.436	114.06
406.66	121.06
406.883	94.06
407.107	112.06
407.331	110.06
407.555	117.06
407.778	130.06
408.002	112.06
408.226	113.06
408.449	129.06
408.673	119.06
408.896	110.06
409.12	110.06
409.344	130.06
409.567	110.06
409.791	132.06
410.014	125.06
410.238	130.06
410.461	120.06
410.685	115.06
410.908	121.06
411.132	134.06
411.355	130.06
411.578	121.06
411.802	125.06
412.025	126.06
412.249	117.06
412.472	133.06
412.695	118.06
412.919	115.06
413.142	136.06
413.365	128.06
413.589	122.06
413.812	128.06
414.035	130.06
414.258	128.06
414.482	123.06
414.705	120.06
414.928	131.06
415.151	120.06
415.374	132.06
415.597	129.06
415.821	130.06
416.044	130.06
416.267	119.06
416.49	128.06
416.713	126.06
416.936	123.06
417.159	126.06
417.382	121.06
417.605	134.06
417.828	132.06
418.051	134.06
418.274	138.06
418.497	134.06
418.72	125.06
418.943	140.06
419.166	136.06
419.389	136.06
419.611	144.06
419.834	136.06
420.057	145.06
420.28	129.06
420.503	132.06
420.726	132.06
420.948	166.06
421.171	123.06
421.394	127.06
421.617	130.06
421.839	145.06
422.062	135.06
422.285	141.06
422.507	132.06
422.73	127.06
422.953	132.06
423.175	126.06
423.398	131.06
423.621	126.06
423.843	144.06
424.066	145.06
424.288	138.06
424.511	130.06
424.733	149.06
424.956	140.06
425.178	152.06
425.401	138.06
425.623	146.06
425.846	143.06
426.068	131.06
426.291	145.06
426.513	137.06
426.735	133.06
426.958	138.06
427.18	150.06
427.402	122.06
427.625	119.06
427.847	115.06
428.069	119.06
428.292	140.06
428.514	129.06
428.736	138.06
428.958	145.06
429.181	134.06
429.403	116.06
429.625	129.06
429.847	135.06
430.069	130.06
430.292	128.06
430.514	132.06
430.736	127.06
430.958	138.06
431.18	113.06
431.402	134.06
431.624	131.06
431.846	114.06
432.068	99.06
432.29	122.06
432.512	113.06
432.734	119.06
432.956	141.06
433.178	135.06
433.4	154.06
433.622	138.06
433.844	123.06
434.066	124.06
434.287	115.06
434.509	81.06
434.731	113.06
434.953	128.06
435.175	136.06
435.397	130.06
435.618	116.06
435.84	112.06
436.062	110.06
436.284	123.06
436.505	124.06
436.727	132.06
436.949	118.06
437.17	140.06
437.392	140.06
437.614	131.06
437.835	105.06
438.057	133.06
438.278	124.06
438.5	142.06
438.721	128.06
438.943	133.06
439.165	131.06
439.386	147.06
439.608	157.06
439.829	152.06
440.05	155.06
440.272	148.06
440.493	150.06
440.715	136.06
440.936	152.06
441.158	152.06
441.379	160.06
441.6	153.06
441.822	163.06
442.043	159.06
442.264	155.06
442.486	145.06
442.707	122.06
442.928	142.06
443.149	134.06
443.371	145.06
443.592	127.06
443.813	149.06
444.034	155.06
444.255	153.06
444.476	151.06
444.698	154.06
444.919	150.06
445.14	274.06
445.361	187.06
445.582	156.06
445.803	159.06
446.024	148.06
446.245	167.06
446.466	150.06
446.687	158.06
446.908	161.06
447.129	158.06
447.35	158.06
447.571	153.06
447.792	150.06
448.013	149.06
448.234	147.06
448.455	132.06
448.675	144.06
448.896	138.06
449.117	139.06
449.338	147.06
449.559	144.06
449.779	125.06
450	131.06
450.221	156.06
450.442	131.06
450.662	130.06
450.883	145.06
451.104	134.06
451.324	148.06
451.545	128.06
451.766	132.06
451.986	122.06
452.207	131.06
452.428	121.06
452.648	128.06
452.869	108.06
453.089	103.06
453.31	113.06
453.53	114.06
453.751	116.06
453.971	107.06
454.192	108.06
454.412	111.06
454.633	119.06
454.853	120.06
455.073	123.06
455.294	119.06
455.514	128.06
455.734	118.06
455.955	136.06
456.175	124.06
456.395	122.06
456.616	96.06
456.836	107.06
457.056	113.06
457.276	109.06
457.497	117.06
457.717	120.06
457.937	107.06
458.157	96.06
458.377	114.06
458.598	103.06
458.818	110.06
459.038	91.06
459.258	111.06
459.478	95.06
459.698	97.06
459.918	89.06
460.138	121.06
460.358	127.06
460.578	104.06
460.798	123.06
461.018	119.06
461.238	110.06
461.458	110.06
461.678	122.06
461.898	125.06
462.118	118.06
462.338	123.06
462.558	117.06
462.777	122.06
462.997	111.06
463.217	123.06
463.437	113.06
463.657	120.06
463.876	103.06
464.096	109.06
464.316	105.06
464.536	120.06
464.755	123.06
464.975	126.06
465.195	123.06
465.414	123.06
465.634	111.06
465.854	127.06
466.073	133.06
466.293	129.06
466.512	134.06
466.732	123.06
466.951	137.06
467.171	141.06
467.391	142.06
467.61	139.06
467.829	136.06
468.049	143.06
468.268	134.06
468.488	141.06
468.707	134.06
468.927	126.06
469.146	145.06
469.365	132.06
469.585	138.06
469.804	127.06
470.023	148.06
470.243	134.06
470.462	138.06
470.681	145.06
470.901	139.06
471.12	138.06
471.339	148.06
471.558	143.06
471.777	147.06
471.997	145.06
472.216	146.06
472.435	120.06
472.654	118.06
472.873	104.06
473.092	123.06
473.311	139.06
473.53	139.06
473.749	122.06
473.968	134.06
474.187	111.06
474.406	140.06
474.625	137.06
474.844	137.06
475.063	122.06
475.282	131.06
475.501	115.06
475.72	132.06
475.939	151.06
476.158	134.06
476.377	133.06
476.596	131.06
476.814	130.06
477.033	118.06
477.252	126.06
477.471	132.06
477.69	147.06
477.908	146.06
478.127	145.06
478.346	139.06
478.564	157.06
478.783	144.06
479.002	150.06
479.22	143.06
479.439	122.06
479.658	128.06
479.876	118.06
480.095	107.06
480.313	123.06
480.532	105.06
480.751	108.06
480.969	91.06
481.188	94.06
481.406	95.06
481.624	100.06
481.843	84.06
482.061	98.06
482.28	122.06
482.498	124.06
482.717	102.06
482.935	134.06
483.153	136.06
483.372	159.06
483.59	166.06
483.808	137.06
484.027	145.06
484.245	143.06
484.463	147.06
484.681	191.06
484.9	160.06
485.118	151.06
485.336	143.06
485.554	125.06
485.772	108.06
485.99	108.06
486.209	114.06
486.427	106.06
486.645	114.06
486.863	130.06
487.081	131.06
487.299	131.06
487.517	150.06
487.735	164.06
487.953	186.06
488.171	180.06
488.389	171.06
488.607	160.06
488.825	141.06
489.043	146.06
489.261	135.06
489.479	147.06
489.696	148.06
489.914	140.06
490.132	170.06
490.35	162.06
490.568	157.06
490.786	155.06
491.003	181.06
491.221	183.06
491.439	195.06
491.657	203.06
491.874	227.06
492.092	244.06
492.31	236.06
492.527	242.06
492.745	223.06
492.963	208.06
493.18	199.06
493.398	187.06
493.615	183.06
493.833	197.06
494.05	187.06
494.268	183.06
494.485	167.06
494.703	182.06
494.92	176.06
495.138	181.06
495.355	169.06
495.573	168.06
495.79	169.06
496.008	169.06
496.225	175.06
496.442	180.06
496.66	179.06
496.877	180.06
497.094	169.06
497.312	161.06
497.529	158.06
497.746	163.06
497.963	137.06
498.181	132.06
498.398	118.06
498.615	126.06
498.832	119.06
499.049	138.06
499.267	128.06
499.484	121.06
499.701	142.06
499.918	128.06
500.135	140.06
500.352	140.06
500.569	139.06
500.786	149.06
501.003	160.06
501.22	151.06
501.437	146.06
501.654	128.06
501.871	133.06
502.088	127.06
502.305	128.06
502.522	122.06
502.739	135.06
502.956	144.06
503.172	121.06
503.389	126.06
503.606	116.06
503.823	119.06
504.04	132.06
504.256	124.06
504.473	131.06
504.69	121.06
504.907	128.06
505.123	133.06
505.34	130.06
505.557	130.06
505.773	139.06
505.99	132.06
506.207	129.06
506.423	137.06
506.64	121.06
506.856	137.06
507.073	122.06
507.289	122.06
507.506	121.06
507.722	120.06
507.939	133.06
508.155	112.06
508.372	121.06
508.588	131.06
508.805	118.06
509.021	117.06
509.238	101.06
509.454	112.06
509.67	90.06
509.887	103.06
510.103	103.06
510.319	115.06
510.536	81.06
510.752	81.06
510.968	92.06
511.184	107.06
511.401	90.06
511.617	87.06
511.833	98.06
512.049	103.06
512.265	105.06
512.481	116.06
512.698	86.06
512.914	90.06
513.13	91.06
513.346	92.06
513.562	96.06
513.778	90.06
513.994	96.06
514.21	82.06
514.426	87.06
514.642	91.06
514.858	97.06
515.074	104.06
515.29	96.06
515.506	87.06
515.721	77.06
515.937	106.06
516.153	82.06
516.369	94.06
516.585	83.06
516.801	90.06
517.016	97.06
517.232	94.06
517.448	96.06
517.664	102.06
517.879	103.06
518.095	86.06
518.311	96.06
518.527	100.06
518.742	90.06
518.958	113.06
519.173	112.06
519.389	114.06
519.605	102.06
519.82	114.06
520.036	134.06
520.251	118.06
520.467	98.06
520.682	104.06
520.898	105.06
521.113	95.06
521.329	91.06
521.544	93.06
521.76	87.06
521.975	88.06
522.19	99.06
522.406	92.06
522.621	99.06
522.836	110.06
523.052	88.06
523.267	113.06
523.482	124.06
523.698	116.06
523.913	114.06
524.128	117.06
524.343	126.06
524.559	136.06
524.774	115.06
524.989	135.06
525.204	124.06
525.419	120.06
525.634	127.06
525.849	112.06
526.064	112.06
526.28	118.06
526.495	98.06
526.71	84.06
526.925	86.06
527.14	87.06
527.355	77.06
527.57	87.06
527.785	95.06
527.999	102.06
528.214	103.06
528.429	123.06
528.644	119.06
528.859	137.06
529.074	166.06
529.289	167.06
529.503	155.06
529.718	138.06
529.933	122.06
530.148	117.06
530.363	86.06
530.577	86.06
530.792	84.06
531.007	76.06
531.221	75.06
531.436	85.06
531.651	94.06
531.865	75.06
532.08	78.06
532.295	92.06
532.509	91.06
532.724	89.06
532.938	89.06
533.153	114.06
533.367	116.06
533.582	131.06
533.796	127.06
534.011	115.06
534.225	116.06
534.44	96.06
534.654	92.06
534.868	103.06
535.083	102.06
535.297	93.06
535.511	95.06
535.726	96.06
535.94	103.06
536.154	91.06
536.369	95.06
536.583	74.06
536.797	81.06
537.011	107.06
537.225	104.06
537.44	83.06
537.654	102.06
537.868	89.06
538.082	93.06
538.296	101.06
538.51	108.06
538.724	134.06
538.938	116.06
539.153	117.06
539.367	136.06
539.581	127.06
539.795	111.06
540.009	106.06
540.222	90.06
540.436	103.06
540.65	123.06
540.864	133.06
541.078	123.06
541.292	135.06
541.506	163.06
541.72	183.06
541.934	208.06
542.147	199.06
542.361	209.06
542.575	190.06
542.789	160.06
543.002	144.06
543.216	133.06
543.43	128.06
543.644	142.06
543.857	154.06
544.071	170.06
544.285	169.06
544.498	174.06
544.712	174.06
544.925	159.06
545.139	177.06
545.352	169.06
545.566	169.06
545.779	172.06
545.993	164.06
546.206	156.06
546.42	167.06
546.633	167.06
546.847	150.06
547.06	172.06
547.274	194.06
547.487	186.06
547.7	186.06
547.914	177.06
548.127	168.06
548.34	162.06
548.554	167.06
548.767	156.06
548.98	168.06
549.193	156.06
549.407	166.06
549.62	165.06
549.833	153.06
550.046	156.06
550.259	161.06
550.473	164.06
550.686	166.06
550.899	167.06
551.112	161.06
551.325	135.06
551.538	138.06
551.751	138.06
551.964	122.06
552.177	140.06
552.39	131.06
552.603	148.06
552.816	172.06
553.029	152.06
553.242	151.06
553.455	163.06
553.667	151.06
553.88	152.06
554.093	152.06
554.306	163.06
554.519	151.06
554.732	159.06
554.944	153.06
555.157	150.06
555.37	136.06
555.583	148.06
555.795	147.06
556.008	138.06
556.221	140.06
556.433	132.06
556.646	143.06
556.859	143.06
557.071	145.06
557.284	141.06
557.496	148.06
557.709	134.06
557.921	141.06
558.134	150.06
558.346	138.06
558.559	136.06
558.771	159.06
558.984	132.06
559.196	132.06
559.409	130.06
559.621	146.06
559.833	124.06
560.046	137.06
560.258	141.06
560.47	146.06
560.683	130.06
560.895	139.06
561.107	125.06
561.32	135.06
561.532	146.06
561.744	131.06
561.956	143.06
562.168	133.06
562.381	132.06
562.593	123.06
562.805	144.06
563.017	130.06
563.229	133.06
563.441	139.06
563.653	134.06
563.865	108.06
564.077	122.06
564.289	120.06
564.501	131.06
564.713	123.06
564.925	138.06
565.137	121.06
565.349	134.06
565.561	122.06
565.773	116.06
565.985	107.06
566.197	138.06
566.408	130.06
566.62	137.06
566.832	126.06
567.044	122.06
567.255	115.06
567.467	130.06
567.679	122.06
567.891	104.06
568.102	100.06
568.314	94.06
568.526	87.06
568.737	99.06
568.949	83.06
569.161	86.06
569.372	86.06
569.584	81.06
569.795	92.06
570.007	95.06
570.218	90.06
570.43	91.06
570.641	91.06
570.853	86.06
571.064	116.06
571.276	98.06
571.487	106.06
571.698	97.06
571.91	119.06
572.121	100.06
572.333	99.06
572.544	99.06
572.755	103.06
572.966	88.06
573.178	78.06
573.389	93.06
573.6	86.06
573.811	86.06
574.023	95.06
574.234	85.06
574.445	85.06
574.656	86.06
574.867	72.06
575.078	98.06
575.289	92.06
575.501	98.06
575.712	89.06
575.923	93.06
576.134	101.06
576.345	91.06
576.556	90.06
576.767	98.06
576.978	87.06
577.188	94.06
577.399	103.06
577.61	93.06
577.821	82.06
578.032	98.06
578.243	101.06
578.454	87.06
578.665	104.06
578.875	72.06
579.086	79.06
579.297	84.06
579.508	75.06
579.718	90.06
579.929	79.06
580.14	70.06
580.35	90.06
580.561	91.06
580.772	82.06
580.982	91.06
581.193	85.06
581.403	90.06
581.614	97.06
581.825	93.06
582.035	99.06
582.246	90.06
582.456	86.06
582.667	100.06
582.877	107.06
583.087	87.06
583.298	83.06
583.508	86.06
583.719	86.06
583.929	81.06
584.139	88.06
584.35	88.06
584.56	86.06
584.77	85.06
584.981	97.06
585.191	87.06
585.401	95.06
585.611	88.06
585.821	94.06
586.032	88.06
586.242	85.06
586.452	78.06
586.662	94.06
586.872	90.06
587.082	108.06
587.292	76.06
587.502	95.06
587.713	75.06
587.923	91.06
588.133	85.06
588.343	72.06
588.553	92.06
588.762	98.06
588.972	83.06
589.182	105.06
589.392	80.06
589.602	87.06
589.812	79.06
590.022	86.06
590.232	89.06
590.441	81.06
590.651	90.06
590.861	80.06
591.071	81.06
591.281	94.06
591.49	81.06
591.7	82.06
591.91	97.06
592.119	84.06
592.329	93.06
592.539	75.06
592.748	87.06
592.958	87.06
593.167	83.06
593.377	83.06
593.587	87.06
593.796	73.06
594.006	77.06
594.215	70.06
594.424	96.06
594.634	94.06
594.843	76.06
595.053	107.06
595.262	84.06
595.472	99.06
595.681	103.06
595.89	92.06
596.1	94.06
596.309	99.06
596.518	91.06
596.727	90.06
596.937	95.06
597.146	105.06
597.355	95.06
597.564	90.06
597.774	102.06
597.983	101.06
598.192	93.06
598.401	87.06
598.61	84.06
598.819	101.06
599.028	92.06
599.237	98.06
599.446	114.06
599.655	88.06
599.864	81.06
600.073	96.06
600.282	86.06
600.491	89.06
600.7	97.06
600.909	73.06
601.118	99.06
601.327	106.06
601.536	96.06
601.745	116.06
601.953	110.06
602.162	111.06
602.371	100.06
602.58	116.06
602.789	110.06
602.997	111.06
603.206	116.06
603.415	109.06
603.623	120.06
603.832	103.06
604.041	114.06
604.249	112.06
604.458	116.06
604.666	91.06
604.875	91.06
605.084	106.06
605.292	104.06
605.501	126.06
605.709	126.06
605.918	115.06
606.126	112.06
606.334	125.06
606.543	119.06
606.751	130.06
606.96	116.06
607.168	107.06
607.376	107.06
607.585	119.06
607.793	124.06
608.001	126.06
608.21	114.06
608.418	112.06
608.626	117.06
608.834	126.06
609.043	115.06
609.251	122.06
609.459	119.06
609.667	126.06
609.875	129.06
610.083	112.06
610.291	118.06
610.499	115.06
610.707	138.06
610.916	105.06
611.124	119.06
611.332	118.06
611.54	104.06
611.748	121.06
611.955	118.06
612.163	125.06
612.371	122.06
612.579	123.06
612.787	106.06
612.995	96.06
613.203	123.06
613.411	108.06
613.618	120.06
613.826	114.06
614.034	115.06
614.242	125.06
614.449	116.06
614.657	103.06
614.865	116.06
615.072	124.06
615.28	119.06
615.488	107.06
615.695	119.06
615.903	128.06
616.111	108.06
616.318	111.06
616.526	102.06
616.733	112.06
616.941	107.06
617.148	106.06
617.356	123.06
617.563	100.06
617.771	104.06
617.978	101.06
618.185	121.06
618.393	122.06
618.6	119.06
618.807	98.06
619.015	113.06
619.222	110.06
619.429	102.06
619.637	108.06
619.844	96.06
620.051	100.06
620.258	107.06
620.466	112.06
620.673	112.06
620.88	120.06
621.087	121.06
621.294	120.06
621.501	105.06
621.708	103.06
621.915	106.06
622.122	112.06
622.329	112.06
622.536	113.06
622.743	126.06
622.95	98.06
623.157	102.06
623.364	112.06
623.571	104.06
623.778	115.06
623.985	107.06
624.192	107.06
624.399	103.06
624.606	123.06
624.812	106.06
625.019	95.06
625.226	112.06
625.433	93.06
625.639	106.06
625.846	103.06
626.053	101.06
626.259	110.06
626.466	85.06
626.673	96.06
626.879	95.06
627.086	101.06
627.293	118.06
627.499	106.06
627.706	106.06
627.912	111.06
628.119	112.06
628.325	118.06
628.532	117.06
628.738	106.06
628.945	104.06
629.151	94.06
629.357	83.06
629.564	98.06
629.77	103.06
629.976	96.06
630.183	99.06
630.389	94.06
630.595	105.06
630.802	93.06
631.008	103.06
631.214	106.06
631.42	97.06
631.627	113.06
631.833	94.06
632.039	93.06
632.245	102.06
632.451	114.06
632.657	102.06
632.863	107.06
633.069	111.06
633.275	105.06
633.481	94.06
633.688	108.06
633.893	97.06
634.099	96.06
634.305	106.06
634.511	99.06
634.717	118.06
634.923	97.06
635.129	101.06
635.335	104.06
635.541	72.06
635.747	118.06
635.952	89.06
636.158	96.06
636.364	102.06
636.57	106.06
636.775	105.06
636.981	105.06
637.187	118.06
637.392	96.06
637.598	110.06
637.804	88.06
638.009	105.06
638.215	121.06
638.421	107.06
638.626	102.06
638.832	103.06
639.037	103.06
639.243	105.06
639.448	96.06
639.654	79.06
639.859	95.06
640.065	110.06
640.27	102.06
640.475	103.06
640.681	105.06
640.886	94.06
641.091	112.06
641.297	94.06
641.502	96.06
641.707	103.06
641.913	99.06
642.118	111.06
642.323	99.06
642.528	97.06
642.733	108.06
642.939	111.06
643.144	104.06
643.349	96.06
643.554	106.06
643.759	94.06
643.964	99.06
644.169	94.06
644.374	91.06
644.579	99.06
644.784	103.06
644.989	103.06
645.194	97.06
645.399	103.06
645.604	94.06
645.809	115.06
646.014	94.06
646.219	100.06
646.423	94.06
646.628	107.06
646.833	99.06
647.038	97.06
647.243	95.06
647.447	90.06
647.652	102.06
647.857	94.06
648.062	105.06
648.266	103.06
648.471	101.06
648.676	100.06
648.88	108.06
649.085	103.06
649.289	101.06
649.494	82.06
649.698	86.06
649.903	100.06
650.107	109.06
650.312	86.06
650.516	100.06
650.721	99.06
650.925	94.06
651.13	99.06
651.334	106.06
651.539	91.06
651.743	73.06
651.947	98.06
652.152	100.06
652.356	90.06
652.56	92.06
652.764	87.06
652.969	94.06
653.173	79.06
653.377	96.06
653.581	76.06
653.785	91.06
653.99	94.06
654.194	93.06
654.398	96.06
654.602	88.06
654.806	87.06
655.01	90.06
655.214	84.06
655.418	95.06
655.622	95.06
655.826	79.06
656.03	82.06
656.234	86.06
656.438	97.06
656.642	92.06
656.846	100.06
657.049	108.06
657.253	92.06
657.457	96.06
657.661	84.06
657.865	84.06
658.068	100.06
658.272	89.06
658.476	86.06
658.68	102.06
658.883	90.06
659.087	74.06
659.291	94.06
659.494	83.06
659.698	87.06
659.901	92.06
660.105	80.06
660.309	86.06
660.512	91.06
660.716	95.06
660.919	75.06
661.123	90.06
661.326	79.06
661.53	71.06
661.733	77.06
661.936	92.06
662.14	86.06
662.343	72.06
662.546	70.06
662.75	88.06
662.953	72.06
663.156	73.06
663.36	83.06
663.563	89.06
663.766	69.06
663.969	91.06
664.173	81.06
664.376	83.06
664.579	90.06
664.782	73.06
664.985	73.06
665.188	66.06
665.391	86.06
665.594	73.06
665.797	90.06
666	66.06
666.203	82.06
666.406	85.06
666.609	90.06
666.812	86.06
667.015	76.06
667.218	96.06
667.421	68.06
667.624	74.06
667.827	80.06
668.03	79.06
668.232	81.06
668.435	90.06
668.638	76.06
668.841	92.06
669.043	96.06
669.246	74.06
669.449	87.06
669.651	87.06
669.854	72.06
670.057	78.06
670.259	90.06
670.462	85.06
670.665	87.06
670.867	90.06
671.07	100.06
671.272	74.06
671.475	70.06
671.677	76.06
671.88	90.06
672.082	84.06
672.284	94.06
672.487	102.06
672.689	100.06
672.892	94.06
