Data from Location6.07152019.Energy5.Lamp.07192019.3%Agarose_HRD10591_16-10-47-394.txt Node
Date: Fri Jul 19 16:10:47 EDT 2019
User: cochatt
Spectrometer: HR+D1059
Trigger mode: 1
Integration Time (sec): 1.000000E-1
Scans to average: 1
Electric dark correction enabled: true
Nonlinearity correction enabled: false
Boxcar width: 0
XAxis mode: Wavelengths
Number of Pixels in Spectrum: 2048
>>>>>Begin Spectral Data<<<<<
223.165	-13.94
223.4	-13.94
223.635	-13.94
223.869	-16.94
224.104	-15.94
224.338	-12.94
224.573	-16.94
224.808	-22.94
225.042	-4.94
225.277	-14.94
225.511	-11.94
225.746	2.06
225.98	25.06
226.215	12.06
226.449	25.06
226.683	23.06
226.918	13.06
227.152	31.06
227.387	32.06
227.621	31.06
227.856	56.06
228.09	50.06
228.324	40.06
228.559	61.06
228.793	60.06
229.027	55.06
229.262	69.06
229.496	58.06
229.73	64.06
229.964	73.06
230.199	74.06
230.433	69.06
230.667	70.06
230.901	83.06
231.136	85.06
231.37	82.06
231.604	74.06
231.838	72.06
232.072	80.06
232.306	86.06
232.541	74.06
232.775	82.06
233.009	80.06
233.243	80.06
233.477	96.06
233.711	89.06
233.945	74.06
234.179	68.06
234.413	90.06
234.647	84.06
234.881	98.06
235.115	84.06
235.349	77.06
235.583	77.06
235.817	74.06
236.051	68.06
236.285	81.06
236.519	73.06
236.753	82.06
236.987	80.06
237.221	75.06
237.455	90.06
237.689	78.06
237.922	75.06
238.156	81.06
238.39	68.06
238.624	77.06
238.858	83.06
239.091	76.06
239.325	84.06
239.559	84.06
239.793	70.06
240.027	68.06
240.26	67.06
240.494	79.06
240.728	78.06
240.961	70.06
241.195	67.06
241.429	77.06
241.662	77.06
241.896	80.06
242.13	67.06
242.363	73.06
242.597	91.06
242.83	70.06
243.064	83.06
243.298	62.06
243.531	80.06
243.765	78.06
243.998	58.06
244.232	77.06
244.465	89.06
244.699	92.06
244.932	87.06
245.166	86.06
245.399	74.06
245.633	67.06
245.866	66.06
246.099	83.06
246.333	76.06
246.566	80.06
246.8	70.06
247.033	91.06
247.266	66.06
247.5	82.06
247.733	85.06
247.966	75.06
248.2	78.06
248.433	70.06
248.666	76.06
248.899	79.06
249.133	63.06
249.366	92.06
249.599	76.06
249.832	73.06
250.066	85.06
250.299	68.06
250.532	84.06
250.765	77.06
250.998	93.06
251.231	80.06
251.465	76.06
251.698	64.06
251.931	65.06
252.164	83.06
252.397	71.06
252.63	86.06
252.863	82.06
253.096	95.06
253.329	73.06
253.562	100.06
253.795	81.06
254.028	79.06
254.261	83.06
254.494	94.06
254.727	78.06
254.96	88.06
255.193	88.06
255.426	75.06
255.659	86.06
255.892	82.06
256.124	69.06
256.357	95.06
256.59	96.06
256.823	74.06
257.056	79.06
257.289	67.06
257.521	83.06
257.754	81.06
257.987	90.06
258.22	91.06
258.452	89.06
258.685	79.06
258.918	83.06
259.151	85.06
259.383	90.06
259.616	88.06
259.849	81.06
260.081	81.06
260.314	77.06
260.547	88.06
260.779	90.06
261.012	92.06
261.244	88.06
261.477	94.06
261.71	77.06
261.942	74.06
262.175	88.06
262.407	88.06
262.64	81.06
262.872	87.06
263.105	76.06
263.337	86.06
263.57	82.06
263.802	73.06
264.035	82.06
264.267	85.06
264.499	94.06
264.732	93.06
264.964	82.06
265.197	78.06
265.429	90.06
265.661	96.06
265.894	102.06
266.126	80.06
266.358	93.06
266.591	94.06
266.823	90.06
267.055	81.06
267.287	96.06
267.52	82.06
267.752	89.06
267.984	78.06
268.216	81.06
268.448	81.06
268.681	80.06
268.913	85.06
269.145	86.06
269.377	84.06
269.609	83.06
269.841	80.06
270.073	70.06
270.306	86.06
270.538	89.06
270.77	84.06
271.002	87.06
271.234	67.06
271.466	86.06
271.698	80.06
271.93	73.06
272.162	87.06
272.394	87.06
272.626	75.06
272.858	87.06
273.09	94.06
273.322	84.06
273.553	85.06
273.785	72.06
274.017	86.06
274.249	81.06
274.481	68.06
274.713	81.06
274.945	78.06
275.176	90.06
275.408	75.06
275.64	97.06
275.872	85.06
276.104	84.06
276.335	82.06
276.567	85.06
276.799	100.06
277.031	90.06
277.262	78.06
277.494	101.06
277.726	90.06
277.957	80.06
278.189	74.06
278.421	91.06
278.652	76.06
278.884	82.06
279.115	84.06
279.347	86.06
279.579	94.06
279.81	86.06
280.042	73.06
280.273	80.06
280.505	83.06
280.736	67.06
280.968	79.06
281.199	91.06
281.431	85.06
281.662	86.06
281.894	85.06
282.125	87.06
282.356	76.06
282.588	75.06
282.819	85.06
283.051	100.06
283.282	97.06
283.513	90.06
283.745	88.06
283.976	73.06
284.207	86.06
284.439	91.06
284.67	88.06
284.901	92.06
285.132	92.06
285.364	75.06
285.595	74.06
285.826	92.06
286.057	87.06
286.288	80.06
286.52	81.06
286.751	91.06
286.982	99.06
287.213	94.06
287.444	74.06
287.675	87.06
287.906	89.06
288.138	82.06
288.369	82.06
288.6	80.06
288.831	78.06
289.062	81.06
289.293	68.06
289.524	98.06
289.755	91.06
289.986	69.06
290.217	74.06
290.448	91.06
290.679	73.06
290.91	85.06
291.141	74.06
291.371	76.06
291.602	87.06
291.833	72.06
292.064	73.06
292.295	84.06
292.526	73.06
292.757	87.06
292.987	77.06
293.218	78.06
293.449	81.06
293.68	77.06
293.91	84.06
294.141	76.06
294.372	96.06
294.603	82.06
294.833	91.06
295.064	74.06
295.295	81.06
295.525	84.06
295.756	83.06
295.987	84.06
296.217	84.06
296.448	84.06
296.679	97.06
296.909	89.06
297.14	88.06
297.37	90.06
297.601	94.06
297.831	87.06
298.062	88.06
298.292	83.06
298.523	89.06
298.753	105.06
298.984	79.06
299.214	89.06
299.445	83.06
299.675	93.06
299.905	74.06
300.136	84.06
300.366	76.06
300.597	81.06
300.827	73.06
301.057	87.06
301.288	94.06
301.518	92.06
301.748	84.06
301.979	98.06
302.209	83.06
302.439	83.06
302.669	84.06
302.9	91.06
303.13	92.06
303.36	88.06
303.59	87.06
303.82	83.06
304.051	81.06
304.281	92.06
304.511	87.06
304.741	84.06
304.971	76.06
305.201	85.06
305.431	104.06
305.661	74.06
305.891	80.06
306.121	91.06
306.352	90.06
306.582	89.06
306.812	83.06
307.042	88.06
307.272	75.06
307.502	76.06
307.731	71.06
307.961	73.06
308.191	95.06
308.421	73.06
308.651	88.06
308.881	86.06
309.111	75.06
309.341	84.06
309.571	86.06
309.8	89.06
310.03	85.06
310.26	81.06
310.49	85.06
310.72	105.06
310.949	85.06
311.179	87.06
311.409	89.06
311.639	88.06
311.868	95.06
312.098	70.06
312.328	81.06
312.557	88.06
312.787	87.06
313.017	86.06
313.246	92.06
313.476	74.06
313.706	86.06
313.935	79.06
314.165	79.06
314.394	83.06
314.624	93.06
314.853	87.06
315.083	88.06
315.312	105.06
315.542	83.06
315.771	79.06
316.001	85.06
316.23	76.06
316.46	80.06
316.689	91.06
316.919	76.06
317.148	91.06
317.377	80.06
317.607	71.06
317.836	83.06
318.065	95.06
318.295	84.06
318.524	88.06
318.753	82.06
318.983	97.06
319.212	82.06
319.441	74.06
319.67	84.06
319.9	89.06
320.129	73.06
320.358	100.06
320.587	81.06
320.816	79.06
321.046	94.06
321.275	83.06
321.504	77.06
321.733	76.06
321.962	88.06
322.191	85.06
322.42	90.06
322.649	89.06
322.878	82.06
323.108	84.06
323.337	73.06
323.566	79.06
323.795	91.06
324.024	84.06
324.253	76.06
324.482	82.06
324.71	84.06
324.939	94.06
325.168	82.06
325.397	80.06
325.626	89.06
325.855	93.06
326.084	84.06
326.313	86.06
326.542	72.06
326.77	89.06
326.999	94.06
327.228	77.06
327.457	93.06
327.686	92.06
327.914	76.06
328.143	82.06
328.372	97.06
328.6	76.06
328.829	86.06
329.058	83.06
329.287	77.06
329.515	84.06
329.744	78.06
329.972	72.06
330.201	68.06
330.43	95.06
330.658	72.06
330.887	70.06
331.115	93.06
331.344	85.06
331.572	74.06
331.801	89.06
332.03	88.06
332.258	85.06
332.486	89.06
332.715	73.06
332.943	79.06
333.172	92.06
333.4	98.06
333.629	82.06
333.857	86.06
334.085	77.06
334.314	79.06
334.542	75.06
334.771	80.06
334.999	82.06
335.227	95.06
335.455	89.06
335.684	91.06
335.912	81.06
336.14	87.06
336.369	75.06
336.597	78.06
336.825	77.06
337.053	83.06
337.281	77.06
337.51	93.06
337.738	78.06
337.966	78.06
338.194	72.06
338.422	96.06
338.65	91.06
338.878	67.06
339.106	88.06
339.334	77.06
339.562	78.06
339.79	72.06
340.018	77.06
340.246	75.06
340.474	82.06
340.702	79.06
340.93	99.06
341.158	81.06
341.386	73.06
341.614	82.06
341.842	79.06
342.07	82.06
342.298	86.06
342.526	91.06
342.754	82.06
342.981	88.06
343.209	89.06
343.437	79.06
343.665	88.06
343.893	82.06
344.12	76.06
344.348	84.06
344.576	87.06
344.804	76.06
345.031	76.06
345.259	79.06
345.487	98.06
345.714	80.06
345.942	82.06
346.17	83.06
346.397	81.06
346.625	83.06
346.853	83.06
347.08	63.06
347.308	87.06
347.535	87.06
347.763	85.06
347.99	96.06
348.218	85.06
348.445	85.06
348.673	78.06
348.9	82.06
349.128	91.06
349.355	94.06
349.583	85.06
349.81	90.06
350.037	85.06
350.265	75.06
350.492	84.06
350.72	89.06
350.947	94.06
351.174	88.06
351.402	95.06
351.629	70.06
351.856	100.06
352.083	95.06
352.311	93.06
352.538	87.06
352.765	86.06
352.992	91.06
353.22	78.06
353.447	79.06
353.674	85.06
353.901	75.06
354.128	90.06
354.355	78.06
354.583	71.06
354.81	80.06
355.037	96.06
355.264	87.06
355.491	87.06
355.718	85.06
355.945	93.06
356.172	86.06
356.399	76.06
356.626	77.06
356.853	82.06
357.08	89.06
357.307	91.06
357.534	88.06
357.761	90.06
357.988	96.06
358.215	80.06
358.441	88.06
358.668	75.06
358.895	75.06
359.122	85.06
359.349	90.06
359.576	79.06
359.802	79.06
360.029	79.06
360.256	86.06
360.483	96.06
360.709	83.06
360.936	97.06
361.163	87.06
361.39	81.06
361.616	83.06
361.843	72.06
362.07	68.06
362.296	88.06
362.523	71.06
362.749	83.06
362.976	82.06
363.203	89.06
363.429	80.06
363.656	70.06
363.882	85.06
364.109	64.06
364.335	90.06
364.562	94.06
364.788	86.06
365.015	78.06
365.241	72.06
365.468	82.06
365.694	82.06
365.92	86.06
366.147	96.06
366.373	81.06
366.599	78.06
366.826	87.06
367.052	99.06
367.278	87.06
367.505	97.06
367.731	98.06
367.957	88.06
368.184	89.06
368.41	91.06
368.636	80.06
368.862	98.06
369.089	100.06
369.315	92.06
369.541	87.06
369.767	94.06
369.993	92.06
370.219	102.06
370.445	86.06
370.672	83.06
370.898	95.06
371.124	83.06
371.35	79.06
371.576	88.06
371.802	94.06
372.028	94.06
372.254	90.06
372.48	103.06
372.706	87.06
372.932	100.06
373.158	89.06
373.384	93.06
373.61	89.06
373.835	88.06
374.061	87.06
374.287	97.06
374.513	86.06
374.739	97.06
374.965	89.06
375.191	103.06
375.416	112.06
375.642	110.06
375.868	88.06
376.094	97.06
376.319	98.06
376.545	88.06
376.771	89.06
376.997	86.06
377.222	93.06
377.448	102.06
377.674	80.06
377.899	107.06
378.125	107.06
378.35	73.06
378.576	86.06
378.802	97.06
379.027	87.06
379.253	104.06
379.478	87.06
379.704	99.06
379.929	91.06
380.155	107.06
380.38	106.06
380.606	104.06
380.831	100.06
381.057	99.06
381.282	103.06
381.507	93.06
381.733	91.06
381.958	88.06
382.184	77.06
382.409	98.06
382.634	105.06
382.86	85.06
383.085	106.06
383.31	88.06
383.535	102.06
383.761	103.06
383.986	102.06
384.211	90.06
384.436	98.06
384.662	84.06
384.887	101.06
385.112	97.06
385.337	112.06
385.562	114.06
385.787	102.06
386.013	108.06
386.238	98.06
386.463	96.06
386.688	99.06
386.913	87.06
387.138	110.06
387.363	119.06
387.588	107.06
387.813	99.06
388.038	106.06
388.263	94.06
388.488	104.06
388.713	93.06
388.938	98.06
389.163	80.06
389.387	92.06
389.612	95.06
389.837	95.06
390.062	99.06
390.287	106.06
390.512	101.06
390.736	105.06
390.961	113.06
391.186	110.06
391.411	92.06
391.636	112.06
391.86	99.06
392.085	114.06
392.31	98.06
392.534	111.06
392.759	106.06
392.984	125.06
393.208	88.06
393.433	97.06
393.658	103.06
393.882	106.06
394.107	114.06
394.331	110.06
394.556	102.06
394.78	107.06
395.005	100.06
395.229	110.06
395.454	110.06
395.678	118.06
395.903	107.06
396.127	103.06
396.352	110.06
396.576	100.06
396.801	107.06
397.025	96.06
397.249	110.06
397.474	114.06
397.698	105.06
397.922	100.06
398.147	103.06
398.371	113.06
398.595	115.06
398.82	111.06
399.044	110.06
399.268	103.06
399.492	108.06
399.717	125.06
399.941	114.06
400.165	110.06
400.389	118.06
400.613	104.06
400.837	97.06
401.062	115.06
401.286	118.06
401.51	111.06
401.734	120.06
401.958	105.06
402.182	114.06
402.406	113.06
402.63	98.06
402.854	108.06
403.078	128.06
403.302	123.06
403.526	118.06
403.75	116.06
403.974	121.06
404.198	106.06
404.422	120.06
404.645	120.06
404.869	106.06
405.093	120.06
405.317	131.06
405.541	120.06
405.765	132.06
405.988	113.06
406.212	126.06
406.436	116.06
406.66	115.06
406.883	104.06
407.107	114.06
407.331	123.06
407.555	122.06
407.778	114.06
408.002	122.06
408.226	131.06
408.449	129.06
408.673	119.06
408.896	131.06
409.12	143.06
409.344	117.06
409.567	123.06
409.791	128.06
410.014	123.06
410.238	138.06
410.461	138.06
410.685	104.06
410.908	135.06
411.132	130.06
411.355	128.06
411.578	143.06
411.802	120.06
412.025	110.06
412.249	126.06
412.472	120.06
412.695	118.06
412.919	123.06
413.142	123.06
413.365	113.06
413.589	108.06
413.812	126.06
414.035	123.06
414.258	134.06
414.482	124.06
414.705	112.06
414.928	125.06
415.151	116.06
415.374	136.06
415.597	123.06
415.821	132.06
416.044	114.06
416.267	132.06
416.49	143.06
416.713	130.06
416.936	124.06
417.159	146.06
417.382	122.06
417.605	135.06
417.828	128.06
418.051	134.06
418.274	126.06
418.497	136.06
418.72	128.06
418.943	127.06
419.166	156.06
419.389	130.06
419.611	127.06
419.834	139.06
420.057	134.06
420.28	131.06
420.503	135.06
420.726	128.06
420.948	119.06
421.171	133.06
421.394	150.06
421.617	150.06
421.839	143.06
422.062	126.06
422.285	146.06
422.507	126.06
422.73	134.06
422.953	133.06
423.175	119.06
423.398	131.06
423.621	128.06
423.843	138.06
424.066	137.06
424.288	151.06
424.511	147.06
424.733	147.06
424.956	149.06
425.178	145.06
425.401	144.06
425.623	148.06
425.846	132.06
426.068	137.06
426.291	147.06
426.513	133.06
426.735	126.06
426.958	145.06
427.18	147.06
427.402	149.06
427.625	124.06
427.847	127.06
428.069	132.06
428.292	130.06
428.514	127.06
428.736	126.06
428.958	121.06
429.181	126.06
429.403	130.06
429.625	131.06
429.847	128.06
430.069	129.06
430.292	140.06
430.514	132.06
430.736	138.06
430.958	127.06
431.18	128.06
431.402	125.06
431.624	130.06
431.846	111.06
432.068	111.06
432.29	103.06
432.512	110.06
432.734	120.06
432.956	129.06
433.178	130.06
433.4	138.06
433.622	153.06
433.844	130.06
434.066	140.06
434.287	119.06
434.509	97.06
434.731	105.06
434.953	117.06
435.175	127.06
435.397	135.06
435.618	116.06
435.84	114.06
436.062	108.06
436.284	126.06
436.505	124.06
436.727	133.06
436.949	133.06
437.17	121.06
437.392	132.06
437.614	115.06
437.835	105.06
438.057	108.06
438.278	115.06
438.5	127.06
438.721	131.06
438.943	141.06
439.165	136.06
439.386	128.06
439.608	148.06
439.829	152.06
440.05	153.06
440.272	160.06
440.493	156.06
440.715	144.06
440.936	149.06
441.158	159.06
441.379	147.06
441.6	148.06
441.822	147.06
442.043	150.06
442.264	155.06
442.486	144.06
442.707	152.06
442.928	151.06
443.149	148.06
443.371	147.06
443.592	139.06
443.813	126.06
444.034	146.06
444.255	145.06
444.476	146.06
444.698	137.06
444.919	130.06
445.14	278.06
445.361	226.06
445.582	166.06
445.803	154.06
446.024	164.06
446.245	161.06
446.466	168.06
446.687	163.06
446.908	154.06
447.129	162.06
447.35	158.06
447.571	161.06
447.792	158.06
448.013	143.06
448.234	146.06
448.455	133.06
448.675	148.06
448.896	130.06
449.117	151.06
449.338	142.06
449.559	154.06
449.779	140.06
450	156.06
450.221	140.06
450.442	141.06
450.662	138.06
450.883	144.06
451.104	154.06
451.324	135.06
451.545	129.06
451.766	147.06
451.986	137.06
452.207	140.06
452.428	134.06
452.648	116.06
452.869	124.06
453.089	123.06
453.31	121.06
453.53	111.06
453.751	106.06
453.971	122.06
454.192	123.06
454.412	122.06
454.633	124.06
454.853	124.06
455.073	126.06
455.294	121.06
455.514	126.06
455.734	126.06
455.955	132.06
456.175	128.06
456.395	123.06
456.616	106.06
456.836	120.06
457.056	128.06
457.276	102.06
457.497	105.06
457.717	101.06
457.937	114.06
458.157	118.06
458.377	114.06
458.598	95.06
458.818	91.06
459.038	82.06
459.258	101.06
459.478	84.06
459.698	103.06
459.918	115.06
460.138	100.06
460.358	126.06
460.578	126.06
460.798	128.06
461.018	121.06
461.238	112.06
461.458	105.06
461.678	105.06
461.898	111.06
462.118	109.06
462.338	131.06
462.558	128.06
462.777	106.06
462.997	121.06
463.217	102.06
463.437	124.06
463.657	111.06
463.876	112.06
464.096	119.06
464.316	118.06
464.536	122.06
464.755	122.06
464.975	112.06
465.195	122.06
465.414	122.06
465.634	121.06
465.854	122.06
466.073	124.06
466.293	114.06
466.512	118.06
466.732	126.06
466.951	135.06
467.171	132.06
467.391	126.06
467.61	139.06
467.829	132.06
468.049	143.06
468.268	136.06
468.488	150.06
468.707	132.06
468.927	149.06
469.146	156.06
469.365	151.06
469.585	122.06
469.804	153.06
470.023	157.06
470.243	143.06
470.462	148.06
470.681	154.06
470.901	147.06
471.12	143.06
471.339	159.06
471.558	138.06
471.777	145.06
471.997	126.06
472.216	128.06
472.435	128.06
472.654	111.06
472.873	108.06
473.092	128.06
473.311	126.06
473.53	132.06
473.749	134.06
473.968	130.06
474.187	124.06
474.406	130.06
474.625	130.06
474.844	132.06
475.063	126.06
475.282	138.06
475.501	118.06
475.72	124.06
475.939	121.06
476.158	129.06
476.377	147.06
476.596	132.06
476.814	116.06
477.033	104.06
477.252	98.06
477.471	120.06
477.69	147.06
477.908	150.06
478.127	142.06
478.346	127.06
478.564	127.06
478.783	144.06
479.002	140.06
479.22	144.06
479.439	140.06
479.658	126.06
479.876	133.06
480.095	111.06
480.313	112.06
480.532	125.06
480.751	112.06
480.969	94.06
481.188	87.06
481.406	78.06
481.624	95.06
481.843	98.06
482.061	106.06
482.28	126.06
482.498	134.06
482.717	144.06
482.935	131.06
483.153	144.06
483.372	152.06
483.59	160.06
483.808	152.06
484.027	138.06
484.245	141.06
484.463	158.06
484.681	161.06
484.9	151.06
485.118	146.06
485.336	138.06
485.554	120.06
485.772	104.06
485.99	122.06
486.209	112.06
486.427	114.06
486.645	127.06
486.863	156.06
487.081	144.06
487.299	152.06
487.517	151.06
487.735	180.06
487.953	195.06
488.171	204.06
488.389	195.06
488.607	176.06
488.825	158.06
489.043	152.06
489.261	130.06
489.479	144.06
489.696	159.06
489.914	147.06
490.132	144.06
490.35	149.06
490.568	177.06
490.786	182.06
491.003	179.06
491.221	175.06
491.439	183.06
491.657	186.06
491.874	207.06
492.092	241.06
492.31	248.06
492.527	244.06
492.745	210.06
492.963	211.06
493.18	203.06
493.398	185.06
493.615	182.06
493.833	170.06
494.05	174.06
494.268	175.06
494.485	187.06
494.703	175.06
494.92	182.06
495.138	171.06
495.355	170.06
495.573	196.06
495.79	168.06
496.008	183.06
496.225	179.06
496.442	167.06
496.66	154.06
496.877	157.06
497.094	179.06
497.312	182.06
497.529	179.06
497.746	160.06
497.963	146.06
498.181	138.06
498.398	130.06
498.615	124.06
498.832	135.06
499.049	122.06
499.267	119.06
499.484	129.06
499.701	140.06
499.918	126.06
500.135	159.06
500.352	155.06
500.569	152.06
500.786	142.06
501.003	157.06
501.22	145.06
501.437	146.06
501.654	155.06
501.871	138.06
502.088	139.06
502.305	115.06
502.522	124.06
502.739	127.06
502.956	128.06
503.172	133.06
503.389	136.06
503.606	122.06
503.823	127.06
504.04	126.06
504.256	127.06
504.473	134.06
504.69	115.06
504.907	134.06
505.123	124.06
505.34	126.06
505.557	124.06
505.773	122.06
505.99	133.06
506.207	130.06
506.423	120.06
506.64	124.06
506.856	134.06
507.073	125.06
507.289	137.06
507.506	124.06
507.722	137.06
507.939	119.06
508.155	121.06
508.372	132.06
508.588	126.06
508.805	121.06
509.021	107.06
509.238	110.06
509.454	108.06
509.67	107.06
509.887	100.06
510.103	105.06
510.319	94.06
510.536	92.06
510.752	93.06
510.968	83.06
511.184	97.06
511.401	88.06
511.617	95.06
511.833	94.06
512.049	91.06
512.265	96.06
512.481	109.06
512.698	85.06
512.914	84.06
513.13	93.06
513.346	85.06
513.562	85.06
513.778	94.06
513.994	98.06
514.21	100.06
514.426	90.06
514.642	92.06
514.858	76.06
515.074	88.06
515.29	90.06
515.506	88.06
515.721	95.06
515.937	94.06
516.153	85.06
516.369	87.06
516.585	86.06
516.801	89.06
517.016	79.06
517.232	87.06
517.448	84.06
517.664	103.06
517.879	107.06
518.095	97.06
518.311	95.06
518.527	87.06
518.742	96.06
518.958	112.06
519.173	115.06
519.389	110.06
519.605	112.06
519.82	113.06
520.036	91.06
520.251	117.06
520.467	105.06
520.682	110.06
520.898	89.06
521.113	93.06
521.329	102.06
521.544	86.06
521.76	100.06
521.975	100.06
522.19	95.06
522.406	80.06
522.621	113.06
522.836	110.06
523.052	123.06
523.267	104.06
523.482	115.06
523.698	110.06
523.913	111.06
524.128	118.06
524.343	114.06
524.559	121.06
524.774	132.06
524.989	128.06
525.204	120.06
525.419	115.06
525.634	105.06
525.849	107.06
526.064	107.06
526.28	108.06
526.495	97.06
526.71	106.06
526.925	81.06
527.14	82.06
527.355	83.06
527.57	85.06
527.785	75.06
527.999	91.06
528.214	97.06
528.429	101.06
528.644	116.06
528.859	133.06
529.074	155.06
529.289	172.06
529.503	169.06
529.718	148.06
529.933	130.06
530.148	95.06
530.363	91.06
530.577	96.06
530.792	79.06
531.007	82.06
531.221	84.06
531.436	76.06
531.651	86.06
531.865	98.06
532.08	71.06
532.295	87.06
532.509	96.06
532.724	77.06
532.938	86.06
533.153	94.06
533.367	113.06
533.582	118.06
533.796	115.06
534.011	113.06
534.225	97.06
534.44	97.06
534.654	96.06
534.868	102.06
535.083	102.06
535.297	87.06
535.511	123.06
535.726	120.06
535.94	97.06
536.154	89.06
536.369	91.06
536.583	67.06
536.797	96.06
537.011	98.06
537.225	94.06
537.44	92.06
537.654	108.06
537.868	98.06
538.082	107.06
538.296	104.06
538.51	106.06
538.724	122.06
538.938	139.06
539.153	131.06
539.367	140.06
539.581	119.06
539.795	115.06
540.009	95.06
540.222	98.06
540.436	119.06
540.65	119.06
540.864	136.06
541.078	138.06
541.292	144.06
541.506	163.06
541.72	180.06
541.934	194.06
542.147	217.06
542.361	188.06
542.575	168.06
542.789	163.06
543.002	149.06
543.216	123.06
543.43	132.06
543.644	140.06
543.857	149.06
544.071	169.06
544.285	161.06
544.498	163.06
544.712	179.06
544.925	167.06
545.139	152.06
545.352	184.06
545.566	159.06
545.779	160.06
545.993	155.06
546.206	172.06
546.42	179.06
546.633	178.06
546.847	152.06
547.06	162.06
547.274	180.06
547.487	190.06
547.7	202.06
547.914	175.06
548.127	169.06
548.34	150.06
548.554	162.06
548.767	171.06
548.98	168.06
549.193	148.06
549.407	175.06
549.62	156.06
549.833	159.06
550.046	178.06
550.259	155.06
550.473	160.06
550.686	171.06
550.899	152.06
551.112	162.06
551.325	146.06
551.538	146.06
551.751	142.06
551.964	138.06
552.177	137.06
552.39	143.06
552.603	138.06
552.816	158.06
553.029	158.06
553.242	154.06
553.455	148.06
553.667	179.06
553.88	157.06
554.093	170.06
554.306	152.06
554.519	172.06
554.732	160.06
554.944	165.06
555.157	150.06
555.37	150.06
555.583	141.06
555.795	153.06
556.008	131.06
556.221	147.06
556.433	140.06
556.646	138.06
556.859	131.06
557.071	150.06
557.284	150.06
557.496	145.06
557.709	136.06
557.921	136.06
558.134	140.06
558.346	157.06
558.559	139.06
558.771	135.06
558.984	140.06
559.196	146.06
559.409	138.06
559.621	125.06
559.833	128.06
560.046	129.06
560.258	130.06
560.47	144.06
560.683	154.06
560.895	127.06
561.107	132.06
561.32	145.06
561.532	152.06
561.744	131.06
561.956	131.06
562.168	130.06
562.381	149.06
562.593	138.06
562.805	133.06
563.017	134.06
563.229	127.06
563.441	128.06
563.653	130.06
563.865	126.06
564.077	133.06
564.289	129.06
564.501	118.06
564.713	129.06
564.925	111.06
565.137	123.06
565.349	118.06
565.561	126.06
565.773	115.06
565.985	114.06
566.197	120.06
566.408	138.06
566.62	133.06
566.832	126.06
567.044	122.06
567.255	120.06
567.467	119.06
567.679	124.06
567.891	102.06
568.102	100.06
568.314	99.06
568.526	101.06
568.737	72.06
568.949	75.06
569.161	88.06
569.372	67.06
569.584	94.06
569.795	92.06
570.007	88.06
570.218	85.06
570.43	84.06
570.641	98.06
570.853	89.06
571.064	112.06
571.276	106.06
571.487	115.06
571.698	101.06
571.91	91.06
572.121	115.06
572.333	106.06
572.544	99.06
572.755	103.06
572.966	84.06
573.178	91.06
573.389	79.06
573.6	90.06
573.811	76.06
574.023	74.06
574.234	82.06
574.445	97.06
574.656	94.06
574.867	97.06
575.078	107.06
575.289	96.06
575.501	86.06
575.712	113.06
575.923	78.06
576.134	93.06
576.345	98.06
576.556	87.06
576.767	120.06
576.978	95.06
577.188	99.06
577.399	103.06
577.61	102.06
577.821	84.06
578.032	107.06
578.243	94.06
578.454	104.06
578.665	104.06
578.875	87.06
579.086	86.06
579.297	81.06
579.508	100.06
579.718	79.06
579.929	74.06
580.14	80.06
580.35	84.06
580.561	96.06
580.772	95.06
580.982	107.06
581.193	80.06
581.403	99.06
581.614	98.06
581.825	117.06
582.035	75.06
582.246	74.06
582.456	99.06
582.667	87.06
582.877	88.06
583.087	87.06
583.298	98.06
583.508	76.06
583.719	102.06
583.929	90.06
584.139	88.06
584.35	82.06
584.56	79.06
584.77	84.06
584.981	80.06
585.191	95.06
585.401	97.06
585.611	77.06
585.821	94.06
586.032	86.06
586.242	78.06
586.452	91.06
586.662	98.06
586.872	76.06
587.082	99.06
587.292	84.06
587.502	73.06
587.713	91.06
587.923	92.06
588.133	92.06
588.343	83.06
588.553	101.06
588.762	90.06
588.972	113.06
589.182	76.06
589.392	80.06
589.602	85.06
589.812	87.06
590.022	94.06
590.232	75.06
590.441	86.06
590.651	88.06
590.861	101.06
591.071	74.06
591.281	67.06
591.49	93.06
591.7	84.06
591.91	90.06
592.119	85.06
592.329	85.06
592.539	91.06
592.748	71.06
592.958	84.06
593.167	76.06
593.377	87.06
593.587	102.06
593.796	86.06
594.006	95.06
594.215	99.06
594.424	100.06
594.634	92.06
594.843	99.06
595.053	91.06
595.262	97.06
595.472	99.06
595.681	79.06
595.89	83.06
596.1	85.06
596.309	91.06
596.518	90.06
596.727	103.06
596.937	94.06
597.146	87.06
597.355	90.06
597.564	102.06
597.774	99.06
597.983	93.06
598.192	84.06
598.401	87.06
598.61	83.06
598.819	89.06
599.028	86.06
599.237	90.06
599.446	95.06
599.655	104.06
599.864	86.06
600.073	95.06
600.282	118.06
600.491	96.06
600.7	98.06
600.909	103.06
601.118	106.06
601.327	99.06
601.536	109.06
601.745	114.06
601.953	114.06
602.162	114.06
602.371	116.06
602.58	119.06
602.789	103.06
602.997	115.06
603.206	102.06
603.415	113.06
603.623	102.06
603.832	110.06
604.041	114.06
604.249	89.06
604.458	93.06
604.666	107.06
604.875	103.06
605.084	101.06
605.292	106.06
605.501	111.06
605.709	116.06
605.918	111.06
606.126	135.06
606.334	119.06
606.543	102.06
606.751	110.06
606.96	116.06
607.168	99.06
607.376	114.06
607.585	111.06
607.793	126.06
608.001	119.06
608.21	114.06
608.418	115.06
608.626	120.06
608.834	114.06
609.043	112.06
609.251	122.06
609.459	102.06
609.667	117.06
609.875	114.06
610.083	141.06
610.291	123.06
610.499	107.06
610.707	116.06
610.916	116.06
611.124	112.06
611.332	110.06
611.54	113.06
611.748	111.06
611.955	120.06
612.163	117.06
612.371	128.06
612.579	123.06
612.787	112.06
612.995	104.06
613.203	106.06
613.411	114.06
613.618	115.06
613.826	111.06
614.034	121.06
614.242	106.06
614.449	117.06
614.657	130.06
614.865	115.06
615.072	126.06
615.28	128.06
615.488	113.06
615.695	122.06
615.903	103.06
616.111	123.06
616.318	115.06
616.526	120.06
616.733	115.06
616.941	113.06
617.148	134.06
617.356	115.06
617.563	106.06
617.771	122.06
617.978	102.06
618.185	115.06
618.393	115.06
618.6	119.06
618.807	108.06
619.015	103.06
619.222	107.06
619.429	111.06
619.637	102.06
619.844	90.06
620.051	110.06
620.258	93.06
620.466	112.06
620.673	99.06
620.88	106.06
621.087	103.06
621.294	107.06
621.501	106.06
621.708	98.06
621.915	102.06
622.122	110.06
622.329	109.06
622.536	110.06
622.743	105.06
622.95	104.06
623.157	112.06
623.364	107.06
623.571	115.06
623.778	106.06
623.985	108.06
624.192	113.06
624.399	115.06
624.606	102.06
624.812	112.06
625.019	121.06
625.226	110.06
625.433	112.06
625.639	112.06
625.846	106.06
626.053	113.06
626.259	92.06
626.466	101.06
626.673	96.06
626.879	95.06
627.086	103.06
627.293	118.06
627.499	103.06
627.706	91.06
627.912	122.06
628.119	98.06
628.325	120.06
628.532	113.06
628.738	116.06
628.945	98.06
629.151	101.06
629.357	100.06
629.564	115.06
629.77	116.06
629.976	95.06
630.183	83.06
630.389	96.06
630.595	109.06
630.802	106.06
631.008	112.06
631.214	100.06
631.42	117.06
631.627	110.06
631.833	90.06
632.039	99.06
632.245	109.06
632.451	120.06
632.657	113.06
632.863	113.06
633.069	120.06
633.275	115.06
633.481	109.06
633.688	93.06
633.893	114.06
634.099	114.06
634.305	109.06
634.511	114.06
634.717	100.06
634.923	83.06
635.129	91.06
635.335	97.06
635.541	114.06
635.747	113.06
635.952	91.06
636.158	101.06
636.364	102.06
636.57	114.06
636.775	107.06
636.981	116.06
637.187	94.06
637.392	94.06
637.598	111.06
637.804	96.06
638.009	95.06
638.215	100.06
638.421	94.06
638.626	105.06
638.832	94.06
639.037	107.06
639.243	101.06
639.448	103.06
639.654	108.06
639.859	102.06
640.065	107.06
640.27	103.06
640.475	91.06
640.681	103.06
640.886	100.06
641.091	107.06
641.297	97.06
641.502	103.06
641.707	112.06
641.913	119.06
642.118	98.06
642.323	100.06
642.528	104.06
642.733	98.06
642.939	101.06
643.144	114.06
643.349	104.06
643.554	106.06
643.759	94.06
643.964	96.06
644.169	95.06
644.374	104.06
644.579	97.06
644.784	95.06
644.989	101.06
645.194	97.06
645.399	99.06
645.604	117.06
645.809	112.06
646.014	103.06
646.219	98.06
646.423	109.06
646.628	100.06
646.833	99.06
647.038	98.06
647.243	106.06
647.447	96.06
647.652	110.06
647.857	101.06
648.062	115.06
648.266	90.06
648.471	99.06
648.676	103.06
648.88	101.06
649.085	96.06
649.289	104.06
649.494	88.06
649.698	99.06
649.903	110.06
650.107	119.06
650.312	100.06
650.516	88.06
650.721	101.06
650.925	92.06
651.13	84.06
651.334	95.06
651.539	87.06
651.743	97.06
651.947	84.06
652.152	92.06
652.356	94.06
652.56	96.06
652.764	88.06
652.969	101.06
653.173	98.06
653.377	86.06
653.581	92.06
653.785	103.06
653.99	81.06
654.194	98.06
654.398	93.06
654.602	98.06
654.806	91.06
655.01	96.06
655.214	103.06
655.418	114.06
655.622	89.06
655.826	90.06
656.03	106.06
656.234	82.06
656.438	82.06
656.642	82.06
656.846	89.06
657.049	72.06
657.253	89.06
657.457	92.06
657.661	96.06
657.865	90.06
658.068	87.06
658.272	81.06
658.476	90.06
658.68	86.06
658.883	89.06
659.087	90.06
659.291	78.06
659.494	102.06
659.698	90.06
659.901	82.06
660.105	89.06
660.309	89.06
660.512	78.06
660.716	99.06
660.919	83.06
661.123	87.06
661.326	79.06
661.53	95.06
661.733	79.06
661.936	79.06
662.14	79.06
662.343	90.06
662.546	79.06
662.75	75.06
662.953	64.06
663.156	94.06
663.36	80.06
663.563	73.06
663.766	74.06
663.969	84.06
664.173	80.06
664.376	84.06
664.579	66.06
664.782	71.06
664.985	75.06
665.188	75.06
665.391	100.06
665.594	78.06
665.797	84.06
666	84.06
666.203	88.06
666.406	85.06
666.609	89.06
666.812	67.06
667.015	85.06
667.218	81.06
667.421	73.06
667.624	76.06
667.827	80.06
668.03	70.06
668.232	78.06
668.435	79.06
668.638	75.06
668.841	93.06
669.043	86.06
669.246	84.06
669.449	79.06
669.651	76.06
669.854	89.06
670.057	96.06
670.259	78.06
670.462	75.06
670.665	88.06
670.867	86.06
671.07	94.06
671.272	84.06
671.475	91.06
671.677	84.06
671.88	85.06
672.082	80.06
672.284	76.06
672.487	87.06
672.689	86.06
672.892	87.06
