Data from Location6.07152019.Energy5.Lamp.07192019.3%Agarose_HRD10591_16-12-40-395.txt Node
Date: Fri Jul 19 16:12:40 EDT 2019
User: cochatt
Spectrometer: HR+D1059
Trigger mode: 1
Integration Time (sec): 1.000000E-1
Scans to average: 1
Electric dark correction enabled: true
Nonlinearity correction enabled: false
Boxcar width: 0
XAxis mode: Wavelengths
Number of Pixels in Spectrum: 2048
>>>>>Begin Spectral Data<<<<<
223.165	-12.31
223.4	-12.31
223.635	-12.31
223.869	-6.31
224.104	-19.31
224.338	-13.31
224.573	-12.31
224.808	-10.31
225.042	-14.31
225.277	-9.31
225.511	3.69
225.746	-6.31
225.98	1.69
226.215	12.69
226.449	20.69
226.683	21.69
226.918	14.69
227.152	28.69
227.387	31.69
227.621	23.69
227.856	45.69
228.09	58.69
228.324	44.69
228.559	44.69
228.793	63.69
229.027	53.69
229.262	66.69
229.496	65.69
229.73	73.69
229.964	84.69
230.199	93.69
230.433	78.69
230.667	69.69
230.901	70.69
231.136	83.69
231.37	98.69
231.604	71.69
231.838	75.69
232.072	82.69
232.306	78.69
232.541	87.69
232.775	78.69
233.009	76.69
233.243	75.69
233.477	75.69
233.711	71.69
233.945	72.69
234.179	68.69
234.413	82.69
234.647	83.69
234.881	76.69
235.115	84.69
235.349	83.69
235.583	87.69
235.817	76.69
236.051	66.69
236.285	70.69
236.519	80.69
236.753	78.69
236.987	82.69
237.221	90.69
237.455	76.69
237.689	78.69
237.922	80.69
238.156	78.69
238.39	68.69
238.624	89.69
238.858	82.69
239.091	76.69
239.325	55.69
239.559	73.69
239.793	77.69
240.027	75.69
240.26	80.69
240.494	64.69
240.728	75.69
240.961	72.69
241.195	72.69
241.429	76.69
241.662	76.69
241.896	77.69
242.13	85.69
242.363	63.69
242.597	76.69
242.83	78.69
243.064	72.69
243.298	76.69
243.531	78.69
243.765	75.69
243.998	74.69
244.232	80.69
244.465	80.69
244.699	73.69
244.932	81.69
245.166	74.69
245.399	79.69
245.633	78.69
245.866	68.69
246.099	73.69
246.333	73.69
246.566	80.69
246.8	66.69
247.033	70.69
247.266	72.69
247.5	82.69
247.733	81.69
247.966	59.69
248.2	79.69
248.433	87.69
248.666	83.69
248.899	87.69
249.133	77.69
249.366	74.69
249.599	75.69
249.832	74.69
250.066	82.69
250.299	71.69
250.532	71.69
250.765	82.69
250.998	85.69
251.231	77.69
251.465	88.69
251.698	83.69
251.931	72.69
252.164	72.69
252.397	88.69
252.63	75.69
252.863	88.69
253.096	80.69
253.329	74.69
253.562	84.69
253.795	72.69
254.028	74.69
254.261	83.69
254.494	79.69
254.727	68.69
254.96	73.69
255.193	79.69
255.426	90.69
255.659	88.69
255.892	83.69
256.124	94.69
256.357	89.69
256.59	65.69
256.823	97.69
257.056	56.69
257.289	78.69
257.521	97.69
257.754	84.69
257.987	84.69
258.22	90.69
258.452	90.69
258.685	81.69
258.918	95.69
259.151	74.69
259.383	94.69
259.616	99.69
259.849	90.69
260.081	86.69
260.314	73.69
260.547	72.69
260.779	70.69
261.012	80.69
261.244	84.69
261.477	88.69
261.71	69.69
261.942	74.69
262.175	94.69
262.407	83.69
262.64	69.69
262.872	72.69
263.105	80.69
263.337	81.69
263.57	67.69
263.802	78.69
264.035	99.69
264.267	78.69
264.499	76.69
264.732	69.69
264.964	84.69
265.197	78.69
265.429	85.69
265.661	76.69
265.894	61.69
266.126	84.69
266.358	76.69
266.591	74.69
266.823	91.69
267.055	75.69
267.287	82.69
267.52	86.69
267.752	87.69
267.984	91.69
268.216	88.69
268.448	71.69
268.681	73.69
268.913	69.69
269.145	84.69
269.377	76.69
269.609	88.69
269.841	83.69
270.073	89.69
270.306	84.69
270.538	71.69
270.77	79.69
271.002	82.69
271.234	87.69
271.466	73.69
271.698	70.69
271.93	76.69
272.162	92.69
272.394	91.69
272.626	79.69
272.858	86.69
273.09	77.69
273.322	81.69
273.553	70.69
273.785	82.69
274.017	76.69
274.249	80.69
274.481	86.69
274.713	70.69
274.945	74.69
275.176	79.69
275.408	89.69
275.64	66.69
275.872	82.69
276.104	92.69
276.335	82.69
276.567	64.69
276.799	75.69
277.031	71.69
277.262	77.69
277.494	79.69
277.726	82.69
277.957	71.69
278.189	71.69
278.421	92.69
278.652	94.69
278.884	60.69
279.115	86.69
279.347	79.69
279.579	87.69
279.81	75.69
280.042	71.69
280.273	81.69
280.505	84.69
280.736	90.69
280.968	81.69
281.199	82.69
281.431	81.69
281.662	75.69
281.894	87.69
282.125	84.69
282.356	93.69
282.588	78.69
282.819	82.69
283.051	79.69
283.282	86.69
283.513	79.69
283.745	90.69
283.976	84.69
284.207	74.69
284.439	76.69
284.67	73.69
284.901	81.69
285.132	86.69
285.364	91.69
285.595	75.69
285.826	86.69
286.057	82.69
286.288	77.69
286.52	91.69
286.751	88.69
286.982	80.69
287.213	86.69
287.444	95.69
287.675	86.69
287.906	76.69
288.138	82.69
288.369	83.69
288.6	67.69
288.831	86.69
289.062	73.69
289.293	83.69
289.524	83.69
289.755	79.69
289.986	80.69
290.217	89.69
290.448	82.69
290.679	87.69
290.91	84.69
291.141	89.69
291.371	83.69
291.602	79.69
291.833	73.69
292.064	99.69
292.295	80.69
292.526	84.69
292.757	90.69
292.987	73.69
293.218	91.69
293.449	89.69
293.68	86.69
293.91	77.69
294.141	79.69
294.372	73.69
294.603	89.69
294.833	91.69
295.064	71.69
295.295	75.69
295.525	83.69
295.756	92.69
295.987	80.69
296.217	93.69
296.448	90.69
296.679	82.69
296.909	82.69
297.14	88.69
297.37	81.69
297.601	80.69
297.831	86.69
298.062	87.69
298.292	81.69
298.523	77.69
298.753	70.69
298.984	85.69
299.214	76.69
299.445	74.69
299.675	85.69
299.905	68.69
300.136	88.69
300.366	66.69
300.597	83.69
300.827	83.69
301.057	80.69
301.288	79.69
301.518	80.69
301.748	89.69
301.979	86.69
302.209	92.69
302.439	71.69
302.669	79.69
302.9	76.69
303.13	79.69
303.36	79.69
303.59	85.69
303.82	80.69
304.051	91.69
304.281	85.69
304.511	84.69
304.741	77.69
304.971	88.69
305.201	79.69
305.431	72.69
305.661	87.69
305.891	74.69
306.121	90.69
306.352	88.69
306.582	93.69
306.812	80.69
307.042	84.69
307.272	96.69
307.502	80.69
307.731	73.69
307.961	77.69
308.191	80.69
308.421	91.69
308.651	73.69
308.881	94.69
309.111	97.69
309.341	89.69
309.571	83.69
309.8	74.69
310.03	85.69
310.26	88.69
310.49	91.69
310.72	94.69
310.949	85.69
311.179	89.69
311.409	92.69
311.639	80.69
311.868	91.69
312.098	97.69
312.328	82.69
312.557	83.69
312.787	90.69
313.017	78.69
313.246	79.69
313.476	91.69
313.706	75.69
313.935	84.69
314.165	96.69
314.394	98.69
314.624	75.69
314.853	86.69
315.083	78.69
315.312	88.69
315.542	79.69
315.771	100.69
316.001	83.69
316.23	81.69
316.46	83.69
316.689	94.69
316.919	95.69
317.148	86.69
317.377	94.69
317.607	83.69
317.836	84.69
318.065	80.69
318.295	91.69
318.524	65.69
318.753	84.69
318.983	83.69
319.212	84.69
319.441	82.69
319.67	89.69
319.9	86.69
320.129	69.69
320.358	89.69
320.587	82.69
320.816	87.69
321.046	83.69
321.275	82.69
321.504	87.69
321.733	74.69
321.962	94.69
322.191	88.69
322.42	91.69
322.649	80.69
322.878	82.69
323.108	91.69
323.337	77.69
323.566	79.69
323.795	78.69
324.024	72.69
324.253	70.69
324.482	76.69
324.71	94.69
324.939	81.69
325.168	75.69
325.397	71.69
325.626	85.69
325.855	71.69
326.084	82.69
326.313	76.69
326.542	91.69
326.77	95.69
326.999	84.69
327.228	90.69
327.457	87.69
327.686	82.69
327.914	94.69
328.143	80.69
328.372	64.69
328.6	78.69
328.829	85.69
329.058	85.69
329.287	78.69
329.515	81.69
329.744	84.69
329.972	89.69
330.201	77.69
330.43	74.69
330.658	82.69
330.887	79.69
331.115	85.69
331.344	87.69
331.572	75.69
331.801	77.69
332.03	79.69
332.258	72.69
332.486	75.69
332.715	82.69
332.943	84.69
333.172	79.69
333.4	80.69
333.629	87.69
333.857	73.69
334.085	84.69
334.314	95.69
334.542	70.69
334.771	89.69
334.999	88.69
335.227	88.69
335.455	91.69
335.684	84.69
335.912	87.69
336.14	76.69
336.369	75.69
336.597	80.69
336.825	72.69
337.053	71.69
337.281	74.69
337.51	84.69
337.738	89.69
337.966	93.69
338.194	79.69
338.422	82.69
338.65	72.69
338.878	83.69
339.106	78.69
339.334	78.69
339.562	67.69
339.79	89.69
340.018	79.69
340.246	88.69
340.474	71.69
340.702	95.69
340.93	85.69
341.158	80.69
341.386	75.69
341.614	91.69
341.842	89.69
342.07	80.69
342.298	91.69
342.526	91.69
342.754	75.69
342.981	91.69
343.209	82.69
343.437	93.69
343.665	77.69
343.893	91.69
344.12	82.69
344.348	80.69
344.576	77.69
344.804	75.69
345.031	71.69
345.259	81.69
345.487	81.69
345.714	78.69
345.942	96.69
346.17	67.69
346.397	97.69
346.625	94.69
346.853	80.69
347.08	77.69
347.308	87.69
347.535	87.69
347.763	73.69
347.99	90.69
348.218	82.69
348.445	75.69
348.673	87.69
348.9	83.69
349.128	84.69
349.355	82.69
349.583	94.69
349.81	86.69
350.037	72.69
350.265	73.69
350.492	88.69
350.72	93.69
350.947	74.69
351.174	88.69
351.402	82.69
351.629	78.69
351.856	92.69
352.083	79.69
352.311	75.69
352.538	77.69
352.765	89.69
352.992	79.69
353.22	89.69
353.447	79.69
353.674	81.69
353.901	83.69
354.128	86.69
354.355	91.69
354.583	72.69
354.81	85.69
355.037	86.69
355.264	88.69
355.491	96.69
355.718	87.69
355.945	75.69
356.172	86.69
356.399	85.69
356.626	79.69
356.853	90.69
357.08	84.69
357.307	84.69
357.534	78.69
357.761	74.69
357.988	87.69
358.215	84.69
358.441	83.69
358.668	85.69
358.895	76.69
359.122	92.69
359.349	80.69
359.576	82.69
359.802	80.69
360.029	73.69
360.256	73.69
360.483	74.69
360.709	78.69
360.936	83.69
361.163	82.69
361.39	75.69
361.616	73.69
361.843	77.69
362.07	79.69
362.296	86.69
362.523	81.69
362.749	71.69
362.976	83.69
363.203	98.69
363.429	79.69
363.656	85.69
363.882	76.69
364.109	90.69
364.335	74.69
364.562	95.69
364.788	86.69
365.015	84.69
365.241	90.69
365.468	86.69
365.694	82.69
365.92	62.69
366.147	78.69
366.373	78.69
366.599	88.69
366.826	90.69
367.052	94.69
367.278	83.69
367.505	80.69
367.731	86.69
367.957	84.69
368.184	75.69
368.41	88.69
368.636	90.69
368.862	99.69
369.089	98.69
369.315	101.69
369.541	82.69
369.767	87.69
369.993	98.69
370.219	85.69
370.445	85.69
370.672	86.69
370.898	86.69
371.124	82.69
371.35	105.69
371.576	100.69
371.802	90.69
372.028	89.69
372.254	95.69
372.48	90.69
372.706	88.69
372.932	73.69
373.158	97.69
373.384	100.69
373.61	85.69
373.835	80.69
374.061	77.69
374.287	87.69
374.513	87.69
374.739	103.69
374.965	95.69
375.191	88.69
375.416	82.69
375.642	93.69
375.868	86.69
376.094	95.69
376.319	91.69
376.545	83.69
376.771	89.69
376.997	90.69
377.222	83.69
377.448	96.69
377.674	102.69
377.899	105.69
378.125	86.69
378.35	85.69
378.576	94.69
378.802	96.69
379.027	93.69
379.253	87.69
379.478	82.69
379.704	91.69
379.929	86.69
380.155	78.69
380.38	86.69
380.606	82.69
380.831	106.69
381.057	93.69
381.282	98.69
381.507	96.69
381.733	98.69
381.958	82.69
382.184	88.69
382.409	104.69
382.634	107.69
382.86	90.69
383.085	104.69
383.31	101.69
383.535	107.69
383.761	94.69
383.986	103.69
384.211	112.69
384.436	87.69
384.662	96.69
384.887	102.69
385.112	101.69
385.337	99.69
385.562	97.69
385.787	103.69
386.013	95.69
386.238	91.69
386.463	96.69
386.688	100.69
386.913	89.69
387.138	106.69
387.363	110.69
387.588	91.69
387.813	98.69
388.038	95.69
388.263	103.69
388.488	113.69
388.713	120.69
388.938	102.69
389.163	98.69
389.387	95.69
389.612	108.69
389.837	94.69
390.062	99.69
390.287	115.69
390.512	99.69
390.736	104.69
390.961	101.69
391.186	86.69
391.411	110.69
391.636	88.69
391.86	102.69
392.085	102.69
392.31	101.69
392.534	99.69
392.759	104.69
392.984	99.69
393.208	115.69
393.433	120.69
393.658	122.69
393.882	130.69
394.107	116.69
394.331	116.69
394.556	114.69
394.78	98.69
395.005	104.69
395.229	104.69
395.454	110.69
395.678	106.69
395.903	116.69
396.127	116.69
396.352	94.69
396.576	110.69
396.801	99.69
397.025	97.69
397.249	106.69
397.474	104.69
397.698	118.69
397.922	114.69
398.147	104.69
398.371	99.69
398.595	115.69
398.82	111.69
399.044	104.69
399.268	96.69
399.492	108.69
399.717	124.69
399.941	114.69
400.165	126.69
400.389	121.69
400.613	124.69
400.837	117.69
401.062	113.69
401.286	125.69
401.51	105.69
401.734	118.69
401.958	120.69
402.182	113.69
402.406	120.69
402.63	112.69
402.854	100.69
403.078	114.69
403.302	113.69
403.526	121.69
403.75	116.69
403.974	106.69
404.198	118.69
404.422	108.69
404.645	107.69
404.869	118.69
405.093	116.69
405.317	117.69
405.541	126.69
405.765	116.69
405.988	98.69
406.212	134.69
406.436	122.69
406.66	119.69
406.883	112.69
407.107	128.69
407.331	111.69
407.555	126.69
407.778	118.69
408.002	106.69
408.226	122.69
408.449	120.69
408.673	125.69
408.896	118.69
409.12	113.69
409.344	122.69
409.567	104.69
409.791	111.69
410.014	120.69
410.238	128.69
410.461	105.69
410.685	131.69
410.908	121.69
411.132	130.69
411.355	118.69
411.578	125.69
411.802	130.69
412.025	116.69
412.249	122.69
412.472	124.69
412.695	118.69
412.919	119.69
413.142	119.69
413.365	110.69
413.589	130.69
413.812	129.69
414.035	121.69
414.258	119.69
414.482	122.69
414.705	128.69
414.928	112.69
415.151	124.69
415.374	131.69
415.597	116.69
415.821	134.69
416.044	142.69
416.267	126.69
416.49	136.69
416.713	132.69
416.936	133.69
417.159	122.69
417.382	134.69
417.605	125.69
417.828	134.69
418.051	143.69
418.274	140.69
418.497	130.69
418.72	141.69
418.943	120.69
419.166	141.69
419.389	138.69
419.611	141.69
419.834	144.69
420.057	137.69
420.28	140.69
420.503	135.69
420.726	131.69
420.948	143.69
421.171	140.69
421.394	140.69
421.617	139.69
421.839	145.69
422.062	144.69
422.285	140.69
422.507	135.69
422.73	137.69
422.953	126.69
423.175	130.69
423.398	127.69
423.621	136.69
423.843	134.69
424.066	150.69
424.288	144.69
424.511	155.69
424.733	150.69
424.956	138.69
425.178	166.69
425.401	146.69
425.623	146.69
425.846	135.69
426.068	143.69
426.291	124.69
426.513	137.69
426.735	132.69
426.958	125.69
427.18	124.69
427.402	136.69
427.625	131.69
427.847	130.69
428.069	134.69
428.292	125.69
428.514	136.69
428.736	130.69
428.958	136.69
429.181	145.69
429.403	139.69
429.625	135.69
429.847	133.69
430.069	123.69
430.292	122.69
430.514	138.69
430.736	135.69
430.958	132.69
431.18	138.69
431.402	136.69
431.624	131.69
431.846	111.69
432.068	99.69
432.29	96.69
432.512	124.69
432.734	120.69
432.956	129.69
433.178	148.69
433.4	144.69
433.622	144.69
433.844	144.69
434.066	121.69
434.287	114.69
434.509	97.69
434.731	110.69
434.953	110.69
435.175	129.69
435.397	126.69
435.618	122.69
435.84	116.69
436.062	123.69
436.284	125.69
436.505	117.69
436.727	128.69
436.949	137.69
437.17	123.69
437.392	117.69
437.614	115.69
437.835	110.69
438.057	117.69
438.278	113.69
438.5	126.69
438.721	122.69
438.943	132.69
439.165	149.69
439.386	146.69
439.608	143.69
439.829	148.69
440.05	151.69
440.272	153.69
440.493	167.69
440.715	150.69
440.936	142.69
441.158	140.69
441.379	146.69
441.6	146.69
441.822	163.69
442.043	146.69
442.264	146.69
442.486	139.69
442.707	131.69
442.928	146.69
443.149	134.69
443.371	144.69
443.592	130.69
443.813	153.69
444.034	138.69
444.255	143.69
444.476	149.69
444.698	164.69
444.919	158.69
445.14	268.69
445.361	211.69
445.582	156.69
445.803	146.69
446.024	134.69
446.245	166.69
446.466	166.69
446.687	141.69
446.908	153.69
447.129	156.69
447.35	175.69
447.571	156.69
447.792	142.69
448.013	153.69
448.234	147.69
448.455	149.69
448.675	170.69
448.896	145.69
449.117	140.69
449.338	131.69
449.559	147.69
449.779	136.69
450	132.69
450.221	131.69
450.442	128.69
450.662	129.69
450.883	133.69
451.104	135.69
451.324	110.69
451.545	112.69
451.766	134.69
451.986	133.69
452.207	134.69
452.428	127.69
452.648	119.69
452.869	117.69
453.089	116.69
453.31	106.69
453.53	117.69
453.751	107.69
453.971	122.69
454.192	115.69
454.412	103.69
454.633	126.69
454.853	128.69
455.073	118.69
455.294	131.69
455.514	118.69
455.734	128.69
455.955	133.69
456.175	120.69
456.395	118.69
456.616	114.69
456.836	98.69
457.056	126.69
457.276	115.69
457.497	95.69
457.717	98.69
457.937	121.69
458.157	111.69
458.377	115.69
458.598	112.69
458.818	93.69
459.038	98.69
459.258	85.69
459.478	94.69
459.698	88.69
459.918	106.69
460.138	101.69
460.358	119.69
460.578	124.69
460.798	127.69
461.018	110.69
461.238	118.69
461.458	119.69
461.678	119.69
461.898	115.69
462.118	116.69
462.338	127.69
462.558	130.69
462.777	120.69
462.997	122.69
463.217	118.69
463.437	103.69
463.657	103.69
463.876	105.69
464.096	107.69
464.316	110.69
464.536	115.69
464.755	128.69
464.975	110.69
465.195	118.69
465.414	114.69
465.634	119.69
465.854	122.69
466.073	132.69
466.293	126.69
466.512	116.69
466.732	135.69
466.951	130.69
467.171	134.69
467.391	134.69
467.61	126.69
467.829	130.69
468.049	134.69
468.268	128.69
468.488	138.69
468.707	140.69
468.927	141.69
469.146	144.69
469.365	153.69
469.585	134.69
469.804	140.69
470.023	138.69
470.243	137.69
470.462	150.69
470.681	146.69
470.901	146.69
471.12	147.69
471.339	148.69
471.558	151.69
471.777	155.69
471.997	134.69
472.216	136.69
472.435	131.69
472.654	117.69
472.873	134.69
473.092	123.69
473.311	126.69
473.53	120.69
473.749	137.69
473.968	120.69
474.187	121.69
474.406	108.69
474.625	120.69
474.844	136.69
475.063	147.69
475.282	130.69
475.501	127.69
475.72	131.69
475.939	129.69
476.158	142.69
476.377	134.69
476.596	121.69
476.814	117.69
477.033	103.69
477.252	118.69
477.471	135.69
477.69	146.69
477.908	134.69
478.127	163.69
478.346	133.69
478.564	136.69
478.783	130.69
479.002	140.69
479.22	136.69
479.439	132.69
479.658	127.69
479.876	122.69
480.095	117.69
480.313	114.69
480.532	129.69
480.751	118.69
480.969	90.69
481.188	97.69
481.406	97.69
481.624	87.69
481.843	94.69
482.061	104.69
482.28	121.69
482.498	116.69
482.717	128.69
482.935	130.69
483.153	144.69
483.372	152.69
483.59	137.69
483.808	149.69
484.027	132.69
484.245	145.69
484.463	166.69
484.681	137.69
484.9	159.69
485.118	139.69
485.336	134.69
485.554	117.69
485.772	92.69
485.99	114.69
486.209	118.69
486.427	106.69
486.645	126.69
486.863	147.69
487.081	148.69
487.299	154.69
487.517	148.69
487.735	183.69
487.953	204.69
488.171	204.69
488.389	187.69
488.607	171.69
488.825	151.69
489.043	141.69
489.261	136.69
489.479	152.69
489.696	163.69
489.914	159.69
490.132	152.69
490.35	158.69
490.568	167.69
490.786	168.69
491.003	178.69
491.221	174.69
491.439	194.69
491.657	200.69
491.874	223.69
492.092	234.69
492.31	250.69
492.527	250.69
492.745	231.69
492.963	206.69
493.18	194.69
493.398	195.69
493.615	184.69
493.833	188.69
494.05	178.69
494.268	161.69
494.485	172.69
494.703	182.69
494.92	170.69
495.138	169.69
495.355	168.69
495.573	160.69
495.79	176.69
496.008	176.69
496.225	187.69
496.442	171.69
496.66	184.69
496.877	144.69
497.094	173.69
497.312	171.69
497.529	152.69
497.746	145.69
497.963	143.69
498.181	132.69
498.398	111.69
498.615	121.69
498.832	128.69
499.049	126.69
499.267	141.69
499.484	126.69
499.701	127.69
499.918	136.69
500.135	139.69
500.352	133.69
500.569	138.69
500.786	134.69
501.003	146.69
501.22	154.69
501.437	129.69
501.654	144.69
501.871	134.69
502.088	130.69
502.305	129.69
502.522	139.69
502.739	149.69
502.956	138.69
503.172	126.69
503.389	106.69
503.606	118.69
503.823	132.69
504.04	128.69
504.256	121.69
504.473	115.69
504.69	133.69
504.907	144.69
505.123	126.69
505.34	136.69
505.557	132.69
505.773	130.69
505.99	121.69
506.207	132.69
506.423	132.69
506.64	123.69
506.856	132.69
507.073	126.69
507.289	121.69
507.506	119.69
507.722	138.69
507.939	121.69
508.155	112.69
508.372	109.69
508.588	120.69
508.805	118.69
509.021	120.69
509.238	98.69
509.454	100.69
509.67	93.69
509.887	101.69
510.103	101.69
510.319	95.69
510.536	99.69
510.752	106.69
510.968	86.69
511.184	81.69
511.401	91.69
511.617	96.69
511.833	94.69
512.049	87.69
512.265	100.69
512.481	95.69
512.698	105.69
512.914	99.69
513.13	102.69
513.346	76.69
513.562	99.69
513.778	103.69
513.994	100.69
514.21	97.69
514.426	94.69
514.642	92.69
514.858	114.69
515.074	94.69
515.29	91.69
515.506	92.69
515.721	76.69
515.937	94.69
516.153	92.69
516.369	90.69
516.585	89.69
516.801	78.69
517.016	90.69
517.232	91.69
517.448	104.69
517.664	103.69
517.879	91.69
518.095	86.69
518.311	88.69
518.527	91.69
518.742	103.69
518.958	90.69
519.173	101.69
519.389	111.69
519.605	118.69
519.82	105.69
520.036	90.69
520.251	111.69
520.467	101.69
520.682	102.69
520.898	88.69
521.113	94.69
521.329	103.69
521.544	96.69
521.76	103.69
521.975	92.69
522.19	90.69
522.406	108.69
522.621	106.69
522.836	110.69
523.052	103.69
523.267	103.69
523.482	113.69
523.698	122.69
523.913	116.69
524.128	128.69
524.343	107.69
524.559	100.69
524.774	114.69
524.989	129.69
525.204	126.69
525.419	114.69
525.634	104.69
525.849	93.69
526.064	110.69
526.28	110.69
526.495	104.69
526.71	90.69
526.925	89.69
527.14	88.69
527.355	78.69
527.57	82.69
527.785	80.69
527.999	102.69
528.214	106.69
528.429	108.69
528.644	123.69
528.859	141.69
529.074	154.69
529.289	163.69
529.503	178.69
529.718	152.69
529.933	120.69
530.148	116.69
530.363	88.69
530.577	87.69
530.792	79.69
531.007	95.69
531.221	94.69
531.436	86.69
531.651	81.69
531.865	87.69
532.08	80.69
532.295	90.69
532.509	95.69
532.724	78.69
532.938	96.69
533.153	88.69
533.367	120.69
533.582	128.69
533.796	125.69
534.011	123.69
534.225	103.69
534.44	87.69
534.654	90.69
534.868	94.69
535.083	118.69
535.297	112.69
535.511	97.69
535.726	90.69
535.94	114.69
536.154	103.69
536.369	84.69
536.583	86.69
536.797	82.69
537.011	86.69
537.225	97.69
537.44	90.69
537.654	100.69
537.868	80.69
538.082	85.69
538.296	97.69
538.51	113.69
538.724	116.69
538.938	126.69
539.153	139.69
539.367	130.69
539.581	129.69
539.795	106.69
540.009	104.69
540.222	94.69
540.436	98.69
540.65	116.69
540.864	130.69
541.078	134.69
541.292	162.69
541.506	169.69
541.72	181.69
541.934	205.69
542.147	208.69
542.361	186.69
542.575	168.69
542.789	158.69
543.002	134.69
543.216	132.69
543.43	128.69
543.644	146.69
543.857	144.69
544.071	154.69
544.285	166.69
544.498	165.69
544.712	175.69
544.925	151.69
545.139	168.69
545.352	174.69
545.566	167.69
545.779	171.69
545.993	163.69
546.206	164.69
546.42	167.69
546.633	178.69
546.847	154.69
547.06	171.69
547.274	175.69
547.487	186.69
547.7	192.69
547.914	174.69
548.127	171.69
548.34	155.69
548.554	162.69
548.767	142.69
548.98	166.69
549.193	134.69
549.407	152.69
549.62	180.69
549.833	146.69
550.046	151.69
550.259	148.69
550.473	158.69
550.686	161.69
550.899	151.69
551.112	155.69
551.325	139.69
551.538	140.69
551.751	121.69
551.964	130.69
552.177	132.69
552.39	150.69
552.603	144.69
552.816	158.69
553.029	146.69
553.242	160.69
553.455	178.69
553.667	164.69
553.88	143.69
554.093	157.69
554.306	167.69
554.519	136.69
554.732	165.69
554.944	154.69
555.157	144.69
555.37	148.69
555.583	143.69
555.795	131.69
556.008	144.69
556.221	124.69
556.433	151.69
556.646	137.69
556.859	139.69
557.071	144.69
557.284	149.69
557.496	140.69
557.709	129.69
557.921	152.69
558.134	150.69
558.346	145.69
558.559	140.69
558.771	139.69
558.984	131.69
559.196	145.69
559.409	124.69
559.621	129.69
559.833	116.69
560.046	121.69
560.258	146.69
560.47	143.69
560.683	132.69
560.895	128.69
561.107	138.69
561.32	131.69
561.532	138.69
561.744	128.69
561.956	150.69
562.168	128.69
562.381	122.69
562.593	129.69
562.805	132.69
563.017	127.69
563.229	121.69
563.441	130.69
563.653	115.69
563.865	131.69
564.077	117.69
564.289	127.69
564.501	129.69
564.713	134.69
564.925	120.69
565.137	114.69
565.349	113.69
565.561	114.69
565.773	121.69
565.985	103.69
566.197	118.69
566.408	122.69
566.62	121.69
566.832	116.69
567.044	133.69
567.255	128.69
567.467	105.69
567.679	98.69
567.891	100.69
568.102	119.69
568.314	108.69
568.526	92.69
568.737	78.69
568.949	91.69
569.161	82.69
569.372	81.69
569.584	78.69
569.795	70.69
570.007	76.69
570.218	87.69
570.43	92.69
570.641	94.69
570.853	102.69
571.064	103.69
571.276	112.69
571.487	108.69
571.698	118.69
571.91	92.69
572.121	98.69
572.333	114.69
572.544	96.69
572.755	90.69
572.966	76.69
573.178	89.69
573.389	90.69
573.6	94.69
573.811	68.69
574.023	84.69
574.234	84.69
574.445	99.69
574.656	92.69
574.867	95.69
575.078	109.69
575.289	95.69
575.501	102.69
575.712	96.69
575.923	97.69
576.134	89.69
576.345	95.69
576.556	103.69
576.767	107.69
576.978	99.69
577.188	106.69
577.399	96.69
577.61	76.69
577.821	91.69
578.032	99.69
578.243	93.69
578.454	99.69
578.665	87.69
578.875	95.69
579.086	93.69
579.297	88.69
579.508	86.69
579.718	98.69
579.929	83.69
580.14	97.69
580.35	80.69
580.561	84.69
580.772	98.69
580.982	96.69
581.193	91.69
581.403	93.69
581.614	90.69
581.825	78.69
582.035	93.69
582.246	112.69
582.456	102.69
582.667	98.69
582.877	100.69
583.087	86.69
583.298	79.69
583.508	84.69
583.719	81.69
583.929	88.69
584.139	89.69
584.35	91.69
584.56	94.69
584.77	84.69
584.981	90.69
585.191	84.69
585.401	102.69
585.611	89.69
585.821	86.69
586.032	79.69
586.242	66.69
586.452	84.69
586.662	63.69
586.872	72.69
587.082	88.69
587.292	95.69
587.502	72.69
587.713	70.69
587.923	81.69
588.133	85.69
588.343	104.69
588.553	100.69
588.762	88.69
588.972	83.69
589.182	93.69
589.392	99.69
589.602	87.69
589.812	81.69
590.022	93.69
590.232	89.69
590.441	93.69
590.651	91.69
590.861	92.69
591.071	91.69
591.281	83.69
591.49	91.69
591.7	86.69
591.91	93.69
592.119	90.69
592.329	78.69
592.539	91.69
592.748	73.69
592.958	77.69
593.167	84.69
593.377	86.69
593.587	95.69
593.796	89.69
594.006	74.69
594.215	91.69
594.424	86.69
594.634	88.69
594.843	83.69
595.053	94.69
595.262	94.69
595.472	91.69
595.681	91.69
595.89	95.69
596.1	90.69
596.309	95.69
596.518	92.69
596.727	93.69
596.937	92.69
597.146	87.69
597.355	81.69
597.564	95.69
597.774	97.69
597.983	87.69
598.192	75.69
598.401	83.69
598.61	102.69
598.819	88.69
599.028	80.69
599.237	95.69
599.446	89.69
599.655	83.69
599.864	83.69
600.073	87.69
600.282	92.69
600.491	95.69
600.7	92.69
600.909	90.69
601.118	96.69
601.327	100.69
601.536	99.69
601.745	114.69
601.953	108.69
602.162	124.69
602.371	98.69
602.58	102.69
602.789	111.69
602.997	120.69
603.206	108.69
603.415	110.69
603.623	97.69
603.832	96.69
604.041	115.69
604.249	100.69
604.458	96.69
604.666	99.69
604.875	95.69
605.084	105.69
605.292	126.69
605.501	112.69
605.709	120.69
605.918	106.69
606.126	120.69
606.334	126.69
606.543	112.69
606.751	103.69
606.96	110.69
607.168	114.69
607.376	105.69
607.585	126.69
607.793	129.69
608.001	118.69
608.21	110.69
608.418	99.69
608.626	111.69
608.834	110.69
609.043	107.69
609.251	110.69
609.459	111.69
609.667	119.69
609.875	114.69
610.083	109.69
610.291	127.69
610.499	109.69
610.707	121.69
610.916	114.69
611.124	103.69
611.332	116.69
611.54	115.69
611.748	102.69
611.955	111.69
612.163	110.69
612.371	120.69
612.579	124.69
612.787	100.69
612.995	114.69
613.203	122.69
613.411	129.69
613.618	107.69
613.826	101.69
614.034	119.69
614.242	114.69
614.449	112.69
614.657	103.69
614.865	120.69
615.072	122.69
615.28	124.69
615.488	119.69
615.695	107.69
615.903	104.69
616.111	106.69
616.318	118.69
616.526	115.69
616.733	126.69
616.941	117.69
617.148	114.69
617.356	107.69
617.563	102.69
617.771	114.69
617.978	95.69
618.185	120.69
618.393	131.69
618.6	105.69
618.807	114.69
619.015	112.69
619.222	103.69
619.429	99.69
619.637	108.69
619.844	107.69
620.051	88.69
620.258	112.69
620.466	118.69
620.673	112.69
620.88	97.69
621.087	102.69
621.294	108.69
621.501	116.69
621.708	120.69
621.915	115.69
622.122	96.69
622.329	110.69
622.536	108.69
622.743	126.69
622.95	104.69
623.157	100.69
623.364	117.69
623.571	115.69
623.778	105.69
623.985	103.69
624.192	116.69
624.399	102.69
624.606	122.69
624.812	92.69
625.019	116.69
625.226	103.69
625.433	120.69
625.639	96.69
625.846	117.69
626.053	86.69
626.259	108.69
626.466	106.69
626.673	96.69
626.879	99.69
627.086	96.69
627.293	107.69
627.499	100.69
627.706	104.69
627.912	101.69
628.119	100.69
628.325	108.69
628.532	116.69
628.738	102.69
628.945	107.69
629.151	110.69
629.357	106.69
629.564	112.69
629.77	112.69
629.976	101.69
630.183	87.69
630.389	92.69
630.595	110.69
630.802	114.69
631.008	102.69
631.214	86.69
631.42	96.69
631.627	99.69
631.833	101.69
632.039	101.69
632.245	96.69
632.451	114.69
632.657	104.69
632.863	114.69
633.069	108.69
633.275	107.69
633.481	91.69
633.688	94.69
633.893	88.69
634.099	110.69
634.305	103.69
634.511	95.69
634.717	107.69
634.923	95.69
635.129	98.69
635.335	97.69
635.541	98.69
635.747	95.69
635.952	109.69
636.158	109.69
636.364	99.69
636.57	104.69
636.775	106.69
636.981	99.69
637.187	95.69
637.392	113.69
637.598	96.69
637.804	100.69
638.009	80.69
638.215	102.69
638.421	94.69
638.626	91.69
638.832	84.69
639.037	98.69
639.243	102.69
639.448	101.69
639.654	100.69
639.859	97.69
640.065	98.69
640.27	98.69
640.475	95.69
640.681	113.69
640.886	98.69
641.091	85.69
641.297	106.69
641.502	103.69
641.707	122.69
641.913	91.69
642.118	101.69
642.323	91.69
642.528	106.69
642.733	96.69
642.939	97.69
643.144	107.69
643.349	100.69
643.554	98.69
643.759	103.69
643.964	94.69
644.169	99.69
644.374	94.69
644.579	92.69
644.784	99.69
644.989	96.69
645.194	98.69
645.399	96.69
645.604	100.69
645.809	102.69
646.014	92.69
646.219	90.69
646.423	91.69
646.628	102.69
646.833	90.69
647.038	101.69
647.243	95.69
647.447	108.69
647.652	105.69
647.857	88.69
648.062	95.69
648.266	101.69
648.471	107.69
648.676	86.69
648.88	110.69
649.085	94.69
649.289	96.69
649.494	87.69
649.698	99.69
649.903	83.69
650.107	95.69
650.312	101.69
650.516	104.69
650.721	97.69
650.925	76.69
651.13	83.69
651.334	98.69
651.539	97.69
651.743	95.69
651.947	97.69
652.152	102.69
652.356	89.69
652.56	98.69
652.764	84.69
652.969	89.69
653.173	89.69
653.377	97.69
653.581	91.69
653.785	89.69
653.99	105.69
654.194	91.69
654.398	89.69
654.602	77.69
654.806	101.69
655.01	106.69
655.214	81.69
655.418	80.69
655.622	86.69
655.826	102.69
656.03	96.69
656.234	75.69
656.438	99.69
656.642	89.69
656.846	95.69
657.049	89.69
657.253	84.69
657.457	86.69
657.661	90.69
657.865	81.69
658.068	84.69
658.272	79.69
658.476	84.69
658.68	84.69
658.883	88.69
659.087	75.69
659.291	82.69
659.494	82.69
659.698	81.69
659.901	77.69
660.105	81.69
660.309	78.69
660.512	68.69
660.716	91.69
660.919	82.69
661.123	87.69
661.326	99.69
661.53	84.69
661.733	84.69
661.936	80.69
662.14	79.69
662.343	81.69
662.546	73.69
662.75	84.69
662.953	81.69
663.156	72.69
663.36	78.69
663.563	93.69
663.766	77.69
663.969	78.69
664.173	65.69
664.376	76.69
664.579	81.69
664.782	78.69
664.985	82.69
665.188	78.69
665.391	90.69
665.594	75.69
665.797	101.69
666	89.69
666.203	76.69
666.406	74.69
666.609	86.69
666.812	83.69
667.015	89.69
667.218	64.69
667.421	77.69
667.624	91.69
667.827	87.69
668.03	74.69
668.232	81.69
668.435	89.69
668.638	87.69
668.841	73.69
669.043	86.69
669.246	84.69
669.449	71.69
669.651	80.69
669.854	79.69
670.057	88.69
670.259	83.69
670.462	88.69
670.665	72.69
670.867	76.69
671.07	89.69
671.272	78.69
671.475	84.69
671.677	86.69
671.88	75.69
672.082	71.69
672.284	82.69
672.487	86.69
672.689	91.69
672.892	94.69
