Data from Location6.07152019.Energy5.Lamp.07192019.3%Agarose_HRD10591_16-13-55-396.txt Node
Date: Fri Jul 19 16:13:55 EDT 2019
User: cochatt
Spectrometer: HR+D1059
Trigger mode: 1
Integration Time (sec): 1.000000E-1
Scans to average: 1
Electric dark correction enabled: true
Nonlinearity correction enabled: false
Boxcar width: 0
XAxis mode: Wavelengths
Number of Pixels in Spectrum: 2048
>>>>>Begin Spectral Data<<<<<
223.165	-14.94
223.4	-14.94
223.635	-14.94
223.869	-19.94
224.104	-21.94
224.338	-23.94
224.573	-16.94
224.808	-14.94
225.042	3.06
225.277	-8.94
225.511	2.06
225.746	-0.94
225.98	8.06
226.215	13.06
226.449	7.06
226.683	32.06
226.918	28.06
227.152	29.06
227.387	32.06
227.621	30.06
227.856	46.06
228.09	42.06
228.324	58.06
228.559	45.06
228.793	62.06
229.027	62.06
229.262	54.06
229.496	53.06
229.73	66.06
229.964	86.06
230.199	73.06
230.433	72.06
230.667	79.06
230.901	77.06
231.136	78.06
231.37	69.06
231.604	85.06
231.838	89.06
232.072	83.06
232.306	80.06
232.541	98.06
232.775	84.06
233.009	83.06
233.243	72.06
233.477	83.06
233.711	77.06
233.945	77.06
234.179	79.06
234.413	91.06
234.647	85.06
234.881	78.06
235.115	71.06
235.349	91.06
235.583	78.06
235.817	81.06
236.051	57.06
236.285	94.06
236.519	72.06
236.753	77.06
236.987	78.06
237.221	79.06
237.455	73.06
237.689	83.06
237.922	73.06
238.156	75.06
238.39	78.06
238.624	77.06
238.858	83.06
239.091	72.06
239.325	79.06
239.559	90.06
239.793	77.06
240.027	66.06
240.26	68.06
240.494	56.06
240.728	79.06
240.961	91.06
241.195	78.06
241.429	84.06
241.662	79.06
241.896	75.06
242.13	77.06
242.363	83.06
242.597	80.06
242.83	83.06
243.064	79.06
243.298	69.06
243.531	83.06
243.765	74.06
243.998	82.06
244.232	85.06
244.465	77.06
244.699	73.06
244.932	83.06
245.166	79.06
245.399	73.06
245.633	75.06
245.866	75.06
246.099	83.06
246.333	88.06
246.566	70.06
246.8	94.06
247.033	93.06
247.266	75.06
247.5	94.06
247.733	81.06
247.966	89.06
248.2	76.06
248.433	74.06
248.666	76.06
248.899	82.06
249.133	87.06
249.366	84.06
249.599	78.06
249.832	84.06
250.066	85.06
250.299	89.06
250.532	95.06
250.765	71.06
250.998	72.06
251.231	73.06
251.465	83.06
251.698	85.06
251.931	87.06
252.164	73.06
252.397	75.06
252.63	75.06
252.863	76.06
253.096	79.06
253.329	81.06
253.562	87.06
253.795	61.06
254.028	74.06
254.261	89.06
254.494	95.06
254.727	94.06
254.96	81.06
255.193	92.06
255.426	84.06
255.659	93.06
255.892	83.06
256.124	87.06
256.357	98.06
256.59	86.06
256.823	77.06
257.056	81.06
257.289	83.06
257.521	96.06
257.754	84.06
257.987	64.06
258.22	93.06
258.452	73.06
258.685	89.06
258.918	85.06
259.151	78.06
259.383	93.06
259.616	73.06
259.849	89.06
260.081	106.06
260.314	90.06
260.547	75.06
260.779	62.06
261.012	86.06
261.244	85.06
261.477	101.06
261.71	89.06
261.942	62.06
262.175	73.06
262.407	73.06
262.64	67.06
262.872	87.06
263.105	100.06
263.337	75.06
263.57	93.06
263.802	75.06
264.035	95.06
264.267	92.06
264.499	85.06
264.732	79.06
264.964	87.06
265.197	81.06
265.429	80.06
265.661	86.06
265.894	88.06
266.126	82.06
266.358	77.06
266.591	74.06
266.823	76.06
267.055	78.06
267.287	89.06
267.52	79.06
267.752	83.06
267.984	95.06
268.216	90.06
268.448	88.06
268.681	93.06
268.913	84.06
269.145	85.06
269.377	85.06
269.609	85.06
269.841	78.06
270.073	76.06
270.306	79.06
270.538	85.06
270.77	78.06
271.002	84.06
271.234	79.06
271.466	81.06
271.698	94.06
271.93	92.06
272.162	80.06
272.394	88.06
272.626	88.06
272.858	93.06
273.09	93.06
273.322	91.06
273.553	81.06
273.785	79.06
274.017	66.06
274.249	76.06
274.481	84.06
274.713	92.06
274.945	98.06
275.176	83.06
275.408	89.06
275.64	85.06
275.872	91.06
276.104	78.06
276.335	87.06
276.567	78.06
276.799	91.06
277.031	90.06
277.262	80.06
277.494	92.06
277.726	83.06
277.957	89.06
278.189	99.06
278.421	98.06
278.652	90.06
278.884	94.06
279.115	86.06
279.347	87.06
279.579	74.06
279.81	91.06
280.042	89.06
280.273	75.06
280.505	76.06
280.736	82.06
280.968	77.06
281.199	84.06
281.431	94.06
281.662	88.06
281.894	97.06
282.125	70.06
282.356	78.06
282.588	95.06
282.819	78.06
283.051	74.06
283.282	87.06
283.513	91.06
283.745	97.06
283.976	88.06
284.207	87.06
284.439	75.06
284.67	80.06
284.901	86.06
285.132	78.06
285.364	89.06
285.595	84.06
285.826	78.06
286.057	95.06
286.288	92.06
286.52	94.06
286.751	69.06
286.982	90.06
287.213	65.06
287.444	99.06
287.675	84.06
287.906	74.06
288.138	102.06
288.369	82.06
288.6	83.06
288.831	74.06
289.062	81.06
289.293	97.06
289.524	73.06
289.755	72.06
289.986	86.06
290.217	73.06
290.448	97.06
290.679	74.06
290.91	88.06
291.141	79.06
291.371	84.06
291.602	88.06
291.833	78.06
292.064	85.06
292.295	85.06
292.526	93.06
292.757	91.06
292.987	84.06
293.218	81.06
293.449	95.06
293.68	95.06
293.91	82.06
294.141	87.06
294.372	83.06
294.603	86.06
294.833	77.06
295.064	85.06
295.295	92.06
295.525	88.06
295.756	92.06
295.987	86.06
296.217	94.06
296.448	80.06
296.679	81.06
296.909	93.06
297.14	88.06
297.37	86.06
297.601	97.06
297.831	94.06
298.062	80.06
298.292	83.06
298.523	82.06
298.753	90.06
298.984	94.06
299.214	77.06
299.445	86.06
299.675	95.06
299.905	96.06
300.136	83.06
300.366	80.06
300.597	85.06
300.827	87.06
301.057	76.06
301.288	83.06
301.518	86.06
301.748	88.06
301.979	72.06
302.209	90.06
302.439	100.06
302.669	101.06
302.9	82.06
303.13	78.06
303.36	84.06
303.59	92.06
303.82	99.06
304.051	90.06
304.281	90.06
304.511	88.06
304.741	97.06
304.971	89.06
305.201	73.06
305.431	91.06
305.661	83.06
305.891	82.06
306.121	88.06
306.352	77.06
306.582	90.06
306.812	85.06
307.042	83.06
307.272	100.06
307.502	90.06
307.731	92.06
307.961	81.06
308.191	87.06
308.421	92.06
308.651	93.06
308.881	104.06
309.111	81.06
309.341	105.06
309.571	88.06
309.8	91.06
310.03	82.06
310.26	73.06
310.49	79.06
310.72	86.06
310.949	83.06
311.179	81.06
311.409	81.06
311.639	100.06
311.868	85.06
312.098	84.06
312.328	77.06
312.557	84.06
312.787	84.06
313.017	90.06
313.246	94.06
313.476	93.06
313.706	83.06
313.935	76.06
314.165	82.06
314.394	85.06
314.624	85.06
314.853	91.06
315.083	85.06
315.312	93.06
315.542	90.06
315.771	90.06
316.001	93.06
316.23	82.06
316.46	82.06
316.689	91.06
316.919	82.06
317.148	95.06
317.377	77.06
317.607	81.06
317.836	88.06
318.065	87.06
318.295	90.06
318.524	71.06
318.753	87.06
318.983	80.06
319.212	86.06
319.441	92.06
319.67	97.06
319.9	85.06
320.129	88.06
320.358	94.06
320.587	74.06
320.816	91.06
321.046	84.06
321.275	89.06
321.504	83.06
321.733	81.06
321.962	91.06
322.191	82.06
322.42	105.06
322.649	90.06
322.878	77.06
323.108	85.06
323.337	87.06
323.566	103.06
323.795	84.06
324.024	85.06
324.253	71.06
324.482	96.06
324.71	77.06
324.939	96.06
325.168	72.06
325.397	100.06
325.626	70.06
325.855	91.06
326.084	78.06
326.313	84.06
326.542	82.06
326.77	93.06
326.999	93.06
327.228	65.06
327.457	79.06
327.686	103.06
327.914	88.06
328.143	79.06
328.372	96.06
328.6	75.06
328.829	94.06
329.058	91.06
329.287	79.06
329.515	83.06
329.744	74.06
329.972	80.06
330.201	74.06
330.43	93.06
330.658	98.06
330.887	80.06
331.115	86.06
331.344	72.06
331.572	108.06
331.801	85.06
332.03	92.06
332.258	97.06
332.486	95.06
332.715	94.06
332.943	81.06
333.172	97.06
333.4	85.06
333.629	88.06
333.857	102.06
334.085	84.06
334.314	100.06
334.542	85.06
334.771	80.06
334.999	79.06
335.227	94.06
335.455	72.06
335.684	79.06
335.912	92.06
336.14	86.06
336.369	88.06
336.597	90.06
336.825	101.06
337.053	89.06
337.281	89.06
337.51	77.06
337.738	101.06
337.966	98.06
338.194	93.06
338.422	94.06
338.65	92.06
338.878	93.06
339.106	83.06
339.334	91.06
339.562	78.06
339.79	78.06
340.018	98.06
340.246	74.06
340.474	80.06
340.702	83.06
340.93	90.06
341.158	95.06
341.386	92.06
341.614	80.06
341.842	90.06
342.07	83.06
342.298	100.06
342.526	97.06
342.754	80.06
342.981	90.06
343.209	90.06
343.437	99.06
343.665	75.06
343.893	67.06
344.12	88.06
344.348	85.06
344.576	80.06
344.804	87.06
345.031	84.06
345.259	82.06
345.487	84.06
345.714	83.06
345.942	84.06
346.17	84.06
346.397	73.06
346.625	88.06
346.853	93.06
347.08	97.06
347.308	89.06
347.535	97.06
347.763	93.06
347.99	77.06
348.218	86.06
348.445	82.06
348.673	84.06
348.9	78.06
349.128	96.06
349.355	96.06
349.583	88.06
349.81	88.06
350.037	91.06
350.265	85.06
350.492	87.06
350.72	93.06
350.947	74.06
351.174	79.06
351.402	93.06
351.629	102.06
351.856	72.06
352.083	83.06
352.311	90.06
352.538	82.06
352.765	79.06
352.992	93.06
353.22	83.06
353.447	90.06
353.674	91.06
353.901	85.06
354.128	79.06
354.355	91.06
354.583	95.06
354.81	95.06
355.037	97.06
355.264	85.06
355.491	90.06
355.718	74.06
355.945	90.06
356.172	86.06
356.399	93.06
356.626	87.06
356.853	82.06
357.08	101.06
357.307	82.06
357.534	81.06
357.761	88.06
357.988	84.06
358.215	79.06
358.441	92.06
358.668	79.06
358.895	95.06
359.122	92.06
359.349	100.06
359.576	86.06
359.802	86.06
360.029	78.06
360.256	103.06
360.483	107.06
360.709	94.06
360.936	92.06
361.163	85.06
361.39	76.06
361.616	82.06
361.843	76.06
362.07	59.06
362.296	87.06
362.523	76.06
362.749	101.06
362.976	97.06
363.203	80.06
363.429	84.06
363.656	91.06
363.882	83.06
364.109	80.06
364.335	98.06
364.562	78.06
364.788	82.06
365.015	90.06
365.241	80.06
365.468	74.06
365.694	92.06
365.92	71.06
366.147	77.06
366.373	96.06
366.599	91.06
366.826	78.06
367.052	93.06
367.278	83.06
367.505	97.06
367.731	98.06
367.957	81.06
368.184	92.06
368.41	92.06
368.636	80.06
368.862	89.06
369.089	80.06
369.315	93.06
369.541	93.06
369.767	107.06
369.993	86.06
370.219	91.06
370.445	89.06
370.672	105.06
370.898	99.06
371.124	85.06
371.35	95.06
371.576	99.06
371.802	88.06
372.028	89.06
372.254	93.06
372.48	85.06
372.706	87.06
372.932	102.06
373.158	83.06
373.384	96.06
373.61	87.06
373.835	98.06
374.061	109.06
374.287	102.06
374.513	92.06
374.739	98.06
374.965	85.06
375.191	81.06
375.416	90.06
375.642	84.06
375.868	93.06
376.094	94.06
376.319	100.06
376.545	96.06
376.771	91.06
376.997	89.06
377.222	93.06
377.448	96.06
377.674	93.06
377.899	102.06
378.125	88.06
378.35	95.06
378.576	99.06
378.802	100.06
379.027	89.06
379.253	104.06
379.478	92.06
379.704	93.06
379.929	110.06
380.155	91.06
380.38	101.06
380.606	102.06
380.831	89.06
381.057	104.06
381.282	109.06
381.507	100.06
381.733	109.06
381.958	87.06
382.184	91.06
382.409	94.06
382.634	113.06
382.86	104.06
383.085	110.06
383.31	85.06
383.535	97.06
383.761	98.06
383.986	102.06
384.211	106.06
384.436	110.06
384.662	102.06
384.887	96.06
385.112	90.06
385.337	94.06
385.562	97.06
385.787	100.06
386.013	109.06
386.238	87.06
386.463	105.06
386.688	79.06
386.913	106.06
387.138	91.06
387.363	106.06
387.588	111.06
387.813	110.06
388.038	109.06
388.263	107.06
388.488	105.06
388.713	94.06
388.938	103.06
389.163	100.06
389.387	119.06
389.612	99.06
389.837	94.06
390.062	104.06
390.287	106.06
390.512	114.06
390.736	95.06
390.961	95.06
391.186	112.06
391.411	106.06
391.636	102.06
391.86	110.06
392.085	97.06
392.31	110.06
392.534	112.06
392.759	107.06
392.984	117.06
393.208	95.06
393.433	103.06
393.658	94.06
393.882	105.06
394.107	100.06
394.331	104.06
394.556	111.06
394.78	102.06
395.005	102.06
395.229	116.06
395.454	117.06
395.678	108.06
395.903	92.06
396.127	110.06
396.352	110.06
396.576	93.06
396.801	96.06
397.025	110.06
397.249	119.06
397.474	107.06
397.698	113.06
397.922	110.06
398.147	106.06
398.371	92.06
398.595	109.06
398.82	123.06
399.044	126.06
399.268	123.06
399.492	105.06
399.717	115.06
399.941	107.06
400.165	105.06
400.389	122.06
400.613	110.06
400.837	124.06
401.062	117.06
401.286	91.06
401.51	118.06
401.734	109.06
401.958	121.06
402.182	112.06
402.406	118.06
402.63	122.06
402.854	125.06
403.078	113.06
403.302	115.06
403.526	108.06
403.75	113.06
403.974	123.06
404.198	127.06
404.422	116.06
404.645	125.06
404.869	131.06
405.093	108.06
405.317	120.06
405.541	136.06
405.765	122.06
405.988	132.06
406.212	109.06
406.436	121.06
406.66	118.06
406.883	120.06
407.107	136.06
407.331	125.06
407.555	105.06
407.778	119.06
408.002	116.06
408.226	127.06
408.449	133.06
408.673	144.06
408.896	122.06
409.12	117.06
409.344	120.06
409.567	133.06
409.791	131.06
410.014	128.06
410.238	118.06
410.461	128.06
410.685	115.06
410.908	131.06
411.132	119.06
411.355	121.06
411.578	131.06
411.802	122.06
412.025	119.06
412.249	135.06
412.472	118.06
412.695	123.06
412.919	123.06
413.142	126.06
413.365	138.06
413.589	121.06
413.812	130.06
414.035	137.06
414.258	126.06
414.482	123.06
414.705	123.06
414.928	134.06
415.151	137.06
415.374	117.06
415.597	149.06
415.821	123.06
416.044	129.06
416.267	134.06
416.49	112.06
416.713	122.06
416.936	136.06
417.159	137.06
417.382	131.06
417.605	118.06
417.828	135.06
418.051	133.06
418.274	135.06
418.497	133.06
418.72	132.06
418.943	128.06
419.166	138.06
419.389	142.06
419.611	127.06
419.834	125.06
420.057	140.06
420.28	129.06
420.503	120.06
420.726	125.06
420.948	128.06
421.171	134.06
421.394	137.06
421.617	139.06
421.839	159.06
422.062	146.06
422.285	146.06
422.507	135.06
422.73	125.06
422.953	126.06
423.175	139.06
423.398	136.06
423.621	147.06
423.843	119.06
424.066	149.06
424.288	151.06
424.511	141.06
424.733	158.06
424.956	144.06
425.178	143.06
425.401	157.06
425.623	141.06
425.846	133.06
426.068	138.06
426.291	140.06
426.513	133.06
426.735	136.06
426.958	134.06
427.18	149.06
427.402	125.06
427.625	124.06
427.847	146.06
428.069	129.06
428.292	143.06
428.514	139.06
428.736	131.06
428.958	125.06
429.181	136.06
429.403	137.06
429.625	125.06
429.847	131.06
430.069	128.06
430.292	134.06
430.514	113.06
430.736	122.06
430.958	116.06
431.18	125.06
431.402	130.06
431.624	121.06
431.846	110.06
432.068	106.06
432.29	106.06
432.512	115.06
432.734	123.06
432.956	138.06
433.178	139.06
433.4	133.06
433.622	141.06
433.844	128.06
434.066	142.06
434.287	115.06
434.509	110.06
434.731	115.06
434.953	96.06
435.175	133.06
435.397	134.06
435.618	117.06
435.84	113.06
436.062	114.06
436.284	132.06
436.505	122.06
436.727	136.06
436.949	130.06
437.17	136.06
437.392	131.06
437.614	119.06
437.835	105.06
438.057	119.06
438.278	121.06
438.5	133.06
438.721	132.06
438.943	148.06
439.165	140.06
439.386	153.06
439.608	158.06
439.829	161.06
440.05	147.06
440.272	149.06
440.493	144.06
440.715	135.06
440.936	139.06
441.158	151.06
441.379	146.06
441.6	156.06
441.822	157.06
442.043	146.06
442.264	133.06
442.486	141.06
442.707	154.06
442.928	136.06
443.149	137.06
443.371	143.06
443.592	150.06
443.813	137.06
444.034	153.06
444.255	142.06
444.476	149.06
444.698	142.06
444.919	149.06
445.14	294.06
445.361	221.06
445.582	147.06
445.803	149.06
446.024	158.06
446.245	154.06
446.466	172.06
446.687	157.06
446.908	182.06
447.129	145.06
447.35	155.06
447.571	159.06
447.792	156.06
448.013	143.06
448.234	150.06
448.455	144.06
448.675	147.06
448.896	136.06
449.117	137.06
449.338	122.06
449.559	119.06
449.779	146.06
450	152.06
450.221	131.06
450.442	140.06
450.662	135.06
450.883	129.06
451.104	135.06
451.324	129.06
451.545	133.06
451.766	123.06
451.986	128.06
452.207	141.06
452.428	132.06
452.648	126.06
452.869	122.06
453.089	137.06
453.31	113.06
453.53	115.06
453.751	123.06
453.971	101.06
454.192	95.06
454.412	120.06
454.633	125.06
454.853	127.06
455.073	129.06
455.294	129.06
455.514	121.06
455.734	134.06
455.955	123.06
456.175	123.06
456.395	119.06
456.616	110.06
456.836	122.06
457.056	106.06
457.276	111.06
457.497	116.06
457.717	109.06
457.937	110.06
458.157	107.06
458.377	99.06
458.598	112.06
458.818	101.06
459.038	83.06
459.258	84.06
459.478	96.06
459.698	88.06
459.918	98.06
460.138	103.06
460.358	117.06
460.578	123.06
460.798	114.06
461.018	122.06
461.238	131.06
461.458	120.06
461.678	116.06
461.898	119.06
462.118	113.06
462.338	113.06
462.558	113.06
462.777	112.06
462.997	117.06
463.217	108.06
463.437	106.06
463.657	108.06
463.876	112.06
464.096	110.06
464.316	106.06
464.536	113.06
464.755	131.06
464.975	121.06
465.195	124.06
465.414	113.06
465.634	119.06
465.854	122.06
466.073	129.06
466.293	127.06
466.512	130.06
466.732	147.06
466.951	137.06
467.171	144.06
467.391	147.06
467.61	130.06
467.829	137.06
468.049	125.06
468.268	155.06
468.488	149.06
468.707	145.06
468.927	137.06
469.146	133.06
469.365	147.06
469.585	151.06
469.804	141.06
470.023	140.06
470.243	142.06
470.462	161.06
470.681	154.06
470.901	138.06
471.12	147.06
471.339	133.06
471.558	140.06
471.777	162.06
471.997	147.06
472.216	130.06
472.435	105.06
472.654	120.06
472.873	100.06
473.092	120.06
473.311	130.06
473.53	125.06
473.749	141.06
473.968	136.06
474.187	122.06
474.406	128.06
474.625	115.06
474.844	131.06
475.063	130.06
475.282	135.06
475.501	124.06
475.72	125.06
475.939	131.06
476.158	140.06
476.377	133.06
476.596	118.06
476.814	127.06
477.033	106.06
477.252	121.06
477.471	131.06
477.69	146.06
477.908	146.06
478.127	142.06
478.346	117.06
478.564	141.06
478.783	134.06
479.002	161.06
479.22	142.06
479.439	134.06
479.658	124.06
479.876	108.06
480.095	119.06
480.313	117.06
480.532	122.06
480.751	125.06
480.969	84.06
481.188	77.06
481.406	86.06
481.624	91.06
481.843	92.06
482.061	105.06
482.28	117.06
482.498	108.06
482.717	100.06
482.935	126.06
483.153	153.06
483.372	157.06
483.59	161.06
483.808	143.06
484.027	135.06
484.245	137.06
484.463	169.06
484.681	169.06
484.9	146.06
485.118	159.06
485.336	124.06
485.554	127.06
485.772	98.06
485.99	103.06
486.209	114.06
486.427	122.06
486.645	117.06
486.863	144.06
487.081	160.06
487.299	137.06
487.517	144.06
487.735	166.06
487.953	189.06
488.171	177.06
488.389	164.06
488.607	178.06
488.825	146.06
489.043	144.06
489.261	140.06
489.479	162.06
489.696	149.06
489.914	142.06
490.132	145.06
490.35	155.06
490.568	157.06
490.786	195.06
491.003	163.06
491.221	170.06
491.439	189.06
491.657	211.06
491.874	218.06
492.092	241.06
492.31	271.06
492.527	265.06
492.745	222.06
492.963	213.06
493.18	187.06
493.398	182.06
493.615	189.06
493.833	179.06
494.05	180.06
494.268	190.06
494.485	174.06
494.703	189.06
494.92	179.06
495.138	181.06
495.355	171.06
495.573	163.06
495.79	167.06
496.008	169.06
496.225	154.06
496.442	174.06
496.66	164.06
496.877	186.06
497.094	160.06
497.312	180.06
497.529	156.06
497.746	162.06
497.963	135.06
498.181	144.06
498.398	128.06
498.615	136.06
498.832	122.06
499.049	128.06
499.267	121.06
499.484	131.06
499.701	121.06
499.918	145.06
500.135	142.06
500.352	143.06
500.569	151.06
500.786	169.06
501.003	158.06
501.22	147.06
501.437	138.06
501.654	126.06
501.871	144.06
502.088	122.06
502.305	133.06
502.522	155.06
502.739	139.06
502.956	165.06
503.172	125.06
503.389	123.06
503.606	116.06
503.823	131.06
504.04	118.06
504.256	125.06
504.473	103.06
504.69	121.06
504.907	135.06
505.123	121.06
505.34	137.06
505.557	120.06
505.773	141.06
505.99	138.06
506.207	130.06
506.423	130.06
506.64	122.06
506.856	144.06
507.073	118.06
507.289	136.06
507.506	123.06
507.722	124.06
507.939	117.06
508.155	130.06
508.372	126.06
508.588	114.06
508.805	118.06
509.021	106.06
509.238	115.06
509.454	122.06
509.67	100.06
509.887	113.06
510.103	110.06
510.319	98.06
510.536	104.06
510.752	109.06
510.968	72.06
511.184	72.06
511.401	90.06
511.617	97.06
511.833	97.06
512.049	89.06
512.265	93.06
512.481	91.06
512.698	102.06
512.914	99.06
513.13	79.06
513.346	91.06
513.562	94.06
513.778	93.06
513.994	105.06
514.21	90.06
514.426	94.06
514.642	94.06
514.858	115.06
515.074	84.06
515.29	102.06
515.506	86.06
515.721	98.06
515.937	86.06
516.153	98.06
516.369	91.06
516.585	104.06
516.801	93.06
517.016	91.06
517.232	99.06
517.448	79.06
517.664	82.06
517.879	95.06
518.095	105.06
518.311	95.06
518.527	90.06
518.742	111.06
518.958	131.06
519.173	116.06
519.389	113.06
519.605	100.06
519.82	110.06
520.036	103.06
520.251	113.06
520.467	115.06
520.682	104.06
520.898	88.06
521.113	95.06
521.329	85.06
521.544	93.06
521.76	108.06
521.975	98.06
522.19	105.06
522.406	105.06
522.621	100.06
522.836	109.06
523.052	109.06
523.267	98.06
523.482	104.06
523.698	115.06
523.913	115.06
524.128	114.06
524.343	125.06
524.559	118.06
524.774	118.06
524.989	122.06
525.204	117.06
525.419	124.06
525.634	110.06
525.849	120.06
526.064	100.06
526.28	114.06
526.495	82.06
526.71	90.06
526.925	84.06
527.14	76.06
527.355	70.06
527.57	79.06
527.785	91.06
527.999	89.06
528.214	92.06
528.429	119.06
528.644	128.06
528.859	128.06
529.074	158.06
529.289	167.06
529.503	150.06
529.718	150.06
529.933	120.06
530.148	109.06
530.363	105.06
530.577	95.06
530.792	92.06
531.007	82.06
531.221	88.06
531.436	81.06
531.651	88.06
531.865	87.06
532.08	78.06
532.295	97.06
532.509	105.06
532.724	84.06
532.938	88.06
533.153	93.06
533.367	105.06
533.582	126.06
533.796	139.06
534.011	119.06
534.225	90.06
534.44	74.06
534.654	101.06
534.868	118.06
535.083	113.06
535.297	115.06
535.511	117.06
535.726	101.06
535.94	106.06
536.154	105.06
536.369	98.06
536.583	75.06
536.797	96.06
537.011	86.06
537.225	90.06
537.44	104.06
537.654	103.06
537.868	102.06
538.082	104.06
538.296	98.06
538.51	102.06
538.724	127.06
538.938	113.06
539.153	116.06
539.367	140.06
539.581	122.06
539.795	108.06
540.009	105.06
540.222	97.06
540.436	115.06
540.65	115.06
540.864	122.06
541.078	141.06
541.292	138.06
541.506	150.06
541.72	197.06
541.934	202.06
542.147	210.06
542.361	188.06
542.575	161.06
542.789	153.06
543.002	117.06
543.216	137.06
543.43	137.06
543.644	153.06
543.857	164.06
544.071	167.06
544.285	163.06
544.498	163.06
544.712	190.06
544.925	184.06
545.139	168.06
545.352	168.06
545.566	159.06
545.779	158.06
545.993	166.06
546.206	168.06
546.42	172.06
546.633	166.06
546.847	178.06
547.06	173.06
547.274	168.06
547.487	172.06
547.7	201.06
547.914	169.06
548.127	150.06
548.34	169.06
548.554	168.06
548.767	167.06
548.98	176.06
549.193	147.06
549.407	150.06
549.62	168.06
549.833	166.06
550.046	155.06
550.259	169.06
550.473	145.06
550.686	154.06
550.899	162.06
551.112	136.06
551.325	152.06
551.538	139.06
551.751	125.06
551.964	129.06
552.177	140.06
552.39	146.06
552.603	142.06
552.816	147.06
553.029	145.06
553.242	158.06
553.455	159.06
553.667	164.06
553.88	165.06
554.093	150.06
554.306	155.06
554.519	155.06
554.732	159.06
554.944	153.06
555.157	161.06
555.37	142.06
555.583	163.06
555.795	141.06
556.008	133.06
556.221	143.06
556.433	141.06
556.646	151.06
556.859	147.06
557.071	144.06
557.284	137.06
557.496	134.06
557.709	123.06
557.921	135.06
558.134	143.06
558.346	138.06
558.559	143.06
558.771	149.06
558.984	130.06
559.196	137.06
559.409	141.06
559.621	150.06
559.833	147.06
560.046	124.06
560.258	131.06
560.47	121.06
560.683	134.06
560.895	138.06
561.107	136.06
561.32	144.06
561.532	147.06
561.744	141.06
561.956	144.06
562.168	148.06
562.381	140.06
562.593	127.06
562.805	137.06
563.017	132.06
563.229	130.06
563.441	143.06
563.653	132.06
563.865	141.06
564.077	119.06
564.289	110.06
564.501	129.06
564.713	126.06
564.925	107.06
565.137	119.06
565.349	127.06
565.561	125.06
565.773	125.06
565.985	116.06
566.197	122.06
566.408	105.06
566.62	104.06
566.832	123.06
567.044	131.06
567.255	118.06
567.467	109.06
567.679	110.06
567.891	124.06
568.102	113.06
568.314	102.06
568.526	91.06
568.737	92.06
568.949	94.06
569.161	82.06
569.372	84.06
569.584	89.06
569.795	81.06
570.007	90.06
570.218	91.06
570.43	97.06
570.641	99.06
570.853	99.06
571.064	99.06
571.276	114.06
571.487	117.06
571.698	95.06
571.91	93.06
572.121	116.06
572.333	91.06
572.544	100.06
572.755	98.06
572.966	82.06
573.178	88.06
573.389	89.06
573.6	88.06
573.811	84.06
574.023	91.06
574.234	86.06
574.445	93.06
574.656	92.06
574.867	93.06
575.078	115.06
575.289	105.06
575.501	104.06
575.712	104.06
575.923	107.06
576.134	113.06
576.345	99.06
576.556	96.06
576.767	121.06
576.978	108.06
577.188	101.06
577.399	100.06
577.61	97.06
577.821	96.06
578.032	106.06
578.243	80.06
578.454	88.06
578.665	98.06
578.875	97.06
579.086	88.06
579.297	73.06
579.508	81.06
579.718	90.06
579.929	90.06
580.14	79.06
580.35	103.06
580.561	80.06
580.772	86.06
580.982	100.06
581.193	96.06
581.403	97.06
581.614	98.06
581.825	85.06
582.035	104.06
582.246	95.06
582.456	84.06
582.667	83.06
582.877	94.06
583.087	97.06
583.298	93.06
583.508	91.06
583.719	100.06
583.929	85.06
584.139	95.06
584.35	86.06
584.56	103.06
584.77	88.06
584.981	86.06
585.191	98.06
585.401	90.06
585.611	97.06
585.821	78.06
586.032	83.06
586.242	101.06
586.452	99.06
586.662	96.06
586.872	91.06
587.082	85.06
587.292	83.06
587.502	87.06
587.713	90.06
587.923	93.06
588.133	81.06
588.343	88.06
588.553	82.06
588.762	94.06
588.972	86.06
589.182	69.06
589.392	85.06
589.602	85.06
589.812	78.06
590.022	93.06
590.232	83.06
590.441	82.06
590.651	87.06
590.861	83.06
591.071	78.06
591.281	84.06
591.49	78.06
591.7	91.06
591.91	94.06
592.119	84.06
592.329	95.06
592.539	101.06
592.748	93.06
592.958	94.06
593.167	88.06
593.377	85.06
593.587	97.06
593.796	70.06
594.006	84.06
594.215	90.06
594.424	101.06
594.634	106.06
594.843	104.06
595.053	108.06
595.262	86.06
595.472	97.06
595.681	100.06
595.89	95.06
596.1	94.06
596.309	86.06
596.518	93.06
596.727	115.06
596.937	103.06
597.146	97.06
597.355	94.06
597.564	107.06
597.774	105.06
597.983	100.06
598.192	100.06
598.401	85.06
598.61	89.06
598.819	95.06
599.028	90.06
599.237	97.06
599.446	83.06
599.655	97.06
599.864	107.06
600.073	90.06
600.282	116.06
600.491	85.06
600.7	92.06
600.909	83.06
601.118	100.06
601.327	107.06
601.536	113.06
601.745	95.06
601.953	105.06
602.162	121.06
602.371	123.06
602.58	106.06
602.789	96.06
602.997	119.06
603.206	116.06
603.415	114.06
603.623	85.06
603.832	113.06
604.041	100.06
604.249	96.06
604.458	101.06
604.666	89.06
604.875	94.06
605.084	94.06
605.292	114.06
605.501	123.06
605.709	120.06
605.918	124.06
606.126	118.06
606.334	115.06
606.543	118.06
606.751	120.06
606.96	118.06
607.168	117.06
607.376	116.06
607.585	104.06
607.793	131.06
608.001	111.06
608.21	107.06
608.418	114.06
608.626	108.06
608.834	108.06
609.043	123.06
609.251	120.06
609.459	120.06
609.667	127.06
609.875	122.06
610.083	129.06
610.291	117.06
610.499	129.06
610.707	122.06
610.916	104.06
611.124	110.06
611.332	120.06
611.54	120.06
611.748	111.06
611.955	121.06
612.163	96.06
612.371	129.06
612.579	109.06
612.787	107.06
612.995	114.06
613.203	117.06
613.411	120.06
613.618	115.06
613.826	121.06
614.034	121.06
614.242	121.06
614.449	118.06
614.657	121.06
614.865	111.06
615.072	129.06
615.28	99.06
615.488	118.06
615.695	124.06
615.903	121.06
616.111	116.06
616.318	111.06
616.526	112.06
616.733	101.06
616.941	114.06
617.148	133.06
617.356	118.06
617.563	107.06
617.771	118.06
617.978	120.06
618.185	120.06
618.393	120.06
618.6	129.06
618.807	109.06
619.015	113.06
619.222	106.06
619.429	119.06
619.637	113.06
619.844	114.06
620.051	104.06
620.258	105.06
620.466	106.06
620.673	114.06
620.88	108.06
621.087	94.06
621.294	117.06
621.501	102.06
621.708	103.06
621.915	105.06
622.122	123.06
622.329	94.06
622.536	102.06
622.743	131.06
622.95	125.06
623.157	119.06
623.364	121.06
623.571	124.06
623.778	114.06
623.985	123.06
624.192	127.06
624.399	108.06
624.606	98.06
624.812	118.06
625.019	106.06
625.226	114.06
625.433	99.06
625.639	103.06
625.846	103.06
626.053	92.06
626.259	93.06
626.466	101.06
626.673	101.06
626.879	99.06
627.086	106.06
627.293	105.06
627.499	105.06
627.706	102.06
627.912	112.06
628.119	97.06
628.325	109.06
628.532	111.06
628.738	107.06
628.945	123.06
629.151	106.06
629.357	113.06
629.564	116.06
629.77	110.06
629.976	117.06
630.183	114.06
630.389	105.06
630.595	105.06
630.802	109.06
631.008	105.06
631.214	104.06
631.42	105.06
631.627	103.06
631.833	106.06
632.039	103.06
632.245	101.06
632.451	102.06
632.657	104.06
632.863	96.06
633.069	109.06
633.275	106.06
633.481	88.06
633.688	98.06
633.893	108.06
634.099	114.06
634.305	124.06
634.511	104.06
634.717	109.06
634.923	104.06
635.129	101.06
635.335	87.06
635.541	90.06
635.747	111.06
635.952	110.06
636.158	115.06
636.364	116.06
636.57	113.06
636.775	98.06
636.981	97.06
637.187	115.06
637.392	104.06
637.598	106.06
637.804	110.06
638.009	103.06
638.215	103.06
638.421	99.06
638.626	115.06
638.832	99.06
639.037	108.06
639.243	90.06
639.448	98.06
639.654	114.06
639.859	113.06
640.065	105.06
640.27	90.06
640.475	97.06
640.681	100.06
640.886	103.06
641.091	102.06
641.297	100.06
641.502	97.06
641.707	107.06
641.913	105.06
642.118	102.06
642.323	93.06
642.528	108.06
642.733	100.06
642.939	93.06
643.144	101.06
643.349	99.06
643.554	108.06
643.759	113.06
643.964	90.06
644.169	99.06
644.374	105.06
644.579	93.06
644.784	116.06
644.989	114.06
645.194	102.06
645.399	105.06
645.604	100.06
645.809	102.06
646.014	115.06
646.219	98.06
646.423	99.06
646.628	111.06
646.833	99.06
647.038	101.06
647.243	113.06
647.447	100.06
647.652	100.06
647.857	111.06
648.062	94.06
648.266	101.06
648.471	98.06
648.676	107.06
648.88	94.06
649.085	95.06
649.289	100.06
649.494	107.06
649.698	104.06
649.903	105.06
650.107	89.06
650.312	102.06
650.516	102.06
650.721	101.06
650.925	94.06
651.13	103.06
651.334	100.06
651.539	106.06
651.743	94.06
651.947	99.06
652.152	99.06
652.356	104.06
652.56	108.06
652.764	83.06
652.969	99.06
653.173	106.06
653.377	74.06
653.581	100.06
653.785	101.06
653.99	104.06
654.194	98.06
654.398	91.06
654.602	75.06
654.806	96.06
655.01	82.06
655.214	102.06
655.418	95.06
655.622	83.06
655.826	102.06
656.03	95.06
656.234	94.06
656.438	91.06
656.642	94.06
656.846	95.06
657.049	97.06
657.253	93.06
657.457	94.06
657.661	88.06
657.865	86.06
658.068	87.06
658.272	92.06
658.476	81.06
658.68	92.06
658.883	94.06
659.087	93.06
659.291	80.06
659.494	86.06
659.698	80.06
659.901	87.06
660.105	93.06
660.309	92.06
660.512	94.06
660.716	91.06
660.919	83.06
661.123	93.06
661.326	92.06
661.53	87.06
661.733	89.06
661.936	85.06
662.14	89.06
662.343	95.06
662.546	86.06
662.75	78.06
662.953	79.06
663.156	76.06
663.36	71.06
663.563	76.06
663.766	72.06
663.969	82.06
664.173	92.06
664.376	77.06
664.579	75.06
664.782	85.06
664.985	75.06
665.188	83.06
665.391	83.06
665.594	87.06
665.797	85.06
666	89.06
666.203	78.06
666.406	73.06
666.609	77.06
666.812	78.06
667.015	75.06
667.218	76.06
667.421	82.06
667.624	68.06
667.827	94.06
668.03	84.06
668.232	83.06
668.435	65.06
668.638	85.06
668.841	82.06
669.043	81.06
669.246	90.06
669.449	91.06
669.651	84.06
669.854	76.06
670.057	97.06
670.259	92.06
670.462	85.06
670.665	82.06
670.867	87.06
671.07	90.06
671.272	89.06
671.475	83.06
671.677	96.06
671.88	84.06
672.082	89.06
672.284	100.06
672.487	95.06
672.689	80.06
672.892	91.06
