Data from Location6.07152019.Energy5.Lamp.07192019.3%Agarose_HRD10591_16-12-59-397.txt Node
Date: Fri Jul 19 16:12:59 EDT 2019
User: cochatt
Spectrometer: HR+D1059
Trigger mode: 1
Integration Time (sec): 1.000000E-1
Scans to average: 1
Electric dark correction enabled: true
Nonlinearity correction enabled: false
Boxcar width: 0
XAxis mode: Wavelengths
Number of Pixels in Spectrum: 2048
>>>>>Begin Spectral Data<<<<<
223.165	-13.31
223.4	-13.31
223.635	-13.31
223.869	-21.31
224.104	-30.31
224.338	-17.31
224.573	-15.31
224.808	-11.31
225.042	-5.31
225.277	1.69
225.511	-16.31
225.746	15.69
225.98	7.69
226.215	3.69
226.449	17.69
226.683	26.69
226.918	19.69
227.152	37.69
227.387	50.69
227.621	31.69
227.856	38.69
228.09	28.69
228.324	37.69
228.559	58.69
228.793	48.69
229.027	63.69
229.262	55.69
229.496	52.69
229.73	59.69
229.964	56.69
230.199	68.69
230.433	68.69
230.667	64.69
230.901	83.69
231.136	67.69
231.37	72.69
231.604	76.69
231.838	79.69
232.072	68.69
232.306	76.69
232.541	71.69
232.775	72.69
233.009	79.69
233.243	76.69
233.477	73.69
233.711	59.69
233.945	76.69
234.179	80.69
234.413	80.69
234.647	71.69
234.881	67.69
235.115	66.69
235.349	57.69
235.583	76.69
235.817	74.69
236.051	87.69
236.285	86.69
236.519	84.69
236.753	84.69
236.987	75.69
237.221	66.69
237.455	75.69
237.689	70.69
237.922	74.69
238.156	90.69
238.39	68.69
238.624	67.69
238.858	72.69
239.091	77.69
239.325	75.69
239.559	56.69
239.793	77.69
240.027	76.69
240.26	67.69
240.494	81.69
240.728	73.69
240.961	73.69
241.195	83.69
241.429	83.69
241.662	59.69
241.896	72.69
242.13	71.69
242.363	75.69
242.597	76.69
242.83	73.69
243.064	81.69
243.298	77.69
243.531	77.69
243.765	75.69
243.998	63.69
244.232	75.69
244.465	71.69
244.699	78.69
244.932	81.69
245.166	84.69
245.399	69.69
245.633	90.69
245.866	71.69
246.099	59.69
246.333	60.69
246.566	69.69
246.8	68.69
247.033	79.69
247.266	63.69
247.5	71.69
247.733	76.69
247.966	76.69
248.2	77.69
248.433	75.69
248.666	78.69
248.899	81.69
249.133	73.69
249.366	80.69
249.599	68.69
249.832	67.69
250.066	85.69
250.299	68.69
250.532	65.69
250.765	76.69
250.998	76.69
251.231	74.69
251.465	73.69
251.698	82.69
251.931	78.69
252.164	85.69
252.397	81.69
252.63	84.69
252.863	81.69
253.096	65.69
253.329	80.69
253.562	63.69
253.795	80.69
254.028	80.69
254.261	85.69
254.494	71.69
254.727	79.69
254.96	75.69
255.193	85.69
255.426	76.69
255.659	69.69
255.892	69.69
256.124	82.69
256.357	70.69
256.59	67.69
256.823	80.69
257.056	81.69
257.289	66.69
257.521	71.69
257.754	64.69
257.987	76.69
258.22	77.69
258.452	76.69
258.685	85.69
258.918	82.69
259.151	90.69
259.383	78.69
259.616	78.69
259.849	82.69
260.081	69.69
260.314	68.69
260.547	77.69
260.779	70.69
261.012	74.69
261.244	79.69
261.477	89.69
261.71	76.69
261.942	70.69
262.175	81.69
262.407	76.69
262.64	76.69
262.872	80.69
263.105	93.69
263.337	67.69
263.57	64.69
263.802	82.69
264.035	82.69
264.267	83.69
264.499	86.69
264.732	71.69
264.964	74.69
265.197	74.69
265.429	92.69
265.661	73.69
265.894	91.69
266.126	90.69
266.358	71.69
266.591	79.69
266.823	70.69
267.055	78.69
267.287	82.69
267.52	87.69
267.752	72.69
267.984	79.69
268.216	83.69
268.448	80.69
268.681	81.69
268.913	82.69
269.145	89.69
269.377	77.69
269.609	71.69
269.841	75.69
270.073	86.69
270.306	81.69
270.538	79.69
270.77	73.69
271.002	82.69
271.234	78.69
271.466	99.69
271.698	90.69
271.93	76.69
272.162	72.69
272.394	81.69
272.626	76.69
272.858	76.69
273.09	76.69
273.322	77.69
273.553	69.69
273.785	69.69
274.017	75.69
274.249	69.69
274.481	81.69
274.713	78.69
274.945	81.69
275.176	62.69
275.408	73.69
275.64	75.69
275.872	82.69
276.104	74.69
276.335	61.69
276.567	75.69
276.799	82.69
277.031	87.69
277.262	74.69
277.494	78.69
277.726	67.69
277.957	67.69
278.189	69.69
278.421	84.69
278.652	78.69
278.884	72.69
279.115	71.69
279.347	74.69
279.579	78.69
279.81	78.69
280.042	78.69
280.273	68.69
280.505	72.69
280.736	75.69
280.968	72.69
281.199	77.69
281.431	81.69
281.662	85.69
281.894	71.69
282.125	73.69
282.356	83.69
282.588	93.69
282.819	65.69
283.051	83.69
283.282	97.69
283.513	72.69
283.745	76.69
283.976	86.69
284.207	86.69
284.439	71.69
284.67	88.69
284.901	84.69
285.132	90.69
285.364	66.69
285.595	66.69
285.826	61.69
286.057	70.69
286.288	79.69
286.52	72.69
286.751	79.69
286.982	65.69
287.213	84.69
287.444	84.69
287.675	81.69
287.906	78.69
288.138	70.69
288.369	74.69
288.6	78.69
288.831	71.69
289.062	74.69
289.293	82.69
289.524	78.69
289.755	83.69
289.986	87.69
290.217	82.69
290.448	86.69
290.679	75.69
290.91	85.69
291.141	78.69
291.371	87.69
291.602	80.69
291.833	81.69
292.064	72.69
292.295	55.69
292.526	68.69
292.757	68.69
292.987	87.69
293.218	87.69
293.449	91.69
293.68	83.69
293.91	106.69
294.141	76.69
294.372	77.69
294.603	76.69
294.833	74.69
295.064	77.69
295.295	80.69
295.525	85.69
295.756	73.69
295.987	70.69
296.217	72.69
296.448	82.69
296.679	66.69
296.909	88.69
297.14	84.69
297.37	65.69
297.601	70.69
297.831	71.69
298.062	74.69
298.292	78.69
298.523	68.69
298.753	79.69
298.984	81.69
299.214	78.69
299.445	82.69
299.675	83.69
299.905	83.69
300.136	82.69
300.366	80.69
300.597	77.69
300.827	80.69
301.057	71.69
301.288	79.69
301.518	82.69
301.748	74.69
301.979	83.69
302.209	96.69
302.439	81.69
302.669	80.69
302.9	75.69
303.13	84.69
303.36	75.69
303.59	74.69
303.82	76.69
304.051	68.69
304.281	80.69
304.511	90.69
304.741	73.69
304.971	83.69
305.201	74.69
305.431	80.69
305.661	72.69
305.891	77.69
306.121	67.69
306.352	86.69
306.582	66.69
306.812	74.69
307.042	80.69
307.272	78.69
307.502	93.69
307.731	71.69
307.961	82.69
308.191	72.69
308.421	83.69
308.651	93.69
308.881	92.69
309.111	83.69
309.341	71.69
309.571	88.69
309.8	75.69
310.03	86.69
310.26	82.69
310.49	96.69
310.72	67.69
310.949	89.69
311.179	82.69
311.409	75.69
311.639	68.69
311.868	79.69
312.098	84.69
312.328	80.69
312.557	87.69
312.787	84.69
313.017	82.69
313.246	91.69
313.476	72.69
313.706	82.69
313.935	61.69
314.165	89.69
314.394	85.69
314.624	82.69
314.853	83.69
315.083	79.69
315.312	81.69
315.542	76.69
315.771	68.69
316.001	70.69
316.23	79.69
316.46	78.69
316.689	81.69
316.919	65.69
317.148	71.69
317.377	71.69
317.607	66.69
317.836	86.69
318.065	66.69
318.295	82.69
318.524	71.69
318.753	86.69
318.983	76.69
319.212	79.69
319.441	91.69
319.67	72.69
319.9	84.69
320.129	68.69
320.358	69.69
320.587	71.69
320.816	84.69
321.046	79.69
321.275	76.69
321.504	84.69
321.733	83.69
321.962	79.69
322.191	102.69
322.42	76.69
322.649	91.69
322.878	88.69
323.108	80.69
323.337	95.69
323.566	80.69
323.795	74.69
324.024	71.69
324.253	86.69
324.482	85.69
324.71	85.69
324.939	71.69
325.168	70.69
325.397	86.69
325.626	82.69
325.855	93.69
326.084	80.69
326.313	79.69
326.542	79.69
326.77	86.69
326.999	71.69
327.228	101.69
327.457	76.69
327.686	95.69
327.914	67.69
328.143	84.69
328.372	75.69
328.6	83.69
328.829	86.69
329.058	82.69
329.287	76.69
329.515	75.69
329.744	86.69
329.972	92.69
330.201	85.69
330.43	81.69
330.658	85.69
330.887	89.69
331.115	85.69
331.344	70.69
331.572	92.69
331.801	84.69
332.03	83.69
332.258	100.69
332.486	78.69
332.715	85.69
332.943	79.69
333.172	85.69
333.4	71.69
333.629	99.69
333.857	83.69
334.085	83.69
334.314	93.69
334.542	78.69
334.771	90.69
334.999	87.69
335.227	74.69
335.455	86.69
335.684	76.69
335.912	78.69
336.14	67.69
336.369	72.69
336.597	80.69
336.825	70.69
337.053	76.69
337.281	70.69
337.51	81.69
337.738	84.69
337.966	78.69
338.194	79.69
338.422	86.69
338.65	91.69
338.878	74.69
339.106	86.69
339.334	84.69
339.562	83.69
339.79	59.69
340.018	90.69
340.246	78.69
340.474	84.69
340.702	71.69
340.93	92.69
341.158	76.69
341.386	80.69
341.614	78.69
341.842	91.69
342.07	81.69
342.298	75.69
342.526	76.69
342.754	90.69
342.981	83.69
343.209	96.69
343.437	87.69
343.665	74.69
343.893	72.69
344.12	90.69
344.348	85.69
344.576	82.69
344.804	79.69
345.031	88.69
345.259	85.69
345.487	74.69
345.714	83.69
345.942	95.69
346.17	92.69
346.397	90.69
346.625	92.69
346.853	71.69
347.08	80.69
347.308	84.69
347.535	70.69
347.763	79.69
347.99	90.69
348.218	89.69
348.445	73.69
348.673	81.69
348.9	69.69
349.128	79.69
349.355	90.69
349.583	74.69
349.81	69.69
350.037	98.69
350.265	89.69
350.492	75.69
350.72	81.69
350.947	76.69
351.174	72.69
351.402	58.69
351.629	69.69
351.856	70.69
352.083	85.69
352.311	84.69
352.538	88.69
352.765	85.69
352.992	72.69
353.22	76.69
353.447	71.69
353.674	86.69
353.901	71.69
354.128	83.69
354.355	78.69
354.583	64.69
354.81	72.69
355.037	84.69
355.264	82.69
355.491	68.69
355.718	76.69
355.945	74.69
356.172	87.69
356.399	82.69
356.626	74.69
356.853	71.69
357.08	78.69
357.307	77.69
357.534	85.69
357.761	82.69
357.988	76.69
358.215	64.69
358.441	70.69
358.668	84.69
358.895	71.69
359.122	75.69
359.349	75.69
359.576	86.69
359.802	82.69
360.029	82.69
360.256	72.69
360.483	76.69
360.709	73.69
360.936	88.69
361.163	78.69
361.39	82.69
361.616	83.69
361.843	73.69
362.07	87.69
362.296	79.69
362.523	77.69
362.749	71.69
362.976	84.69
363.203	90.69
363.429	90.69
363.656	95.69
363.882	83.69
364.109	93.69
364.335	84.69
364.562	75.69
364.788	85.69
365.015	84.69
365.241	71.69
365.468	91.69
365.694	84.69
365.92	78.69
366.147	82.69
366.373	86.69
366.599	78.69
366.826	75.69
367.052	67.69
367.278	80.69
367.505	75.69
367.731	86.69
367.957	83.69
368.184	72.69
368.41	75.69
368.636	80.69
368.862	70.69
369.089	83.69
369.315	90.69
369.541	76.69
369.767	88.69
369.993	95.69
370.219	70.69
370.445	77.69
370.672	94.69
370.898	74.69
371.124	83.69
371.35	96.69
371.576	94.69
371.802	97.69
372.028	83.69
372.254	66.69
372.48	98.69
372.706	85.69
372.932	85.69
373.158	75.69
373.384	107.69
373.61	82.69
373.835	95.69
374.061	90.69
374.287	83.69
374.513	83.69
374.739	85.69
374.965	94.69
375.191	92.69
375.416	82.69
375.642	91.69
375.868	87.69
376.094	82.69
376.319	87.69
376.545	93.69
376.771	88.69
376.997	83.69
377.222	94.69
377.448	95.69
377.674	94.69
377.899	99.69
378.125	83.69
378.35	96.69
378.576	100.69
378.802	109.69
379.027	96.69
379.253	87.69
379.478	90.69
379.704	85.69
379.929	94.69
380.155	94.69
380.38	80.69
380.606	94.69
380.831	87.69
381.057	100.69
381.282	92.69
381.507	97.69
381.733	90.69
381.958	112.69
382.184	84.69
382.409	87.69
382.634	88.69
382.86	85.69
383.085	87.69
383.31	98.69
383.535	112.69
383.761	97.69
383.986	98.69
384.211	103.69
384.436	102.69
384.662	101.69
384.887	108.69
385.112	86.69
385.337	90.69
385.562	97.69
385.787	85.69
386.013	95.69
386.238	97.69
386.463	94.69
386.688	100.69
386.913	102.69
387.138	95.69
387.363	89.69
387.588	87.69
387.813	100.69
388.038	91.69
388.263	100.69
388.488	95.69
388.713	111.69
388.938	106.69
389.163	97.69
389.387	104.69
389.612	101.69
389.837	99.69
390.062	106.69
390.287	90.69
390.512	84.69
390.736	111.69
390.961	107.69
391.186	96.69
391.411	114.69
391.636	96.69
391.86	110.69
392.085	105.69
392.31	104.69
392.534	107.69
392.759	93.69
392.984	106.69
393.208	101.69
393.433	87.69
393.658	102.69
393.882	90.69
394.107	98.69
394.331	109.69
394.556	91.69
394.78	97.69
395.005	112.69
395.229	102.69
395.454	101.69
395.678	103.69
395.903	106.69
396.127	98.69
396.352	101.69
396.576	106.69
396.801	120.69
397.025	111.69
397.249	125.69
397.474	113.69
397.698	112.69
397.922	111.69
398.147	99.69
398.371	118.69
398.595	110.69
398.82	103.69
399.044	103.69
399.268	93.69
399.492	103.69
399.717	96.69
399.941	107.69
400.165	116.69
400.389	107.69
400.613	116.69
400.837	120.69
401.062	114.69
401.286	113.69
401.51	113.69
401.734	99.69
401.958	106.69
402.182	112.69
402.406	106.69
402.63	122.69
402.854	115.69
403.078	122.69
403.302	101.69
403.526	118.69
403.75	116.69
403.974	116.69
404.198	115.69
404.422	98.69
404.645	126.69
404.869	134.69
405.093	100.69
405.317	134.69
405.541	102.69
405.765	114.69
405.988	117.69
406.212	122.69
406.436	118.69
406.66	116.69
406.883	111.69
407.107	120.69
407.331	123.69
407.555	103.69
407.778	118.69
408.002	126.69
408.226	128.69
408.449	96.69
408.673	118.69
408.896	124.69
409.12	126.69
409.344	130.69
409.567	133.69
409.791	124.69
410.014	106.69
410.238	114.69
410.461	125.69
410.685	114.69
410.908	130.69
411.132	120.69
411.355	120.69
411.578	118.69
411.802	115.69
412.025	119.69
412.249	129.69
412.472	130.69
412.695	118.69
412.919	104.69
413.142	127.69
413.365	118.69
413.589	114.69
413.812	118.69
414.035	131.69
414.258	109.69
414.482	124.69
414.705	108.69
414.928	123.69
415.151	115.69
415.374	123.69
415.597	123.69
415.821	126.69
416.044	111.69
416.267	118.69
416.49	114.69
416.713	118.69
416.936	118.69
417.159	129.69
417.382	134.69
417.605	115.69
417.828	125.69
418.051	126.69
418.274	119.69
418.497	120.69
418.72	136.69
418.943	131.69
419.166	140.69
419.389	140.69
419.611	137.69
419.834	124.69
420.057	129.69
420.28	119.69
420.503	101.69
420.726	142.69
420.948	124.69
421.171	126.69
421.394	147.69
421.617	145.69
421.839	149.69
422.062	145.69
422.285	128.69
422.507	126.69
422.73	131.69
422.953	125.69
423.175	130.69
423.398	121.69
423.621	136.69
423.843	140.69
424.066	138.69
424.288	146.69
424.511	133.69
424.733	138.69
424.956	132.69
425.178	134.69
425.401	131.69
425.623	127.69
425.846	121.69
426.068	130.69
426.291	131.69
426.513	129.69
426.735	134.69
426.958	135.69
427.18	140.69
427.402	123.69
427.625	118.69
427.847	113.69
428.069	123.69
428.292	116.69
428.514	130.69
428.736	126.69
428.958	120.69
429.181	122.69
429.403	116.69
429.625	134.69
429.847	128.69
430.069	127.69
430.292	121.69
430.514	126.69
430.736	129.69
430.958	130.69
431.18	126.69
431.402	112.69
431.624	122.69
431.846	113.69
432.068	99.69
432.29	100.69
432.512	122.69
432.734	130.69
432.956	113.69
433.178	134.69
433.4	136.69
433.622	120.69
433.844	127.69
434.066	126.69
434.287	107.69
434.509	98.69
434.731	93.69
434.953	98.69
435.175	111.69
435.397	144.69
435.618	123.69
435.84	110.69
436.062	129.69
436.284	116.69
436.505	136.69
436.727	115.69
436.949	135.69
437.17	114.69
437.392	135.69
437.614	115.69
437.835	90.69
438.057	107.69
438.278	118.69
438.5	116.69
438.721	136.69
438.943	133.69
439.165	127.69
439.386	126.69
439.608	141.69
439.829	134.69
440.05	147.69
440.272	154.69
440.493	141.69
440.715	146.69
440.936	139.69
441.158	136.69
441.379	151.69
441.6	147.69
441.822	147.69
442.043	143.69
442.264	142.69
442.486	135.69
442.707	130.69
442.928	142.69
443.149	138.69
443.371	154.69
443.592	147.69
443.813	144.69
444.034	140.69
444.255	134.69
444.476	159.69
444.698	144.69
444.919	141.69
445.14	271.69
445.361	201.69
445.582	170.69
445.803	151.69
446.024	138.69
446.245	176.69
446.466	151.69
446.687	158.69
446.908	168.69
447.129	151.69
447.35	150.69
447.571	146.69
447.792	148.69
448.013	127.69
448.234	141.69
448.455	151.69
448.675	137.69
448.896	139.69
449.117	130.69
449.338	135.69
449.559	130.69
449.779	135.69
450	126.69
450.221	136.69
450.442	131.69
450.662	140.69
450.883	128.69
451.104	119.69
451.324	123.69
451.545	122.69
451.766	131.69
451.986	129.69
452.207	119.69
452.428	136.69
452.648	121.69
452.869	124.69
453.089	116.69
453.31	117.69
453.53	113.69
453.751	111.69
453.971	99.69
454.192	117.69
454.412	98.69
454.633	116.69
454.853	119.69
455.073	126.69
455.294	112.69
455.514	123.69
455.734	128.69
455.955	116.69
456.175	98.69
456.395	112.69
456.616	111.69
456.836	106.69
457.056	104.69
457.276	102.69
457.497	115.69
457.717	94.69
457.937	114.69
458.157	103.69
458.377	102.69
458.598	99.69
458.818	108.69
459.038	84.69
459.258	91.69
459.478	98.69
459.698	95.69
459.918	107.69
460.138	108.69
460.358	116.69
460.578	121.69
460.798	123.69
461.018	110.69
461.238	122.69
461.458	123.69
461.678	136.69
461.898	97.69
462.118	101.69
462.338	109.69
462.558	108.69
462.777	113.69
462.997	111.69
463.217	111.69
463.437	107.69
463.657	100.69
463.876	106.69
464.096	102.69
464.316	106.69
464.536	109.69
464.755	108.69
464.975	119.69
465.195	117.69
465.414	121.69
465.634	116.69
465.854	104.69
466.073	98.69
466.293	116.69
466.512	123.69
466.732	123.69
466.951	118.69
467.171	135.69
467.391	151.69
467.61	140.69
467.829	138.69
468.049	151.69
468.268	144.69
468.488	119.69
468.707	134.69
468.927	136.69
469.146	130.69
469.365	140.69
469.585	137.69
469.804	142.69
470.023	152.69
470.243	140.69
470.462	148.69
470.681	156.69
470.901	157.69
471.12	130.69
471.339	133.69
471.558	137.69
471.777	133.69
471.997	131.69
472.216	141.69
472.435	119.69
472.654	112.69
472.873	104.69
473.092	109.69
473.311	124.69
473.53	124.69
473.749	131.69
473.968	130.69
474.187	115.69
474.406	120.69
474.625	145.69
474.844	130.69
475.063	119.69
475.282	126.69
475.501	108.69
475.72	120.69
475.939	123.69
476.158	122.69
476.377	126.69
476.596	117.69
476.814	106.69
477.033	103.69
477.252	100.69
477.471	129.69
477.69	143.69
477.908	161.69
478.127	139.69
478.346	139.69
478.564	132.69
478.783	144.69
479.002	142.69
479.22	160.69
479.439	133.69
479.658	119.69
479.876	108.69
480.095	120.69
480.313	121.69
480.532	95.69
480.751	110.69
480.969	103.69
481.188	86.69
481.406	80.69
481.624	85.69
481.843	90.69
482.061	95.69
482.28	118.69
482.498	118.69
482.717	114.69
482.935	117.69
483.153	140.69
483.372	146.69
483.59	151.69
483.808	134.69
484.027	118.69
484.245	142.69
484.463	148.69
484.681	170.69
484.9	153.69
485.118	153.69
485.336	118.69
485.554	108.69
485.772	86.69
485.99	90.69
486.209	102.69
486.427	115.69
486.645	115.69
486.863	123.69
487.081	161.69
487.299	115.69
487.517	146.69
487.735	172.69
487.953	191.69
488.171	186.69
488.389	170.69
488.607	171.69
488.825	137.69
489.043	125.69
489.261	137.69
489.479	139.69
489.696	155.69
489.914	139.69
490.132	138.69
490.35	167.69
490.568	161.69
490.786	175.69
491.003	174.69
491.221	185.69
491.439	180.69
491.657	202.69
491.874	199.69
492.092	221.69
492.31	252.69
492.527	235.69
492.745	220.69
492.963	189.69
493.18	180.69
493.398	176.69
493.615	209.69
493.833	190.69
494.05	180.69
494.268	178.69
494.485	159.69
494.703	174.69
494.92	179.69
495.138	174.69
495.355	186.69
495.573	191.69
495.79	178.69
496.008	162.69
496.225	160.69
496.442	174.69
496.66	181.69
496.877	170.69
497.094	188.69
497.312	151.69
497.529	158.69
497.746	150.69
497.963	142.69
498.181	131.69
498.398	128.69
498.615	130.69
498.832	115.69
499.049	122.69
499.267	120.69
499.484	124.69
499.701	136.69
499.918	126.69
500.135	147.69
500.352	142.69
500.569	139.69
500.786	156.69
501.003	135.69
501.22	142.69
501.437	142.69
501.654	136.69
501.871	129.69
502.088	136.69
502.305	123.69
502.522	130.69
502.739	140.69
502.956	128.69
503.172	139.69
503.389	115.69
503.606	123.69
503.823	121.69
504.04	119.69
504.256	120.69
504.473	123.69
504.69	122.69
504.907	123.69
505.123	116.69
505.34	108.69
505.557	127.69
505.773	128.69
505.99	131.69
506.207	112.69
506.423	110.69
506.64	115.69
506.856	118.69
507.073	115.69
507.289	112.69
507.506	115.69
507.722	125.69
507.939	128.69
508.155	121.69
508.372	123.69
508.588	108.69
508.805	116.69
509.021	119.69
509.238	106.69
509.454	95.69
509.67	92.69
509.887	86.69
510.103	96.69
510.319	87.69
510.536	83.69
510.752	82.69
510.968	75.69
511.184	73.69
511.401	85.69
511.617	84.69
511.833	80.69
512.049	92.69
512.265	103.69
512.481	92.69
512.698	96.69
512.914	107.69
513.13	103.69
513.346	85.69
513.562	88.69
513.778	80.69
513.994	95.69
514.21	81.69
514.426	85.69
514.642	98.69
514.858	93.69
515.074	84.69
515.29	86.69
515.506	83.69
515.721	92.69
515.937	81.69
516.153	75.69
516.369	76.69
516.585	75.69
516.801	73.69
517.016	85.69
517.232	77.69
517.448	107.69
517.664	93.69
517.879	88.69
518.095	89.69
518.311	87.69
518.527	92.69
518.742	92.69
518.958	102.69
519.173	98.69
519.389	107.69
519.605	104.69
519.82	104.69
520.036	107.69
520.251	102.69
520.467	98.69
520.682	96.69
520.898	97.69
521.113	80.69
521.329	89.69
521.544	85.69
521.76	83.69
521.975	97.69
522.19	92.69
522.406	108.69
522.621	93.69
522.836	109.69
523.052	103.69
523.267	95.69
523.482	111.69
523.698	102.69
523.913	110.69
524.128	123.69
524.343	110.69
524.559	113.69
524.774	114.69
524.989	120.69
525.204	125.69
525.419	120.69
525.634	112.69
525.849	116.69
526.064	111.69
526.28	99.69
526.495	87.69
526.71	85.69
526.925	77.69
527.14	80.69
527.355	88.69
527.57	89.69
527.785	93.69
527.999	92.69
528.214	110.69
528.429	118.69
528.644	108.69
528.859	139.69
529.074	154.69
529.289	172.69
529.503	160.69
529.718	140.69
529.933	130.69
530.148	97.69
530.363	95.69
530.577	80.69
530.792	76.69
531.007	98.69
531.221	70.69
531.436	77.69
531.651	82.69
531.865	100.69
532.08	79.69
532.295	87.69
532.509	80.69
532.724	76.69
532.938	92.69
533.153	85.69
533.367	100.69
533.582	117.69
533.796	111.69
534.011	120.69
534.225	89.69
534.44	95.69
534.654	92.69
534.868	83.69
535.083	91.69
535.297	92.69
535.511	83.69
535.726	98.69
535.94	109.69
536.154	86.69
536.369	88.69
536.583	83.69
536.797	81.69
537.011	74.69
537.225	79.69
537.44	95.69
537.654	88.69
537.868	87.69
538.082	95.69
538.296	103.69
538.51	103.69
538.724	106.69
538.938	115.69
539.153	117.69
539.367	126.69
539.581	103.69
539.795	118.69
540.009	96.69
540.222	104.69
540.436	99.69
540.65	122.69
540.864	117.69
541.078	142.69
541.292	135.69
541.506	144.69
541.72	183.69
541.934	210.69
542.147	198.69
542.361	205.69
542.575	175.69
542.789	151.69
543.002	124.69
543.216	142.69
543.43	121.69
543.644	127.69
543.857	144.69
544.071	157.69
544.285	156.69
544.498	158.69
544.712	160.69
544.925	151.69
545.139	163.69
545.352	163.69
545.566	148.69
545.779	167.69
545.993	167.69
546.206	157.69
546.42	171.69
546.633	163.69
546.847	157.69
547.06	171.69
547.274	178.69
547.487	165.69
547.7	170.69
547.914	167.69
548.127	172.69
548.34	163.69
548.554	172.69
548.767	160.69
548.98	160.69
549.193	156.69
549.407	163.69
549.62	151.69
549.833	150.69
550.046	153.69
550.259	144.69
550.473	152.69
550.686	156.69
550.899	159.69
551.112	163.69
551.325	142.69
551.538	124.69
551.751	130.69
551.964	108.69
552.177	130.69
552.39	129.69
552.603	152.69
552.816	145.69
553.029	137.69
553.242	153.69
553.455	158.69
553.667	167.69
553.88	142.69
554.093	142.69
554.306	133.69
554.519	135.69
554.732	154.69
554.944	138.69
555.157	160.69
555.37	142.69
555.583	135.69
555.795	138.69
556.008	122.69
556.221	116.69
556.433	143.69
556.646	134.69
556.859	135.69
557.071	139.69
557.284	136.69
557.496	139.69
557.709	139.69
557.921	137.69
558.134	143.69
558.346	142.69
558.559	127.69
558.771	136.69
558.984	129.69
559.196	128.69
559.409	124.69
559.621	137.69
559.833	134.69
560.046	127.69
560.258	132.69
560.47	118.69
560.683	130.69
560.895	120.69
561.107	119.69
561.32	132.69
561.532	123.69
561.744	127.69
561.956	135.69
562.168	132.69
562.381	129.69
562.593	131.69
562.805	119.69
563.017	141.69
563.229	127.69
563.441	118.69
563.653	118.69
563.865	127.69
564.077	109.69
564.289	122.69
564.501	113.69
564.713	118.69
564.925	128.69
565.137	122.69
565.349	120.69
565.561	125.69
565.773	98.69
565.985	115.69
566.197	124.69
566.408	126.69
566.62	121.69
566.832	132.69
567.044	115.69
567.255	110.69
567.467	117.69
567.679	110.69
567.891	104.69
568.102	113.69
568.314	90.69
568.526	90.69
568.737	76.69
568.949	87.69
569.161	90.69
569.372	84.69
569.584	70.69
569.795	93.69
570.007	79.69
570.218	97.69
570.43	81.69
570.641	103.69
570.853	85.69
571.064	91.69
571.276	109.69
571.487	103.69
571.698	105.69
571.91	96.69
572.121	106.69
572.333	98.69
572.544	87.69
572.755	83.69
572.966	71.69
573.178	86.69
573.389	82.69
573.6	77.69
573.811	92.69
574.023	81.69
574.234	73.69
574.445	90.69
574.656	86.69
574.867	87.69
575.078	93.69
575.289	108.69
575.501	87.69
575.712	99.69
575.923	85.69
576.134	78.69
576.345	76.69
576.556	110.69
576.767	100.69
576.978	93.69
577.188	103.69
577.399	78.69
577.61	90.69
577.821	86.69
578.032	107.69
578.243	109.69
578.454	81.69
578.665	92.69
578.875	76.69
579.086	69.69
579.297	78.69
579.508	74.69
579.718	94.69
579.929	79.69
580.14	89.69
580.35	88.69
580.561	81.69
580.772	95.69
580.982	85.69
581.193	93.69
581.403	82.69
581.614	76.69
581.825	71.69
582.035	82.69
582.246	84.69
582.456	86.69
582.667	95.69
582.877	83.69
583.087	79.69
583.298	83.69
583.508	88.69
583.719	95.69
583.929	73.69
584.139	67.69
584.35	91.69
584.56	90.69
584.77	87.69
584.981	85.69
585.191	84.69
585.401	78.69
585.611	87.69
585.821	70.69
586.032	75.69
586.242	73.69
586.452	68.69
586.662	72.69
586.872	80.69
587.082	75.69
587.292	66.69
587.502	76.69
587.713	78.69
587.923	74.69
588.133	71.69
588.343	73.69
588.553	90.69
588.762	80.69
588.972	82.69
589.182	84.69
589.392	90.69
589.602	72.69
589.812	77.69
590.022	93.69
590.232	78.69
590.441	78.69
590.651	91.69
590.861	71.69
591.071	70.69
591.281	94.69
591.49	97.69
591.7	80.69
591.91	82.69
592.119	88.69
592.329	79.69
592.539	65.69
592.748	80.69
592.958	86.69
593.167	75.69
593.377	81.69
593.587	81.69
593.796	90.69
594.006	78.69
594.215	77.69
594.424	83.69
594.634	99.69
594.843	99.69
595.053	97.69
595.262	94.69
595.472	80.69
595.681	89.69
595.89	94.69
596.1	92.69
596.309	80.69
596.518	99.69
596.727	102.69
596.937	109.69
597.146	99.69
597.355	90.69
597.564	74.69
597.774	94.69
597.983	82.69
598.192	98.69
598.401	90.69
598.61	85.69
598.819	80.69
599.028	91.69
599.237	86.69
599.446	101.69
599.655	90.69
599.864	94.69
600.073	93.69
600.282	94.69
600.491	98.69
600.7	89.69
600.909	88.69
601.118	90.69
601.327	96.69
601.536	92.69
601.745	111.69
601.953	116.69
602.162	106.69
602.371	100.69
602.58	99.69
602.789	99.69
602.997	95.69
603.206	97.69
603.415	113.69
603.623	99.69
603.832	109.69
604.041	106.69
604.249	97.69
604.458	99.69
604.666	100.69
604.875	108.69
605.084	99.69
605.292	114.69
605.501	108.69
605.709	118.69
605.918	112.69
606.126	107.69
606.334	108.69
606.543	127.69
606.751	99.69
606.96	101.69
607.168	106.69
607.376	107.69
607.585	120.69
607.793	118.69
608.001	115.69
608.21	104.69
608.418	104.69
608.626	112.69
608.834	118.69
609.043	106.69
609.251	94.69
609.459	116.69
609.667	131.69
609.875	106.69
610.083	118.69
610.291	113.69
610.499	101.69
610.707	123.69
610.916	99.69
611.124	107.69
611.332	108.69
611.54	113.69
611.748	117.69
611.955	102.69
612.163	118.69
612.371	108.69
612.579	112.69
612.787	110.69
612.995	121.69
613.203	115.69
613.411	114.69
613.618	100.69
613.826	115.69
614.034	93.69
614.242	134.69
614.449	111.69
614.657	103.69
614.865	112.69
615.072	111.69
615.28	107.69
615.488	110.69
615.695	120.69
615.903	111.69
616.111	110.69
616.318	110.69
616.526	107.69
616.733	113.69
616.941	104.69
617.148	98.69
617.356	115.69
617.563	100.69
617.771	103.69
617.978	97.69
618.185	100.69
618.393	123.69
618.6	109.69
618.807	102.69
619.015	91.69
619.222	111.69
619.429	100.69
619.637	110.69
619.844	109.69
620.051	97.69
620.258	110.69
620.466	115.69
620.673	106.69
620.88	101.69
621.087	103.69
621.294	107.69
621.501	85.69
621.708	101.69
621.915	95.69
622.122	97.69
622.329	109.69
622.536	122.69
622.743	96.69
622.95	122.69
623.157	116.69
623.364	99.69
623.571	120.69
623.778	110.69
623.985	98.69
624.192	115.69
624.399	118.69
624.606	98.69
624.812	114.69
625.019	102.69
625.226	104.69
625.433	101.69
625.639	89.69
625.846	95.69
626.053	90.69
626.259	103.69
626.466	103.69
626.673	96.69
626.879	88.69
627.086	82.69
627.293	94.69
627.499	105.69
627.706	104.69
627.912	106.69
628.119	93.69
628.325	113.69
628.532	106.69
628.738	99.69
628.945	101.69
629.151	118.69
629.357	110.69
629.564	101.69
629.77	102.69
629.976	98.69
630.183	90.69
630.389	108.69
630.595	95.69
630.802	101.69
631.008	104.69
631.214	98.69
631.42	108.69
631.627	102.69
631.833	102.69
632.039	99.69
632.245	91.69
632.451	87.69
632.657	101.69
632.863	92.69
633.069	96.69
633.275	99.69
633.481	91.69
633.688	94.69
633.893	108.69
634.099	101.69
634.305	107.69
634.511	105.69
634.717	92.69
634.923	95.69
635.129	91.69
635.335	91.69
635.541	87.69
635.747	95.69
635.952	90.69
636.158	89.69
636.364	102.69
636.57	90.69
636.775	101.69
636.981	101.69
637.187	99.69
637.392	97.69
637.598	96.69
637.804	98.69
638.009	96.69
638.215	109.69
638.421	92.69
638.626	106.69
638.832	107.69
639.037	100.69
639.243	91.69
639.448	81.69
639.654	100.69
639.859	103.69
640.065	92.69
640.27	111.69
640.475	97.69
640.681	104.69
640.886	96.69
641.091	94.69
641.297	91.69
641.502	111.69
641.707	83.69
641.913	112.69
642.118	95.69
642.323	95.69
642.528	102.69
642.733	99.69
642.939	90.69
643.144	87.69
643.349	92.69
643.554	102.69
643.759	85.69
643.964	96.69
644.169	100.69
644.374	107.69
644.579	102.69
644.784	100.69
644.989	98.69
645.194	107.69
645.399	85.69
645.604	97.69
645.809	92.69
646.014	87.69
646.219	100.69
646.423	102.69
646.628	89.69
646.833	89.69
647.038	86.69
647.243	97.69
647.447	82.69
647.652	92.69
647.857	100.69
648.062	103.69
648.266	100.69
648.471	92.69
648.676	82.69
648.88	82.69
649.085	92.69
649.289	78.69
649.494	67.69
649.698	99.69
649.903	97.69
650.107	90.69
650.312	90.69
650.516	100.69
650.721	101.69
650.925	98.69
651.13	100.69
651.334	98.69
651.539	92.69
651.743	99.69
651.947	90.69
652.152	93.69
652.356	82.69
652.56	92.69
652.764	101.69
652.969	80.69
653.173	96.69
653.377	88.69
653.581	82.69
653.785	95.69
653.99	96.69
654.194	83.69
654.398	83.69
654.602	86.69
654.806	82.69
655.01	96.69
655.214	81.69
655.418	78.69
655.622	69.69
655.826	90.69
656.03	82.69
656.234	99.69
656.438	79.69
656.642	95.69
656.846	92.69
657.049	79.69
657.253	87.69
657.457	87.69
657.661	64.69
657.865	84.69
658.068	88.69
658.272	89.69
658.476	92.69
658.68	84.69
658.883	78.69
659.087	82.69
659.291	79.69
659.494	76.69
659.698	70.69
659.901	84.69
660.105	84.69
660.309	88.69
660.512	83.69
660.716	95.69
660.919	88.69
661.123	78.69
661.326	96.69
661.53	85.69
661.733	81.69
661.936	87.69
662.14	72.69
662.343	83.69
662.546	79.69
662.75	83.69
662.953	86.69
663.156	87.69
663.36	75.69
663.563	79.69
663.766	76.69
663.969	71.69
664.173	75.69
664.376	66.69
664.579	77.69
664.782	77.69
664.985	89.69
665.188	76.69
665.391	88.69
665.594	71.69
665.797	82.69
666	77.69
666.203	68.69
666.406	66.69
666.609	78.69
666.812	90.69
667.015	71.69
667.218	79.69
667.421	69.69
667.624	67.69
667.827	83.69
668.03	72.69
668.232	87.69
668.435	78.69
668.638	85.69
668.841	58.69
669.043	78.69
669.246	85.69
669.449	76.69
669.651	83.69
669.854	85.69
670.057	73.69
670.259	95.69
670.462	69.69
670.665	67.69
670.867	80.69
671.07	100.69
671.272	82.69
671.475	89.69
671.677	78.69
671.88	68.69
672.082	68.69
672.284	72.69
672.487	83.69
672.689	97.69
672.892	86.69
