Data from Location6.07152019.Energy5.Lamp.07192019.3%Agarose_HRD10591_16-13-00-395.txt Node
Date: Fri Jul 19 16:13:00 EDT 2019
User: cochatt
Spectrometer: HR+D1059
Trigger mode: 1
Integration Time (sec): 1.000000E-1
Scans to average: 1
Electric dark correction enabled: true
Nonlinearity correction enabled: false
Boxcar width: 0
XAxis mode: Wavelengths
Number of Pixels in Spectrum: 2048
>>>>>Begin Spectral Data<<<<<
223.165	-24.12
223.4	-24.12
223.635	-24.12
223.869	-24.12
224.104	-23.12
224.338	-9.12
224.573	-8.12
224.808	-6.12
225.042	-10.12
225.277	-6.12
225.511	-1.12
225.746	9.88
225.98	12.88
226.215	11.88
226.449	18.88
226.683	10.88
226.918	16.88
227.152	30.88
227.387	51.88
227.621	47.88
227.856	48.88
228.09	43.88
228.324	49.88
228.559	55.88
228.793	56.88
229.027	71.88
229.262	58.88
229.496	71.88
229.73	57.88
229.964	79.88
230.199	86.88
230.433	84.88
230.667	67.88
230.901	84.88
231.136	84.88
231.37	67.88
231.604	71.88
231.838	76.88
232.072	74.88
232.306	81.88
232.541	75.88
232.775	91.88
233.009	95.88
233.243	89.88
233.477	83.88
233.711	80.88
233.945	80.88
234.179	83.88
234.413	66.88
234.647	88.88
234.881	84.88
235.115	79.88
235.349	82.88
235.583	88.88
235.817	82.88
236.051	70.88
236.285	69.88
236.519	71.88
236.753	83.88
236.987	85.88
237.221	73.88
237.455	73.88
237.689	80.88
237.922	79.88
238.156	77.88
238.39	89.88
238.624	70.88
238.858	86.88
239.091	67.88
239.325	85.88
239.559	94.88
239.793	81.88
240.027	78.88
240.26	95.88
240.494	64.88
240.728	70.88
240.961	77.88
241.195	80.88
241.429	75.88
241.662	71.88
241.896	76.88
242.13	73.88
242.363	71.88
242.597	83.88
242.83	79.88
243.064	87.88
243.298	84.88
243.531	76.88
243.765	72.88
243.998	69.88
244.232	88.88
244.465	58.88
244.699	74.88
244.932	81.88
245.166	70.88
245.399	76.88
245.633	83.88
245.866	88.88
246.099	85.88
246.333	72.88
246.566	82.88
246.8	81.88
247.033	84.88
247.266	81.88
247.5	65.88
247.733	79.88
247.966	74.88
248.2	72.88
248.433	63.88
248.666	81.88
248.899	65.88
249.133	82.88
249.366	66.88
249.599	81.88
249.832	82.88
250.066	73.88
250.299	73.88
250.532	69.88
250.765	68.88
250.998	78.88
251.231	75.88
251.465	84.88
251.698	76.88
251.931	75.88
252.164	72.88
252.397	80.88
252.63	72.88
252.863	70.88
253.096	68.88
253.329	80.88
253.562	71.88
253.795	84.88
254.028	76.88
254.261	73.88
254.494	82.88
254.727	70.88
254.96	91.88
255.193	81.88
255.426	83.88
255.659	86.88
255.892	90.88
256.124	72.88
256.357	71.88
256.59	86.88
256.823	88.88
257.056	79.88
257.289	73.88
257.521	66.88
257.754	80.88
257.987	80.88
258.22	70.88
258.452	84.88
258.685	78.88
258.918	65.88
259.151	85.88
259.383	59.88
259.616	71.88
259.849	90.88
260.081	71.88
260.314	79.88
260.547	82.88
260.779	81.88
261.012	84.88
261.244	79.88
261.477	85.88
261.71	66.88
261.942	76.88
262.175	87.88
262.407	72.88
262.64	86.88
262.872	87.88
263.105	83.88
263.337	80.88
263.57	76.88
263.802	84.88
264.035	70.88
264.267	87.88
264.499	85.88
264.732	87.88
264.964	83.88
265.197	71.88
265.429	74.88
265.661	86.88
265.894	83.88
266.126	88.88
266.358	73.88
266.591	88.88
266.823	80.88
267.055	96.88
267.287	95.88
267.52	79.88
267.752	73.88
267.984	77.88
268.216	77.88
268.448	91.88
268.681	90.88
268.913	93.88
269.145	91.88
269.377	84.88
269.609	83.88
269.841	86.88
270.073	85.88
270.306	78.88
270.538	80.88
270.77	60.88
271.002	85.88
271.234	88.88
271.466	98.88
271.698	69.88
271.93	81.88
272.162	89.88
272.394	82.88
272.626	80.88
272.858	85.88
273.09	77.88
273.322	83.88
273.553	75.88
273.785	82.88
274.017	87.88
274.249	79.88
274.481	92.88
274.713	79.88
274.945	78.88
275.176	88.88
275.408	73.88
275.64	90.88
275.872	70.88
276.104	76.88
276.335	77.88
276.567	78.88
276.799	81.88
277.031	78.88
277.262	80.88
277.494	79.88
277.726	87.88
277.957	67.88
278.189	82.88
278.421	87.88
278.652	89.88
278.884	79.88
279.115	83.88
279.347	84.88
279.579	81.88
279.81	80.88
280.042	70.88
280.273	87.88
280.505	85.88
280.736	76.88
280.968	78.88
281.199	89.88
281.431	81.88
281.662	87.88
281.894	86.88
282.125	80.88
282.356	82.88
282.588	67.88
282.819	76.88
283.051	65.88
283.282	84.88
283.513	90.88
283.745	84.88
283.976	81.88
284.207	87.88
284.439	92.88
284.67	83.88
284.901	90.88
285.132	82.88
285.364	76.88
285.595	75.88
285.826	89.88
286.057	100.88
286.288	75.88
286.52	81.88
286.751	73.88
286.982	81.88
287.213	74.88
287.444	88.88
287.675	89.88
287.906	81.88
288.138	75.88
288.369	93.88
288.6	95.88
288.831	83.88
289.062	90.88
289.293	83.88
289.524	64.88
289.755	77.88
289.986	72.88
290.217	64.88
290.448	86.88
290.679	86.88
290.91	94.88
291.141	81.88
291.371	71.88
291.602	89.88
291.833	91.88
292.064	87.88
292.295	87.88
292.526	88.88
292.757	68.88
292.987	88.88
293.218	86.88
293.449	64.88
293.68	88.88
293.91	80.88
294.141	74.88
294.372	82.88
294.603	82.88
294.833	67.88
295.064	74.88
295.295	70.88
295.525	78.88
295.756	66.88
295.987	86.88
296.217	82.88
296.448	72.88
296.679	94.88
296.909	92.88
297.14	86.88
297.37	94.88
297.601	80.88
297.831	80.88
298.062	89.88
298.292	84.88
298.523	79.88
298.753	84.88
298.984	74.88
299.214	88.88
299.445	83.88
299.675	93.88
299.905	84.88
300.136	92.88
300.366	95.88
300.597	87.88
300.827	81.88
301.057	91.88
301.288	84.88
301.518	79.88
301.748	84.88
301.979	88.88
302.209	88.88
302.439	79.88
302.669	67.88
302.9	74.88
303.13	79.88
303.36	73.88
303.59	74.88
303.82	75.88
304.051	89.88
304.281	85.88
304.511	81.88
304.741	86.88
304.971	94.88
305.201	86.88
305.431	86.88
305.661	102.88
305.891	77.88
306.121	90.88
306.352	78.88
306.582	83.88
306.812	82.88
307.042	90.88
307.272	75.88
307.502	100.88
307.731	85.88
307.961	87.88
308.191	95.88
308.421	78.88
308.651	81.88
308.881	79.88
309.111	79.88
309.341	93.88
309.571	95.88
309.8	90.88
310.03	79.88
310.26	75.88
310.49	85.88
310.72	77.88
310.949	76.88
311.179	89.88
311.409	90.88
311.639	79.88
311.868	76.88
312.098	83.88
312.328	82.88
312.557	86.88
312.787	87.88
313.017	89.88
313.246	69.88
313.476	73.88
313.706	65.88
313.935	86.88
314.165	83.88
314.394	85.88
314.624	82.88
314.853	83.88
315.083	75.88
315.312	84.88
315.542	86.88
315.771	82.88
316.001	73.88
316.23	80.88
316.46	91.88
316.689	82.88
316.919	97.88
317.148	75.88
317.377	95.88
317.607	90.88
317.836	75.88
318.065	82.88
318.295	86.88
318.524	82.88
318.753	83.88
318.983	77.88
319.212	72.88
319.441	83.88
319.67	81.88
319.9	77.88
320.129	89.88
320.358	94.88
320.587	78.88
320.816	71.88
321.046	78.88
321.275	93.88
321.504	70.88
321.733	79.88
321.962	88.88
322.191	93.88
322.42	83.88
322.649	87.88
322.878	74.88
323.108	78.88
323.337	92.88
323.566	91.88
323.795	95.88
324.024	68.88
324.253	75.88
324.482	80.88
324.71	82.88
324.939	87.88
325.168	90.88
325.397	70.88
325.626	73.88
325.855	82.88
326.084	99.88
326.313	91.88
326.542	82.88
326.77	84.88
326.999	83.88
327.228	75.88
327.457	79.88
327.686	67.88
327.914	78.88
328.143	87.88
328.372	89.88
328.6	81.88
328.829	98.88
329.058	77.88
329.287	80.88
329.515	74.88
329.744	85.88
329.972	82.88
330.201	90.88
330.43	69.88
330.658	89.88
330.887	92.88
331.115	88.88
331.344	78.88
331.572	85.88
331.801	94.88
332.03	87.88
332.258	89.88
332.486	71.88
332.715	81.88
332.943	75.88
333.172	79.88
333.4	80.88
333.629	73.88
333.857	90.88
334.085	69.88
334.314	84.88
334.542	88.88
334.771	76.88
334.999	83.88
335.227	87.88
335.455	79.88
335.684	91.88
335.912	101.88
336.14	85.88
336.369	82.88
336.597	90.88
336.825	72.88
337.053	78.88
337.281	87.88
337.51	83.88
337.738	90.88
337.966	76.88
338.194	78.88
338.422	78.88
338.65	91.88
338.878	74.88
339.106	75.88
339.334	81.88
339.562	77.88
339.79	79.88
340.018	75.88
340.246	86.88
340.474	86.88
340.702	102.88
340.93	82.88
341.158	91.88
341.386	72.88
341.614	72.88
341.842	90.88
342.07	82.88
342.298	90.88
342.526	79.88
342.754	84.88
342.981	83.88
343.209	80.88
343.437	83.88
343.665	93.88
343.893	97.88
344.12	82.88
344.348	95.88
344.576	94.88
344.804	76.88
345.031	95.88
345.259	85.88
345.487	72.88
345.714	67.88
345.942	82.88
346.17	96.88
346.397	83.88
346.625	85.88
346.853	82.88
347.08	92.88
347.308	83.88
347.535	81.88
347.763	93.88
347.99	86.88
348.218	85.88
348.445	84.88
348.673	95.88
348.9	86.88
349.128	85.88
349.355	86.88
349.583	73.88
349.81	97.88
350.037	80.88
350.265	96.88
350.492	84.88
350.72	88.88
350.947	87.88
351.174	68.88
351.402	88.88
351.629	91.88
351.856	84.88
352.083	86.88
352.311	90.88
352.538	71.88
352.765	85.88
352.992	81.88
353.22	81.88
353.447	88.88
353.674	82.88
353.901	79.88
354.128	86.88
354.355	77.88
354.583	88.88
354.81	82.88
355.037	88.88
355.264	80.88
355.491	89.88
355.718	73.88
355.945	85.88
356.172	85.88
356.399	70.88
356.626	87.88
356.853	80.88
357.08	89.88
357.307	84.88
357.534	76.88
357.761	75.88
357.988	83.88
358.215	92.88
358.441	85.88
358.668	87.88
358.895	81.88
359.122	82.88
359.349	79.88
359.576	91.88
359.802	82.88
360.029	68.88
360.256	80.88
360.483	73.88
360.709	90.88
360.936	91.88
361.163	81.88
361.39	81.88
361.616	82.88
361.843	81.88
362.07	89.88
362.296	91.88
362.523	83.88
362.749	76.88
362.976	73.88
363.203	91.88
363.429	87.88
363.656	83.88
363.882	79.88
364.109	82.88
364.335	79.88
364.562	82.88
364.788	80.88
365.015	90.88
365.241	94.88
365.468	82.88
365.694	63.88
365.92	77.88
366.147	78.88
366.373	83.88
366.599	103.88
366.826	73.88
367.052	77.88
367.278	84.88
367.505	90.88
367.731	90.88
367.957	95.88
368.184	82.88
368.41	91.88
368.636	71.88
368.862	98.88
369.089	81.88
369.315	89.88
369.541	93.88
369.767	100.88
369.993	103.88
370.219	74.88
370.445	88.88
370.672	84.88
370.898	88.88
371.124	91.88
371.35	89.88
371.576	83.88
371.802	81.88
372.028	88.88
372.254	110.88
372.48	97.88
372.706	93.88
372.932	82.88
373.158	81.88
373.384	97.88
373.61	96.88
373.835	92.88
374.061	91.88
374.287	87.88
374.513	79.88
374.739	98.88
374.965	89.88
375.191	92.88
375.416	94.88
375.642	81.88
375.868	82.88
376.094	76.88
376.319	87.88
376.545	92.88
376.771	84.88
376.997	101.88
377.222	82.88
377.448	94.88
377.674	103.88
377.899	106.88
378.125	98.88
378.35	74.88
378.576	99.88
378.802	87.88
379.027	98.88
379.253	98.88
379.478	82.88
379.704	83.88
379.929	92.88
380.155	96.88
380.38	82.88
380.606	112.88
380.831	101.88
381.057	104.88
381.282	98.88
381.507	105.88
381.733	102.88
381.958	108.88
382.184	107.88
382.409	98.88
382.634	103.88
382.86	89.88
383.085	91.88
383.31	95.88
383.535	93.88
383.761	107.88
383.986	101.88
384.211	90.88
384.436	92.88
384.662	110.88
384.887	98.88
385.112	96.88
385.337	102.88
385.562	100.88
385.787	86.88
386.013	95.88
386.238	103.88
386.463	96.88
386.688	94.88
386.913	103.88
387.138	108.88
387.363	91.88
387.588	96.88
387.813	102.88
388.038	87.88
388.263	104.88
388.488	94.88
388.713	102.88
388.938	107.88
389.163	104.88
389.387	95.88
389.612	114.88
389.837	107.88
390.062	99.88
390.287	102.88
390.512	95.88
390.736	97.88
390.961	100.88
391.186	113.88
391.411	103.88
391.636	110.88
391.86	110.88
392.085	104.88
392.31	108.88
392.534	103.88
392.759	94.88
392.984	102.88
393.208	117.88
393.433	112.88
393.658	105.88
393.882	118.88
394.107	103.88
394.331	106.88
394.556	98.88
394.78	102.88
395.005	119.88
395.229	98.88
395.454	104.88
395.678	100.88
395.903	92.88
396.127	114.88
396.352	111.88
396.576	111.88
396.801	109.88
397.025	95.88
397.249	106.88
397.474	120.88
397.698	124.88
397.922	119.88
398.147	106.88
398.371	112.88
398.595	115.88
398.82	115.88
399.044	109.88
399.268	103.88
399.492	109.88
399.717	107.88
399.941	105.88
400.165	116.88
400.389	116.88
400.613	112.88
400.837	129.88
401.062	124.88
401.286	104.88
401.51	120.88
401.734	116.88
401.958	126.88
402.182	107.88
402.406	106.88
402.63	99.88
402.854	121.88
403.078	113.88
403.302	112.88
403.526	115.88
403.75	118.88
403.974	124.88
404.198	120.88
404.422	123.88
404.645	126.88
404.869	119.88
405.093	124.88
405.317	118.88
405.541	115.88
405.765	115.88
405.988	128.88
406.212	130.88
406.436	132.88
406.66	124.88
406.883	123.88
407.107	130.88
407.331	118.88
407.555	113.88
407.778	140.88
408.002	129.88
408.226	127.88
408.449	118.88
408.673	119.88
408.896	121.88
409.12	114.88
409.344	113.88
409.567	115.88
409.791	138.88
410.014	129.88
410.238	116.88
410.461	118.88
410.685	135.88
410.908	120.88
411.132	128.88
411.355	120.88
411.578	122.88
411.802	118.88
412.025	125.88
412.249	131.88
412.472	116.88
412.695	125.88
412.919	122.88
413.142	123.88
413.365	135.88
413.589	120.88
413.812	129.88
414.035	115.88
414.258	119.88
414.482	120.88
414.705	110.88
414.928	112.88
415.151	123.88
415.374	122.88
415.597	126.88
415.821	111.88
416.044	116.88
416.267	137.88
416.49	122.88
416.713	135.88
416.936	115.88
417.159	121.88
417.382	128.88
417.605	112.88
417.828	114.88
418.051	122.88
418.274	122.88
418.497	139.88
418.72	137.88
418.943	135.88
419.166	141.88
419.389	155.88
419.611	144.88
419.834	111.88
420.057	141.88
420.28	153.88
420.503	134.88
420.726	124.88
420.948	134.88
421.171	131.88
421.394	134.88
421.617	126.88
421.839	134.88
422.062	148.88
422.285	128.88
422.507	138.88
422.73	127.88
422.953	114.88
423.175	131.88
423.398	139.88
423.621	140.88
423.843	128.88
424.066	144.88
424.288	153.88
424.511	156.88
424.733	162.88
424.956	138.88
425.178	139.88
425.401	138.88
425.623	138.88
425.846	146.88
426.068	133.88
426.291	136.88
426.513	154.88
426.735	155.88
426.958	133.88
427.18	132.88
427.402	134.88
427.625	146.88
427.847	119.88
428.069	139.88
428.292	140.88
428.514	137.88
428.736	141.88
428.958	150.88
429.181	126.88
429.403	122.88
429.625	130.88
429.847	131.88
430.069	142.88
430.292	124.88
430.514	134.88
430.736	134.88
430.958	120.88
431.18	146.88
431.402	133.88
431.624	129.88
431.846	104.88
432.068	97.88
432.29	109.88
432.512	122.88
432.734	120.88
432.956	134.88
433.178	122.88
433.4	162.88
433.622	132.88
433.844	126.88
434.066	118.88
434.287	114.88
434.509	96.88
434.731	91.88
434.953	110.88
435.175	124.88
435.397	124.88
435.618	131.88
435.84	117.88
436.062	113.88
436.284	131.88
436.505	135.88
436.727	142.88
436.949	123.88
437.17	138.88
437.392	130.88
437.614	119.88
437.835	121.88
438.057	102.88
438.278	123.88
438.5	119.88
438.721	124.88
438.943	138.88
439.165	121.88
439.386	140.88
439.608	145.88
439.829	158.88
440.05	141.88
440.272	153.88
440.493	140.88
440.715	136.88
440.936	152.88
441.158	150.88
441.379	152.88
441.6	159.88
441.822	158.88
442.043	161.88
442.264	150.88
442.486	144.88
442.707	154.88
442.928	138.88
443.149	132.88
443.371	151.88
443.592	132.88
443.813	136.88
444.034	140.88
444.255	148.88
444.476	136.88
444.698	140.88
444.919	141.88
445.14	274.88
445.361	202.88
445.582	163.88
445.803	147.88
446.024	150.88
446.245	150.88
446.466	156.88
446.687	146.88
446.908	168.88
447.129	152.88
447.35	159.88
447.571	146.88
447.792	153.88
448.013	144.88
448.234	127.88
448.455	144.88
448.675	141.88
448.896	136.88
449.117	130.88
449.338	155.88
449.559	136.88
449.779	134.88
450	135.88
450.221	130.88
450.442	134.88
450.662	136.88
450.883	132.88
451.104	143.88
451.324	126.88
451.545	130.88
451.766	137.88
451.986	118.88
452.207	145.88
452.428	139.88
452.648	140.88
452.869	123.88
453.089	114.88
453.31	122.88
453.53	106.88
453.751	95.88
453.971	119.88
454.192	97.88
454.412	112.88
454.633	121.88
454.853	118.88
455.073	129.88
455.294	124.88
455.514	130.88
455.734	115.88
455.955	118.88
456.175	100.88
456.395	112.88
456.616	92.88
456.836	102.88
457.056	116.88
457.276	126.88
457.497	105.88
457.717	109.88
457.937	117.88
458.157	110.88
458.377	99.88
458.598	86.88
458.818	95.88
459.038	84.88
459.258	85.88
459.478	83.88
459.698	90.88
459.918	87.88
460.138	105.88
460.358	117.88
460.578	119.88
460.798	129.88
461.018	123.88
461.238	124.88
461.458	130.88
461.678	135.88
461.898	111.88
462.118	121.88
462.338	118.88
462.558	113.88
462.777	107.88
462.997	106.88
463.217	109.88
463.437	92.88
463.657	118.88
463.876	111.88
464.096	114.88
464.316	113.88
464.536	111.88
464.755	115.88
464.975	119.88
465.195	120.88
465.414	128.88
465.634	113.88
465.854	112.88
466.073	119.88
466.293	121.88
466.512	121.88
466.732	133.88
466.951	139.88
467.171	158.88
467.391	128.88
467.61	138.88
467.829	139.88
468.049	139.88
468.268	144.88
468.488	137.88
468.707	142.88
468.927	143.88
469.146	144.88
469.365	143.88
469.585	139.88
469.804	140.88
470.023	144.88
470.243	150.88
470.462	148.88
470.681	147.88
470.901	157.88
471.12	144.88
471.339	155.88
471.558	151.88
471.777	136.88
471.997	137.88
472.216	120.88
472.435	116.88
472.654	129.88
472.873	110.88
473.092	103.88
473.311	123.88
473.53	122.88
473.749	138.88
473.968	135.88
474.187	136.88
474.406	123.88
474.625	118.88
474.844	154.88
475.063	128.88
475.282	126.88
475.501	130.88
475.72	126.88
475.939	139.88
476.158	123.88
476.377	139.88
476.596	106.88
476.814	122.88
477.033	106.88
477.252	124.88
477.471	138.88
477.69	144.88
477.908	134.88
478.127	158.88
478.346	149.88
478.564	142.88
478.783	146.88
479.002	149.88
479.22	136.88
479.439	130.88
479.658	121.88
479.876	123.88
480.095	113.88
480.313	120.88
480.532	120.88
480.751	106.88
480.969	100.88
481.188	83.88
481.406	96.88
481.624	99.88
481.843	86.88
482.061	102.88
482.28	101.88
482.498	114.88
482.717	104.88
482.935	134.88
483.153	158.88
483.372	154.88
483.59	168.88
483.808	164.88
484.027	149.88
484.245	153.88
484.463	151.88
484.681	162.88
484.9	148.88
485.118	143.88
485.336	127.88
485.554	115.88
485.772	104.88
485.99	116.88
486.209	116.88
486.427	110.88
486.645	113.88
486.863	143.88
487.081	145.88
487.299	146.88
487.517	149.88
487.735	190.88
487.953	200.88
488.171	191.88
488.389	184.88
488.607	178.88
488.825	148.88
489.043	126.88
489.261	133.88
489.479	134.88
489.696	132.88
489.914	145.88
490.132	149.88
490.35	156.88
490.568	168.88
490.786	175.88
491.003	184.88
491.221	182.88
491.439	195.88
491.657	221.88
491.874	230.88
492.092	243.88
492.31	244.88
492.527	252.88
492.745	218.88
492.963	196.88
493.18	188.88
493.398	172.88
493.615	178.88
493.833	191.88
494.05	176.88
494.268	178.88
494.485	169.88
494.703	179.88
494.92	176.88
495.138	176.88
495.355	183.88
495.573	186.88
495.79	169.88
496.008	164.88
496.225	170.88
496.442	172.88
496.66	169.88
496.877	182.88
497.094	164.88
497.312	165.88
497.529	174.88
497.746	144.88
497.963	152.88
498.181	139.88
498.398	124.88
498.615	133.88
498.832	147.88
499.049	128.88
499.267	133.88
499.484	101.88
499.701	145.88
499.918	133.88
500.135	145.88
500.352	140.88
500.569	131.88
500.786	154.88
501.003	147.88
501.22	147.88
501.437	148.88
501.654	143.88
501.871	138.88
502.088	132.88
502.305	137.88
502.522	138.88
502.739	142.88
502.956	122.88
503.172	130.88
503.389	129.88
503.606	131.88
503.823	121.88
504.04	122.88
504.256	127.88
504.473	117.88
504.69	120.88
504.907	128.88
505.123	132.88
505.34	133.88
505.557	136.88
505.773	129.88
505.99	126.88
506.207	127.88
506.423	113.88
506.64	114.88
506.856	113.88
507.073	106.88
507.289	126.88
507.506	126.88
507.722	115.88
507.939	114.88
508.155	124.88
508.372	113.88
508.588	107.88
508.805	105.88
509.021	118.88
509.238	118.88
509.454	111.88
509.67	111.88
509.887	109.88
510.103	96.88
510.319	86.88
510.536	103.88
510.752	100.88
510.968	90.88
511.184	75.88
511.401	97.88
511.617	83.88
511.833	96.88
512.049	89.88
512.265	113.88
512.481	89.88
512.698	97.88
512.914	93.88
513.13	112.88
513.346	95.88
513.562	93.88
513.778	105.88
513.994	88.88
514.21	103.88
514.426	104.88
514.642	87.88
514.858	79.88
515.074	95.88
515.29	93.88
515.506	78.88
515.721	96.88
515.937	91.88
516.153	82.88
516.369	83.88
516.585	88.88
516.801	94.88
517.016	83.88
517.232	88.88
517.448	96.88
517.664	112.88
517.879	98.88
518.095	109.88
518.311	108.88
518.527	105.88
518.742	96.88
518.958	108.88
519.173	95.88
519.389	123.88
519.605	120.88
519.82	124.88
520.036	111.88
520.251	96.88
520.467	104.88
520.682	100.88
520.898	88.88
521.113	111.88
521.329	80.88
521.544	90.88
521.76	97.88
521.975	95.88
522.19	110.88
522.406	102.88
522.621	97.88
522.836	100.88
523.052	99.88
523.267	111.88
523.482	113.88
523.698	111.88
523.913	120.88
524.128	115.88
524.343	97.88
524.559	106.88
524.774	117.88
524.989	135.88
525.204	130.88
525.419	117.88
525.634	119.88
525.849	114.88
526.064	98.88
526.28	116.88
526.495	104.88
526.71	84.88
526.925	90.88
527.14	95.88
527.355	86.88
527.57	91.88
527.785	83.88
527.999	83.88
528.214	106.88
528.429	125.88
528.644	133.88
528.859	140.88
529.074	163.88
529.289	182.88
529.503	168.88
529.718	136.88
529.933	127.88
530.148	104.88
530.363	96.88
530.577	93.88
530.792	102.88
531.007	94.88
531.221	96.88
531.436	84.88
531.651	76.88
531.865	82.88
532.08	87.88
532.295	86.88
532.509	87.88
532.724	92.88
532.938	93.88
533.153	99.88
533.367	109.88
533.582	114.88
533.796	126.88
534.011	100.88
534.225	100.88
534.44	97.88
534.654	114.88
534.868	80.88
535.083	97.88
535.297	103.88
535.511	119.88
535.726	114.88
535.94	105.88
536.154	97.88
536.369	90.88
536.583	78.88
536.797	83.88
537.011	89.88
537.225	98.88
537.44	80.88
537.654	98.88
537.868	87.88
538.082	92.88
538.296	93.88
538.51	130.88
538.724	119.88
538.938	126.88
539.153	123.88
539.367	126.88
539.581	127.88
539.795	120.88
540.009	100.88
540.222	94.88
540.436	110.88
540.65	120.88
540.864	121.88
541.078	153.88
541.292	152.88
541.506	162.88
541.72	188.88
541.934	195.88
542.147	206.88
542.361	196.88
542.575	170.88
542.789	150.88
543.002	140.88
543.216	131.88
543.43	125.88
543.644	130.88
543.857	145.88
544.071	165.88
544.285	162.88
544.498	178.88
544.712	159.88
544.925	183.88
545.139	156.88
545.352	172.88
545.566	151.88
545.779	156.88
545.993	183.88
546.206	163.88
546.42	174.88
546.633	160.88
546.847	178.88
547.06	168.88
547.274	174.88
547.487	167.88
547.7	176.88
547.914	184.88
548.127	177.88
548.34	174.88
548.554	154.88
548.767	148.88
548.98	156.88
549.193	160.88
549.407	152.88
549.62	152.88
549.833	164.88
550.046	150.88
550.259	158.88
550.473	146.88
550.686	148.88
550.899	163.88
551.112	141.88
551.325	136.88
551.538	123.88
551.751	140.88
551.964	122.88
552.177	146.88
552.39	143.88
552.603	141.88
552.816	157.88
553.029	155.88
553.242	148.88
553.455	172.88
553.667	154.88
553.88	180.88
554.093	148.88
554.306	158.88
554.519	153.88
554.732	144.88
554.944	149.88
555.157	141.88
555.37	138.88
555.583	135.88
555.795	134.88
556.008	136.88
556.221	144.88
556.433	136.88
556.646	137.88
556.859	152.88
557.071	136.88
557.284	142.88
557.496	134.88
557.709	141.88
557.921	146.88
558.134	153.88
558.346	146.88
558.559	143.88
558.771	145.88
558.984	146.88
559.196	144.88
559.409	141.88
559.621	124.88
559.833	134.88
560.046	130.88
560.258	130.88
560.47	139.88
560.683	140.88
560.895	141.88
561.107	147.88
561.32	133.88
561.532	140.88
561.744	122.88
561.956	138.88
562.168	131.88
562.381	126.88
562.593	136.88
562.805	134.88
563.017	121.88
563.229	122.88
563.441	131.88
563.653	136.88
563.865	126.88
564.077	135.88
564.289	127.88
564.501	122.88
564.713	120.88
564.925	121.88
565.137	113.88
565.349	128.88
565.561	127.88
565.773	116.88
565.985	105.88
566.197	120.88
566.408	114.88
566.62	119.88
566.832	113.88
567.044	114.88
567.255	123.88
567.467	110.88
567.679	105.88
567.891	100.88
568.102	96.88
568.314	97.88
568.526	110.88
568.737	87.88
568.949	98.88
569.161	78.88
569.372	89.88
569.584	93.88
569.795	84.88
570.007	89.88
570.218	89.88
570.43	98.88
570.641	86.88
570.853	99.88
571.064	99.88
571.276	96.88
571.487	102.88
571.698	120.88
571.91	84.88
572.121	99.88
572.333	101.88
572.544	86.88
572.755	91.88
572.966	90.88
573.178	93.88
573.389	95.88
573.6	83.88
573.811	82.88
574.023	75.88
574.234	78.88
574.445	86.88
574.656	108.88
574.867	102.88
575.078	92.88
575.289	89.88
575.501	79.88
575.712	89.88
575.923	89.88
576.134	99.88
576.345	101.88
576.556	88.88
576.767	95.88
576.978	93.88
577.188	99.88
577.399	103.88
577.61	84.88
577.821	90.88
578.032	103.88
578.243	98.88
578.454	98.88
578.665	97.88
578.875	89.88
579.086	78.88
579.297	83.88
579.508	75.88
579.718	80.88
579.929	79.88
580.14	82.88
580.35	89.88
580.561	96.88
580.772	97.88
580.982	79.88
581.193	85.88
581.403	84.88
581.614	92.88
581.825	96.88
582.035	94.88
582.246	84.88
582.456	96.88
582.667	76.88
582.877	86.88
583.087	83.88
583.298	89.88
583.508	84.88
583.719	81.88
583.929	91.88
584.139	87.88
584.35	87.88
584.56	88.88
584.77	94.88
584.981	88.88
585.191	89.88
585.401	99.88
585.611	97.88
585.821	85.88
586.032	88.88
586.242	86.88
586.452	83.88
586.662	98.88
586.872	80.88
587.082	85.88
587.292	87.88
587.502	96.88
587.713	98.88
587.923	98.88
588.133	90.88
588.343	76.88
588.553	69.88
588.762	88.88
588.972	82.88
589.182	88.88
589.392	84.88
589.602	89.88
589.812	76.88
590.022	84.88
590.232	67.88
590.441	81.88
590.651	96.88
590.861	91.88
591.071	81.88
591.281	87.88
591.49	85.88
591.7	84.88
591.91	82.88
592.119	81.88
592.329	69.88
592.539	78.88
592.748	76.88
592.958	84.88
593.167	82.88
593.377	90.88
593.587	100.88
593.796	83.88
594.006	96.88
594.215	76.88
594.424	74.88
594.634	91.88
594.843	90.88
595.053	89.88
595.262	98.88
595.472	95.88
595.681	89.88
595.89	90.88
596.1	66.88
596.309	85.88
596.518	98.88
596.727	94.88
596.937	102.88
597.146	105.88
597.355	103.88
597.564	93.88
597.774	91.88
597.983	89.88
598.192	78.88
598.401	83.88
598.61	98.88
598.819	83.88
599.028	98.88
599.237	89.88
599.446	98.88
599.655	100.88
599.864	94.88
600.073	88.88
600.282	78.88
600.491	110.88
600.7	89.88
600.909	79.88
601.118	100.88
601.327	106.88
601.536	115.88
601.745	112.88
601.953	107.88
602.162	98.88
602.371	120.88
602.58	119.88
602.789	113.88
602.997	112.88
603.206	99.88
603.415	115.88
603.623	108.88
603.832	114.88
604.041	110.88
604.249	98.88
604.458	87.88
604.666	86.88
604.875	101.88
605.084	109.88
605.292	102.88
605.501	97.88
605.709	112.88
605.918	120.88
606.126	119.88
606.334	118.88
606.543	120.88
606.751	120.88
606.96	127.88
607.168	122.88
607.376	112.88
607.585	126.88
607.793	105.88
608.001	111.88
608.21	106.88
608.418	100.88
608.626	112.88
608.834	110.88
609.043	114.88
609.251	92.88
609.459	115.88
609.667	123.88
609.875	107.88
610.083	118.88
610.291	122.88
610.499	107.88
610.707	120.88
610.916	112.88
611.124	120.88
611.332	112.88
611.54	124.88
611.748	110.88
611.955	117.88
612.163	122.88
612.371	106.88
612.579	118.88
612.787	113.88
612.995	119.88
613.203	125.88
613.411	106.88
613.618	105.88
613.826	116.88
614.034	109.88
614.242	115.88
614.449	117.88
614.657	106.88
614.865	117.88
615.072	108.88
615.28	114.88
615.488	122.88
615.695	110.88
615.903	118.88
616.111	122.88
616.318	133.88
616.526	101.88
616.733	102.88
616.941	110.88
617.148	121.88
617.356	108.88
617.563	117.88
617.771	114.88
617.978	98.88
618.185	107.88
618.393	120.88
618.6	113.88
618.807	115.88
619.015	119.88
619.222	124.88
619.429	99.88
619.637	112.88
619.844	92.88
620.051	99.88
620.258	107.88
620.466	95.88
620.673	108.88
620.88	96.88
621.087	106.88
621.294	104.88
621.501	111.88
621.708	98.88
621.915	103.88
622.122	110.88
622.329	118.88
622.536	95.88
622.743	114.88
622.95	116.88
623.157	123.88
623.364	105.88
623.571	105.88
623.778	103.88
623.985	107.88
624.192	117.88
624.399	101.88
624.606	107.88
624.812	105.88
625.019	108.88
625.226	100.88
625.433	98.88
625.639	92.88
625.846	104.88
626.053	88.88
626.259	99.88
626.466	92.88
626.673	98.88
626.879	98.88
627.086	101.88
627.293	102.88
627.499	104.88
627.706	103.88
627.912	92.88
628.119	117.88
628.325	112.88
628.532	106.88
628.738	110.88
628.945	105.88
629.151	105.88
629.357	115.88
629.564	95.88
629.77	120.88
629.976	107.88
630.183	95.88
630.389	98.88
630.595	100.88
630.802	98.88
631.008	107.88
631.214	92.88
631.42	102.88
631.627	95.88
631.833	102.88
632.039	112.88
632.245	94.88
632.451	102.88
632.657	107.88
632.863	102.88
633.069	105.88
633.275	108.88
633.481	103.88
633.688	101.88
633.893	98.88
634.099	92.88
634.305	105.88
634.511	103.88
634.717	102.88
634.923	99.88
635.129	96.88
635.335	106.88
635.541	106.88
635.747	99.88
635.952	96.88
636.158	108.88
636.364	95.88
636.57	107.88
636.775	108.88
636.981	105.88
637.187	110.88
637.392	98.88
637.598	116.88
637.804	98.88
638.009	105.88
638.215	119.88
638.421	104.88
638.626	97.88
638.832	102.88
639.037	102.88
639.243	92.88
639.448	102.88
639.654	96.88
639.859	99.88
640.065	83.88
640.27	100.88
640.475	93.88
640.681	96.88
640.886	97.88
641.091	101.88
641.297	98.88
641.502	111.88
641.707	107.88
641.913	110.88
642.118	108.88
642.323	101.88
642.528	89.88
642.733	113.88
642.939	110.88
643.144	102.88
643.349	103.88
643.554	83.88
643.759	83.88
643.964	106.88
644.169	109.88
644.374	101.88
644.579	107.88
644.784	116.88
644.989	103.88
645.194	92.88
645.399	106.88
645.604	96.88
645.809	103.88
646.014	94.88
646.219	97.88
646.423	94.88
646.628	100.88
646.833	107.88
647.038	108.88
647.243	94.88
647.447	104.88
647.652	110.88
647.857	100.88
648.062	97.88
648.266	87.88
648.471	95.88
648.676	104.88
648.88	79.88
649.085	98.88
649.289	101.88
649.494	102.88
649.698	99.88
649.903	99.88
650.107	106.88
650.312	106.88
650.516	99.88
650.721	90.88
650.925	95.88
651.13	92.88
651.334	102.88
651.539	110.88
651.743	90.88
651.947	85.88
652.152	100.88
652.356	86.88
652.56	86.88
652.764	90.88
652.969	98.88
653.173	102.88
653.377	100.88
653.581	98.88
653.785	87.88
653.99	89.88
654.194	71.88
654.398	89.88
654.602	84.88
654.806	79.88
655.01	93.88
655.214	82.88
655.418	101.88
655.622	82.88
655.826	82.88
656.03	82.88
656.234	83.88
656.438	94.88
656.642	71.88
656.846	101.88
657.049	93.88
657.253	101.88
657.457	85.88
657.661	71.88
657.865	82.88
658.068	86.88
658.272	80.88
658.476	79.88
658.68	83.88
658.883	90.88
659.087	86.88
659.291	80.88
659.494	82.88
659.698	88.88
659.901	100.88
660.105	79.88
660.309	77.88
660.512	84.88
660.716	98.88
660.919	88.88
661.123	82.88
661.326	83.88
661.53	80.88
661.733	93.88
661.936	79.88
662.14	74.88
662.343	71.88
662.546	82.88
662.75	74.88
662.953	93.88
663.156	78.88
663.36	82.88
663.563	84.88
663.766	77.88
663.969	84.88
664.173	70.88
664.376	75.88
664.579	79.88
664.782	77.88
664.985	78.88
665.188	81.88
665.391	89.88
665.594	84.88
665.797	68.88
666	81.88
666.203	89.88
666.406	79.88
666.609	80.88
666.812	100.88
667.015	85.88
667.218	72.88
667.421	82.88
667.624	86.88
667.827	75.88
668.03	81.88
668.232	71.88
668.435	91.88
668.638	94.88
668.841	94.88
669.043	83.88
669.246	78.88
669.449	68.88
669.651	78.88
669.854	71.88
670.057	77.88
670.259	80.88
670.462	77.88
670.665	71.88
670.867	88.88
671.07	86.88
671.272	92.88
671.475	74.88
671.677	75.88
671.88	74.88
672.082	77.88
672.284	92.88
672.487	83.88
672.689	86.88
672.892	84.88
