Data from Location6.07152019.Energy5.Lamp.07192019.3%Agarose_HRD10591_16-11-44-395.txt Node
Date: Fri Jul 19 16:11:44 EDT 2019
User: cochatt
Spectrometer: HR+D1059
Trigger mode: 1
Integration Time (sec): 1.000000E-1
Scans to average: 1
Electric dark correction enabled: true
Nonlinearity correction enabled: false
Boxcar width: 0
XAxis mode: Wavelengths
Number of Pixels in Spectrum: 2048
>>>>>Begin Spectral Data<<<<<
223.165	-14.31
223.4	-14.31
223.635	-14.31
223.869	-11.31
224.104	-14.31
224.338	-9.31
224.573	-16.31
224.808	-19.31
225.042	-6.31
225.277	-8.31
225.511	0.69
225.746	-4.31
225.98	23.69
226.215	11.69
226.449	17.69
226.683	1.69
226.918	26.69
227.152	21.69
227.387	40.69
227.621	41.69
227.856	36.69
228.09	57.69
228.324	48.69
228.559	64.69
228.793	63.69
229.027	64.69
229.262	48.69
229.496	67.69
229.73	55.69
229.964	75.69
230.199	69.69
230.433	76.69
230.667	56.69
230.901	70.69
231.136	64.69
231.37	78.69
231.604	73.69
231.838	68.69
232.072	73.69
232.306	82.69
232.541	88.69
232.775	76.69
233.009	82.69
233.243	84.69
233.477	80.69
233.711	74.69
233.945	80.69
234.179	80.69
234.413	79.69
234.647	76.69
234.881	70.69
235.115	74.69
235.349	80.69
235.583	80.69
235.817	74.69
236.051	80.69
236.285	80.69
236.519	71.69
236.753	74.69
236.987	69.69
237.221	63.69
237.455	83.69
237.689	77.69
237.922	79.69
238.156	73.69
238.39	75.69
238.624	72.69
238.858	78.69
239.091	80.69
239.325	86.69
239.559	76.69
239.793	71.69
240.027	78.69
240.26	92.69
240.494	62.69
240.728	70.69
240.961	69.69
241.195	74.69
241.429	74.69
241.662	66.69
241.896	69.69
242.13	74.69
242.363	76.69
242.597	72.69
242.83	80.69
243.064	72.69
243.298	70.69
243.531	79.69
243.765	76.69
243.998	71.69
244.232	78.69
244.465	84.69
244.699	68.69
244.932	88.69
245.166	80.69
245.399	77.69
245.633	62.69
245.866	74.69
246.099	81.69
246.333	66.69
246.566	69.69
246.8	81.69
247.033	81.69
247.266	74.69
247.5	70.69
247.733	65.69
247.966	63.69
248.2	94.69
248.433	76.69
248.666	67.69
248.899	76.69
249.133	74.69
249.366	95.69
249.599	85.69
249.832	76.69
250.066	82.69
250.299	75.69
250.532	79.69
250.765	71.69
250.998	74.69
251.231	73.69
251.465	74.69
251.698	74.69
251.931	72.69
252.164	82.69
252.397	76.69
252.63	81.69
252.863	87.69
253.096	83.69
253.329	72.69
253.562	65.69
253.795	68.69
254.028	80.69
254.261	87.69
254.494	81.69
254.727	79.69
254.96	75.69
255.193	84.69
255.426	84.69
255.659	70.69
255.892	85.69
256.124	72.69
256.357	72.69
256.59	83.69
256.823	85.69
257.056	75.69
257.289	71.69
257.521	71.69
257.754	78.69
257.987	72.69
258.22	65.69
258.452	82.69
258.685	80.69
258.918	79.69
259.151	89.69
259.383	82.69
259.616	86.69
259.849	87.69
260.081	77.69
260.314	76.69
260.547	80.69
260.779	69.69
261.012	93.69
261.244	70.69
261.477	80.69
261.71	68.69
261.942	81.69
262.175	80.69
262.407	80.69
262.64	62.69
262.872	82.69
263.105	80.69
263.337	72.69
263.57	72.69
263.802	65.69
264.035	81.69
264.267	86.69
264.499	98.69
264.732	79.69
264.964	92.69
265.197	68.69
265.429	71.69
265.661	78.69
265.894	81.69
266.126	78.69
266.358	74.69
266.591	72.69
266.823	77.69
267.055	88.69
267.287	81.69
267.52	83.69
267.752	84.69
267.984	93.69
268.216	68.69
268.448	72.69
268.681	66.69
268.913	78.69
269.145	73.69
269.377	74.69
269.609	79.69
269.841	91.69
270.073	75.69
270.306	68.69
270.538	81.69
270.77	80.69
271.002	84.69
271.234	71.69
271.466	85.69
271.698	68.69
271.93	60.69
272.162	85.69
272.394	92.69
272.626	73.69
272.858	91.69
273.09	86.69
273.322	93.69
273.553	86.69
273.785	94.69
274.017	87.69
274.249	81.69
274.481	78.69
274.713	71.69
274.945	88.69
275.176	87.69
275.408	89.69
275.64	71.69
275.872	76.69
276.104	74.69
276.335	81.69
276.567	72.69
276.799	86.69
277.031	74.69
277.262	82.69
277.494	90.69
277.726	86.69
277.957	93.69
278.189	85.69
278.421	82.69
278.652	71.69
278.884	82.69
279.115	86.69
279.347	83.69
279.579	97.69
279.81	92.69
280.042	86.69
280.273	86.69
280.505	78.69
280.736	70.69
280.968	77.69
281.199	72.69
281.431	76.69
281.662	78.69
281.894	87.69
282.125	88.69
282.356	97.69
282.588	79.69
282.819	73.69
283.051	69.69
283.282	75.69
283.513	87.69
283.745	79.69
283.976	91.69
284.207	91.69
284.439	79.69
284.67	89.69
284.901	90.69
285.132	67.69
285.364	74.69
285.595	82.69
285.826	93.69
286.057	79.69
286.288	80.69
286.52	72.69
286.751	76.69
286.982	83.69
287.213	90.69
287.444	79.69
287.675	66.69
287.906	73.69
288.138	78.69
288.369	79.69
288.6	82.69
288.831	74.69
289.062	89.69
289.293	65.69
289.524	72.69
289.755	84.69
289.986	71.69
290.217	82.69
290.448	80.69
290.679	81.69
290.91	82.69
291.141	73.69
291.371	78.69
291.602	76.69
291.833	81.69
292.064	83.69
292.295	96.69
292.526	88.69
292.757	72.69
292.987	87.69
293.218	81.69
293.449	87.69
293.68	84.69
293.91	85.69
294.141	95.69
294.372	78.69
294.603	60.69
294.833	83.69
295.064	80.69
295.295	75.69
295.525	70.69
295.756	79.69
295.987	80.69
296.217	92.69
296.448	84.69
296.679	74.69
296.909	87.69
297.14	89.69
297.37	80.69
297.601	84.69
297.831	98.69
298.062	75.69
298.292	88.69
298.523	67.69
298.753	77.69
298.984	80.69
299.214	78.69
299.445	78.69
299.675	95.69
299.905	80.69
300.136	93.69
300.366	65.69
300.597	88.69
300.827	92.69
301.057	72.69
301.288	71.69
301.518	81.69
301.748	64.69
301.979	74.69
302.209	80.69
302.439	88.69
302.669	75.69
302.9	77.69
303.13	84.69
303.36	74.69
303.59	74.69
303.82	85.69
304.051	90.69
304.281	93.69
304.511	80.69
304.741	76.69
304.971	90.69
305.201	80.69
305.431	87.69
305.661	81.69
305.891	86.69
306.121	81.69
306.352	86.69
306.582	76.69
306.812	64.69
307.042	73.69
307.272	76.69
307.502	72.69
307.731	75.69
307.961	83.69
308.191	78.69
308.421	75.69
308.651	76.69
308.881	77.69
309.111	104.69
309.341	70.69
309.571	85.69
309.8	80.69
310.03	68.69
310.26	86.69
310.49	72.69
310.72	69.69
310.949	74.69
311.179	76.69
311.409	81.69
311.639	86.69
311.868	81.69
312.098	86.69
312.328	89.69
312.557	79.69
312.787	79.69
313.017	76.69
313.246	89.69
313.476	82.69
313.706	86.69
313.935	77.69
314.165	82.69
314.394	69.69
314.624	78.69
314.853	80.69
315.083	87.69
315.312	81.69
315.542	77.69
315.771	73.69
316.001	67.69
316.23	68.69
316.46	81.69
316.689	81.69
316.919	82.69
317.148	64.69
317.377	83.69
317.607	80.69
317.836	93.69
318.065	82.69
318.295	80.69
318.524	78.69
318.753	78.69
318.983	81.69
319.212	81.69
319.441	85.69
319.67	48.69
319.9	85.69
320.129	80.69
320.358	85.69
320.587	78.69
320.816	79.69
321.046	94.69
321.275	84.69
321.504	73.69
321.733	93.69
321.962	78.69
322.191	73.69
322.42	76.69
322.649	86.69
322.878	88.69
323.108	77.69
323.337	78.69
323.566	75.69
323.795	90.69
324.024	84.69
324.253	89.69
324.482	87.69
324.71	86.69
324.939	76.69
325.168	92.69
325.397	85.69
325.626	84.69
325.855	84.69
326.084	92.69
326.313	87.69
326.542	84.69
326.77	80.69
326.999	81.69
327.228	75.69
327.457	73.69
327.686	80.69
327.914	76.69
328.143	73.69
328.372	84.69
328.6	80.69
328.829	65.69
329.058	77.69
329.287	87.69
329.515	83.69
329.744	86.69
329.972	74.69
330.201	79.69
330.43	78.69
330.658	68.69
330.887	79.69
331.115	86.69
331.344	86.69
331.572	91.69
331.801	78.69
332.03	72.69
332.258	86.69
332.486	74.69
332.715	71.69
332.943	75.69
333.172	84.69
333.4	80.69
333.629	85.69
333.857	81.69
334.085	80.69
334.314	83.69
334.542	86.69
334.771	78.69
334.999	75.69
335.227	69.69
335.455	83.69
335.684	78.69
335.912	81.69
336.14	79.69
336.369	76.69
336.597	83.69
336.825	83.69
337.053	79.69
337.281	82.69
337.51	83.69
337.738	74.69
337.966	82.69
338.194	82.69
338.422	80.69
338.65	94.69
338.878	68.69
339.106	92.69
339.334	86.69
339.562	90.69
339.79	75.69
340.018	82.69
340.246	76.69
340.474	80.69
340.702	71.69
340.93	69.69
341.158	70.69
341.386	87.69
341.614	70.69
341.842	76.69
342.07	77.69
342.298	89.69
342.526	84.69
342.754	74.69
342.981	75.69
343.209	88.69
343.437	78.69
343.665	77.69
343.893	91.69
344.12	65.69
344.348	77.69
344.576	81.69
344.804	76.69
345.031	80.69
345.259	78.69
345.487	92.69
345.714	93.69
345.942	89.69
346.17	79.69
346.397	76.69
346.625	84.69
346.853	73.69
347.08	75.69
347.308	77.69
347.535	81.69
347.763	95.69
347.99	93.69
348.218	82.69
348.445	75.69
348.673	77.69
348.9	81.69
349.128	83.69
349.355	73.69
349.583	88.69
349.81	85.69
350.037	88.69
350.265	87.69
350.492	72.69
350.72	79.69
350.947	72.69
351.174	73.69
351.402	77.69
351.629	79.69
351.856	76.69
352.083	82.69
352.311	81.69
352.538	80.69
352.765	85.69
352.992	80.69
353.22	76.69
353.447	77.69
353.674	65.69
353.901	79.69
354.128	69.69
354.355	65.69
354.583	95.69
354.81	74.69
355.037	87.69
355.264	79.69
355.491	78.69
355.718	72.69
355.945	70.69
356.172	76.69
356.399	74.69
356.626	84.69
356.853	80.69
357.08	84.69
357.307	83.69
357.534	77.69
357.761	79.69
357.988	77.69
358.215	92.69
358.441	90.69
358.668	89.69
358.895	89.69
359.122	80.69
359.349	84.69
359.576	87.69
359.802	78.69
360.029	84.69
360.256	79.69
360.483	72.69
360.709	80.69
360.936	85.69
361.163	71.69
361.39	78.69
361.616	79.69
361.843	66.69
362.07	79.69
362.296	93.69
362.523	64.69
362.749	82.69
362.976	64.69
363.203	94.69
363.429	80.69
363.656	80.69
363.882	73.69
364.109	92.69
364.335	87.69
364.562	79.69
364.788	83.69
365.015	78.69
365.241	95.69
365.468	83.69
365.694	82.69
365.92	80.69
366.147	64.69
366.373	87.69
366.599	81.69
366.826	84.69
367.052	78.69
367.278	89.69
367.505	88.69
367.731	97.69
367.957	90.69
368.184	85.69
368.41	92.69
368.636	94.69
368.862	90.69
369.089	93.69
369.315	78.69
369.541	84.69
369.767	91.69
369.993	86.69
370.219	104.69
370.445	93.69
370.672	86.69
370.898	79.69
371.124	84.69
371.35	87.69
371.576	85.69
371.802	81.69
372.028	85.69
372.254	88.69
372.48	92.69
372.706	92.69
372.932	86.69
373.158	65.69
373.384	87.69
373.61	81.69
373.835	90.69
374.061	97.69
374.287	77.69
374.513	72.69
374.739	82.69
374.965	86.69
375.191	95.69
375.416	92.69
375.642	89.69
375.868	81.69
376.094	88.69
376.319	85.69
376.545	96.69
376.771	85.69
376.997	91.69
377.222	82.69
377.448	72.69
377.674	96.69
377.899	86.69
378.125	90.69
378.35	87.69
378.576	95.69
378.802	100.69
379.027	108.69
379.253	104.69
379.478	89.69
379.704	93.69
379.929	89.69
380.155	93.69
380.38	111.69
380.606	104.69
380.831	83.69
381.057	98.69
381.282	101.69
381.507	99.69
381.733	102.69
381.958	85.69
382.184	94.69
382.409	97.69
382.634	89.69
382.86	90.69
383.085	108.69
383.31	101.69
383.535	88.69
383.761	76.69
383.986	89.69
384.211	105.69
384.436	112.69
384.662	87.69
384.887	79.69
385.112	95.69
385.337	82.69
385.562	86.69
385.787	110.69
386.013	116.69
386.238	103.69
386.463	100.69
386.688	85.69
386.913	91.69
387.138	100.69
387.363	91.69
387.588	98.69
387.813	101.69
388.038	90.69
388.263	94.69
388.488	105.69
388.713	95.69
388.938	109.69
389.163	104.69
389.387	91.69
389.612	110.69
389.837	108.69
390.062	104.69
390.287	102.69
390.512	104.69
390.736	94.69
390.961	102.69
391.186	92.69
391.411	118.69
391.636	114.69
391.86	105.69
392.085	92.69
392.31	108.69
392.534	103.69
392.759	92.69
392.984	100.69
393.208	105.69
393.433	114.69
393.658	108.69
393.882	88.69
394.107	99.69
394.331	103.69
394.556	91.69
394.78	134.69
395.005	114.69
395.229	120.69
395.454	113.69
395.678	110.69
395.903	117.69
396.127	99.69
396.352	97.69
396.576	110.69
396.801	94.69
397.025	94.69
397.249	95.69
397.474	99.69
397.698	97.69
397.922	110.69
398.147	99.69
398.371	116.69
398.595	132.69
398.82	118.69
399.044	114.69
399.268	104.69
399.492	100.69
399.717	112.69
399.941	115.69
400.165	124.69
400.389	100.69
400.613	108.69
400.837	105.69
401.062	103.69
401.286	114.69
401.51	114.69
401.734	101.69
401.958	122.69
402.182	111.69
402.406	102.69
402.63	109.69
402.854	116.69
403.078	100.69
403.302	112.69
403.526	115.69
403.75	111.69
403.974	109.69
404.198	120.69
404.422	109.69
404.645	124.69
404.869	109.69
405.093	104.69
405.317	120.69
405.541	111.69
405.765	114.69
405.988	119.69
406.212	102.69
406.436	105.69
406.66	124.69
406.883	120.69
407.107	111.69
407.331	118.69
407.555	119.69
407.778	112.69
408.002	122.69
408.226	114.69
408.449	113.69
408.673	113.69
408.896	120.69
409.12	126.69
409.344	118.69
409.567	115.69
409.791	111.69
410.014	118.69
410.238	127.69
410.461	126.69
410.685	120.69
410.908	126.69
411.132	126.69
411.355	122.69
411.578	114.69
411.802	110.69
412.025	116.69
412.249	118.69
412.472	108.69
412.695	137.69
412.919	122.69
413.142	116.69
413.365	126.69
413.589	123.69
413.812	112.69
414.035	121.69
414.258	128.69
414.482	120.69
414.705	132.69
414.928	127.69
415.151	116.69
415.374	139.69
415.597	115.69
415.821	119.69
416.044	117.69
416.267	122.69
416.49	132.69
416.713	124.69
416.936	133.69
417.159	133.69
417.382	120.69
417.605	132.69
417.828	132.69
418.051	145.69
418.274	132.69
418.497	133.69
418.72	130.69
418.943	130.69
419.166	137.69
419.389	143.69
419.611	134.69
419.834	133.69
420.057	132.69
420.28	152.69
420.503	142.69
420.726	139.69
420.948	132.69
421.171	136.69
421.394	135.69
421.617	142.69
421.839	148.69
422.062	155.69
422.285	128.69
422.507	126.69
422.73	114.69
422.953	130.69
423.175	119.69
423.398	128.69
423.621	131.69
423.843	120.69
424.066	156.69
424.288	136.69
424.511	150.69
424.733	130.69
424.956	149.69
425.178	138.69
425.401	142.69
425.623	134.69
425.846	121.69
426.068	130.69
426.291	135.69
426.513	126.69
426.735	128.69
426.958	136.69
427.18	130.69
427.402	128.69
427.625	115.69
427.847	124.69
428.069	133.69
428.292	145.69
428.514	129.69
428.736	130.69
428.958	131.69
429.181	131.69
429.403	130.69
429.625	138.69
429.847	153.69
430.069	128.69
430.292	150.69
430.514	146.69
430.736	121.69
430.958	144.69
431.18	121.69
431.402	128.69
431.624	124.69
431.846	120.69
432.068	111.69
432.29	100.69
432.512	100.69
432.734	123.69
432.956	126.69
433.178	136.69
433.4	134.69
433.622	134.69
433.844	130.69
434.066	126.69
434.287	117.69
434.509	101.69
434.731	85.69
434.953	112.69
435.175	112.69
435.397	129.69
435.618	123.69
435.84	125.69
436.062	120.69
436.284	106.69
436.505	120.69
436.727	129.69
436.949	140.69
437.17	132.69
437.392	135.69
437.614	118.69
437.835	106.69
438.057	104.69
438.278	127.69
438.5	119.69
438.721	125.69
438.943	130.69
439.165	141.69
439.386	136.69
439.608	146.69
439.829	140.69
440.05	156.69
440.272	161.69
440.493	153.69
440.715	124.69
440.936	156.69
441.158	150.69
441.379	156.69
441.6	136.69
441.822	144.69
442.043	156.69
442.264	150.69
442.486	126.69
442.707	134.69
442.928	146.69
443.149	135.69
443.371	140.69
443.592	150.69
443.813	152.69
444.034	142.69
444.255	133.69
444.476	128.69
444.698	134.69
444.919	162.69
445.14	276.69
445.361	216.69
445.582	154.69
445.803	150.69
446.024	156.69
446.245	148.69
446.466	152.69
446.687	152.69
446.908	148.69
447.129	164.69
447.35	176.69
447.571	154.69
447.792	144.69
448.013	139.69
448.234	167.69
448.455	137.69
448.675	134.69
448.896	117.69
449.117	135.69
449.338	149.69
449.559	136.69
449.779	146.69
450	139.69
450.221	108.69
450.442	146.69
450.662	135.69
450.883	138.69
451.104	135.69
451.324	129.69
451.545	122.69
451.766	128.69
451.986	122.69
452.207	133.69
452.428	135.69
452.648	137.69
452.869	121.69
453.089	121.69
453.31	117.69
453.53	115.69
453.751	111.69
453.971	97.69
454.192	90.69
454.412	110.69
454.633	124.69
454.853	124.69
455.073	132.69
455.294	130.69
455.514	119.69
455.734	120.69
455.955	120.69
456.175	134.69
456.395	99.69
456.616	110.69
456.836	110.69
457.056	109.69
457.276	107.69
457.497	124.69
457.717	97.69
457.937	113.69
458.157	93.69
458.377	101.69
458.598	101.69
458.818	100.69
459.038	88.69
459.258	87.69
459.478	93.69
459.698	102.69
459.918	110.69
460.138	116.69
460.358	115.69
460.578	134.69
460.798	112.69
461.018	118.69
461.238	121.69
461.458	105.69
461.678	120.69
461.898	108.69
462.118	122.69
462.338	125.69
462.558	105.69
462.777	119.69
462.997	113.69
463.217	121.69
463.437	119.69
463.657	121.69
463.876	110.69
464.096	102.69
464.316	91.69
464.536	103.69
464.755	131.69
464.975	126.69
465.195	120.69
465.414	120.69
465.634	120.69
465.854	127.69
466.073	130.69
466.293	122.69
466.512	121.69
466.732	128.69
466.951	132.69
467.171	135.69
467.391	147.69
467.61	134.69
467.829	128.69
468.049	142.69
468.268	120.69
468.488	124.69
468.707	127.69
468.927	132.69
469.146	136.69
469.365	136.69
469.585	135.69
469.804	136.69
470.023	137.69
470.243	143.69
470.462	148.69
470.681	153.69
470.901	139.69
471.12	153.69
471.339	145.69
471.558	134.69
471.777	146.69
471.997	144.69
472.216	144.69
472.435	129.69
472.654	113.69
472.873	100.69
473.092	101.69
473.311	127.69
473.53	124.69
473.749	127.69
473.968	132.69
474.187	130.69
474.406	113.69
474.625	121.69
474.844	142.69
475.063	113.69
475.282	126.69
475.501	124.69
475.72	132.69
475.939	106.69
476.158	129.69
476.377	119.69
476.596	115.69
476.814	129.69
477.033	118.69
477.252	124.69
477.471	138.69
477.69	129.69
477.908	126.69
478.127	140.69
478.346	136.69
478.564	134.69
478.783	130.69
479.002	146.69
479.22	145.69
479.439	137.69
479.658	145.69
479.876	115.69
480.095	119.69
480.313	122.69
480.532	112.69
480.751	108.69
480.969	99.69
481.188	92.69
481.406	90.69
481.624	87.69
481.843	82.69
482.061	96.69
482.28	108.69
482.498	106.69
482.717	100.69
482.935	124.69
483.153	138.69
483.372	134.69
483.59	137.69
483.808	153.69
484.027	153.69
484.245	143.69
484.463	161.69
484.681	176.69
484.9	151.69
485.118	163.69
485.336	120.69
485.554	87.69
485.772	108.69
485.99	106.69
486.209	109.69
486.427	96.69
486.645	120.69
486.863	148.69
487.081	137.69
487.299	137.69
487.517	140.69
487.735	182.69
487.953	188.69
488.171	190.69
488.389	178.69
488.607	174.69
488.825	154.69
489.043	135.69
489.261	153.69
489.479	137.69
489.696	149.69
489.914	158.69
490.132	142.69
490.35	153.69
490.568	160.69
490.786	174.69
491.003	177.69
491.221	182.69
491.439	196.69
491.657	202.69
491.874	213.69
492.092	235.69
492.31	244.69
492.527	228.69
492.745	219.69
492.963	202.69
493.18	204.69
493.398	191.69
493.615	188.69
493.833	178.69
494.05	176.69
494.268	157.69
494.485	169.69
494.703	171.69
494.92	179.69
495.138	180.69
495.355	164.69
495.573	165.69
495.79	178.69
496.008	168.69
496.225	158.69
496.442	162.69
496.66	171.69
496.877	155.69
497.094	177.69
497.312	156.69
497.529	165.69
497.746	163.69
497.963	137.69
498.181	132.69
498.398	119.69
498.615	128.69
498.832	113.69
499.049	119.69
499.267	108.69
499.484	133.69
499.701	146.69
499.918	132.69
500.135	143.69
500.352	139.69
500.569	138.69
500.786	149.69
501.003	160.69
501.22	136.69
501.437	134.69
501.654	135.69
501.871	130.69
502.088	128.69
502.305	133.69
502.522	129.69
502.739	131.69
502.956	134.69
503.172	125.69
503.389	129.69
503.606	102.69
503.823	124.69
504.04	124.69
504.256	129.69
504.473	108.69
504.69	105.69
504.907	122.69
505.123	132.69
505.34	126.69
505.557	130.69
505.773	135.69
505.99	124.69
506.207	115.69
506.423	120.69
506.64	117.69
506.856	121.69
507.073	123.69
507.289	130.69
507.506	118.69
507.722	118.69
507.939	118.69
508.155	110.69
508.372	117.69
508.588	126.69
508.805	126.69
509.021	119.69
509.238	121.69
509.454	108.69
509.67	92.69
509.887	100.69
510.103	110.69
510.319	103.69
510.536	97.69
510.752	87.69
510.968	97.69
511.184	80.69
511.401	87.69
511.617	71.69
511.833	97.69
512.049	85.69
512.265	93.69
512.481	110.69
512.698	92.69
512.914	100.69
513.13	95.69
513.346	93.69
513.562	81.69
513.778	93.69
513.994	91.69
514.21	93.69
514.426	87.69
514.642	90.69
514.858	84.69
515.074	88.69
515.29	88.69
515.506	87.69
515.721	93.69
515.937	91.69
516.153	82.69
516.369	96.69
516.585	75.69
516.801	91.69
517.016	90.69
517.232	93.69
517.448	103.69
517.664	105.69
517.879	80.69
518.095	77.69
518.311	89.69
518.527	91.69
518.742	89.69
518.958	87.69
519.173	109.69
519.389	103.69
519.605	104.69
519.82	106.69
520.036	111.69
520.251	94.69
520.467	103.69
520.682	108.69
520.898	95.69
521.113	103.69
521.329	82.69
521.544	96.69
521.76	93.69
521.975	89.69
522.19	112.69
522.406	93.69
522.621	108.69
522.836	110.69
523.052	89.69
523.267	105.69
523.482	120.69
523.698	119.69
523.913	128.69
524.128	122.69
524.343	122.69
524.559	125.69
524.774	127.69
524.989	116.69
525.204	106.69
525.419	117.69
525.634	119.69
525.849	121.69
526.064	113.69
526.28	110.69
526.495	105.69
526.71	87.69
526.925	73.69
527.14	78.69
527.355	97.69
527.57	91.69
527.785	87.69
527.999	99.69
528.214	111.69
528.429	110.69
528.644	126.69
528.859	150.69
529.074	170.69
529.289	168.69
529.503	170.69
529.718	136.69
529.933	128.69
530.148	110.69
530.363	107.69
530.577	96.69
530.792	90.69
531.007	86.69
531.221	82.69
531.436	77.69
531.651	94.69
531.865	82.69
532.08	93.69
532.295	87.69
532.509	72.69
532.724	82.69
532.938	76.69
533.153	83.69
533.367	105.69
533.582	131.69
533.796	124.69
534.011	108.69
534.225	99.69
534.44	89.69
534.654	99.69
534.868	89.69
535.083	104.69
535.297	104.69
535.511	105.69
535.726	98.69
535.94	101.69
536.154	98.69
536.369	91.69
536.583	90.69
536.797	94.69
537.011	81.69
537.225	83.69
537.44	98.69
537.654	95.69
537.868	87.69
538.082	90.69
538.296	115.69
538.51	108.69
538.724	112.69
538.938	124.69
539.153	119.69
539.367	110.69
539.581	114.69
539.795	103.69
540.009	106.69
540.222	109.69
540.436	102.69
540.65	110.69
540.864	128.69
541.078	138.69
541.292	149.69
541.506	158.69
541.72	181.69
541.934	192.69
542.147	196.69
542.361	189.69
542.575	187.69
542.789	159.69
543.002	161.69
543.216	128.69
543.43	127.69
543.644	123.69
543.857	136.69
544.071	151.69
544.285	160.69
544.498	154.69
544.712	169.69
544.925	167.69
545.139	141.69
545.352	166.69
545.566	166.69
545.779	158.69
545.993	171.69
546.206	168.69
546.42	181.69
546.633	185.69
546.847	193.69
547.06	180.69
547.274	157.69
547.487	185.69
547.7	164.69
547.914	177.69
548.127	166.69
548.34	158.69
548.554	156.69
548.767	162.69
548.98	150.69
549.193	150.69
549.407	163.69
549.62	164.69
549.833	156.69
550.046	160.69
550.259	159.69
550.473	169.69
550.686	149.69
550.899	148.69
551.112	152.69
551.325	151.69
551.538	133.69
551.751	130.69
551.964	122.69
552.177	142.69
552.39	137.69
552.603	146.69
552.816	157.69
553.029	156.69
553.242	157.69
553.455	156.69
553.667	161.69
553.88	166.69
554.093	150.69
554.306	161.69
554.519	151.69
554.732	154.69
554.944	143.69
555.157	157.69
555.37	142.69
555.583	139.69
555.795	159.69
556.008	132.69
556.221	132.69
556.433	138.69
556.646	138.69
556.859	143.69
557.071	152.69
557.284	130.69
557.496	133.69
557.709	137.69
557.921	133.69
558.134	126.69
558.346	137.69
558.559	122.69
558.771	145.69
558.984	133.69
559.196	129.69
559.409	143.69
559.621	132.69
559.833	138.69
560.046	135.69
560.258	135.69
560.47	137.69
560.683	127.69
560.895	123.69
561.107	124.69
561.32	134.69
561.532	128.69
561.744	143.69
561.956	140.69
562.168	134.69
562.381	129.69
562.593	135.69
562.805	141.69
563.017	115.69
563.229	118.69
563.441	130.69
563.653	136.69
563.865	133.69
564.077	121.69
564.289	115.69
564.501	120.69
564.713	114.69
564.925	113.69
565.137	115.69
565.349	117.69
565.561	113.69
565.773	110.69
565.985	113.69
566.197	117.69
566.408	130.69
566.62	120.69
566.832	125.69
567.044	136.69
567.255	128.69
567.467	118.69
567.679	101.69
567.891	117.69
568.102	105.69
568.314	93.69
568.526	83.69
568.737	89.69
568.949	88.69
569.161	88.69
569.372	93.69
569.584	83.69
569.795	89.69
570.007	79.69
570.218	88.69
570.43	81.69
570.641	81.69
570.853	103.69
571.064	93.69
571.276	98.69
571.487	105.69
571.698	98.69
571.91	121.69
572.121	97.69
572.333	93.69
572.544	113.69
572.755	98.69
572.966	76.69
573.178	81.69
573.389	89.69
573.6	69.69
573.811	89.69
574.023	93.69
574.234	89.69
574.445	78.69
574.656	88.69
574.867	87.69
575.078	100.69
575.289	95.69
575.501	83.69
575.712	83.69
575.923	88.69
576.134	105.69
576.345	107.69
576.556	105.69
576.767	90.69
576.978	103.69
577.188	94.69
577.399	98.69
577.61	99.69
577.821	77.69
578.032	83.69
578.243	100.69
578.454	94.69
578.665	94.69
578.875	88.69
579.086	79.69
579.297	86.69
579.508	84.69
579.718	80.69
579.929	76.69
580.14	90.69
580.35	82.69
580.561	87.69
580.772	92.69
580.982	88.69
581.193	88.69
581.403	101.69
581.614	81.69
581.825	81.69
582.035	85.69
582.246	85.69
582.456	95.69
582.667	94.69
582.877	86.69
583.087	88.69
583.298	95.69
583.508	90.69
583.719	79.69
583.929	92.69
584.139	83.69
584.35	92.69
584.56	79.69
584.77	92.69
584.981	92.69
585.191	71.69
585.401	79.69
585.611	94.69
585.821	75.69
586.032	92.69
586.242	92.69
586.452	94.69
586.662	88.69
586.872	79.69
587.082	88.69
587.292	98.69
587.502	69.69
587.713	72.69
587.923	83.69
588.133	77.69
588.343	81.69
588.553	78.69
588.762	73.69
588.972	88.69
589.182	84.69
589.392	80.69
589.602	79.69
589.812	76.69
590.022	81.69
590.232	76.69
590.441	78.69
590.651	80.69
590.861	86.69
591.071	88.69
591.281	67.69
591.49	82.69
591.7	83.69
591.91	85.69
592.119	83.69
592.329	86.69
592.539	79.69
592.748	92.69
592.958	89.69
593.167	71.69
593.377	89.69
593.587	77.69
593.796	80.69
594.006	74.69
594.215	93.69
594.424	95.69
594.634	76.69
594.843	105.69
595.053	78.69
595.262	82.69
595.472	90.69
595.681	87.69
595.89	74.69
596.1	86.69
596.309	88.69
596.518	92.69
596.727	91.69
596.937	103.69
597.146	87.69
597.355	91.69
597.564	105.69
597.774	90.69
597.983	79.69
598.192	97.69
598.401	67.69
598.61	78.69
598.819	92.69
599.028	101.69
599.237	96.69
599.446	80.69
599.655	81.69
599.864	82.69
600.073	93.69
600.282	91.69
600.491	97.69
600.7	90.69
600.909	100.69
601.118	89.69
601.327	100.69
601.536	91.69
601.745	118.69
601.953	103.69
602.162	108.69
602.371	92.69
602.58	105.69
602.789	111.69
602.997	100.69
603.206	95.69
603.415	105.69
603.623	107.69
603.832	111.69
604.041	101.69
604.249	96.69
604.458	102.69
604.666	92.69
604.875	90.69
605.084	100.69
605.292	102.69
605.501	109.69
605.709	115.69
605.918	110.69
606.126	116.69
606.334	104.69
606.543	100.69
606.751	112.69
606.96	118.69
607.168	117.69
607.376	85.69
607.585	119.69
607.793	110.69
608.001	104.69
608.21	94.69
608.418	110.69
608.626	116.69
608.834	121.69
609.043	116.69
609.251	108.69
609.459	104.69
609.667	106.69
609.875	112.69
610.083	102.69
610.291	105.69
610.499	105.69
610.707	95.69
610.916	103.69
611.124	111.69
611.332	112.69
611.54	105.69
611.748	96.69
611.955	99.69
612.163	104.69
612.371	112.69
612.579	114.69
612.787	111.69
612.995	111.69
613.203	104.69
613.411	110.69
613.618	95.69
613.826	117.69
614.034	114.69
614.242	113.69
614.449	122.69
614.657	109.69
614.865	94.69
615.072	108.69
615.28	113.69
615.488	113.69
615.695	111.69
615.903	93.69
616.111	117.69
616.318	108.69
616.526	117.69
616.733	111.69
616.941	123.69
617.148	110.69
617.356	96.69
617.563	116.69
617.771	122.69
617.978	107.69
618.185	101.69
618.393	105.69
618.6	105.69
618.807	117.69
619.015	106.69
619.222	111.69
619.429	105.69
619.637	103.69
619.844	93.69
620.051	106.69
620.258	105.69
620.466	102.69
620.673	116.69
620.88	101.69
621.087	106.69
621.294	89.69
621.501	94.69
621.708	110.69
621.915	116.69
622.122	101.69
622.329	103.69
622.536	105.69
622.743	98.69
622.95	111.69
623.157	122.69
623.364	107.69
623.571	100.69
623.778	114.69
623.985	109.69
624.192	110.69
624.399	101.69
624.606	111.69
624.812	117.69
625.019	91.69
625.226	104.69
625.433	96.69
625.639	104.69
625.846	90.69
626.053	87.69
626.259	100.69
626.466	102.69
626.673	111.69
626.879	87.69
627.086	95.69
627.293	102.69
627.499	95.69
627.706	105.69
627.912	111.69
628.119	104.69
628.325	111.69
628.532	114.69
628.738	94.69
628.945	101.69
629.151	104.69
629.357	102.69
629.564	104.69
629.77	114.69
629.976	108.69
630.183	103.69
630.389	109.69
630.595	93.69
630.802	108.69
631.008	108.69
631.214	99.69
631.42	97.69
631.627	102.69
631.833	108.69
632.039	101.69
632.245	92.69
632.451	94.69
632.657	91.69
632.863	98.69
633.069	102.69
633.275	100.69
633.481	106.69
633.688	102.69
633.893	94.69
634.099	96.69
634.305	110.69
634.511	95.69
634.717	96.69
634.923	93.69
635.129	100.69
635.335	96.69
635.541	99.69
635.747	99.69
635.952	89.69
636.158	93.69
636.364	90.69
636.57	95.69
636.775	98.69
636.981	93.69
637.187	103.69
637.392	97.69
637.598	97.69
637.804	92.69
638.009	103.69
638.215	96.69
638.421	96.69
638.626	99.69
638.832	86.69
639.037	102.69
639.243	92.69
639.448	98.69
639.654	103.69
639.859	99.69
640.065	104.69
640.27	90.69
640.475	104.69
640.681	91.69
640.886	119.69
641.091	99.69
641.297	92.69
641.502	109.69
641.707	94.69
641.913	93.69
642.118	92.69
642.323	112.69
642.528	88.69
642.733	108.69
642.939	96.69
643.144	90.69
643.349	87.69
643.554	92.69
643.759	93.69
643.964	81.69
644.169	104.69
644.374	101.69
644.579	98.69
644.784	92.69
644.989	99.69
645.194	101.69
645.399	94.69
645.604	104.69
645.809	116.69
646.014	96.69
646.219	100.69
646.423	106.69
646.628	86.69
646.833	92.69
647.038	105.69
647.243	109.69
647.447	92.69
647.652	94.69
647.857	95.69
648.062	97.69
648.266	85.69
648.471	96.69
648.676	103.69
648.88	100.69
649.085	89.69
649.289	102.69
649.494	101.69
649.698	93.69
649.903	97.69
650.107	104.69
650.312	95.69
650.516	98.69
650.721	87.69
650.925	92.69
651.13	88.69
651.334	97.69
651.539	102.69
651.743	98.69
651.947	87.69
652.152	102.69
652.356	95.69
652.56	98.69
652.764	93.69
652.969	101.69
653.173	87.69
653.377	87.69
653.581	103.69
653.785	100.69
653.99	91.69
654.194	100.69
654.398	93.69
654.602	101.69
654.806	78.69
655.01	99.69
655.214	91.69
655.418	96.69
655.622	76.69
655.826	83.69
656.03	89.69
656.234	80.69
656.438	92.69
656.642	94.69
656.846	86.69
657.049	80.69
657.253	74.69
657.457	92.69
657.661	81.69
657.865	71.69
658.068	78.69
658.272	80.69
658.476	85.69
658.68	80.69
658.883	81.69
659.087	88.69
659.291	75.69
659.494	79.69
659.698	78.69
659.901	94.69
660.105	83.69
660.309	87.69
660.512	70.69
660.716	88.69
660.919	92.69
661.123	95.69
661.326	83.69
661.53	83.69
661.733	74.69
661.936	83.69
662.14	75.69
662.343	85.69
662.546	89.69
662.75	86.69
662.953	85.69
663.156	92.69
663.36	86.69
663.563	88.69
663.766	86.69
663.969	90.69
664.173	84.69
664.376	74.69
664.579	78.69
664.782	66.69
664.985	84.69
665.188	65.69
665.391	86.69
665.594	78.69
665.797	88.69
666	81.69
666.203	80.69
666.406	82.69
666.609	64.69
666.812	86.69
667.015	79.69
667.218	87.69
667.421	75.69
667.624	78.69
667.827	71.69
668.03	74.69
668.232	87.69
668.435	81.69
668.638	79.69
668.841	81.69
669.043	78.69
669.246	82.69
669.449	80.69
669.651	75.69
669.854	87.69
670.057	73.69
670.259	72.69
670.462	78.69
670.665	80.69
670.867	83.69
671.07	87.69
671.272	78.69
671.475	89.69
671.677	90.69
671.88	93.69
672.082	91.69
672.284	73.69
672.487	88.69
672.689	73.69
672.892	76.69
