Data from Location6.07152019.Energy5.Lamp.07192019.3%Agarose_HRD10591_16-13-36-397.txt Node
Date: Fri Jul 19 16:13:36 EDT 2019
User: cochatt
Spectrometer: HR+D1059
Trigger mode: 1
Integration Time (sec): 1.000000E-1
Scans to average: 1
Electric dark correction enabled: true
Nonlinearity correction enabled: false
Boxcar width: 0
XAxis mode: Wavelengths
Number of Pixels in Spectrum: 2048
>>>>>Begin Spectral Data<<<<<
223.165	-1.31
223.4	-1.31
223.635	-1.31
223.869	-23.31
224.104	-10.31
224.338	-9.31
224.573	-16.31
224.808	-10.31
225.042	-3.31
225.277	8.69
225.511	-14.31
225.746	0.69
225.98	0.69
226.215	12.69
226.449	3.69
226.683	7.69
226.918	30.69
227.152	23.69
227.387	28.69
227.621	29.69
227.856	33.69
228.09	28.69
228.324	38.69
228.559	23.69
228.793	66.69
229.027	58.69
229.262	53.69
229.496	50.69
229.73	63.69
229.964	75.69
230.199	71.69
230.433	72.69
230.667	64.69
230.901	84.69
231.136	84.69
231.37	89.69
231.604	72.69
231.838	81.69
232.072	76.69
232.306	78.69
232.541	64.69
232.775	75.69
233.009	79.69
233.243	59.69
233.477	85.69
233.711	79.69
233.945	75.69
234.179	75.69
234.413	82.69
234.647	74.69
234.881	75.69
235.115	73.69
235.349	69.69
235.583	68.69
235.817	70.69
236.051	61.69
236.285	64.69
236.519	68.69
236.753	69.69
236.987	81.69
237.221	68.69
237.455	60.69
237.689	78.69
237.922	62.69
238.156	71.69
238.39	82.69
238.624	60.69
238.858	69.69
239.091	62.69
239.325	70.69
239.559	65.69
239.793	70.69
240.027	82.69
240.26	72.69
240.494	74.69
240.728	70.69
240.961	77.69
241.195	72.69
241.429	75.69
241.662	68.69
241.896	75.69
242.13	72.69
242.363	70.69
242.597	73.69
242.83	67.69
243.064	68.69
243.298	69.69
243.531	62.69
243.765	68.69
243.998	84.69
244.232	72.69
244.465	70.69
244.699	75.69
244.932	63.69
245.166	70.69
245.399	60.69
245.633	77.69
245.866	82.69
246.099	71.69
246.333	68.69
246.566	71.69
246.8	73.69
247.033	58.69
247.266	90.69
247.5	84.69
247.733	79.69
247.966	68.69
248.2	86.69
248.433	72.69
248.666	70.69
248.899	72.69
249.133	66.69
249.366	64.69
249.599	84.69
249.832	71.69
250.066	68.69
250.299	78.69
250.532	68.69
250.765	93.69
250.998	67.69
251.231	72.69
251.465	72.69
251.698	60.69
251.931	81.69
252.164	77.69
252.397	74.69
252.63	85.69
252.863	66.69
253.096	71.69
253.329	81.69
253.562	76.69
253.795	79.69
254.028	85.69
254.261	70.69
254.494	70.69
254.727	86.69
254.96	70.69
255.193	65.69
255.426	83.69
255.659	71.69
255.892	93.69
256.124	78.69
256.357	89.69
256.59	77.69
256.823	66.69
257.056	82.69
257.289	86.69
257.521	66.69
257.754	75.69
257.987	62.69
258.22	79.69
258.452	78.69
258.685	84.69
258.918	73.69
259.151	59.69
259.383	58.69
259.616	73.69
259.849	84.69
260.081	73.69
260.314	69.69
260.547	77.69
260.779	71.69
261.012	70.69
261.244	80.69
261.477	87.69
261.71	72.69
261.942	72.69
262.175	81.69
262.407	83.69
262.64	72.69
262.872	84.69
263.105	66.69
263.337	78.69
263.57	89.69
263.802	74.69
264.035	71.69
264.267	77.69
264.499	76.69
264.732	73.69
264.964	71.69
265.197	65.69
265.429	71.69
265.661	86.69
265.894	75.69
266.126	83.69
266.358	79.69
266.591	96.69
266.823	82.69
267.055	75.69
267.287	60.69
267.52	76.69
267.752	78.69
267.984	87.69
268.216	82.69
268.448	75.69
268.681	62.69
268.913	71.69
269.145	75.69
269.377	76.69
269.609	70.69
269.841	71.69
270.073	66.69
270.306	68.69
270.538	99.69
270.77	71.69
271.002	71.69
271.234	91.69
271.466	83.69
271.698	75.69
271.93	84.69
272.162	73.69
272.394	69.69
272.626	78.69
272.858	78.69
273.09	95.69
273.322	82.69
273.553	82.69
273.785	77.69
274.017	80.69
274.249	86.69
274.481	84.69
274.713	85.69
274.945	75.69
275.176	72.69
275.408	89.69
275.64	80.69
275.872	78.69
276.104	76.69
276.335	76.69
276.567	71.69
276.799	91.69
277.031	70.69
277.262	79.69
277.494	78.69
277.726	68.69
277.957	77.69
278.189	67.69
278.421	91.69
278.652	85.69
278.884	80.69
279.115	85.69
279.347	77.69
279.579	76.69
279.81	86.69
280.042	87.69
280.273	71.69
280.505	74.69
280.736	89.69
280.968	67.69
281.199	80.69
281.431	74.69
281.662	78.69
281.894	75.69
282.125	68.69
282.356	83.69
282.588	87.69
282.819	79.69
283.051	88.69
283.282	85.69
283.513	83.69
283.745	70.69
283.976	66.69
284.207	91.69
284.439	68.69
284.67	82.69
284.901	88.69
285.132	71.69
285.364	70.69
285.595	74.69
285.826	70.69
286.057	82.69
286.288	85.69
286.52	80.69
286.751	78.69
286.982	77.69
287.213	86.69
287.444	90.69
287.675	73.69
287.906	71.69
288.138	76.69
288.369	88.69
288.6	56.69
288.831	72.69
289.062	83.69
289.293	90.69
289.524	70.69
289.755	69.69
289.986	87.69
290.217	68.69
290.448	84.69
290.679	77.69
290.91	71.69
291.141	70.69
291.371	66.69
291.602	78.69
291.833	76.69
292.064	79.69
292.295	73.69
292.526	77.69
292.757	80.69
292.987	88.69
293.218	81.69
293.449	101.69
293.68	88.69
293.91	75.69
294.141	72.69
294.372	83.69
294.603	91.69
294.833	63.69
295.064	83.69
295.295	79.69
295.525	83.69
295.756	84.69
295.987	82.69
296.217	81.69
296.448	91.69
296.679	96.69
296.909	77.69
297.14	70.69
297.37	91.69
297.601	77.69
297.831	75.69
298.062	73.69
298.292	93.69
298.523	80.69
298.753	72.69
298.984	81.69
299.214	89.69
299.445	71.69
299.675	85.69
299.905	78.69
300.136	78.69
300.366	84.69
300.597	76.69
300.827	86.69
301.057	85.69
301.288	75.69
301.518	72.69
301.748	75.69
301.979	81.69
302.209	73.69
302.439	86.69
302.669	78.69
302.9	67.69
303.13	74.69
303.36	77.69
303.59	86.69
303.82	91.69
304.051	80.69
304.281	72.69
304.511	87.69
304.741	75.69
304.971	70.69
305.201	88.69
305.431	73.69
305.661	71.69
305.891	84.69
306.121	80.69
306.352	79.69
306.582	79.69
306.812	72.69
307.042	79.69
307.272	91.69
307.502	89.69
307.731	73.69
307.961	78.69
308.191	87.69
308.421	67.69
308.651	82.69
308.881	76.69
309.111	80.69
309.341	84.69
309.571	78.69
309.8	83.69
310.03	67.69
310.26	83.69
310.49	86.69
310.72	67.69
310.949	77.69
311.179	86.69
311.409	78.69
311.639	88.69
311.868	73.69
312.098	77.69
312.328	78.69
312.557	80.69
312.787	74.69
313.017	91.69
313.246	84.69
313.476	71.69
313.706	70.69
313.935	73.69
314.165	88.69
314.394	81.69
314.624	73.69
314.853	87.69
315.083	79.69
315.312	76.69
315.542	76.69
315.771	72.69
316.001	88.69
316.23	85.69
316.46	73.69
316.689	82.69
316.919	79.69
317.148	79.69
317.377	67.69
317.607	89.69
317.836	76.69
318.065	84.69
318.295	77.69
318.524	82.69
318.753	72.69
318.983	99.69
319.212	90.69
319.441	68.69
319.67	74.69
319.9	83.69
320.129	95.69
320.358	84.69
320.587	73.69
320.816	79.69
321.046	86.69
321.275	82.69
321.504	78.69
321.733	77.69
321.962	82.69
322.191	75.69
322.42	89.69
322.649	77.69
322.878	91.69
323.108	78.69
323.337	79.69
323.566	90.69
323.795	91.69
324.024	73.69
324.253	76.69
324.482	85.69
324.71	73.69
324.939	77.69
325.168	78.69
325.397	67.69
325.626	85.69
325.855	65.69
326.084	72.69
326.313	87.69
326.542	67.69
326.77	82.69
326.999	87.69
327.228	80.69
327.457	79.69
327.686	89.69
327.914	71.69
328.143	90.69
328.372	80.69
328.6	80.69
328.829	78.69
329.058	84.69
329.287	70.69
329.515	74.69
329.744	73.69
329.972	76.69
330.201	74.69
330.43	85.69
330.658	72.69
330.887	70.69
331.115	66.69
331.344	80.69
331.572	70.69
331.801	80.69
332.03	83.69
332.258	86.69
332.486	77.69
332.715	67.69
332.943	74.69
333.172	67.69
333.4	78.69
333.629	80.69
333.857	83.69
334.085	87.69
334.314	82.69
334.542	86.69
334.771	91.69
334.999	72.69
335.227	71.69
335.455	93.69
335.684	89.69
335.912	78.69
336.14	79.69
336.369	83.69
336.597	97.69
336.825	64.69
337.053	74.69
337.281	79.69
337.51	79.69
337.738	85.69
337.966	84.69
338.194	69.69
338.422	91.69
338.65	77.69
338.878	87.69
339.106	77.69
339.334	91.69
339.562	78.69
339.79	76.69
340.018	89.69
340.246	75.69
340.474	82.69
340.702	80.69
340.93	78.69
341.158	72.69
341.386	95.69
341.614	87.69
341.842	71.69
342.07	78.69
342.298	66.69
342.526	73.69
342.754	77.69
342.981	64.69
343.209	82.69
343.437	78.69
343.665	66.69
343.893	81.69
344.12	90.69
344.348	78.69
344.576	83.69
344.804	76.69
345.031	74.69
345.259	86.69
345.487	70.69
345.714	70.69
345.942	85.69
346.17	74.69
346.397	67.69
346.625	81.69
346.853	87.69
347.08	82.69
347.308	80.69
347.535	72.69
347.763	86.69
347.99	82.69
348.218	74.69
348.445	79.69
348.673	87.69
348.9	89.69
349.128	76.69
349.355	72.69
349.583	75.69
349.81	76.69
350.037	90.69
350.265	86.69
350.492	95.69
350.72	80.69
350.947	72.69
351.174	94.69
351.402	80.69
351.629	75.69
351.856	72.69
352.083	83.69
352.311	62.69
352.538	86.69
352.765	72.69
352.992	87.69
353.22	69.69
353.447	82.69
353.674	72.69
353.901	93.69
354.128	92.69
354.355	88.69
354.583	75.69
354.81	80.69
355.037	67.69
355.264	79.69
355.491	75.69
355.718	65.69
355.945	70.69
356.172	83.69
356.399	83.69
356.626	91.69
356.853	76.69
357.08	82.69
357.307	68.69
357.534	87.69
357.761	85.69
357.988	62.69
358.215	88.69
358.441	78.69
358.668	75.69
358.895	83.69
359.122	78.69
359.349	76.69
359.576	69.69
359.802	83.69
360.029	73.69
360.256	87.69
360.483	86.69
360.709	83.69
360.936	77.69
361.163	67.69
361.39	76.69
361.616	75.69
361.843	84.69
362.07	67.69
362.296	82.69
362.523	80.69
362.749	67.69
362.976	50.69
363.203	78.69
363.429	81.69
363.656	74.69
363.882	74.69
364.109	86.69
364.335	76.69
364.562	81.69
364.788	84.69
365.015	67.69
365.241	87.69
365.468	88.69
365.694	72.69
365.92	82.69
366.147	76.69
366.373	90.69
366.599	78.69
366.826	78.69
367.052	71.69
367.278	78.69
367.505	87.69
367.731	75.69
367.957	77.69
368.184	87.69
368.41	89.69
368.636	78.69
368.862	75.69
369.089	88.69
369.315	83.69
369.541	87.69
369.767	80.69
369.993	91.69
370.219	74.69
370.445	85.69
370.672	87.69
370.898	89.69
371.124	86.69
371.35	92.69
371.576	90.69
371.802	90.69
372.028	91.69
372.254	84.69
372.48	81.69
372.706	89.69
372.932	83.69
373.158	90.69
373.384	86.69
373.61	81.69
373.835	95.69
374.061	82.69
374.287	88.69
374.513	80.69
374.739	87.69
374.965	78.69
375.191	93.69
375.416	93.69
375.642	92.69
375.868	89.69
376.094	83.69
376.319	94.69
376.545	78.69
376.771	101.69
376.997	99.69
377.222	84.69
377.448	85.69
377.674	78.69
377.899	94.69
378.125	80.69
378.35	84.69
378.576	77.69
378.802	82.69
379.027	103.69
379.253	98.69
379.478	88.69
379.704	94.69
379.929	99.69
380.155	91.69
380.38	97.69
380.606	92.69
380.831	99.69
381.057	97.69
381.282	92.69
381.507	95.69
381.733	85.69
381.958	86.69
382.184	98.69
382.409	94.69
382.634	80.69
382.86	92.69
383.085	98.69
383.31	89.69
383.535	90.69
383.761	91.69
383.986	96.69
384.211	100.69
384.436	87.69
384.662	113.69
384.887	101.69
385.112	88.69
385.337	89.69
385.562	91.69
385.787	86.69
386.013	100.69
386.238	106.69
386.463	92.69
386.688	93.69
386.913	88.69
387.138	93.69
387.363	94.69
387.588	88.69
387.813	100.69
388.038	96.69
388.263	91.69
388.488	101.69
388.713	111.69
388.938	87.69
389.163	109.69
389.387	80.69
389.612	107.69
389.837	96.69
390.062	116.69
390.287	97.69
390.512	95.69
390.736	94.69
390.961	107.69
391.186	96.69
391.411	110.69
391.636	111.69
391.86	94.69
392.085	116.69
392.31	95.69
392.534	91.69
392.759	95.69
392.984	103.69
393.208	98.69
393.433	99.69
393.658	109.69
393.882	106.69
394.107	108.69
394.331	110.69
394.556	113.69
394.78	106.69
395.005	120.69
395.229	111.69
395.454	99.69
395.678	103.69
395.903	103.69
396.127	96.69
396.352	114.69
396.576	98.69
396.801	100.69
397.025	96.69
397.249	113.69
397.474	102.69
397.698	108.69
397.922	99.69
398.147	100.69
398.371	101.69
398.595	110.69
398.82	114.69
399.044	117.69
399.268	107.69
399.492	97.69
399.717	98.69
399.941	105.69
400.165	108.69
400.389	119.69
400.613	109.69
400.837	120.69
401.062	115.69
401.286	93.69
401.51	108.69
401.734	111.69
401.958	101.69
402.182	110.69
402.406	102.69
402.63	117.69
402.854	127.69
403.078	106.69
403.302	97.69
403.526	120.69
403.75	114.69
403.974	109.69
404.198	140.69
404.422	126.69
404.645	106.69
404.869	124.69
405.093	120.69
405.317	126.69
405.541	110.69
405.765	101.69
405.988	112.69
406.212	134.69
406.436	116.69
406.66	111.69
406.883	116.69
407.107	116.69
407.331	119.69
407.555	119.69
407.778	121.69
408.002	116.69
408.226	128.69
408.449	126.69
408.673	117.69
408.896	125.69
409.12	116.69
409.344	128.69
409.567	120.69
409.791	122.69
410.014	112.69
410.238	120.69
410.461	119.69
410.685	123.69
410.908	124.69
411.132	123.69
411.355	135.69
411.578	124.69
411.802	116.69
412.025	131.69
412.249	130.69
412.472	116.69
412.695	127.69
412.919	118.69
413.142	127.69
413.365	132.69
413.589	113.69
413.812	115.69
414.035	125.69
414.258	106.69
414.482	109.69
414.705	114.69
414.928	124.69
415.151	138.69
415.374	128.69
415.597	120.69
415.821	122.69
416.044	120.69
416.267	117.69
416.49	122.69
416.713	126.69
416.936	127.69
417.159	124.69
417.382	115.69
417.605	117.69
417.828	132.69
418.051	121.69
418.274	137.69
418.497	132.69
418.72	125.69
418.943	131.69
419.166	148.69
419.389	148.69
419.611	135.69
419.834	125.69
420.057	128.69
420.28	140.69
420.503	136.69
420.726	117.69
420.948	131.69
421.171	151.69
421.394	146.69
421.617	142.69
421.839	130.69
422.062	144.69
422.285	130.69
422.507	133.69
422.73	123.69
422.953	119.69
423.175	138.69
423.398	119.69
423.621	126.69
423.843	138.69
424.066	139.69
424.288	142.69
424.511	144.69
424.733	167.69
424.956	144.69
425.178	122.69
425.401	148.69
425.623	126.69
425.846	132.69
426.068	132.69
426.291	128.69
426.513	117.69
426.735	118.69
426.958	119.69
427.18	133.69
427.402	128.69
427.625	126.69
427.847	128.69
428.069	136.69
428.292	140.69
428.514	126.69
428.736	122.69
428.958	136.69
429.181	117.69
429.403	140.69
429.625	115.69
429.847	120.69
430.069	109.69
430.292	133.69
430.514	128.69
430.736	124.69
430.958	143.69
431.18	126.69
431.402	116.69
431.624	120.69
431.846	110.69
432.068	98.69
432.29	114.69
432.512	108.69
432.734	113.69
432.956	128.69
433.178	143.69
433.4	140.69
433.622	139.69
433.844	132.69
434.066	122.69
434.287	96.69
434.509	98.69
434.731	96.69
434.953	112.69
435.175	118.69
435.397	118.69
435.618	116.69
435.84	117.69
436.062	115.69
436.284	122.69
436.505	133.69
436.727	120.69
436.949	134.69
437.17	132.69
437.392	116.69
437.614	126.69
437.835	99.69
438.057	106.69
438.278	119.69
438.5	122.69
438.721	139.69
438.943	135.69
439.165	134.69
439.386	134.69
439.608	141.69
439.829	143.69
440.05	153.69
440.272	132.69
440.493	145.69
440.715	152.69
440.936	157.69
441.158	153.69
441.379	143.69
441.6	154.69
441.822	134.69
442.043	153.69
442.264	132.69
442.486	148.69
442.707	135.69
442.928	133.69
443.149	135.69
443.371	136.69
443.592	145.69
443.813	140.69
444.034	120.69
444.255	128.69
444.476	136.69
444.698	148.69
444.919	143.69
445.14	274.69
445.361	197.69
445.582	156.69
445.803	146.69
446.024	155.69
446.245	149.69
446.466	149.69
446.687	151.69
446.908	167.69
447.129	157.69
447.35	147.69
447.571	151.69
447.792	158.69
448.013	132.69
448.234	136.69
448.455	126.69
448.675	147.69
448.896	156.69
449.117	133.69
449.338	127.69
449.559	135.69
449.779	140.69
450	129.69
450.221	122.69
450.442	124.69
450.662	130.69
450.883	132.69
451.104	130.69
451.324	127.69
451.545	132.69
451.766	133.69
451.986	136.69
452.207	128.69
452.428	131.69
452.648	126.69
452.869	131.69
453.089	112.69
453.31	118.69
453.53	83.69
453.751	112.69
453.971	88.69
454.192	91.69
454.412	100.69
454.633	126.69
454.853	120.69
455.073	124.69
455.294	124.69
455.514	130.69
455.734	111.69
455.955	108.69
456.175	124.69
456.395	116.69
456.616	113.69
456.836	96.69
457.056	112.69
457.276	112.69
457.497	109.69
457.717	102.69
457.937	102.69
458.157	114.69
458.377	92.69
458.598	101.69
458.818	93.69
459.038	87.69
459.258	92.69
459.478	72.69
459.698	79.69
459.918	83.69
460.138	98.69
460.358	125.69
460.578	107.69
460.798	108.69
461.018	117.69
461.238	126.69
461.458	121.69
461.678	123.69
461.898	128.69
462.118	116.69
462.338	113.69
462.558	101.69
462.777	117.69
462.997	98.69
463.217	92.69
463.437	106.69
463.657	104.69
463.876	108.69
464.096	107.69
464.316	108.69
464.536	102.69
464.755	117.69
464.975	118.69
465.195	114.69
465.414	128.69
465.634	122.69
465.854	119.69
466.073	118.69
466.293	113.69
466.512	122.69
466.732	121.69
466.951	132.69
467.171	148.69
467.391	134.69
467.61	125.69
467.829	131.69
468.049	138.69
468.268	134.69
468.488	134.69
468.707	126.69
468.927	125.69
469.146	134.69
469.365	146.69
469.585	140.69
469.804	146.69
470.023	143.69
470.243	153.69
470.462	148.69
470.681	134.69
470.901	140.69
471.12	140.69
471.339	149.69
471.558	147.69
471.777	139.69
471.997	135.69
472.216	132.69
472.435	120.69
472.654	92.69
472.873	119.69
473.092	127.69
473.311	132.69
473.53	117.69
473.749	126.69
473.968	128.69
474.187	129.69
474.406	112.69
474.625	126.69
474.844	130.69
475.063	145.69
475.282	140.69
475.501	126.69
475.72	120.69
475.939	130.69
476.158	118.69
476.377	117.69
476.596	114.69
476.814	103.69
477.033	112.69
477.252	101.69
477.471	130.69
477.69	136.69
477.908	142.69
478.127	138.69
478.346	137.69
478.564	129.69
478.783	156.69
479.002	141.69
479.22	118.69
479.439	133.69
479.658	134.69
479.876	108.69
480.095	104.69
480.313	118.69
480.532	122.69
480.751	112.69
480.969	99.69
481.188	86.69
481.406	72.69
481.624	90.69
481.843	90.69
482.061	95.69
482.28	112.69
482.498	112.69
482.717	115.69
482.935	120.69
483.153	129.69
483.372	150.69
483.59	158.69
483.808	151.69
484.027	142.69
484.245	140.69
484.463	144.69
484.681	168.69
484.9	143.69
485.118	144.69
485.336	124.69
485.554	115.69
485.772	102.69
485.99	95.69
486.209	106.69
486.427	106.69
486.645	116.69
486.863	142.69
487.081	146.69
487.299	122.69
487.517	162.69
487.735	170.69
487.953	189.69
488.171	181.69
488.389	183.69
488.607	167.69
488.825	147.69
489.043	144.69
489.261	142.69
489.479	132.69
489.696	142.69
489.914	130.69
490.132	146.69
490.35	147.69
490.568	158.69
490.786	154.69
491.003	166.69
491.221	186.69
491.439	198.69
491.657	208.69
491.874	198.69
492.092	238.69
492.31	234.69
492.527	237.69
492.745	202.69
492.963	206.69
493.18	195.69
493.398	186.69
493.615	181.69
493.833	194.69
494.05	192.69
494.268	175.69
494.485	172.69
494.703	163.69
494.92	174.69
495.138	164.69
495.355	186.69
495.573	164.69
495.79	162.69
496.008	179.69
496.225	167.69
496.442	164.69
496.66	174.69
496.877	169.69
497.094	166.69
497.312	148.69
497.529	163.69
497.746	153.69
497.963	147.69
498.181	142.69
498.398	103.69
498.615	120.69
498.832	114.69
499.049	127.69
499.267	117.69
499.484	120.69
499.701	130.69
499.918	128.69
500.135	149.69
500.352	142.69
500.569	137.69
500.786	123.69
501.003	146.69
501.22	125.69
501.437	128.69
501.654	128.69
501.871	133.69
502.088	122.69
502.305	142.69
502.522	127.69
502.739	120.69
502.956	116.69
503.172	101.69
503.389	126.69
503.606	108.69
503.823	143.69
504.04	108.69
504.256	118.69
504.473	93.69
504.69	110.69
504.907	112.69
505.123	123.69
505.34	120.69
505.557	112.69
505.773	116.69
505.99	122.69
506.207	130.69
506.423	127.69
506.64	112.69
506.856	127.69
507.073	133.69
507.289	125.69
507.506	135.69
507.722	123.69
507.939	110.69
508.155	120.69
508.372	114.69
508.588	114.69
508.805	120.69
509.021	112.69
509.238	98.69
509.454	92.69
509.67	108.69
509.887	102.69
510.103	90.69
510.319	99.69
510.536	106.69
510.752	90.69
510.968	89.69
511.184	79.69
511.401	98.69
511.617	95.69
511.833	82.69
512.049	98.69
512.265	100.69
512.481	100.69
512.698	97.69
512.914	108.69
513.13	112.69
513.346	90.69
513.562	82.69
513.778	95.69
513.994	72.69
514.21	100.69
514.426	95.69
514.642	94.69
514.858	88.69
515.074	79.69
515.29	89.69
515.506	83.69
515.721	64.69
515.937	86.69
516.153	78.69
516.369	77.69
516.585	79.69
516.801	75.69
517.016	77.69
517.232	88.69
517.448	82.69
517.664	91.69
517.879	78.69
518.095	73.69
518.311	71.69
518.527	89.69
518.742	86.69
518.958	99.69
519.173	97.69
519.389	111.69
519.605	112.69
519.82	106.69
520.036	115.69
520.251	103.69
520.467	105.69
520.682	91.69
520.898	99.69
521.113	85.69
521.329	91.69
521.544	87.69
521.76	93.69
521.975	86.69
522.19	102.69
522.406	97.69
522.621	104.69
522.836	94.69
523.052	103.69
523.267	106.69
523.482	116.69
523.698	104.69
523.913	108.69
524.128	120.69
524.343	109.69
524.559	114.69
524.774	118.69
524.989	116.69
525.204	116.69
525.419	127.69
525.634	102.69
525.849	127.69
526.064	106.69
526.28	108.69
526.495	101.69
526.71	82.69
526.925	74.69
527.14	82.69
527.355	85.69
527.57	78.69
527.785	88.69
527.999	85.69
528.214	95.69
528.429	110.69
528.644	126.69
528.859	126.69
529.074	153.69
529.289	167.69
529.503	164.69
529.718	136.69
529.933	119.69
530.148	102.69
530.363	92.69
530.577	79.69
530.792	88.69
531.007	82.69
531.221	76.69
531.436	69.69
531.651	82.69
531.865	76.69
532.08	80.69
532.295	93.69
532.509	85.69
532.724	86.69
532.938	83.69
533.153	90.69
533.367	106.69
533.582	120.69
533.796	118.69
534.011	114.69
534.225	84.69
534.44	97.69
534.654	95.69
534.868	102.69
535.083	85.69
535.297	87.69
535.511	93.69
535.726	110.69
535.94	94.69
536.154	85.69
536.369	85.69
536.583	84.69
536.797	76.69
537.011	80.69
537.225	83.69
537.44	88.69
537.654	109.69
537.868	93.69
538.082	93.69
538.296	83.69
538.51	104.69
538.724	88.69
538.938	129.69
539.153	114.69
539.367	117.69
539.581	100.69
539.795	96.69
540.009	98.69
540.222	94.69
540.436	107.69
540.65	98.69
540.864	132.69
541.078	135.69
541.292	155.69
541.506	156.69
541.72	166.69
541.934	199.69
542.147	201.69
542.361	196.69
542.575	166.69
542.789	146.69
543.002	128.69
543.216	122.69
543.43	125.69
543.644	136.69
543.857	154.69
544.071	168.69
544.285	151.69
544.498	173.69
544.712	156.69
544.925	167.69
545.139	157.69
545.352	164.69
545.566	152.69
545.779	160.69
545.993	181.69
546.206	150.69
546.42	162.69
546.633	161.69
546.847	160.69
547.06	167.69
547.274	176.69
547.487	180.69
547.7	167.69
547.914	178.69
548.127	167.69
548.34	182.69
548.554	168.69
548.767	159.69
548.98	158.69
549.193	151.69
549.407	155.69
549.62	143.69
549.833	167.69
550.046	152.69
550.259	149.69
550.473	158.69
550.686	145.69
550.899	146.69
551.112	147.69
551.325	146.69
551.538	132.69
551.751	121.69
551.964	122.69
552.177	138.69
552.39	140.69
552.603	147.69
552.816	134.69
553.029	152.69
553.242	160.69
553.455	160.69
553.667	156.69
553.88	149.69
554.093	149.69
554.306	167.69
554.519	149.69
554.732	149.69
554.944	139.69
555.157	158.69
555.37	140.69
555.583	150.69
555.795	136.69
556.008	128.69
556.221	133.69
556.433	121.69
556.646	133.69
556.859	126.69
557.071	138.69
557.284	150.69
557.496	137.69
557.709	142.69
557.921	142.69
558.134	154.69
558.346	139.69
558.559	130.69
558.771	135.69
558.984	147.69
559.196	125.69
559.409	134.69
559.621	137.69
559.833	139.69
560.046	131.69
560.258	128.69
560.47	126.69
560.683	141.69
560.895	122.69
561.107	135.69
561.32	142.69
561.532	122.69
561.744	150.69
561.956	142.69
562.168	127.69
562.381	123.69
562.593	119.69
562.805	123.69
563.017	111.69
563.229	126.69
563.441	130.69
563.653	119.69
563.865	122.69
564.077	114.69
564.289	112.69
564.501	138.69
564.713	111.69
564.925	116.69
565.137	112.69
565.349	116.69
565.561	116.69
565.773	124.69
565.985	121.69
566.197	114.69
566.408	106.69
566.62	118.69
566.832	128.69
567.044	130.69
567.255	123.69
567.467	111.69
567.679	110.69
567.891	107.69
568.102	111.69
568.314	91.69
568.526	102.69
568.737	96.69
568.949	87.69
569.161	74.69
569.372	88.69
569.584	74.69
569.795	77.69
570.007	82.69
570.218	82.69
570.43	68.69
570.641	84.69
570.853	79.69
571.064	81.69
571.276	93.69
571.487	113.69
571.698	106.69
571.91	91.69
572.121	101.69
572.333	110.69
572.544	99.69
572.755	90.69
572.966	79.69
573.178	83.69
573.389	79.69
573.6	79.69
573.811	74.69
574.023	78.69
574.234	85.69
574.445	72.69
574.656	87.69
574.867	88.69
575.078	91.69
575.289	86.69
575.501	95.69
575.712	100.69
575.923	93.69
576.134	94.69
576.345	95.69
576.556	107.69
576.767	83.69
576.978	110.69
577.188	103.69
577.399	117.69
577.61	94.69
577.821	98.69
578.032	80.69
578.243	70.69
578.454	91.69
578.665	74.69
578.875	77.69
579.086	89.69
579.297	72.69
579.508	77.69
579.718	78.69
579.929	71.69
580.14	86.69
580.35	82.69
580.561	82.69
580.772	74.69
580.982	77.69
581.193	84.69
581.403	82.69
581.614	84.69
581.825	96.69
582.035	76.69
582.246	78.69
582.456	83.69
582.667	69.69
582.877	90.69
583.087	89.69
583.298	93.69
583.508	86.69
583.719	88.69
583.929	92.69
584.139	81.69
584.35	69.69
584.56	95.69
584.77	82.69
584.981	84.69
585.191	93.69
585.401	86.69
585.611	70.69
585.821	75.69
586.032	79.69
586.242	81.69
586.452	67.69
586.662	83.69
586.872	88.69
587.082	86.69
587.292	86.69
587.502	75.69
587.713	85.69
587.923	68.69
588.133	83.69
588.343	81.69
588.553	87.69
588.762	84.69
588.972	77.69
589.182	71.69
589.392	83.69
589.602	77.69
589.812	83.69
590.022	69.69
590.232	73.69
590.441	65.69
590.651	74.69
590.861	79.69
591.071	85.69
591.281	88.69
591.49	81.69
591.7	70.69
591.91	73.69
592.119	86.69
592.329	96.69
592.539	82.69
592.748	81.69
592.958	86.69
593.167	84.69
593.377	83.69
593.587	77.69
593.796	72.69
594.006	84.69
594.215	92.69
594.424	92.69
594.634	91.69
594.843	81.69
595.053	92.69
595.262	95.69
595.472	93.69
595.681	96.69
595.89	95.69
596.1	80.69
596.309	96.69
596.518	99.69
596.727	108.69
596.937	106.69
597.146	102.69
597.355	96.69
597.564	100.69
597.774	86.69
597.983	88.69
598.192	63.69
598.401	81.69
598.61	87.69
598.819	91.69
599.028	89.69
599.237	79.69
599.446	74.69
599.655	70.69
599.864	87.69
600.073	85.69
600.282	76.69
600.491	88.69
600.7	80.69
600.909	93.69
601.118	97.69
601.327	100.69
601.536	104.69
601.745	100.69
601.953	106.69
602.162	111.69
602.371	105.69
602.58	99.69
602.789	106.69
602.997	117.69
603.206	108.69
603.415	103.69
603.623	107.69
603.832	124.69
604.041	111.69
604.249	94.69
604.458	98.69
604.666	88.69
604.875	81.69
605.084	100.69
605.292	102.69
605.501	109.69
605.709	122.69
605.918	119.69
606.126	120.69
606.334	98.69
606.543	118.69
606.751	96.69
606.96	116.69
607.168	107.69
607.376	115.69
607.585	107.69
607.793	98.69
608.001	116.69
608.21	105.69
608.418	110.69
608.626	129.69
608.834	114.69
609.043	109.69
609.251	107.69
609.459	101.69
609.667	110.69
609.875	116.69
610.083	115.69
610.291	119.69
610.499	118.69
610.707	103.69
610.916	112.69
611.124	106.69
611.332	92.69
611.54	121.69
611.748	106.69
611.955	99.69
612.163	116.69
612.371	108.69
612.579	130.69
612.787	116.69
612.995	95.69
613.203	122.69
613.411	113.69
613.618	112.69
613.826	102.69
614.034	114.69
614.242	105.69
614.449	100.69
614.657	104.69
614.865	108.69
615.072	112.69
615.28	111.69
615.488	98.69
615.695	119.69
615.903	116.69
616.111	115.69
616.318	121.69
616.526	108.69
616.733	104.69
616.941	112.69
617.148	94.69
617.356	108.69
617.563	115.69
617.771	111.69
617.978	108.69
618.185	120.69
618.393	104.69
618.6	97.69
618.807	113.69
619.015	115.69
619.222	83.69
619.429	91.69
619.637	87.69
619.844	100.69
620.051	117.69
620.258	98.69
620.466	97.69
620.673	91.69
620.88	88.69
621.087	111.69
621.294	106.69
621.501	89.69
621.708	106.69
621.915	106.69
622.122	99.69
622.329	105.69
622.536	90.69
622.743	103.69
622.95	104.69
623.157	117.69
623.364	120.69
623.571	108.69
623.778	94.69
623.985	122.69
624.192	110.69
624.399	109.69
624.606	115.69
624.812	110.69
625.019	85.69
625.226	101.69
625.433	88.69
625.639	110.69
625.846	95.69
626.053	90.69
626.259	97.69
626.466	100.69
626.673	93.69
626.879	74.69
627.086	96.69
627.293	104.69
627.499	114.69
627.706	104.69
627.912	94.69
628.119	99.69
628.325	110.69
628.532	96.69
628.738	92.69
628.945	105.69
629.151	100.69
629.357	94.69
629.564	105.69
629.77	108.69
629.976	97.69
630.183	95.69
630.389	91.69
630.595	110.69
630.802	98.69
631.008	112.69
631.214	101.69
631.42	103.69
631.627	103.69
631.833	95.69
632.039	89.69
632.245	93.69
632.451	97.69
632.657	90.69
632.863	77.69
633.069	100.69
633.275	92.69
633.481	100.69
633.688	104.69
633.893	91.69
634.099	97.69
634.305	82.69
634.511	99.69
634.717	93.69
634.923	83.69
635.129	71.69
635.335	103.69
635.541	102.69
635.747	99.69
635.952	99.69
636.158	91.69
636.364	98.69
636.57	98.69
636.775	90.69
636.981	89.69
637.187	94.69
637.392	101.69
637.598	93.69
637.804	101.69
638.009	101.69
638.215	100.69
638.421	93.69
638.626	98.69
638.832	110.69
639.037	98.69
639.243	87.69
639.448	88.69
639.654	79.69
639.859	95.69
640.065	93.69
640.27	96.69
640.475	96.69
640.681	99.69
640.886	88.69
641.091	92.69
641.297	104.69
641.502	88.69
641.707	92.69
641.913	93.69
642.118	92.69
642.323	92.69
642.528	89.69
642.733	85.69
642.939	99.69
643.144	109.69
643.349	90.69
643.554	103.69
643.759	108.69
643.964	98.69
644.169	90.69
644.374	107.69
644.579	96.69
644.784	88.69
644.989	84.69
645.194	102.69
645.399	114.69
645.604	91.69
645.809	93.69
646.014	81.69
646.219	84.69
646.423	97.69
646.628	100.69
646.833	101.69
647.038	96.69
647.243	93.69
647.447	95.69
647.652	96.69
647.857	99.69
648.062	108.69
648.266	95.69
648.471	100.69
648.676	94.69
648.88	89.69
649.085	103.69
649.289	88.69
649.494	95.69
649.698	80.69
649.903	93.69
650.107	99.69
650.312	91.69
650.516	99.69
650.721	95.69
650.925	91.69
651.13	89.69
651.334	86.69
651.539	78.69
651.743	94.69
651.947	97.69
652.152	80.69
652.356	96.69
652.56	85.69
652.764	94.69
652.969	93.69
653.173	87.69
653.377	95.69
653.581	89.69
653.785	94.69
653.99	88.69
654.194	87.69
654.398	94.69
654.602	97.69
654.806	86.69
655.01	87.69
655.214	84.69
655.418	95.69
655.622	93.69
655.826	74.69
656.03	94.69
656.234	79.69
656.438	85.69
656.642	91.69
656.846	85.69
657.049	86.69
657.253	95.69
657.457	85.69
657.661	90.69
657.865	81.69
658.068	82.69
658.272	87.69
658.476	77.69
658.68	92.69
658.883	64.69
659.087	69.69
659.291	71.69
659.494	92.69
659.698	85.69
659.901	85.69
660.105	87.69
660.309	67.69
660.512	81.69
660.716	86.69
660.919	90.69
661.123	90.69
661.326	75.69
661.53	83.69
661.733	84.69
661.936	64.69
662.14	80.69
662.343	80.69
662.546	78.69
662.75	101.69
662.953	86.69
663.156	69.69
663.36	71.69
663.563	57.69
663.766	85.69
663.969	83.69
664.173	95.69
664.376	82.69
664.579	74.69
664.782	81.69
664.985	60.69
665.188	67.69
665.391	69.69
665.594	75.69
665.797	76.69
666	72.69
666.203	74.69
666.406	96.69
666.609	71.69
666.812	86.69
667.015	87.69
667.218	77.69
667.421	64.69
667.624	70.69
667.827	82.69
668.03	61.69
668.232	73.69
668.435	86.69
668.638	80.69
668.841	77.69
669.043	83.69
669.246	93.69
669.449	71.69
669.651	75.69
669.854	79.69
670.057	83.69
670.259	94.69
670.462	77.69
670.665	77.69
670.867	80.69
671.07	87.69
671.272	68.69
671.475	83.69
671.677	85.69
671.88	90.69
672.082	80.69
672.284	90.69
672.487	90.69
672.689	66.69
672.892	76.69
