Data from Location4.07152019.Energy5.Lamp.07192019.3%Agarose_HRD10591_15-24-01-577.txt Node
Date: Fri Jul 19 15:24:01 EDT 2019
User: cochatt
Spectrometer: HR+D1059
Trigger mode: 1
Integration Time (sec): 1.000000E-1
Scans to average: 1
Electric dark correction enabled: true
Nonlinearity correction enabled: false
Boxcar width: 0
XAxis mode: Wavelengths
Number of Pixels in Spectrum: 2048
>>>>>Begin Spectral Data<<<<<
223.165	-5.62
223.4	-5.62
223.635	-5.62
223.869	-7.62
224.104	-17.62
224.338	-2.62
224.573	-4.62
224.808	-15.62
225.042	-33.62
225.277	-25.62
225.511	-1.62
225.746	2.38
225.98	9.38
226.215	16.38
226.449	13.38
226.683	22.38
226.918	36.38
227.152	14.38
227.387	30.38
227.621	34.38
227.856	41.38
228.09	56.38
228.324	38.38
228.559	69.38
228.793	56.38
229.027	64.38
229.262	69.38
229.496	54.38
229.73	63.38
229.964	60.38
230.199	79.38
230.433	78.38
230.667	65.38
230.901	68.38
231.136	89.38
231.37	71.38
231.604	84.38
231.838	77.38
232.072	75.38
232.306	73.38
232.541	88.38
232.775	78.38
233.009	87.38
233.243	95.38
233.477	97.38
233.711	84.38
233.945	92.38
234.179	74.38
234.413	73.38
234.647	81.38
234.881	73.38
235.115	67.38
235.349	82.38
235.583	83.38
235.817	81.38
236.051	79.38
236.285	64.38
236.519	71.38
236.753	83.38
236.987	78.38
237.221	68.38
237.455	65.38
237.689	69.38
237.922	68.38
238.156	76.38
238.39	73.38
238.624	84.38
238.858	80.38
239.091	96.38
239.325	68.38
239.559	75.38
239.793	79.38
240.027	82.38
240.26	73.38
240.494	65.38
240.728	69.38
240.961	84.38
241.195	78.38
241.429	69.38
241.662	79.38
241.896	62.38
242.13	79.38
242.363	75.38
242.597	80.38
242.83	81.38
243.064	80.38
243.298	71.38
243.531	89.38
243.765	74.38
243.998	79.38
244.232	82.38
244.465	86.38
244.699	88.38
244.932	74.38
245.166	79.38
245.399	78.38
245.633	78.38
245.866	85.38
246.099	69.38
246.333	67.38
246.566	66.38
246.8	75.38
247.033	76.38
247.266	85.38
247.5	79.38
247.733	78.38
247.966	74.38
248.2	86.38
248.433	84.38
248.666	72.38
248.899	74.38
249.133	78.38
249.366	73.38
249.599	53.38
249.832	88.38
250.066	90.38
250.299	86.38
250.532	86.38
250.765	74.38
250.998	78.38
251.231	72.38
251.465	80.38
251.698	85.38
251.931	82.38
252.164	88.38
252.397	79.38
252.63	95.38
252.863	81.38
253.096	77.38
253.329	88.38
253.562	73.38
253.795	87.38
254.028	91.38
254.261	76.38
254.494	71.38
254.727	83.38
254.96	67.38
255.193	86.38
255.426	66.38
255.659	84.38
255.892	79.38
256.124	67.38
256.357	86.38
256.59	78.38
256.823	85.38
257.056	67.38
257.289	80.38
257.521	82.38
257.754	92.38
257.987	73.38
258.22	86.38
258.452	73.38
258.685	76.38
258.918	73.38
259.151	71.38
259.383	72.38
259.616	85.38
259.849	76.38
260.081	75.38
260.314	80.38
260.547	75.38
260.779	75.38
261.012	65.38
261.244	82.38
261.477	89.38
261.71	69.38
261.942	84.38
262.175	65.38
262.407	67.38
262.64	87.38
262.872	79.38
263.105	94.38
263.337	70.38
263.57	72.38
263.802	73.38
264.035	80.38
264.267	88.38
264.499	74.38
264.732	79.38
264.964	90.38
265.197	75.38
265.429	73.38
265.661	85.38
265.894	81.38
266.126	83.38
266.358	78.38
266.591	82.38
266.823	71.38
267.055	82.38
267.287	79.38
267.52	69.38
267.752	92.38
267.984	77.38
268.216	81.38
268.448	79.38
268.681	74.38
268.913	68.38
269.145	61.38
269.377	73.38
269.609	76.38
269.841	72.38
270.073	88.38
270.306	84.38
270.538	79.38
270.77	99.38
271.002	90.38
271.234	84.38
271.466	105.38
271.698	88.38
271.93	90.38
272.162	72.38
272.394	95.38
272.626	71.38
272.858	65.38
273.09	74.38
273.322	80.38
273.553	75.38
273.785	79.38
274.017	87.38
274.249	96.38
274.481	72.38
274.713	77.38
274.945	79.38
275.176	78.38
275.408	72.38
275.64	90.38
275.872	83.38
276.104	74.38
276.335	89.38
276.567	89.38
276.799	86.38
277.031	86.38
277.262	82.38
277.494	73.38
277.726	88.38
277.957	89.38
278.189	78.38
278.421	82.38
278.652	84.38
278.884	71.38
279.115	77.38
279.347	82.38
279.579	81.38
279.81	71.38
280.042	93.38
280.273	82.38
280.505	80.38
280.736	73.38
280.968	81.38
281.199	88.38
281.431	84.38
281.662	64.38
281.894	84.38
282.125	87.38
282.356	87.38
282.588	84.38
282.819	78.38
283.051	66.38
283.282	79.38
283.513	74.38
283.745	72.38
283.976	73.38
284.207	81.38
284.439	96.38
284.67	74.38
284.901	77.38
285.132	90.38
285.364	75.38
285.595	88.38
285.826	83.38
286.057	71.38
286.288	80.38
286.52	80.38
286.751	79.38
286.982	92.38
287.213	70.38
287.444	79.38
287.675	86.38
287.906	76.38
288.138	86.38
288.369	80.38
288.6	85.38
288.831	79.38
289.062	85.38
289.293	87.38
289.524	79.38
289.755	87.38
289.986	87.38
290.217	81.38
290.448	87.38
290.679	85.38
290.91	84.38
291.141	79.38
291.371	63.38
291.602	82.38
291.833	64.38
292.064	91.38
292.295	86.38
292.526	81.38
292.757	87.38
292.987	69.38
293.218	83.38
293.449	88.38
293.68	93.38
293.91	80.38
294.141	64.38
294.372	83.38
294.603	68.38
294.833	73.38
295.064	82.38
295.295	86.38
295.525	81.38
295.756	76.38
295.987	76.38
296.217	81.38
296.448	81.38
296.679	73.38
296.909	78.38
297.14	82.38
297.37	75.38
297.601	71.38
297.831	65.38
298.062	62.38
298.292	75.38
298.523	73.38
298.753	75.38
298.984	60.38
299.214	74.38
299.445	86.38
299.675	86.38
299.905	100.38
300.136	85.38
300.366	86.38
300.597	88.38
300.827	81.38
301.057	78.38
301.288	77.38
301.518	78.38
301.748	72.38
301.979	73.38
302.209	91.38
302.439	85.38
302.669	74.38
302.9	61.38
303.13	80.38
303.36	77.38
303.59	84.38
303.82	86.38
304.051	71.38
304.281	84.38
304.511	79.38
304.741	83.38
304.971	90.38
305.201	76.38
305.431	84.38
305.661	96.38
305.891	75.38
306.121	89.38
306.352	86.38
306.582	81.38
306.812	83.38
307.042	90.38
307.272	69.38
307.502	76.38
307.731	74.38
307.961	89.38
308.191	85.38
308.421	68.38
308.651	93.38
308.881	88.38
309.111	87.38
309.341	88.38
309.571	87.38
309.8	74.38
310.03	92.38
310.26	84.38
310.49	75.38
310.72	78.38
310.949	86.38
311.179	73.38
311.409	83.38
311.639	93.38
311.868	82.38
312.098	78.38
312.328	81.38
312.557	77.38
312.787	80.38
313.017	86.38
313.246	89.38
313.476	94.38
313.706	84.38
313.935	72.38
314.165	84.38
314.394	80.38
314.624	88.38
314.853	92.38
315.083	81.38
315.312	95.38
315.542	73.38
315.771	78.38
316.001	85.38
316.23	82.38
316.46	81.38
316.689	80.38
316.919	86.38
317.148	94.38
317.377	87.38
317.607	76.38
317.836	85.38
318.065	72.38
318.295	78.38
318.524	77.38
318.753	80.38
318.983	76.38
319.212	70.38
319.441	89.38
319.67	84.38
319.9	67.38
320.129	83.38
320.358	82.38
320.587	97.38
320.816	89.38
321.046	87.38
321.275	88.38
321.504	82.38
321.733	78.38
321.962	89.38
322.191	86.38
322.42	93.38
322.649	92.38
322.878	76.38
323.108	70.38
323.337	70.38
323.566	81.38
323.795	78.38
324.024	96.38
324.253	89.38
324.482	72.38
324.71	99.38
324.939	91.38
325.168	93.38
325.397	92.38
325.626	84.38
325.855	72.38
326.084	87.38
326.313	75.38
326.542	73.38
326.77	99.38
326.999	92.38
327.228	77.38
327.457	87.38
327.686	77.38
327.914	76.38
328.143	93.38
328.372	61.38
328.6	80.38
328.829	82.38
329.058	88.38
329.287	83.38
329.515	87.38
329.744	70.38
329.972	86.38
330.201	77.38
330.43	71.38
330.658	78.38
330.887	92.38
331.115	72.38
331.344	90.38
331.572	84.38
331.801	77.38
332.03	77.38
332.258	70.38
332.486	86.38
332.715	83.38
332.943	83.38
333.172	81.38
333.4	79.38
333.629	92.38
333.857	71.38
334.085	89.38
334.314	69.38
334.542	71.38
334.771	86.38
334.999	82.38
335.227	87.38
335.455	86.38
335.684	82.38
335.912	84.38
336.14	75.38
336.369	90.38
336.597	89.38
336.825	80.38
337.053	76.38
337.281	82.38
337.51	58.38
337.738	86.38
337.966	88.38
338.194	70.38
338.422	79.38
338.65	85.38
338.878	72.38
339.106	76.38
339.334	91.38
339.562	69.38
339.79	97.38
340.018	89.38
340.246	80.38
340.474	85.38
340.702	85.38
340.93	77.38
341.158	65.38
341.386	84.38
341.614	82.38
341.842	83.38
342.07	82.38
342.298	82.38
342.526	89.38
342.754	75.38
342.981	92.38
343.209	78.38
343.437	82.38
343.665	79.38
343.893	90.38
344.12	83.38
344.348	87.38
344.576	79.38
344.804	81.38
345.031	80.38
345.259	77.38
345.487	78.38
345.714	76.38
345.942	79.38
346.17	73.38
346.397	87.38
346.625	74.38
346.853	81.38
347.08	93.38
347.308	74.38
347.535	92.38
347.763	80.38
347.99	70.38
348.218	76.38
348.445	85.38
348.673	76.38
348.9	85.38
349.128	79.38
349.355	80.38
349.583	77.38
349.81	82.38
350.037	86.38
350.265	76.38
350.492	85.38
350.72	76.38
350.947	95.38
351.174	81.38
351.402	80.38
351.629	85.38
351.856	83.38
352.083	85.38
352.311	85.38
352.538	80.38
352.765	77.38
352.992	78.38
353.22	70.38
353.447	78.38
353.674	94.38
353.901	78.38
354.128	87.38
354.355	90.38
354.583	86.38
354.81	74.38
355.037	74.38
355.264	77.38
355.491	93.38
355.718	78.38
355.945	81.38
356.172	72.38
356.399	77.38
356.626	85.38
356.853	81.38
357.08	90.38
357.307	83.38
357.534	81.38
357.761	79.38
357.988	88.38
358.215	92.38
358.441	86.38
358.668	74.38
358.895	95.38
359.122	78.38
359.349	75.38
359.576	74.38
359.802	72.38
360.029	84.38
360.256	85.38
360.483	84.38
360.709	70.38
360.936	92.38
361.163	84.38
361.39	84.38
361.616	78.38
361.843	65.38
362.07	88.38
362.296	70.38
362.523	62.38
362.749	77.38
362.976	78.38
363.203	92.38
363.429	93.38
363.656	73.38
363.882	59.38
364.109	85.38
364.335	72.38
364.562	79.38
364.788	82.38
365.015	70.38
365.241	94.38
365.468	87.38
365.694	70.38
365.92	82.38
366.147	77.38
366.373	87.38
366.599	86.38
366.826	73.38
367.052	77.38
367.278	85.38
367.505	79.38
367.731	87.38
367.957	83.38
368.184	90.38
368.41	92.38
368.636	92.38
368.862	73.38
369.089	82.38
369.315	78.38
369.541	87.38
369.767	78.38
369.993	92.38
370.219	84.38
370.445	95.38
370.672	90.38
370.898	87.38
371.124	83.38
371.35	80.38
371.576	72.38
371.802	74.38
372.028	86.38
372.254	82.38
372.48	87.38
372.706	79.38
372.932	89.38
373.158	82.38
373.384	81.38
373.61	84.38
373.835	84.38
374.061	93.38
374.287	86.38
374.513	97.38
374.739	74.38
374.965	85.38
375.191	80.38
375.416	85.38
375.642	64.38
375.868	94.38
376.094	77.38
376.319	89.38
376.545	76.38
376.771	77.38
376.997	75.38
377.222	85.38
377.448	89.38
377.674	76.38
377.899	94.38
378.125	89.38
378.35	89.38
378.576	82.38
378.802	93.38
379.027	72.38
379.253	83.38
379.478	87.38
379.704	79.38
379.929	72.38
380.155	71.38
380.38	97.38
380.606	79.38
380.831	96.38
381.057	77.38
381.282	86.38
381.507	84.38
381.733	87.38
381.958	77.38
382.184	92.38
382.409	70.38
382.634	86.38
382.86	82.38
383.085	88.38
383.31	83.38
383.535	94.38
383.761	97.38
383.986	90.38
384.211	85.38
384.436	84.38
384.662	73.38
384.887	77.38
385.112	77.38
385.337	100.38
385.562	85.38
385.787	82.38
386.013	92.38
386.238	84.38
386.463	84.38
386.688	97.38
386.913	86.38
387.138	86.38
387.363	84.38
387.588	92.38
387.813	92.38
388.038	77.38
388.263	77.38
388.488	86.38
388.713	68.38
388.938	88.38
389.163	75.38
389.387	78.38
389.612	81.38
389.837	105.38
390.062	75.38
390.287	82.38
390.512	86.38
390.736	79.38
390.961	75.38
391.186	92.38
391.411	86.38
391.636	81.38
391.86	78.38
392.085	89.38
392.31	82.38
392.534	79.38
392.759	80.38
392.984	84.38
393.208	89.38
393.433	69.38
393.658	79.38
393.882	92.38
394.107	83.38
394.331	86.38
394.556	74.38
394.78	99.38
395.005	85.38
395.229	78.38
395.454	73.38
395.678	80.38
395.903	90.38
396.127	85.38
396.352	97.38
396.576	86.38
396.801	86.38
397.025	80.38
397.249	83.38
397.474	74.38
397.698	96.38
397.922	87.38
398.147	88.38
398.371	85.38
398.595	82.38
398.82	80.38
399.044	84.38
399.268	81.38
399.492	77.38
399.717	79.38
399.941	84.38
400.165	84.38
400.389	85.38
400.613	88.38
400.837	85.38
401.062	95.38
401.286	84.38
401.51	87.38
401.734	69.38
401.958	90.38
402.182	75.38
402.406	85.38
402.63	74.38
402.854	101.38
403.078	75.38
403.302	90.38
403.526	97.38
403.75	81.38
403.974	87.38
404.198	88.38
404.422	65.38
404.645	87.38
404.869	83.38
405.093	90.38
405.317	101.38
405.541	82.38
405.765	76.38
405.988	104.38
406.212	97.38
406.436	86.38
406.66	95.38
406.883	93.38
407.107	78.38
407.331	86.38
407.555	83.38
407.778	84.38
408.002	84.38
408.226	94.38
408.449	90.38
408.673	89.38
408.896	88.38
409.12	78.38
409.344	95.38
409.567	86.38
409.791	76.38
410.014	78.38
410.238	89.38
410.461	95.38
410.685	98.38
410.908	75.38
411.132	98.38
411.355	89.38
411.578	91.38
411.802	78.38
412.025	86.38
412.249	86.38
412.472	93.38
412.695	80.38
412.919	88.38
413.142	78.38
413.365	85.38
413.589	89.38
413.812	99.38
414.035	85.38
414.258	84.38
414.482	100.38
414.705	103.38
414.928	87.38
415.151	97.38
415.374	85.38
415.597	73.38
415.821	83.38
416.044	82.38
416.267	92.38
416.49	87.38
416.713	100.38
416.936	95.38
417.159	105.38
417.382	101.38
417.605	79.38
417.828	90.38
418.051	94.38
418.274	114.38
418.497	93.38
418.72	97.38
418.943	90.38
419.166	87.38
419.389	95.38
419.611	91.38
419.834	99.38
420.057	103.38
420.28	91.38
420.503	89.38
420.726	96.38
420.948	88.38
421.171	96.38
421.394	102.38
421.617	94.38
421.839	89.38
422.062	84.38
422.285	82.38
422.507	92.38
422.73	91.38
422.953	73.38
423.175	88.38
423.398	93.38
423.621	88.38
423.843	101.38
424.066	93.38
424.288	83.38
424.511	88.38
424.733	85.38
424.956	90.38
425.178	92.38
425.401	95.38
425.623	87.38
425.846	96.38
426.068	94.38
426.291	92.38
426.513	89.38
426.735	100.38
426.958	88.38
427.18	96.38
427.402	78.38
427.625	101.38
427.847	89.38
428.069	105.38
428.292	100.38
428.514	92.38
428.736	92.38
428.958	100.38
429.181	101.38
429.403	95.38
429.625	101.38
429.847	100.38
430.069	80.38
430.292	85.38
430.514	93.38
430.736	72.38
430.958	85.38
431.18	97.38
431.402	89.38
431.624	74.38
431.846	81.38
432.068	96.38
432.29	80.38
432.512	108.38
432.734	80.38
432.956	98.38
433.178	99.38
433.4	91.38
433.622	102.38
433.844	92.38
434.066	86.38
434.287	88.38
434.509	87.38
434.731	97.38
434.953	91.38
435.175	87.38
435.397	89.38
435.618	74.38
435.84	84.38
436.062	95.38
436.284	90.38
436.505	98.38
436.727	101.38
436.949	104.38
437.17	92.38
437.392	91.38
437.614	77.38
437.835	78.38
438.057	90.38
438.278	88.38
438.5	88.38
438.721	85.38
438.943	103.38
439.165	81.38
439.386	97.38
439.608	90.38
439.829	106.38
440.05	81.38
440.272	94.38
440.493	94.38
440.715	88.38
440.936	94.38
441.158	91.38
441.379	104.38
441.6	105.38
441.822	85.38
442.043	85.38
442.264	92.38
442.486	104.38
442.707	96.38
442.928	111.38
443.149	94.38
443.371	99.38
443.592	104.38
443.813	80.38
444.034	93.38
444.255	85.38
444.476	110.38
444.698	87.38
444.919	96.38
445.14	212.38
445.361	166.38
445.582	99.38
445.803	94.38
446.024	90.38
446.245	95.38
446.466	91.38
446.687	99.38
446.908	93.38
447.129	104.38
447.35	99.38
447.571	90.38
447.792	91.38
448.013	96.38
448.234	100.38
448.455	73.38
448.675	99.38
448.896	95.38
449.117	95.38
449.338	88.38
449.559	95.38
449.779	86.38
450	100.38
450.221	99.38
450.442	101.38
450.662	83.38
450.883	92.38
451.104	94.38
451.324	92.38
451.545	90.38
451.766	86.38
451.986	101.38
452.207	87.38
452.428	67.38
452.648	93.38
452.869	83.38
453.089	97.38
453.31	81.38
453.53	88.38
453.751	81.38
453.971	77.38
454.192	81.38
454.412	85.38
454.633	95.38
454.853	101.38
455.073	93.38
455.294	93.38
455.514	95.38
455.734	100.38
455.955	89.38
456.175	83.38
456.395	88.38
456.616	71.38
456.836	73.38
457.056	86.38
457.276	90.38
457.497	87.38
457.717	90.38
457.937	93.38
458.157	89.38
458.377	91.38
458.598	90.38
458.818	80.38
459.038	81.38
459.258	69.38
459.478	73.38
459.698	90.38
459.918	79.38
460.138	108.38
460.358	94.38
460.578	100.38
460.798	78.38
461.018	94.38
461.238	99.38
461.458	98.38
461.678	90.38
461.898	81.38
462.118	100.38
462.338	99.38
462.558	77.38
462.777	89.38
462.997	83.38
463.217	68.38
463.437	88.38
463.657	77.38
463.876	93.38
464.096	84.38
464.316	93.38
464.536	84.38
464.755	95.38
464.975	85.38
465.195	78.38
465.414	87.38
465.634	82.38
465.854	85.38
466.073	94.38
466.293	85.38
466.512	100.38
466.732	98.38
466.951	79.38
467.171	85.38
467.391	84.38
467.61	94.38
467.829	77.38
468.049	104.38
468.268	95.38
468.488	91.38
468.707	93.38
468.927	110.38
469.146	108.38
469.365	95.38
469.585	101.38
469.804	97.38
470.023	79.38
470.243	95.38
470.462	89.38
470.681	96.38
470.901	79.38
471.12	94.38
471.339	99.38
471.558	99.38
471.777	108.38
471.997	106.38
472.216	100.38
472.435	87.38
472.654	78.38
472.873	89.38
473.092	106.38
473.311	87.38
473.53	91.38
473.749	89.38
473.968	105.38
474.187	105.38
474.406	92.38
474.625	96.38
474.844	105.38
475.063	91.38
475.282	117.38
475.501	71.38
475.72	96.38
475.939	85.38
476.158	89.38
476.377	92.38
476.596	82.38
476.814	91.38
477.033	82.38
477.252	87.38
477.471	93.38
477.69	92.38
477.908	90.38
478.127	97.38
478.346	86.38
478.564	88.38
478.783	87.38
479.002	92.38
479.22	95.38
479.439	100.38
479.658	98.38
479.876	90.38
480.095	87.38
480.313	96.38
480.532	89.38
480.751	85.38
480.969	72.38
481.188	82.38
481.406	79.38
481.624	71.38
481.843	73.38
482.061	81.38
482.28	93.38
482.498	80.38
482.717	86.38
482.935	85.38
483.153	90.38
483.372	106.38
483.59	116.38
483.808	96.38
484.027	90.38
484.245	120.38
484.463	97.38
484.681	103.38
484.9	108.38
485.118	93.38
485.336	85.38
485.554	92.38
485.772	93.38
485.99	74.38
486.209	90.38
486.427	85.38
486.645	86.38
486.863	85.38
487.081	91.38
487.299	85.38
487.517	92.38
487.735	101.38
487.953	103.38
488.171	110.38
488.389	111.38
488.607	83.38
488.825	95.38
489.043	85.38
489.261	100.38
489.479	98.38
489.696	105.38
489.914	109.38
490.132	106.38
490.35	102.38
490.568	120.38
490.786	112.38
491.003	96.38
491.221	110.38
491.439	114.38
491.657	113.38
491.874	114.38
492.092	117.38
492.31	136.38
492.527	123.38
492.745	112.38
492.963	105.38
493.18	109.38
493.398	112.38
493.615	106.38
493.833	94.38
494.05	115.38
494.268	104.38
494.485	102.38
494.703	105.38
494.92	104.38
495.138	105.38
495.355	110.38
495.573	108.38
495.79	98.38
496.008	100.38
496.225	102.38
496.442	115.38
496.66	111.38
496.877	110.38
497.094	97.38
497.312	114.38
497.529	100.38
497.746	111.38
497.963	96.38
498.181	95.38
498.398	103.38
498.615	101.38
498.832	71.38
499.049	89.38
499.267	86.38
499.484	90.38
499.701	94.38
499.918	90.38
500.135	81.38
500.352	105.38
500.569	97.38
500.786	95.38
501.003	104.38
501.22	85.38
501.437	93.38
501.654	103.38
501.871	95.38
502.088	105.38
502.305	107.38
502.522	90.38
502.739	103.38
502.956	106.38
503.172	113.38
503.389	93.38
503.606	85.38
503.823	85.38
504.04	91.38
504.256	94.38
504.473	99.38
504.69	99.38
504.907	101.38
505.123	77.38
505.34	86.38
505.557	98.38
505.773	107.38
505.99	100.38
506.207	93.38
506.423	85.38
506.64	84.38
506.856	94.38
507.073	79.38
507.289	104.38
507.506	94.38
507.722	94.38
507.939	90.38
508.155	84.38
508.372	81.38
508.588	103.38
508.805	80.38
509.021	87.38
509.238	91.38
509.454	85.38
509.67	89.38
509.887	95.38
510.103	83.38
510.319	84.38
510.536	85.38
510.752	78.38
510.968	79.38
511.184	68.38
511.401	75.38
511.617	82.38
511.833	82.38
512.049	79.38
512.265	101.38
512.481	73.38
512.698	80.38
512.914	83.38
513.13	93.38
513.346	80.38
513.562	79.38
513.778	86.38
513.994	89.38
514.21	96.38
514.426	82.38
514.642	80.38
514.858	85.38
515.074	80.38
515.29	82.38
515.506	88.38
515.721	99.38
515.937	85.38
516.153	85.38
516.369	86.38
516.585	88.38
516.801	77.38
517.016	79.38
517.232	83.38
517.448	73.38
517.664	72.38
517.879	84.38
518.095	82.38
518.311	85.38
518.527	74.38
518.742	95.38
518.958	77.38
519.173	86.38
519.389	88.38
519.605	89.38
519.82	86.38
520.036	81.38
520.251	84.38
520.467	82.38
520.682	91.38
520.898	91.38
521.113	78.38
521.329	70.38
521.544	73.38
521.76	80.38
521.975	95.38
522.19	82.38
522.406	85.38
522.621	85.38
522.836	85.38
523.052	89.38
523.267	88.38
523.482	76.38
523.698	92.38
523.913	100.38
524.128	76.38
524.343	100.38
524.559	112.38
524.774	96.38
524.989	96.38
525.204	95.38
525.419	93.38
525.634	88.38
525.849	96.38
526.064	87.38
526.28	97.38
526.495	92.38
526.71	78.38
526.925	84.38
527.14	72.38
527.355	87.38
527.57	83.38
527.785	97.38
527.999	90.38
528.214	85.38
528.429	90.38
528.644	86.38
528.859	93.38
529.074	90.38
529.289	103.38
529.503	101.38
529.718	100.38
529.933	89.38
530.148	86.38
530.363	89.38
530.577	72.38
530.792	84.38
531.007	79.38
531.221	72.38
531.436	89.38
531.651	71.38
531.865	87.38
532.08	79.38
532.295	87.38
532.509	87.38
532.724	75.38
532.938	92.38
533.153	92.38
533.367	91.38
533.582	87.38
533.796	87.38
534.011	80.38
534.225	78.38
534.44	87.38
534.654	76.38
534.868	78.38
535.083	86.38
535.297	95.38
535.511	89.38
535.726	85.38
535.94	91.38
536.154	84.38
536.369	76.38
536.583	83.38
536.797	77.38
537.011	80.38
537.225	89.38
537.44	82.38
537.654	98.38
537.868	88.38
538.082	85.38
538.296	77.38
538.51	97.38
538.724	94.38
538.938	86.38
539.153	95.38
539.367	94.38
539.581	92.38
539.795	83.38
540.009	92.38
540.222	92.38
540.436	92.38
540.65	97.38
540.864	85.38
541.078	94.38
541.292	97.38
541.506	90.38
541.72	95.38
541.934	121.38
542.147	116.38
542.361	126.38
542.575	102.38
542.789	95.38
543.002	88.38
543.216	87.38
543.43	95.38
543.644	100.38
543.857	108.38
544.071	94.38
544.285	99.38
544.498	105.38
544.712	97.38
544.925	113.38
545.139	90.38
545.352	97.38
545.566	101.38
545.779	100.38
545.993	100.38
546.206	104.38
546.42	105.38
546.633	94.38
546.847	101.38
547.06	99.38
547.274	113.38
547.487	117.38
547.7	114.38
547.914	110.38
548.127	112.38
548.34	114.38
548.554	105.38
548.767	116.38
548.98	111.38
549.193	105.38
549.407	98.38
549.62	109.38
549.833	105.38
550.046	104.38
550.259	90.38
550.473	93.38
550.686	105.38
550.899	102.38
551.112	112.38
551.325	109.38
551.538	94.38
551.751	88.38
551.964	95.38
552.177	97.38
552.39	96.38
552.603	117.38
552.816	93.38
553.029	102.38
553.242	98.38
553.455	103.38
553.667	96.38
553.88	91.38
554.093	90.38
554.306	112.38
554.519	120.38
554.732	103.38
554.944	103.38
555.157	105.38
555.37	98.38
555.583	102.38
555.795	125.38
556.008	99.38
556.221	93.38
556.433	100.38
556.646	89.38
556.859	103.38
557.071	86.38
557.284	94.38
557.496	96.38
557.709	104.38
557.921	86.38
558.134	94.38
558.346	114.38
558.559	99.38
558.771	100.38
558.984	95.38
559.196	98.38
559.409	98.38
559.621	91.38
559.833	86.38
560.046	100.38
560.258	92.38
560.47	80.38
560.683	100.38
560.895	97.38
561.107	81.38
561.32	88.38
561.532	97.38
561.744	87.38
561.956	83.38
562.168	91.38
562.381	96.38
562.593	105.38
562.805	98.38
563.017	87.38
563.229	94.38
563.441	114.38
563.653	102.38
563.865	95.38
564.077	94.38
564.289	89.38
564.501	98.38
564.713	94.38
564.925	87.38
565.137	86.38
565.349	92.38
565.561	103.38
565.773	98.38
565.985	83.38
566.197	108.38
566.408	97.38
566.62	89.38
566.832	98.38
567.044	95.38
567.255	96.38
567.467	88.38
567.679	91.38
567.891	85.38
568.102	90.38
568.314	81.38
568.526	93.38
568.737	95.38
568.949	94.38
569.161	88.38
569.372	83.38
569.584	88.38
569.795	92.38
570.007	88.38
570.218	96.38
570.43	82.38
570.641	81.38
570.853	93.38
571.064	78.38
571.276	88.38
571.487	76.38
571.698	90.38
571.91	94.38
572.121	84.38
572.333	85.38
572.544	78.38
572.755	87.38
572.966	76.38
573.178	81.38
573.389	82.38
573.6	90.38
573.811	84.38
574.023	93.38
574.234	74.38
574.445	80.38
574.656	82.38
574.867	82.38
575.078	99.38
575.289	90.38
575.501	92.38
575.712	96.38
575.923	84.38
576.134	79.38
576.345	82.38
576.556	84.38
576.767	66.38
576.978	90.38
577.188	82.38
577.399	88.38
577.61	84.38
577.821	87.38
578.032	96.38
578.243	82.38
578.454	89.38
578.665	82.38
578.875	82.38
579.086	82.38
579.297	92.38
579.508	84.38
579.718	80.38
579.929	77.38
580.14	78.38
580.35	79.38
580.561	92.38
580.772	86.38
580.982	76.38
581.193	74.38
581.403	74.38
581.614	95.38
581.825	90.38
582.035	100.38
582.246	92.38
582.456	79.38
582.667	81.38
582.877	93.38
583.087	90.38
583.298	83.38
583.508	72.38
583.719	82.38
583.929	95.38
584.139	86.38
584.35	74.38
584.56	83.38
584.77	65.38
584.981	73.38
585.191	86.38
585.401	83.38
585.611	81.38
585.821	80.38
586.032	73.38
586.242	87.38
586.452	80.38
586.662	77.38
586.872	87.38
587.082	71.38
587.292	75.38
587.502	85.38
587.713	85.38
587.923	74.38
588.133	78.38
588.343	84.38
588.553	85.38
588.762	80.38
588.972	85.38
589.182	98.38
589.392	81.38
589.602	89.38
589.812	72.38
590.022	87.38
590.232	89.38
590.441	87.38
590.651	77.38
590.861	82.38
591.071	73.38
591.281	87.38
591.49	74.38
591.7	86.38
591.91	74.38
592.119	74.38
592.329	89.38
592.539	92.38
592.748	79.38
592.958	83.38
593.167	88.38
593.377	73.38
593.587	94.38
593.796	76.38
594.006	85.38
594.215	86.38
594.424	92.38
594.634	91.38
594.843	96.38
595.053	77.38
595.262	73.38
595.472	81.38
595.681	89.38
595.89	87.38
596.1	89.38
596.309	105.38
596.518	93.38
596.727	93.38
596.937	84.38
597.146	72.38
597.355	71.38
597.564	97.38
597.774	77.38
597.983	95.38
598.192	72.38
598.401	83.38
598.61	79.38
598.819	89.38
599.028	72.38
599.237	74.38
599.446	96.38
599.655	78.38
599.864	85.38
600.073	86.38
600.282	85.38
600.491	80.38
600.7	92.38
600.909	80.38
601.118	106.38
601.327	91.38
601.536	88.38
601.745	102.38
601.953	87.38
602.162	94.38
602.371	90.38
602.58	97.38
602.789	71.38
602.997	93.38
603.206	92.38
603.415	81.38
603.623	106.38
603.832	84.38
604.041	101.38
604.249	99.38
604.458	82.38
604.666	85.38
604.875	85.38
605.084	85.38
605.292	75.38
605.501	88.38
605.709	86.38
605.918	77.38
606.126	93.38
606.334	82.38
606.543	72.38
606.751	103.38
606.96	90.38
607.168	87.38
607.376	82.38
607.585	88.38
607.793	85.38
608.001	92.38
608.21	96.38
608.418	97.38
608.626	97.38
608.834	101.38
609.043	88.38
609.251	85.38
609.459	92.38
609.667	101.38
609.875	97.38
610.083	81.38
610.291	97.38
610.499	91.38
610.707	95.38
610.916	91.38
611.124	77.38
611.332	82.38
611.54	77.38
611.748	97.38
611.955	95.38
612.163	97.38
612.371	100.38
612.579	97.38
612.787	84.38
612.995	112.38
613.203	92.38
613.411	113.38
613.618	78.38
613.826	94.38
614.034	85.38
614.242	101.38
614.449	103.38
614.657	93.38
614.865	87.38
615.072	89.38
615.28	94.38
615.488	89.38
615.695	103.38
615.903	96.38
616.111	94.38
616.318	97.38
616.526	74.38
616.733	103.38
616.941	99.38
617.148	107.38
617.356	89.38
617.563	89.38
617.771	98.38
617.978	88.38
618.185	107.38
618.393	97.38
618.6	79.38
618.807	89.38
619.015	75.38
619.222	99.38
619.429	93.38
619.637	88.38
619.844	85.38
620.051	87.38
620.258	77.38
620.466	92.38
620.673	98.38
620.88	86.38
621.087	91.38
621.294	86.38
621.501	84.38
621.708	85.38
621.915	81.38
622.122	89.38
622.329	98.38
622.536	75.38
622.743	88.38
622.95	87.38
623.157	89.38
623.364	87.38
623.571	107.38
623.778	85.38
623.985	96.38
624.192	95.38
624.399	86.38
624.606	98.38
624.812	86.38
625.019	97.38
625.226	86.38
625.433	86.38
625.639	83.38
625.846	76.38
626.053	76.38
626.259	88.38
626.466	79.38
626.673	89.38
626.879	85.38
627.086	88.38
627.293	90.38
627.499	80.38
627.706	86.38
627.912	77.38
628.119	95.38
628.325	91.38
628.532	89.38
628.738	86.38
628.945	78.38
629.151	84.38
629.357	87.38
629.564	89.38
629.77	89.38
629.976	81.38
630.183	92.38
630.389	89.38
630.595	82.38
630.802	86.38
631.008	93.38
631.214	85.38
631.42	91.38
631.627	99.38
631.833	76.38
632.039	81.38
632.245	82.38
632.451	86.38
632.657	82.38
632.863	88.38
633.069	78.38
633.275	89.38
633.481	94.38
633.688	76.38
633.893	82.38
634.099	87.38
634.305	85.38
634.511	79.38
634.717	87.38
634.923	89.38
635.129	84.38
635.335	70.38
635.541	92.38
635.747	73.38
635.952	89.38
636.158	70.38
636.364	84.38
636.57	91.38
636.775	93.38
636.981	86.38
637.187	94.38
637.392	76.38
637.598	79.38
637.804	70.38
638.009	97.38
638.215	87.38
638.421	83.38
638.626	81.38
638.832	86.38
639.037	79.38
639.243	75.38
639.448	80.38
639.654	77.38
639.859	78.38
640.065	80.38
640.27	88.38
640.475	86.38
640.681	62.38
640.886	90.38
641.091	80.38
641.297	87.38
641.502	87.38
641.707	97.38
641.913	91.38
642.118	78.38
642.323	86.38
642.528	84.38
642.733	93.38
642.939	90.38
643.144	94.38
643.349	86.38
643.554	87.38
643.759	94.38
643.964	92.38
644.169	95.38
644.374	73.38
644.579	79.38
644.784	83.38
644.989	78.38
645.194	84.38
645.399	90.38
645.604	86.38
645.809	81.38
646.014	101.38
646.219	78.38
646.423	89.38
646.628	81.38
646.833	90.38
647.038	94.38
647.243	94.38
647.447	92.38
647.652	99.38
647.857	105.38
648.062	97.38
648.266	81.38
648.471	90.38
648.676	77.38
648.88	95.38
649.085	80.38
649.289	83.38
649.494	76.38
649.698	76.38
649.903	98.38
650.107	87.38
650.312	60.38
650.516	85.38
650.721	84.38
650.925	76.38
651.13	90.38
651.334	93.38
651.539	78.38
651.743	83.38
651.947	95.38
652.152	93.38
652.356	89.38
652.56	105.38
652.764	76.38
652.969	95.38
653.173	89.38
653.377	85.38
653.581	80.38
653.785	85.38
653.99	79.38
654.194	90.38
654.398	86.38
654.602	88.38
654.806	84.38
655.01	87.38
655.214	71.38
655.418	70.38
655.622	73.38
655.826	80.38
656.03	81.38
656.234	79.38
656.438	84.38
656.642	77.38
656.846	92.38
657.049	81.38
657.253	83.38
657.457	86.38
657.661	79.38
657.865	70.38
658.068	75.38
658.272	75.38
658.476	77.38
658.68	88.38
658.883	83.38
659.087	72.38
659.291	83.38
659.494	87.38
659.698	78.38
659.901	85.38
660.105	75.38
660.309	87.38
660.512	82.38
660.716	92.38
660.919	82.38
661.123	85.38
661.326	70.38
661.53	93.38
661.733	83.38
661.936	69.38
662.14	83.38
662.343	82.38
662.546	85.38
662.75	77.38
662.953	89.38
663.156	81.38
663.36	84.38
663.563	76.38
663.766	87.38
663.969	79.38
664.173	90.38
664.376	74.38
664.579	82.38
664.782	82.38
664.985	78.38
665.188	81.38
665.391	80.38
665.594	76.38
665.797	82.38
666	90.38
666.203	87.38
666.406	73.38
666.609	73.38
666.812	76.38
667.015	78.38
667.218	87.38
667.421	92.38
667.624	79.38
667.827	68.38
668.03	76.38
668.232	61.38
668.435	73.38
668.638	81.38
668.841	82.38
669.043	83.38
669.246	76.38
669.449	85.38
669.651	89.38
669.854	86.38
670.057	77.38
670.259	80.38
670.462	87.38
670.665	84.38
670.867	92.38
671.07	94.38
671.272	82.38
671.475	88.38
671.677	92.38
671.88	71.38
672.082	75.38
672.284	79.38
672.487	76.38
672.689	89.38
672.892	79.38
