Data from Location4.07152019.Energy5.Lamp.07192019.3%Agarose_HRD10591_15-24-59-577.txt Node
Date: Fri Jul 19 15:24:59 EDT 2019
User: cochatt
Spectrometer: HR+D1059
Trigger mode: 1
Integration Time (sec): 1.000000E-1
Scans to average: 1
Electric dark correction enabled: true
Nonlinearity correction enabled: false
Boxcar width: 0
XAxis mode: Wavelengths
Number of Pixels in Spectrum: 2048
>>>>>Begin Spectral Data<<<<<
223.165	-13.62
223.4	-13.62
223.635	-13.62
223.869	-15.62
224.104	-19.62
224.338	-9.62
224.573	-23.62
224.808	-11.62
225.042	5.38
225.277	-7.62
225.511	2.38
225.746	3.38
225.98	11.38
226.215	0.38
226.449	12.38
226.683	9.38
226.918	34.38
227.152	22.38
227.387	32.38
227.621	19.38
227.856	30.38
228.09	52.38
228.324	59.38
228.559	57.38
228.793	54.38
229.027	56.38
229.262	77.38
229.496	66.38
229.73	72.38
229.964	67.38
230.199	64.38
230.433	73.38
230.667	74.38
230.901	76.38
231.136	83.38
231.37	82.38
231.604	82.38
231.838	85.38
232.072	76.38
232.306	85.38
232.541	87.38
232.775	78.38
233.009	78.38
233.243	86.38
233.477	77.38
233.711	88.38
233.945	83.38
234.179	82.38
234.413	80.38
234.647	81.38
234.881	76.38
235.115	81.38
235.349	91.38
235.583	79.38
235.817	79.38
236.051	90.38
236.285	80.38
236.519	77.38
236.753	76.38
236.987	76.38
237.221	79.38
237.455	91.38
237.689	84.38
237.922	82.38
238.156	75.38
238.39	86.38
238.624	72.38
238.858	71.38
239.091	81.38
239.325	78.38
239.559	79.38
239.793	91.38
240.027	67.38
240.26	68.38
240.494	73.38
240.728	71.38
240.961	83.38
241.195	75.38
241.429	87.38
241.662	80.38
241.896	85.38
242.13	83.38
242.363	76.38
242.597	85.38
242.83	72.38
243.064	75.38
243.298	79.38
243.531	70.38
243.765	68.38
243.998	74.38
244.232	82.38
244.465	71.38
244.699	60.38
244.932	81.38
245.166	68.38
245.399	75.38
245.633	60.38
245.866	72.38
246.099	71.38
246.333	84.38
246.566	83.38
246.8	75.38
247.033	74.38
247.266	74.38
247.5	80.38
247.733	77.38
247.966	80.38
248.2	68.38
248.433	69.38
248.666	66.38
248.899	81.38
249.133	89.38
249.366	79.38
249.599	76.38
249.832	91.38
250.066	87.38
250.299	78.38
250.532	84.38
250.765	79.38
250.998	87.38
251.231	72.38
251.465	66.38
251.698	85.38
251.931	84.38
252.164	94.38
252.397	88.38
252.63	74.38
252.863	81.38
253.096	83.38
253.329	64.38
253.562	81.38
253.795	73.38
254.028	95.38
254.261	79.38
254.494	84.38
254.727	81.38
254.96	71.38
255.193	86.38
255.426	64.38
255.659	77.38
255.892	74.38
256.124	87.38
256.357	85.38
256.59	86.38
256.823	72.38
257.056	86.38
257.289	76.38
257.521	81.38
257.754	79.38
257.987	70.38
258.22	73.38
258.452	69.38
258.685	76.38
258.918	79.38
259.151	74.38
259.383	81.38
259.616	82.38
259.849	83.38
260.081	70.38
260.314	80.38
260.547	85.38
260.779	82.38
261.012	73.38
261.244	77.38
261.477	89.38
261.71	80.38
261.942	79.38
262.175	76.38
262.407	79.38
262.64	84.38
262.872	81.38
263.105	82.38
263.337	83.38
263.57	90.38
263.802	79.38
264.035	76.38
264.267	79.38
264.499	86.38
264.732	71.38
264.964	89.38
265.197	73.38
265.429	87.38
265.661	84.38
265.894	90.38
266.126	80.38
266.358	89.38
266.591	63.38
266.823	91.38
267.055	84.38
267.287	74.38
267.52	83.38
267.752	89.38
267.984	86.38
268.216	87.38
268.448	80.38
268.681	72.38
268.913	63.38
269.145	83.38
269.377	72.38
269.609	78.38
269.841	90.38
270.073	79.38
270.306	90.38
270.538	84.38
270.77	69.38
271.002	87.38
271.234	87.38
271.466	81.38
271.698	87.38
271.93	80.38
272.162	88.38
272.394	87.38
272.626	75.38
272.858	81.38
273.09	85.38
273.322	84.38
273.553	92.38
273.785	83.38
274.017	79.38
274.249	83.38
274.481	86.38
274.713	86.38
274.945	98.38
275.176	87.38
275.408	84.38
275.64	81.38
275.872	79.38
276.104	75.38
276.335	83.38
276.567	72.38
276.799	92.38
277.031	98.38
277.262	77.38
277.494	79.38
277.726	96.38
277.957	74.38
278.189	79.38
278.421	69.38
278.652	82.38
278.884	96.38
279.115	92.38
279.347	71.38
279.579	88.38
279.81	88.38
280.042	83.38
280.273	86.38
280.505	79.38
280.736	76.38
280.968	79.38
281.199	92.38
281.431	74.38
281.662	86.38
281.894	83.38
282.125	72.38
282.356	70.38
282.588	87.38
282.819	86.38
283.051	85.38
283.282	82.38
283.513	79.38
283.745	90.38
283.976	81.38
284.207	78.38
284.439	74.38
284.67	82.38
284.901	75.38
285.132	84.38
285.364	86.38
285.595	77.38
285.826	85.38
286.057	91.38
286.288	83.38
286.52	88.38
286.751	84.38
286.982	89.38
287.213	81.38
287.444	62.38
287.675	88.38
287.906	75.38
288.138	87.38
288.369	90.38
288.6	85.38
288.831	79.38
289.062	89.38
289.293	85.38
289.524	70.38
289.755	78.38
289.986	92.38
290.217	80.38
290.448	91.38
290.679	88.38
290.91	83.38
291.141	68.38
291.371	84.38
291.602	86.38
291.833	87.38
292.064	77.38
292.295	81.38
292.526	79.38
292.757	80.38
292.987	87.38
293.218	91.38
293.449	101.38
293.68	86.38
293.91	69.38
294.141	83.38
294.372	84.38
294.603	84.38
294.833	76.38
295.064	95.38
295.295	96.38
295.525	72.38
295.756	84.38
295.987	79.38
296.217	87.38
296.448	88.38
296.679	80.38
296.909	82.38
297.14	96.38
297.37	75.38
297.601	82.38
297.831	92.38
298.062	88.38
298.292	85.38
298.523	86.38
298.753	92.38
298.984	92.38
299.214	77.38
299.445	72.38
299.675	73.38
299.905	80.38
300.136	80.38
300.366	87.38
300.597	78.38
300.827	85.38
301.057	85.38
301.288	98.38
301.518	96.38
301.748	79.38
301.979	90.38
302.209	78.38
302.439	78.38
302.669	80.38
302.9	87.38
303.13	87.38
303.36	71.38
303.59	80.38
303.82	95.38
304.051	95.38
304.281	81.38
304.511	76.38
304.741	82.38
304.971	88.38
305.201	81.38
305.431	79.38
305.661	78.38
305.891	90.38
306.121	72.38
306.352	82.38
306.582	82.38
306.812	82.38
307.042	86.38
307.272	64.38
307.502	80.38
307.731	90.38
307.961	74.38
308.191	79.38
308.421	78.38
308.651	88.38
308.881	104.38
309.111	76.38
309.341	93.38
309.571	79.38
309.8	87.38
310.03	91.38
310.26	72.38
310.49	83.38
310.72	74.38
310.949	71.38
311.179	89.38
311.409	67.38
311.639	75.38
311.868	83.38
312.098	96.38
312.328	81.38
312.557	73.38
312.787	81.38
313.017	71.38
313.246	98.38
313.476	95.38
313.706	87.38
313.935	73.38
314.165	77.38
314.394	81.38
314.624	84.38
314.853	90.38
315.083	80.38
315.312	84.38
315.542	96.38
315.771	87.38
316.001	90.38
316.23	88.38
316.46	88.38
316.689	103.38
316.919	90.38
317.148	76.38
317.377	90.38
317.607	89.38
317.836	82.38
318.065	84.38
318.295	94.38
318.524	84.38
318.753	89.38
318.983	96.38
319.212	75.38
319.441	94.38
319.67	78.38
319.9	85.38
320.129	87.38
320.358	85.38
320.587	61.38
320.816	79.38
321.046	75.38
321.275	81.38
321.504	84.38
321.733	83.38
321.962	96.38
322.191	84.38
322.42	82.38
322.649	91.38
322.878	90.38
323.108	79.38
323.337	86.38
323.566	86.38
323.795	75.38
324.024	97.38
324.253	83.38
324.482	73.38
324.71	77.38
324.939	87.38
325.168	94.38
325.397	88.38
325.626	89.38
325.855	81.38
326.084	91.38
326.313	73.38
326.542	70.38
326.77	73.38
326.999	92.38
327.228	84.38
327.457	87.38
327.686	76.38
327.914	88.38
328.143	100.38
328.372	87.38
328.6	81.38
328.829	76.38
329.058	88.38
329.287	79.38
329.515	71.38
329.744	81.38
329.972	98.38
330.201	90.38
330.43	100.38
330.658	79.38
330.887	86.38
331.115	96.38
331.344	90.38
331.572	84.38
331.801	76.38
332.03	83.38
332.258	79.38
332.486	86.38
332.715	84.38
332.943	82.38
333.172	96.38
333.4	79.38
333.629	76.38
333.857	84.38
334.085	97.38
334.314	76.38
334.542	75.38
334.771	84.38
334.999	89.38
335.227	88.38
335.455	78.38
335.684	89.38
335.912	81.38
336.14	84.38
336.369	79.38
336.597	89.38
336.825	90.38
337.053	74.38
337.281	82.38
337.51	78.38
337.738	95.38
337.966	85.38
338.194	81.38
338.422	79.38
338.65	101.38
338.878	97.38
339.106	82.38
339.334	94.38
339.562	83.38
339.79	87.38
340.018	85.38
340.246	96.38
340.474	68.38
340.702	91.38
340.93	98.38
341.158	91.38
341.386	73.38
341.614	88.38
341.842	85.38
342.07	80.38
342.298	89.38
342.526	90.38
342.754	82.38
342.981	95.38
343.209	87.38
343.437	88.38
343.665	93.38
343.893	82.38
344.12	73.38
344.348	88.38
344.576	68.38
344.804	85.38
345.031	86.38
345.259	87.38
345.487	83.38
345.714	84.38
345.942	77.38
346.17	84.38
346.397	96.38
346.625	78.38
346.853	76.38
347.08	76.38
347.308	89.38
347.535	82.38
347.763	65.38
347.99	86.38
348.218	77.38
348.445	87.38
348.673	90.38
348.9	98.38
349.128	94.38
349.355	80.38
349.583	80.38
349.81	90.38
350.037	94.38
350.265	76.38
350.492	87.38
350.72	82.38
350.947	75.38
351.174	79.38
351.402	67.38
351.629	85.38
351.856	86.38
352.083	75.38
352.311	86.38
352.538	79.38
352.765	87.38
352.992	86.38
353.22	68.38
353.447	85.38
353.674	82.38
353.901	88.38
354.128	83.38
354.355	86.38
354.583	71.38
354.81	82.38
355.037	82.38
355.264	80.38
355.491	88.38
355.718	84.38
355.945	90.38
356.172	94.38
356.399	82.38
356.626	86.38
356.853	82.38
357.08	78.38
357.307	72.38
357.534	83.38
357.761	79.38
357.988	87.38
358.215	87.38
358.441	91.38
358.668	85.38
358.895	73.38
359.122	81.38
359.349	86.38
359.576	74.38
359.802	80.38
360.029	88.38
360.256	88.38
360.483	85.38
360.709	79.38
360.936	69.38
361.163	93.38
361.39	90.38
361.616	75.38
361.843	91.38
362.07	92.38
362.296	81.38
362.523	83.38
362.749	88.38
362.976	77.38
363.203	91.38
363.429	95.38
363.656	82.38
363.882	89.38
364.109	83.38
364.335	88.38
364.562	83.38
364.788	83.38
365.015	80.38
365.241	91.38
365.468	87.38
365.694	79.38
365.92	91.38
366.147	86.38
366.373	82.38
366.599	87.38
366.826	83.38
367.052	76.38
367.278	84.38
367.505	80.38
367.731	89.38
367.957	86.38
368.184	84.38
368.41	98.38
368.636	88.38
368.862	84.38
369.089	75.38
369.315	78.38
369.541	73.38
369.767	82.38
369.993	76.38
370.219	87.38
370.445	86.38
370.672	82.38
370.898	81.38
371.124	87.38
371.35	86.38
371.576	87.38
371.802	76.38
372.028	77.38
372.254	82.38
372.48	86.38
372.706	86.38
372.932	91.38
373.158	97.38
373.384	82.38
373.61	68.38
373.835	86.38
374.061	68.38
374.287	89.38
374.513	82.38
374.739	80.38
374.965	85.38
375.191	71.38
375.416	75.38
375.642	96.38
375.868	80.38
376.094	90.38
376.319	87.38
376.545	83.38
376.771	80.38
376.997	82.38
377.222	93.38
377.448	80.38
377.674	86.38
377.899	78.38
378.125	78.38
378.35	82.38
378.576	90.38
378.802	92.38
379.027	75.38
379.253	89.38
379.478	87.38
379.704	79.38
379.929	70.38
380.155	83.38
380.38	102.38
380.606	84.38
380.831	83.38
381.057	84.38
381.282	95.38
381.507	95.38
381.733	83.38
381.958	92.38
382.184	75.38
382.409	67.38
382.634	84.38
382.86	90.38
383.085	73.38
383.31	87.38
383.535	89.38
383.761	94.38
383.986	91.38
384.211	91.38
384.436	85.38
384.662	89.38
384.887	80.38
385.112	82.38
385.337	87.38
385.562	92.38
385.787	75.38
386.013	99.38
386.238	72.38
386.463	83.38
386.688	92.38
386.913	94.38
387.138	78.38
387.363	79.38
387.588	97.38
387.813	76.38
388.038	87.38
388.263	80.38
388.488	102.38
388.713	91.38
388.938	90.38
389.163	77.38
389.387	80.38
389.612	88.38
389.837	90.38
390.062	92.38
390.287	105.38
390.512	80.38
390.736	83.38
390.961	78.38
391.186	84.38
391.411	75.38
391.636	75.38
391.86	75.38
392.085	99.38
392.31	82.38
392.534	86.38
392.759	82.38
392.984	82.38
393.208	85.38
393.433	74.38
393.658	91.38
393.882	84.38
394.107	79.38
394.331	86.38
394.556	102.38
394.78	79.38
395.005	89.38
395.229	86.38
395.454	88.38
395.678	79.38
395.903	88.38
396.127	89.38
396.352	90.38
396.576	86.38
396.801	78.38
397.025	83.38
397.249	102.38
397.474	77.38
397.698	72.38
397.922	93.38
398.147	76.38
398.371	75.38
398.595	68.38
398.82	83.38
399.044	93.38
399.268	91.38
399.492	82.38
399.717	89.38
399.941	73.38
400.165	72.38
400.389	76.38
400.613	96.38
400.837	98.38
401.062	93.38
401.286	84.38
401.51	83.38
401.734	91.38
401.958	79.38
402.182	96.38
402.406	71.38
402.63	94.38
402.854	77.38
403.078	98.38
403.302	83.38
403.526	95.38
403.75	85.38
403.974	82.38
404.198	83.38
404.422	79.38
404.645	85.38
404.869	94.38
405.093	94.38
405.317	75.38
405.541	98.38
405.765	95.38
405.988	95.38
406.212	99.38
406.436	84.38
406.66	98.38
406.883	95.38
407.107	90.38
407.331	89.38
407.555	83.38
407.778	94.38
408.002	95.38
408.226	99.38
408.449	81.38
408.673	87.38
408.896	72.38
409.12	88.38
409.344	94.38
409.567	87.38
409.791	80.38
410.014	101.38
410.238	86.38
410.461	95.38
410.685	93.38
410.908	95.38
411.132	81.38
411.355	71.38
411.578	89.38
411.802	92.38
412.025	89.38
412.249	91.38
412.472	92.38
412.695	100.38
412.919	79.38
413.142	104.38
413.365	82.38
413.589	83.38
413.812	97.38
414.035	91.38
414.258	90.38
414.482	90.38
414.705	105.38
414.928	89.38
415.151	75.38
415.374	103.38
415.597	74.38
415.821	99.38
416.044	100.38
416.267	89.38
416.49	79.38
416.713	89.38
416.936	96.38
417.159	118.38
417.382	100.38
417.605	89.38
417.828	94.38
418.051	89.38
418.274	105.38
418.497	92.38
418.72	89.38
418.943	82.38
419.166	89.38
419.389	103.38
419.611	99.38
419.834	97.38
420.057	94.38
420.28	92.38
420.503	90.38
420.726	104.38
420.948	95.38
421.171	88.38
421.394	100.38
421.617	114.38
421.839	87.38
422.062	100.38
422.285	97.38
422.507	97.38
422.73	86.38
422.953	83.38
423.175	95.38
423.398	98.38
423.621	93.38
423.843	87.38
424.066	100.38
424.288	90.38
424.511	92.38
424.733	100.38
424.956	110.38
425.178	98.38
425.401	75.38
425.623	89.38
425.846	77.38
426.068	91.38
426.291	97.38
426.513	86.38
426.735	95.38
426.958	88.38
427.18	82.38
427.402	92.38
427.625	101.38
427.847	93.38
428.069	107.38
428.292	98.38
428.514	86.38
428.736	93.38
428.958	103.38
429.181	99.38
429.403	88.38
429.625	86.38
429.847	90.38
430.069	70.38
430.292	87.38
430.514	105.38
430.736	96.38
430.958	91.38
431.18	94.38
431.402	88.38
431.624	94.38
431.846	79.38
432.068	92.38
432.29	102.38
432.512	87.38
432.734	95.38
432.956	95.38
433.178	93.38
433.4	100.38
433.622	122.38
433.844	83.38
434.066	95.38
434.287	86.38
434.509	75.38
434.731	95.38
434.953	87.38
435.175	102.38
435.397	94.38
435.618	89.38
435.84	83.38
436.062	100.38
436.284	88.38
436.505	95.38
436.727	99.38
436.949	89.38
437.17	80.38
437.392	95.38
437.614	94.38
437.835	83.38
438.057	88.38
438.278	86.38
438.5	69.38
438.721	98.38
438.943	93.38
439.165	97.38
439.386	89.38
439.608	111.38
439.829	100.38
440.05	106.38
440.272	105.38
440.493	99.38
440.715	80.38
440.936	95.38
441.158	105.38
441.379	96.38
441.6	96.38
441.822	104.38
442.043	97.38
442.264	83.38
442.486	88.38
442.707	92.38
442.928	104.38
443.149	96.38
443.371	81.38
443.592	76.38
443.813	87.38
444.034	84.38
444.255	84.38
444.476	87.38
444.698	87.38
444.919	97.38
445.14	204.38
445.361	147.38
445.582	106.38
445.803	96.38
446.024	94.38
446.245	110.38
446.466	100.38
446.687	99.38
446.908	98.38
447.129	97.38
447.35	105.38
447.571	92.38
447.792	95.38
448.013	89.38
448.234	115.38
448.455	87.38
448.675	108.38
448.896	100.38
449.117	90.38
449.338	113.38
449.559	92.38
449.779	83.38
450	99.38
450.221	89.38
450.442	79.38
450.662	88.38
450.883	94.38
451.104	106.38
451.324	73.38
451.545	93.38
451.766	99.38
451.986	89.38
452.207	88.38
452.428	92.38
452.648	97.38
452.869	92.38
453.089	83.38
453.31	97.38
453.53	88.38
453.751	93.38
453.971	101.38
454.192	79.38
454.412	102.38
454.633	91.38
454.853	106.38
455.073	88.38
455.294	95.38
455.514	84.38
455.734	99.38
455.955	95.38
456.175	87.38
456.395	93.38
456.616	86.38
456.836	91.38
457.056	98.38
457.276	80.38
457.497	81.38
457.717	88.38
457.937	93.38
458.157	96.38
458.377	83.38
458.598	79.38
458.818	87.38
459.038	76.38
459.258	73.38
459.478	81.38
459.698	86.38
459.918	78.38
460.138	83.38
460.358	102.38
460.578	96.38
460.798	95.38
461.018	96.38
461.238	79.38
461.458	89.38
461.678	88.38
461.898	83.38
462.118	105.38
462.338	80.38
462.558	81.38
462.777	91.38
462.997	92.38
463.217	95.38
463.437	89.38
463.657	83.38
463.876	104.38
464.096	98.38
464.316	82.38
464.536	105.38
464.755	95.38
464.975	92.38
465.195	90.38
465.414	94.38
465.634	96.38
465.854	95.38
466.073	80.38
466.293	76.38
466.512	98.38
466.732	90.38
466.951	97.38
467.171	96.38
467.391	87.38
467.61	92.38
467.829	97.38
468.049	104.38
468.268	99.38
468.488	100.38
468.707	89.38
468.927	84.38
469.146	86.38
469.365	90.38
469.585	103.38
469.804	111.38
470.023	83.38
470.243	103.38
470.462	91.38
470.681	90.38
470.901	102.38
471.12	111.38
471.339	100.38
471.558	105.38
471.777	97.38
471.997	86.38
472.216	118.38
472.435	91.38
472.654	98.38
472.873	86.38
473.092	88.38
473.311	110.38
473.53	91.38
473.749	87.38
473.968	101.38
474.187	100.38
474.406	91.38
474.625	104.38
474.844	89.38
475.063	94.38
475.282	87.38
475.501	95.38
475.72	93.38
475.939	89.38
476.158	100.38
476.377	92.38
476.596	86.38
476.814	79.38
477.033	90.38
477.252	93.38
477.471	100.38
477.69	95.38
477.908	92.38
478.127	92.38
478.346	107.38
478.564	89.38
478.783	79.38
479.002	98.38
479.22	105.38
479.439	97.38
479.658	87.38
479.876	99.38
480.095	96.38
480.313	82.38
480.532	108.38
480.751	96.38
480.969	95.38
481.188	72.38
481.406	81.38
481.624	93.38
481.843	85.38
482.061	88.38
482.28	89.38
482.498	101.38
482.717	85.38
482.935	96.38
483.153	102.38
483.372	95.38
483.59	97.38
483.808	90.38
484.027	84.38
484.245	98.38
484.463	98.38
484.681	101.38
484.9	95.38
485.118	78.38
485.336	92.38
485.554	94.38
485.772	76.38
485.99	96.38
486.209	75.38
486.427	76.38
486.645	88.38
486.863	104.38
487.081	101.38
487.299	103.38
487.517	87.38
487.735	101.38
487.953	97.38
488.171	110.38
488.389	116.38
488.607	104.38
488.825	98.38
489.043	95.38
489.261	98.38
489.479	95.38
489.696	91.38
489.914	95.38
490.132	101.38
490.35	106.38
490.568	110.38
490.786	103.38
491.003	121.38
491.221	96.38
491.439	98.38
491.657	111.38
491.874	124.38
492.092	115.38
492.31	123.38
492.527	125.38
492.745	128.38
492.963	104.38
493.18	110.38
493.398	98.38
493.615	99.38
493.833	110.38
494.05	110.38
494.268	116.38
494.485	103.38
494.703	110.38
494.92	94.38
495.138	106.38
495.355	94.38
495.573	101.38
495.79	105.38
496.008	110.38
496.225	110.38
496.442	107.38
496.66	116.38
496.877	105.38
497.094	107.38
497.312	113.38
497.529	99.38
497.746	103.38
497.963	97.38
498.181	78.38
498.398	88.38
498.615	95.38
498.832	83.38
499.049	98.38
499.267	94.38
499.484	79.38
499.701	95.38
499.918	102.38
500.135	94.38
500.352	98.38
500.569	107.38
500.786	98.38
501.003	93.38
501.22	94.38
501.437	112.38
501.654	94.38
501.871	90.38
502.088	85.38
502.305	99.38
502.522	92.38
502.739	101.38
502.956	80.38
503.172	82.38
503.389	81.38
503.606	94.38
503.823	84.38
504.04	87.38
504.256	106.38
504.473	88.38
504.69	94.38
504.907	81.38
505.123	96.38
505.34	88.38
505.557	95.38
505.773	90.38
505.99	92.38
506.207	92.38
506.423	103.38
506.64	99.38
506.856	88.38
507.073	93.38
507.289	100.38
507.506	94.38
507.722	82.38
507.939	86.38
508.155	89.38
508.372	94.38
508.588	84.38
508.805	87.38
509.021	90.38
509.238	93.38
509.454	78.38
509.67	88.38
509.887	96.38
510.103	67.38
510.319	83.38
510.536	85.38
510.752	77.38
510.968	83.38
511.184	70.38
511.401	96.38
511.617	81.38
511.833	83.38
512.049	92.38
512.265	89.38
512.481	91.38
512.698	71.38
512.914	67.38
513.13	73.38
513.346	93.38
513.562	76.38
513.778	90.38
513.994	76.38
514.21	89.38
514.426	100.38
514.642	86.38
514.858	87.38
515.074	73.38
515.29	94.38
515.506	88.38
515.721	76.38
515.937	86.38
516.153	66.38
516.369	78.38
516.585	74.38
516.801	76.38
517.016	86.38
517.232	98.38
517.448	71.38
517.664	90.38
517.879	91.38
518.095	92.38
518.311	97.38
518.527	87.38
518.742	89.38
518.958	76.38
519.173	94.38
519.389	91.38
519.605	93.38
519.82	77.38
520.036	98.38
520.251	96.38
520.467	84.38
520.682	96.38
520.898	79.38
521.113	83.38
521.329	71.38
521.544	81.38
521.76	89.38
521.975	99.38
522.19	97.38
522.406	85.38
522.621	111.38
522.836	86.38
523.052	76.38
523.267	82.38
523.482	85.38
523.698	75.38
523.913	96.38
524.128	92.38
524.343	84.38
524.559	91.38
524.774	97.38
524.989	97.38
525.204	99.38
525.419	79.38
525.634	84.38
525.849	94.38
526.064	72.38
526.28	79.38
526.495	71.38
526.71	88.38
526.925	87.38
527.14	82.38
527.355	80.38
527.57	89.38
527.785	78.38
527.999	82.38
528.214	100.38
528.429	91.38
528.644	99.38
528.859	98.38
529.074	107.38
529.289	87.38
529.503	104.38
529.718	89.38
529.933	92.38
530.148	90.38
530.363	87.38
530.577	86.38
530.792	91.38
531.007	73.38
531.221	78.38
531.436	90.38
531.651	86.38
531.865	87.38
532.08	94.38
532.295	74.38
532.509	98.38
532.724	81.38
532.938	88.38
533.153	89.38
533.367	94.38
533.582	90.38
533.796	92.38
534.011	87.38
534.225	82.38
534.44	97.38
534.654	76.38
534.868	82.38
535.083	89.38
535.297	82.38
535.511	85.38
535.726	92.38
535.94	74.38
536.154	78.38
536.369	74.38
536.583	78.38
536.797	85.38
537.011	82.38
537.225	72.38
537.44	87.38
537.654	85.38
537.868	79.38
538.082	90.38
538.296	102.38
538.51	81.38
538.724	82.38
538.938	86.38
539.153	94.38
539.367	94.38
539.581	105.38
539.795	91.38
540.009	78.38
540.222	97.38
540.436	88.38
540.65	99.38
540.864	100.38
541.078	94.38
541.292	94.38
541.506	111.38
541.72	118.38
541.934	115.38
542.147	126.38
542.361	111.38
542.575	105.38
542.789	105.38
543.002	88.38
543.216	97.38
543.43	82.38
543.644	105.38
543.857	104.38
544.071	100.38
544.285	102.38
544.498	113.38
544.712	97.38
544.925	99.38
545.139	116.38
545.352	102.38
545.566	88.38
545.779	116.38
545.993	104.38
546.206	112.38
546.42	115.38
546.633	102.38
546.847	110.38
547.06	114.38
547.274	113.38
547.487	119.38
547.7	112.38
547.914	94.38
548.127	101.38
548.34	113.38
548.554	94.38
548.767	118.38
548.98	107.38
549.193	95.38
549.407	111.38
549.62	110.38
549.833	108.38
550.046	101.38
550.259	111.38
550.473	107.38
550.686	91.38
550.899	102.38
551.112	96.38
551.325	94.38
551.538	94.38
551.751	104.38
551.964	93.38
552.177	98.38
552.39	114.38
552.603	107.38
552.816	110.38
553.029	112.38
553.242	84.38
553.455	113.38
553.667	103.38
553.88	112.38
554.093	106.38
554.306	104.38
554.519	96.38
554.732	103.38
554.944	99.38
555.157	98.38
555.37	90.38
555.583	105.38
555.795	104.38
556.008	91.38
556.221	93.38
556.433	92.38
556.646	104.38
556.859	104.38
557.071	93.38
557.284	116.38
557.496	88.38
557.709	97.38
557.921	98.38
558.134	92.38
558.346	99.38
558.559	99.38
558.771	112.38
558.984	107.38
559.196	105.38
559.409	89.38
559.621	106.38
559.833	96.38
560.046	88.38
560.258	82.38
560.47	98.38
560.683	99.38
560.895	85.38
561.107	97.38
561.32	91.38
561.532	104.38
561.744	103.38
561.956	117.38
562.168	86.38
562.381	103.38
562.593	93.38
562.805	101.38
563.017	106.38
563.229	100.38
563.441	94.38
563.653	77.38
563.865	88.38
564.077	101.38
564.289	100.38
564.501	97.38
564.713	104.38
564.925	90.38
565.137	104.38
565.349	99.38
565.561	95.38
565.773	91.38
565.985	81.38
566.197	93.38
566.408	103.38
566.62	90.38
566.832	101.38
567.044	98.38
567.255	106.38
567.467	102.38
567.679	93.38
567.891	75.38
568.102	79.38
568.314	99.38
568.526	91.38
568.737	82.38
568.949	72.38
569.161	75.38
569.372	82.38
569.584	92.38
569.795	94.38
570.007	90.38
570.218	84.38
570.43	84.38
570.641	77.38
570.853	82.38
571.064	94.38
571.276	89.38
571.487	84.38
571.698	96.38
571.91	93.38
572.121	89.38
572.333	85.38
572.544	87.38
572.755	89.38
572.966	94.38
573.178	92.38
573.389	82.38
573.6	72.38
573.811	87.38
574.023	92.38
574.234	83.38
574.445	81.38
574.656	84.38
574.867	88.38
575.078	92.38
575.289	84.38
575.501	77.38
575.712	76.38
575.923	94.38
576.134	84.38
576.345	91.38
576.556	94.38
576.767	84.38
576.978	94.38
577.188	88.38
577.399	76.38
577.61	82.38
577.821	96.38
578.032	85.38
578.243	93.38
578.454	92.38
578.665	105.38
578.875	75.38
579.086	92.38
579.297	81.38
579.508	87.38
579.718	90.38
579.929	82.38
580.14	91.38
580.35	89.38
580.561	89.38
580.772	76.38
580.982	77.38
581.193	85.38
581.403	82.38
581.614	92.38
581.825	92.38
582.035	80.38
582.246	79.38
582.456	68.38
582.667	92.38
582.877	92.38
583.087	90.38
583.298	76.38
583.508	91.38
583.719	81.38
583.929	81.38
584.139	94.38
584.35	87.38
584.56	101.38
584.77	78.38
584.981	82.38
585.191	97.38
585.401	80.38
585.611	86.38
585.821	97.38
586.032	92.38
586.242	88.38
586.452	95.38
586.662	85.38
586.872	87.38
587.082	103.38
587.292	92.38
587.502	84.38
587.713	87.38
587.923	82.38
588.133	90.38
588.343	78.38
588.553	82.38
588.762	93.38
588.972	88.38
589.182	84.38
589.392	93.38
589.602	86.38
589.812	81.38
590.022	79.38
590.232	82.38
590.441	79.38
590.651	83.38
590.861	91.38
591.071	79.38
591.281	88.38
591.49	71.38
591.7	91.38
591.91	81.38
592.119	79.38
592.329	75.38
592.539	90.38
592.748	91.38
592.958	87.38
593.167	95.38
593.377	83.38
593.587	91.38
593.796	87.38
594.006	85.38
594.215	88.38
594.424	85.38
594.634	76.38
594.843	82.38
595.053	79.38
595.262	86.38
595.472	90.38
595.681	96.38
595.89	90.38
596.1	74.38
596.309	81.38
596.518	91.38
596.727	86.38
596.937	78.38
597.146	93.38
597.355	92.38
597.564	99.38
597.774	97.38
597.983	92.38
598.192	79.38
598.401	82.38
598.61	89.38
598.819	89.38
599.028	88.38
599.237	86.38
599.446	80.38
599.655	83.38
599.864	77.38
600.073	100.38
600.282	107.38
600.491	90.38
600.7	89.38
600.909	100.38
601.118	83.38
601.327	99.38
601.536	95.38
601.745	82.38
601.953	70.38
602.162	91.38
602.371	113.38
602.58	90.38
602.789	89.38
602.997	80.38
603.206	89.38
603.415	94.38
603.623	99.38
603.832	97.38
604.041	84.38
604.249	91.38
604.458	92.38
604.666	95.38
604.875	89.38
605.084	88.38
605.292	96.38
605.501	95.38
605.709	91.38
605.918	86.38
606.126	85.38
606.334	98.38
606.543	93.38
606.751	90.38
606.96	94.38
607.168	102.38
607.376	79.38
607.585	85.38
607.793	84.38
608.001	97.38
608.21	93.38
608.418	110.38
608.626	101.38
608.834	96.38
609.043	94.38
609.251	102.38
609.459	93.38
609.667	94.38
609.875	92.38
610.083	90.38
610.291	92.38
610.499	82.38
610.707	86.38
610.916	100.38
611.124	84.38
611.332	92.38
611.54	93.38
611.748	77.38
611.955	95.38
612.163	94.38
612.371	92.38
612.579	84.38
612.787	83.38
612.995	86.38
613.203	101.38
613.411	87.38
613.618	89.38
613.826	101.38
614.034	83.38
614.242	82.38
614.449	102.38
614.657	82.38
614.865	99.38
615.072	95.38
615.28	97.38
615.488	100.38
615.695	101.38
615.903	90.38
616.111	81.38
616.318	100.38
616.526	108.38
616.733	105.38
616.941	97.38
617.148	91.38
617.356	92.38
617.563	107.38
617.771	85.38
617.978	92.38
618.185	101.38
618.393	103.38
618.6	89.38
618.807	83.38
619.015	97.38
619.222	82.38
619.429	92.38
619.637	92.38
619.844	91.38
620.051	86.38
620.258	82.38
620.466	98.38
620.673	95.38
620.88	79.38
621.087	91.38
621.294	98.38
621.501	82.38
621.708	103.38
621.915	94.38
622.122	104.38
622.329	97.38
622.536	102.38
622.743	97.38
622.95	96.38
623.157	91.38
623.364	98.38
623.571	83.38
623.778	89.38
623.985	96.38
624.192	94.38
624.399	87.38
624.606	94.38
624.812	88.38
625.019	84.38
625.226	86.38
625.433	84.38
625.639	78.38
625.846	88.38
626.053	86.38
626.259	81.38
626.466	98.38
626.673	87.38
626.879	89.38
627.086	83.38
627.293	98.38
627.499	100.38
627.706	80.38
627.912	85.38
628.119	88.38
628.325	95.38
628.532	99.38
628.738	101.38
628.945	91.38
629.151	80.38
629.357	91.38
629.564	98.38
629.77	84.38
629.976	89.38
630.183	87.38
630.389	98.38
630.595	75.38
630.802	92.38
631.008	88.38
631.214	90.38
631.42	97.38
631.627	79.38
631.833	90.38
632.039	92.38
632.245	91.38
632.451	76.38
632.657	98.38
632.863	90.38
633.069	81.38
633.275	86.38
633.481	72.38
633.688	90.38
633.893	100.38
634.099	91.38
634.305	88.38
634.511	85.38
634.717	88.38
634.923	86.38
635.129	84.38
635.335	94.38
635.541	80.38
635.747	86.38
635.952	88.38
636.158	85.38
636.364	95.38
636.57	91.38
636.775	88.38
636.981	87.38
637.187	95.38
637.392	95.38
637.598	88.38
637.804	92.38
638.009	86.38
638.215	97.38
638.421	87.38
638.626	90.38
638.832	83.38
639.037	95.38
639.243	95.38
639.448	102.38
639.654	91.38
639.859	92.38
640.065	96.38
640.27	100.38
640.475	82.38
640.681	86.38
640.886	82.38
641.091	87.38
641.297	79.38
641.502	88.38
641.707	83.38
641.913	95.38
642.118	88.38
642.323	84.38
642.528	92.38
642.733	93.38
642.939	80.38
643.144	77.38
643.349	91.38
643.554	91.38
643.759	106.38
643.964	72.38
644.169	88.38
644.374	83.38
644.579	87.38
644.784	85.38
644.989	97.38
645.194	93.38
645.399	96.38
645.604	77.38
645.809	92.38
646.014	87.38
646.219	80.38
646.423	84.38
646.628	87.38
646.833	89.38
647.038	85.38
647.243	73.38
647.447	79.38
647.652	82.38
647.857	87.38
648.062	76.38
648.266	87.38
648.471	85.38
648.676	102.38
648.88	79.38
649.085	86.38
649.289	80.38
649.494	98.38
649.698	91.38
649.903	93.38
650.107	99.38
650.312	84.38
650.516	89.38
650.721	81.38
650.925	71.38
651.13	84.38
651.334	88.38
651.539	89.38
651.743	90.38
651.947	75.38
652.152	82.38
652.356	89.38
652.56	78.38
652.764	72.38
652.969	66.38
653.173	93.38
653.377	81.38
653.581	91.38
653.785	87.38
653.99	77.38
654.194	77.38
654.398	83.38
654.602	83.38
654.806	91.38
655.01	84.38
655.214	72.38
655.418	66.38
655.622	82.38
655.826	76.38
656.03	80.38
656.234	67.38
656.438	68.38
656.642	83.38
656.846	89.38
657.049	90.38
657.253	92.38
657.457	87.38
657.661	89.38
657.865	105.38
658.068	87.38
658.272	78.38
658.476	83.38
658.68	82.38
658.883	87.38
659.087	87.38
659.291	81.38
659.494	89.38
659.698	71.38
659.901	82.38
660.105	86.38
660.309	80.38
660.512	84.38
660.716	68.38
660.919	71.38
661.123	77.38
661.326	92.38
661.53	90.38
661.733	81.38
661.936	87.38
662.14	68.38
662.343	71.38
662.546	78.38
662.75	83.38
662.953	81.38
663.156	80.38
663.36	70.38
663.563	73.38
663.766	70.38
663.969	91.38
664.173	70.38
664.376	82.38
664.579	81.38
664.782	92.38
664.985	74.38
665.188	74.38
665.391	79.38
665.594	57.38
665.797	80.38
666	86.38
666.203	88.38
666.406	97.38
666.609	76.38
666.812	73.38
667.015	84.38
667.218	84.38
667.421	89.38
667.624	82.38
667.827	76.38
668.03	70.38
668.232	66.38
668.435	81.38
668.638	71.38
668.841	85.38
669.043	75.38
669.246	69.38
669.449	70.38
669.651	71.38
669.854	93.38
670.057	88.38
670.259	79.38
670.462	98.38
670.665	94.38
670.867	75.38
671.07	81.38
671.272	80.38
671.475	68.38
671.677	89.38
671.88	82.38
672.082	79.38
672.284	87.38
672.487	70.38
672.689	81.38
672.892	86.38
