Data from Location4.07152019.Energy5.Lamp.07192019.3%Agarose_HRD10591_15-24-38-577.txt Node
Date: Fri Jul 19 15:24:38 EDT 2019
User: cochatt
Spectrometer: HR+D1059
Trigger mode: 1
Integration Time (sec): 1.000000E-1
Scans to average: 1
Electric dark correction enabled: true
Nonlinearity correction enabled: false
Boxcar width: 0
XAxis mode: Wavelengths
Number of Pixels in Spectrum: 2048
>>>>>Begin Spectral Data<<<<<
223.165	-18.62
223.4	-18.62
223.635	-18.62
223.869	-9.62
224.104	-15.62
224.338	-13.62
224.573	-12.62
224.808	-16.62
225.042	-20.62
225.277	-8.62
225.511	0.38
225.746	0.38
225.98	-3.62
226.215	13.38
226.449	27.38
226.683	29.38
226.918	24.38
227.152	24.38
227.387	14.38
227.621	42.38
227.856	36.38
228.09	47.38
228.324	48.38
228.559	48.38
228.793	66.38
229.027	68.38
229.262	66.38
229.496	66.38
229.73	78.38
229.964	74.38
230.199	70.38
230.433	68.38
230.667	77.38
230.901	91.38
231.136	79.38
231.37	81.38
231.604	81.38
231.838	78.38
232.072	75.38
232.306	75.38
232.541	98.38
232.775	88.38
233.009	75.38
233.243	88.38
233.477	83.38
233.711	88.38
233.945	83.38
234.179	78.38
234.413	82.38
234.647	72.38
234.881	69.38
235.115	79.38
235.349	78.38
235.583	70.38
235.817	82.38
236.051	84.38
236.285	71.38
236.519	82.38
236.753	76.38
236.987	100.38
237.221	88.38
237.455	75.38
237.689	84.38
237.922	82.38
238.156	67.38
238.39	73.38
238.624	74.38
238.858	70.38
239.091	80.38
239.325	62.38
239.559	90.38
239.793	56.38
240.027	80.38
240.26	68.38
240.494	79.38
240.728	80.38
240.961	74.38
241.195	83.38
241.429	73.38
241.662	70.38
241.896	68.38
242.13	79.38
242.363	76.38
242.597	75.38
242.83	86.38
243.064	85.38
243.298	67.38
243.531	88.38
243.765	71.38
243.998	75.38
244.232	77.38
244.465	68.38
244.699	89.38
244.932	80.38
245.166	81.38
245.399	74.38
245.633	77.38
245.866	78.38
246.099	78.38
246.333	76.38
246.566	75.38
246.8	78.38
247.033	85.38
247.266	89.38
247.5	74.38
247.733	99.38
247.966	76.38
248.2	95.38
248.433	75.38
248.666	83.38
248.899	78.38
249.133	79.38
249.366	86.38
249.599	72.38
249.832	65.38
250.066	72.38
250.299	85.38
250.532	90.38
250.765	88.38
250.998	77.38
251.231	72.38
251.465	92.38
251.698	88.38
251.931	79.38
252.164	81.38
252.397	86.38
252.63	81.38
252.863	83.38
253.096	81.38
253.329	78.38
253.562	78.38
253.795	88.38
254.028	82.38
254.261	85.38
254.494	73.38
254.727	85.38
254.96	83.38
255.193	84.38
255.426	86.38
255.659	87.38
255.892	87.38
256.124	81.38
256.357	88.38
256.59	77.38
256.823	75.38
257.056	77.38
257.289	81.38
257.521	83.38
257.754	88.38
257.987	71.38
258.22	71.38
258.452	79.38
258.685	55.38
258.918	87.38
259.151	74.38
259.383	76.38
259.616	73.38
259.849	87.38
260.081	80.38
260.314	66.38
260.547	87.38
260.779	81.38
261.012	91.38
261.244	91.38
261.477	93.38
261.71	91.38
261.942	73.38
262.175	85.38
262.407	88.38
262.64	78.38
262.872	88.38
263.105	76.38
263.337	74.38
263.57	84.38
263.802	93.38
264.035	98.38
264.267	96.38
264.499	82.38
264.732	83.38
264.964	89.38
265.197	76.38
265.429	82.38
265.661	91.38
265.894	81.38
266.126	82.38
266.358	87.38
266.591	77.38
266.823	83.38
267.055	92.38
267.287	69.38
267.52	83.38
267.752	76.38
267.984	78.38
268.216	90.38
268.448	91.38
268.681	88.38
268.913	88.38
269.145	85.38
269.377	79.38
269.609	85.38
269.841	77.38
270.073	92.38
270.306	86.38
270.538	91.38
270.77	68.38
271.002	85.38
271.234	79.38
271.466	86.38
271.698	81.38
271.93	76.38
272.162	91.38
272.394	97.38
272.626	82.38
272.858	76.38
273.09	81.38
273.322	87.38
273.553	83.38
273.785	84.38
274.017	83.38
274.249	84.38
274.481	64.38
274.713	76.38
274.945	84.38
275.176	89.38
275.408	79.38
275.64	85.38
275.872	75.38
276.104	84.38
276.335	91.38
276.567	74.38
276.799	71.38
277.031	83.38
277.262	93.38
277.494	75.38
277.726	102.38
277.957	96.38
278.189	83.38
278.421	90.38
278.652	77.38
278.884	88.38
279.115	88.38
279.347	73.38
279.579	72.38
279.81	76.38
280.042	80.38
280.273	90.38
280.505	86.38
280.736	78.38
280.968	84.38
281.199	79.38
281.431	77.38
281.662	82.38
281.894	84.38
282.125	88.38
282.356	91.38
282.588	91.38
282.819	97.38
283.051	89.38
283.282	76.38
283.513	79.38
283.745	87.38
283.976	86.38
284.207	97.38
284.439	96.38
284.67	82.38
284.901	82.38
285.132	78.38
285.364	69.38
285.595	80.38
285.826	76.38
286.057	91.38
286.288	74.38
286.52	93.38
286.751	84.38
286.982	88.38
287.213	75.38
287.444	93.38
287.675	82.38
287.906	98.38
288.138	92.38
288.369	83.38
288.6	81.38
288.831	77.38
289.062	80.38
289.293	84.38
289.524	96.38
289.755	92.38
289.986	79.38
290.217	77.38
290.448	85.38
290.679	89.38
290.91	88.38
291.141	84.38
291.371	89.38
291.602	88.38
291.833	99.38
292.064	85.38
292.295	88.38
292.526	81.38
292.757	81.38
292.987	87.38
293.218	80.38
293.449	86.38
293.68	87.38
293.91	88.38
294.141	76.38
294.372	86.38
294.603	77.38
294.833	90.38
295.064	90.38
295.295	88.38
295.525	98.38
295.756	77.38
295.987	80.38
296.217	89.38
296.448	71.38
296.679	83.38
296.909	90.38
297.14	92.38
297.37	98.38
297.601	91.38
297.831	97.38
298.062	89.38
298.292	77.38
298.523	93.38
298.753	80.38
298.984	88.38
299.214	73.38
299.445	94.38
299.675	85.38
299.905	77.38
300.136	89.38
300.366	85.38
300.597	88.38
300.827	89.38
301.057	82.38
301.288	85.38
301.518	89.38
301.748	94.38
301.979	90.38
302.209	90.38
302.439	87.38
302.669	90.38
302.9	88.38
303.13	79.38
303.36	69.38
303.59	91.38
303.82	88.38
304.051	95.38
304.281	85.38
304.511	93.38
304.741	88.38
304.971	81.38
305.201	85.38
305.431	86.38
305.661	85.38
305.891	88.38
306.121	84.38
306.352	86.38
306.582	87.38
306.812	89.38
307.042	80.38
307.272	85.38
307.502	88.38
307.731	84.38
307.961	85.38
308.191	91.38
308.421	63.38
308.651	84.38
308.881	75.38
309.111	71.38
309.341	87.38
309.571	84.38
309.8	95.38
310.03	82.38
310.26	85.38
310.49	95.38
310.72	92.38
310.949	85.38
311.179	82.38
311.409	86.38
311.639	88.38
311.868	90.38
312.098	86.38
312.328	89.38
312.557	83.38
312.787	82.38
313.017	73.38
313.246	95.38
313.476	87.38
313.706	91.38
313.935	78.38
314.165	79.38
314.394	103.38
314.624	87.38
314.853	81.38
315.083	76.38
315.312	79.38
315.542	96.38
315.771	89.38
316.001	86.38
316.23	84.38
316.46	82.38
316.689	80.38
316.919	92.38
317.148	84.38
317.377	89.38
317.607	84.38
317.836	99.38
318.065	84.38
318.295	79.38
318.524	83.38
318.753	87.38
318.983	86.38
319.212	84.38
319.441	78.38
319.67	95.38
319.9	84.38
320.129	89.38
320.358	88.38
320.587	101.38
320.816	79.38
321.046	85.38
321.275	77.38
321.504	92.38
321.733	83.38
321.962	85.38
322.191	79.38
322.42	85.38
322.649	92.38
322.878	83.38
323.108	91.38
323.337	97.38
323.566	83.38
323.795	91.38
324.024	76.38
324.253	73.38
324.482	72.38
324.71	81.38
324.939	76.38
325.168	83.38
325.397	69.38
325.626	77.38
325.855	81.38
326.084	92.38
326.313	85.38
326.542	89.38
326.77	82.38
326.999	80.38
327.228	91.38
327.457	73.38
327.686	99.38
327.914	82.38
328.143	81.38
328.372	100.38
328.6	82.38
328.829	77.38
329.058	82.38
329.287	91.38
329.515	86.38
329.744	77.38
329.972	77.38
330.201	85.38
330.43	88.38
330.658	78.38
330.887	88.38
331.115	83.38
331.344	69.38
331.572	97.38
331.801	86.38
332.03	83.38
332.258	92.38
332.486	91.38
332.715	84.38
332.943	88.38
333.172	74.38
333.4	75.38
333.629	87.38
333.857	78.38
334.085	85.38
334.314	85.38
334.542	92.38
334.771	96.38
334.999	77.38
335.227	80.38
335.455	87.38
335.684	82.38
335.912	86.38
336.14	89.38
336.369	81.38
336.597	87.38
336.825	80.38
337.053	81.38
337.281	80.38
337.51	74.38
337.738	90.38
337.966	86.38
338.194	80.38
338.422	77.38
338.65	85.38
338.878	87.38
339.106	78.38
339.334	89.38
339.562	85.38
339.79	69.38
340.018	84.38
340.246	92.38
340.474	90.38
340.702	77.38
340.93	90.38
341.158	81.38
341.386	79.38
341.614	93.38
341.842	92.38
342.07	75.38
342.298	80.38
342.526	88.38
342.754	89.38
342.981	79.38
343.209	94.38
343.437	87.38
343.665	84.38
343.893	74.38
344.12	85.38
344.348	82.38
344.576	81.38
344.804	84.38
345.031	83.38
345.259	84.38
345.487	78.38
345.714	80.38
345.942	80.38
346.17	107.38
346.397	81.38
346.625	95.38
346.853	91.38
347.08	84.38
347.308	78.38
347.535	91.38
347.763	80.38
347.99	78.38
348.218	89.38
348.445	89.38
348.673	73.38
348.9	81.38
349.128	81.38
349.355	97.38
349.583	93.38
349.81	75.38
350.037	75.38
350.265	73.38
350.492	72.38
350.72	83.38
350.947	98.38
351.174	95.38
351.402	92.38
351.629	80.38
351.856	80.38
352.083	90.38
352.311	95.38
352.538	92.38
352.765	86.38
352.992	82.38
353.22	85.38
353.447	82.38
353.674	77.38
353.901	97.38
354.128	84.38
354.355	73.38
354.583	93.38
354.81	98.38
355.037	76.38
355.264	78.38
355.491	96.38
355.718	86.38
355.945	63.38
356.172	76.38
356.399	72.38
356.626	85.38
356.853	97.38
357.08	81.38
357.307	75.38
357.534	84.38
357.761	97.38
357.988	76.38
358.215	81.38
358.441	85.38
358.668	84.38
358.895	85.38
359.122	90.38
359.349	92.38
359.576	83.38
359.802	91.38
360.029	78.38
360.256	86.38
360.483	82.38
360.709	74.38
360.936	102.38
361.163	77.38
361.39	77.38
361.616	77.38
361.843	84.38
362.07	93.38
362.296	86.38
362.523	82.38
362.749	90.38
362.976	80.38
363.203	83.38
363.429	94.38
363.656	76.38
363.882	83.38
364.109	81.38
364.335	77.38
364.562	70.38
364.788	90.38
365.015	86.38
365.241	85.38
365.468	79.38
365.694	77.38
365.92	72.38
366.147	83.38
366.373	91.38
366.599	90.38
366.826	66.38
367.052	79.38
367.278	83.38
367.505	84.38
367.731	81.38
367.957	90.38
368.184	87.38
368.41	85.38
368.636	94.38
368.862	89.38
369.089	92.38
369.315	92.38
369.541	85.38
369.767	70.38
369.993	74.38
370.219	79.38
370.445	87.38
370.672	84.38
370.898	103.38
371.124	84.38
371.35	73.38
371.576	75.38
371.802	75.38
372.028	83.38
372.254	85.38
372.48	81.38
372.706	81.38
372.932	103.38
373.158	72.38
373.384	79.38
373.61	85.38
373.835	88.38
374.061	84.38
374.287	79.38
374.513	80.38
374.739	73.38
374.965	83.38
375.191	76.38
375.416	93.38
375.642	73.38
375.868	83.38
376.094	102.38
376.319	79.38
376.545	80.38
376.771	92.38
376.997	95.38
377.222	93.38
377.448	92.38
377.674	87.38
377.899	85.38
378.125	86.38
378.35	81.38
378.576	79.38
378.802	88.38
379.027	98.38
379.253	77.38
379.478	99.38
379.704	84.38
379.929	90.38
380.155	79.38
380.38	82.38
380.606	87.38
380.831	78.38
381.057	105.38
381.282	85.38
381.507	81.38
381.733	82.38
381.958	87.38
382.184	101.38
382.409	88.38
382.634	92.38
382.86	86.38
383.085	79.38
383.31	83.38
383.535	88.38
383.761	87.38
383.986	88.38
384.211	84.38
384.436	75.38
384.662	76.38
384.887	77.38
385.112	96.38
385.337	86.38
385.562	83.38
385.787	87.38
386.013	87.38
386.238	91.38
386.463	87.38
386.688	84.38
386.913	78.38
387.138	85.38
387.363	85.38
387.588	81.38
387.813	90.38
388.038	77.38
388.263	95.38
388.488	88.38
388.713	82.38
388.938	89.38
389.163	82.38
389.387	82.38
389.612	71.38
389.837	95.38
390.062	84.38
390.287	95.38
390.512	82.38
390.736	87.38
390.961	81.38
391.186	82.38
391.411	75.38
391.636	83.38
391.86	85.38
392.085	86.38
392.31	84.38
392.534	88.38
392.759	94.38
392.984	101.38
393.208	91.38
393.433	72.38
393.658	89.38
393.882	76.38
394.107	85.38
394.331	83.38
394.556	88.38
394.78	82.38
395.005	94.38
395.229	110.38
395.454	80.38
395.678	85.38
395.903	79.38
396.127	99.38
396.352	107.38
396.576	76.38
396.801	95.38
397.025	86.38
397.249	95.38
397.474	95.38
397.698	81.38
397.922	79.38
398.147	90.38
398.371	68.38
398.595	71.38
398.82	87.38
399.044	91.38
399.268	102.38
399.492	81.38
399.717	91.38
399.941	94.38
400.165	83.38
400.389	84.38
400.613	84.38
400.837	90.38
401.062	80.38
401.286	91.38
401.51	101.38
401.734	90.38
401.958	98.38
402.182	86.38
402.406	94.38
402.63	95.38
402.854	88.38
403.078	91.38
403.302	88.38
403.526	80.38
403.75	94.38
403.974	90.38
404.198	96.38
404.422	96.38
404.645	82.38
404.869	88.38
405.093	90.38
405.317	91.38
405.541	105.38
405.765	75.38
405.988	96.38
406.212	87.38
406.436	101.38
406.66	99.38
406.883	89.38
407.107	87.38
407.331	96.38
407.555	103.38
407.778	96.38
408.002	89.38
408.226	82.38
408.449	86.38
408.673	93.38
408.896	103.38
409.12	75.38
409.344	84.38
409.567	76.38
409.791	76.38
410.014	89.38
410.238	93.38
410.461	78.38
410.685	85.38
410.908	98.38
411.132	85.38
411.355	88.38
411.578	94.38
411.802	89.38
412.025	87.38
412.249	87.38
412.472	99.38
412.695	82.38
412.919	90.38
413.142	102.38
413.365	87.38
413.589	87.38
413.812	111.38
414.035	99.38
414.258	90.38
414.482	87.38
414.705	85.38
414.928	95.38
415.151	100.38
415.374	87.38
415.597	90.38
415.821	90.38
416.044	95.38
416.267	99.38
416.49	86.38
416.713	99.38
416.936	99.38
417.159	90.38
417.382	106.38
417.605	78.38
417.828	94.38
418.051	85.38
418.274	88.38
418.497	89.38
418.72	84.38
418.943	97.38
419.166	87.38
419.389	94.38
419.611	94.38
419.834	99.38
420.057	79.38
420.28	99.38
420.503	92.38
420.726	93.38
420.948	85.38
421.171	92.38
421.394	81.38
421.617	96.38
421.839	102.38
422.062	93.38
422.285	96.38
422.507	79.38
422.73	82.38
422.953	91.38
423.175	107.38
423.398	94.38
423.621	80.38
423.843	105.38
424.066	91.38
424.288	112.38
424.511	97.38
424.733	100.38
424.956	96.38
425.178	88.38
425.401	88.38
425.623	95.38
425.846	87.38
426.068	97.38
426.291	105.38
426.513	93.38
426.735	87.38
426.958	101.38
427.18	88.38
427.402	99.38
427.625	86.38
427.847	76.38
428.069	92.38
428.292	90.38
428.514	88.38
428.736	95.38
428.958	92.38
429.181	109.38
429.403	86.38
429.625	96.38
429.847	92.38
430.069	91.38
430.292	107.38
430.514	92.38
430.736	99.38
430.958	101.38
431.18	102.38
431.402	90.38
431.624	83.38
431.846	91.38
432.068	95.38
432.29	75.38
432.512	90.38
432.734	82.38
432.956	87.38
433.178	93.38
433.4	96.38
433.622	97.38
433.844	86.38
434.066	98.38
434.287	83.38
434.509	78.38
434.731	78.38
434.953	87.38
435.175	80.38
435.397	84.38
435.618	90.38
435.84	76.38
436.062	80.38
436.284	94.38
436.505	99.38
436.727	95.38
436.949	92.38
437.17	88.38
437.392	101.38
437.614	105.38
437.835	93.38
438.057	94.38
438.278	81.38
438.5	95.38
438.721	101.38
438.943	97.38
439.165	106.38
439.386	102.38
439.608	90.38
439.829	97.38
440.05	99.38
440.272	102.38
440.493	99.38
440.715	85.38
440.936	93.38
441.158	103.38
441.379	92.38
441.6	104.38
441.822	89.38
442.043	91.38
442.264	94.38
442.486	99.38
442.707	97.38
442.928	95.38
443.149	96.38
443.371	92.38
443.592	98.38
443.813	104.38
444.034	104.38
444.255	97.38
444.476	89.38
444.698	98.38
444.919	86.38
445.14	213.38
445.361	161.38
445.582	107.38
445.803	88.38
446.024	101.38
446.245	100.38
446.466	93.38
446.687	92.38
446.908	92.38
447.129	104.38
447.35	120.38
447.571	108.38
447.792	106.38
448.013	100.38
448.234	111.38
448.455	88.38
448.675	88.38
448.896	84.38
449.117	95.38
449.338	93.38
449.559	91.38
449.779	79.38
450	91.38
450.221	92.38
450.442	86.38
450.662	105.38
450.883	86.38
451.104	107.38
451.324	77.38
451.545	102.38
451.766	85.38
451.986	94.38
452.207	83.38
452.428	74.38
452.648	92.38
452.869	92.38
453.089	92.38
453.31	89.38
453.53	65.38
453.751	76.38
453.971	86.38
454.192	95.38
454.412	88.38
454.633	93.38
454.853	94.38
455.073	96.38
455.294	100.38
455.514	101.38
455.734	80.38
455.955	85.38
456.175	83.38
456.395	84.38
456.616	103.38
456.836	96.38
457.056	84.38
457.276	84.38
457.497	87.38
457.717	97.38
457.937	84.38
458.157	85.38
458.377	95.38
458.598	92.38
458.818	82.38
459.038	80.38
459.258	75.38
459.478	71.38
459.698	83.38
459.918	73.38
460.138	75.38
460.358	84.38
460.578	107.38
460.798	103.38
461.018	85.38
461.238	81.38
461.458	100.38
461.678	77.38
461.898	82.38
462.118	90.38
462.338	68.38
462.558	94.38
462.777	93.38
462.997	93.38
463.217	92.38
463.437	89.38
463.657	95.38
463.876	101.38
464.096	87.38
464.316	79.38
464.536	89.38
464.755	100.38
464.975	104.38
465.195	89.38
465.414	101.38
465.634	93.38
465.854	87.38
466.073	90.38
466.293	88.38
466.512	99.38
466.732	89.38
466.951	92.38
467.171	86.38
467.391	103.38
467.61	92.38
467.829	86.38
468.049	86.38
468.268	101.38
468.488	96.38
468.707	96.38
468.927	103.38
469.146	102.38
469.365	90.38
469.585	92.38
469.804	88.38
470.023	101.38
470.243	95.38
470.462	96.38
470.681	109.38
470.901	105.38
471.12	85.38
471.339	96.38
471.558	92.38
471.777	99.38
471.997	87.38
472.216	99.38
472.435	69.38
472.654	84.38
472.873	95.38
473.092	87.38
473.311	113.38
473.53	94.38
473.749	79.38
473.968	91.38
474.187	91.38
474.406	95.38
474.625	79.38
474.844	79.38
475.063	90.38
475.282	100.38
475.501	79.38
475.72	95.38
475.939	80.38
476.158	97.38
476.377	98.38
476.596	83.38
476.814	95.38
477.033	79.38
477.252	83.38
477.471	106.38
477.69	98.38
477.908	106.38
478.127	97.38
478.346	98.38
478.564	96.38
478.783	102.38
479.002	98.38
479.22	97.38
479.439	100.38
479.658	91.38
479.876	78.38
480.095	71.38
480.313	88.38
480.532	97.38
480.751	103.38
480.969	88.38
481.188	76.38
481.406	87.38
481.624	77.38
481.843	88.38
482.061	83.38
482.28	91.38
482.498	95.38
482.717	96.38
482.935	88.38
483.153	103.38
483.372	94.38
483.59	99.38
483.808	102.38
484.027	106.38
484.245	97.38
484.463	96.38
484.681	105.38
484.9	95.38
485.118	92.38
485.336	92.38
485.554	93.38
485.772	81.38
485.99	92.38
486.209	85.38
486.427	95.38
486.645	86.38
486.863	103.38
487.081	81.38
487.299	100.38
487.517	87.38
487.735	108.38
487.953	108.38
488.171	108.38
488.389	103.38
488.607	101.38
488.825	95.38
489.043	96.38
489.261	96.38
489.479	97.38
489.696	105.38
489.914	85.38
490.132	77.38
490.35	92.38
490.568	103.38
490.786	108.38
491.003	111.38
491.221	106.38
491.439	119.38
491.657	118.38
491.874	117.38
492.092	123.38
492.31	135.38
492.527	128.38
492.745	129.38
492.963	119.38
493.18	116.38
493.398	109.38
493.615	112.38
493.833	89.38
494.05	115.38
494.268	96.38
494.485	105.38
494.703	118.38
494.92	111.38
495.138	125.38
495.355	118.38
495.573	99.38
495.79	101.38
496.008	106.38
496.225	91.38
496.442	105.38
496.66	107.38
496.877	107.38
497.094	101.38
497.312	98.38
497.529	120.38
497.746	115.38
497.963	117.38
498.181	98.38
498.398	97.38
498.615	87.38
498.832	98.38
499.049	94.38
499.267	89.38
499.484	92.38
499.701	94.38
499.918	102.38
500.135	90.38
500.352	119.38
500.569	95.38
500.786	106.38
501.003	102.38
501.22	97.38
501.437	100.38
501.654	106.38
501.871	111.38
502.088	109.38
502.305	95.38
502.522	97.38
502.739	99.38
502.956	92.38
503.172	69.38
503.389	99.38
503.606	104.38
503.823	83.38
504.04	105.38
504.256	104.38
504.473	99.38
504.69	96.38
504.907	96.38
505.123	102.38
505.34	76.38
505.557	102.38
505.773	106.38
505.99	82.38
506.207	86.38
506.423	99.38
506.64	87.38
506.856	91.38
507.073	85.38
507.289	98.38
507.506	90.38
507.722	100.38
507.939	97.38
508.155	99.38
508.372	103.38
508.588	100.38
508.805	97.38
509.021	95.38
509.238	80.38
509.454	87.38
509.67	84.38
509.887	80.38
510.103	79.38
510.319	90.38
510.536	87.38
510.752	88.38
510.968	82.38
511.184	95.38
511.401	92.38
511.617	94.38
511.833	94.38
512.049	86.38
512.265	97.38
512.481	71.38
512.698	71.38
512.914	89.38
513.13	87.38
513.346	102.38
513.562	90.38
513.778	75.38
513.994	95.38
514.21	91.38
514.426	89.38
514.642	85.38
514.858	94.38
515.074	93.38
515.29	91.38
515.506	86.38
515.721	87.38
515.937	87.38
516.153	80.38
516.369	90.38
516.585	87.38
516.801	84.38
517.016	87.38
517.232	83.38
517.448	70.38
517.664	93.38
517.879	78.38
518.095	89.38
518.311	87.38
518.527	89.38
518.742	91.38
518.958	97.38
519.173	95.38
519.389	86.38
519.605	94.38
519.82	89.38
520.036	86.38
520.251	79.38
520.467	83.38
520.682	102.38
520.898	77.38
521.113	92.38
521.329	85.38
521.544	81.38
521.76	87.38
521.975	69.38
522.19	80.38
522.406	85.38
522.621	107.38
522.836	75.38
523.052	91.38
523.267	83.38
523.482	83.38
523.698	109.38
523.913	96.38
524.128	103.38
524.343	96.38
524.559	100.38
524.774	87.38
524.989	87.38
525.204	91.38
525.419	84.38
525.634	99.38
525.849	87.38
526.064	90.38
526.28	96.38
526.495	92.38
526.71	81.38
526.925	100.38
527.14	83.38
527.355	88.38
527.57	86.38
527.785	86.38
527.999	96.38
528.214	97.38
528.429	75.38
528.644	103.38
528.859	97.38
529.074	100.38
529.289	113.38
529.503	113.38
529.718	93.38
529.933	93.38
530.148	90.38
530.363	84.38
530.577	87.38
530.792	72.38
531.007	81.38
531.221	72.38
531.436	96.38
531.651	96.38
531.865	90.38
532.08	73.38
532.295	79.38
532.509	89.38
532.724	98.38
532.938	84.38
533.153	90.38
533.367	91.38
533.582	97.38
533.796	92.38
534.011	86.38
534.225	101.38
534.44	87.38
534.654	82.38
534.868	82.38
535.083	96.38
535.297	84.38
535.511	91.38
535.726	83.38
535.94	81.38
536.154	93.38
536.369	92.38
536.583	84.38
536.797	105.38
537.011	95.38
537.225	93.38
537.44	83.38
537.654	86.38
537.868	95.38
538.082	92.38
538.296	86.38
538.51	96.38
538.724	89.38
538.938	106.38
539.153	97.38
539.367	94.38
539.581	82.38
539.795	105.38
540.009	101.38
540.222	93.38
540.436	87.38
540.65	91.38
540.864	87.38
541.078	104.38
541.292	112.38
541.506	102.38
541.72	106.38
541.934	112.38
542.147	113.38
542.361	118.38
542.575	114.38
542.789	100.38
543.002	111.38
543.216	93.38
543.43	90.38
543.644	102.38
543.857	108.38
544.071	115.38
544.285	111.38
544.498	119.38
544.712	113.38
544.925	115.38
545.139	116.38
545.352	101.38
545.566	109.38
545.779	103.38
545.993	103.38
546.206	104.38
546.42	111.38
546.633	111.38
546.847	102.38
547.06	108.38
547.274	119.38
547.487	111.38
547.7	102.38
547.914	119.38
548.127	120.38
548.34	112.38
548.554	98.38
548.767	89.38
548.98	100.38
549.193	98.38
549.407	112.38
549.62	104.38
549.833	112.38
550.046	115.38
550.259	113.38
550.473	96.38
550.686	113.38
550.899	106.38
551.112	104.38
551.325	103.38
551.538	111.38
551.751	85.38
551.964	87.38
552.177	100.38
552.39	89.38
552.603	111.38
552.816	102.38
553.029	100.38
553.242	106.38
553.455	108.38
553.667	98.38
553.88	97.38
554.093	90.38
554.306	99.38
554.519	89.38
554.732	99.38
554.944	116.38
555.157	100.38
555.37	100.38
555.583	101.38
555.795	115.38
556.008	107.38
556.221	100.38
556.433	112.38
556.646	98.38
556.859	106.38
557.071	100.38
557.284	105.38
557.496	100.38
557.709	93.38
557.921	89.38
558.134	94.38
558.346	83.38
558.559	104.38
558.771	100.38
558.984	93.38
559.196	95.38
559.409	113.38
559.621	101.38
559.833	101.38
560.046	95.38
560.258	101.38
560.47	100.38
560.683	124.38
560.895	108.38
561.107	104.38
561.32	89.38
561.532	95.38
561.744	99.38
561.956	98.38
562.168	106.38
562.381	96.38
562.593	92.38
562.805	105.38
563.017	105.38
563.229	100.38
563.441	108.38
563.653	97.38
563.865	109.38
564.077	88.38
564.289	96.38
564.501	87.38
564.713	106.38
564.925	111.38
565.137	83.38
565.349	89.38
565.561	89.38
565.773	89.38
565.985	93.38
566.197	90.38
566.408	82.38
566.62	89.38
566.832	83.38
567.044	91.38
567.255	95.38
567.467	80.38
567.679	87.38
567.891	104.38
568.102	86.38
568.314	84.38
568.526	83.38
568.737	91.38
568.949	90.38
569.161	87.38
569.372	91.38
569.584	92.38
569.795	81.38
570.007	87.38
570.218	82.38
570.43	86.38
570.641	75.38
570.853	75.38
571.064	75.38
571.276	86.38
571.487	84.38
571.698	90.38
571.91	94.38
572.121	97.38
572.333	86.38
572.544	78.38
572.755	86.38
572.966	92.38
573.178	85.38
573.389	97.38
573.6	88.38
573.811	88.38
574.023	81.38
574.234	91.38
574.445	111.38
574.656	82.38
574.867	84.38
575.078	88.38
575.289	100.38
575.501	101.38
575.712	75.38
575.923	76.38
576.134	102.38
576.345	94.38
576.556	88.38
576.767	75.38
576.978	91.38
577.188	89.38
577.399	87.38
577.61	83.38
577.821	96.38
578.032	85.38
578.243	90.38
578.454	91.38
578.665	86.38
578.875	80.38
579.086	72.38
579.297	73.38
579.508	83.38
579.718	82.38
579.929	77.38
580.14	84.38
580.35	90.38
580.561	102.38
580.772	84.38
580.982	87.38
581.193	83.38
581.403	88.38
581.614	84.38
581.825	98.38
582.035	90.38
582.246	79.38
582.456	86.38
582.667	88.38
582.877	91.38
583.087	81.38
583.298	94.38
583.508	74.38
583.719	88.38
583.929	90.38
584.139	78.38
584.35	91.38
584.56	76.38
584.77	86.38
584.981	85.38
585.191	76.38
585.401	86.38
585.611	91.38
585.821	80.38
586.032	83.38
586.242	84.38
586.452	84.38
586.662	84.38
586.872	89.38
587.082	76.38
587.292	75.38
587.502	91.38
587.713	87.38
587.923	75.38
588.133	93.38
588.343	70.38
588.553	90.38
588.762	91.38
588.972	82.38
589.182	77.38
589.392	71.38
589.602	95.38
589.812	82.38
590.022	83.38
590.232	90.38
590.441	73.38
590.651	86.38
590.861	95.38
591.071	88.38
591.281	85.38
591.49	99.38
591.7	98.38
591.91	87.38
592.119	84.38
592.329	86.38
592.539	101.38
592.748	88.38
592.958	98.38
593.167	99.38
593.377	73.38
593.587	95.38
593.796	84.38
594.006	85.38
594.215	66.38
594.424	108.38
594.634	92.38
594.843	91.38
595.053	89.38
595.262	96.38
595.472	74.38
595.681	89.38
595.89	82.38
596.1	79.38
596.309	94.38
596.518	87.38
596.727	89.38
596.937	90.38
597.146	85.38
597.355	89.38
597.564	85.38
597.774	83.38
597.983	88.38
598.192	82.38
598.401	100.38
598.61	86.38
598.819	78.38
599.028	88.38
599.237	97.38
599.446	97.38
599.655	86.38
599.864	84.38
600.073	94.38
600.282	95.38
600.491	85.38
600.7	93.38
600.909	94.38
601.118	100.38
601.327	90.38
601.536	77.38
601.745	91.38
601.953	96.38
602.162	97.38
602.371	91.38
602.58	100.38
602.789	87.38
602.997	90.38
603.206	89.38
603.415	86.38
603.623	94.38
603.832	98.38
604.041	86.38
604.249	90.38
604.458	91.38
604.666	94.38
604.875	82.38
605.084	87.38
605.292	84.38
605.501	91.38
605.709	100.38
605.918	83.38
606.126	109.38
606.334	103.38
606.543	94.38
606.751	81.38
606.96	95.38
607.168	92.38
607.376	102.38
607.585	100.38
607.793	86.38
608.001	83.38
608.21	85.38
608.418	96.38
608.626	100.38
608.834	86.38
609.043	89.38
609.251	97.38
609.459	92.38
609.667	96.38
609.875	104.38
610.083	83.38
610.291	93.38
610.499	97.38
610.707	86.38
610.916	91.38
611.124	89.38
611.332	91.38
611.54	95.38
611.748	68.38
611.955	101.38
612.163	91.38
612.371	88.38
612.579	88.38
612.787	88.38
612.995	100.38
613.203	91.38
613.411	95.38
613.618	93.38
613.826	92.38
614.034	98.38
614.242	92.38
614.449	90.38
614.657	95.38
614.865	104.38
615.072	90.38
615.28	88.38
615.488	107.38
615.695	91.38
615.903	84.38
616.111	97.38
616.318	94.38
616.526	95.38
616.733	100.38
616.941	94.38
617.148	100.38
617.356	94.38
617.563	87.38
617.771	102.38
617.978	96.38
618.185	99.38
618.393	78.38
618.6	113.38
618.807	97.38
619.015	88.38
619.222	87.38
619.429	97.38
619.637	100.38
619.844	90.38
620.051	91.38
620.258	109.38
620.466	90.38
620.673	83.38
620.88	91.38
621.087	84.38
621.294	99.38
621.501	90.38
621.708	83.38
621.915	81.38
622.122	70.38
622.329	87.38
622.536	93.38
622.743	95.38
622.95	82.38
623.157	98.38
623.364	95.38
623.571	85.38
623.778	98.38
623.985	85.38
624.192	92.38
624.399	93.38
624.606	93.38
624.812	97.38
625.019	94.38
625.226	90.38
625.433	87.38
625.639	96.38
625.846	97.38
626.053	88.38
626.259	96.38
626.466	85.38
626.673	84.38
626.879	90.38
627.086	88.38
627.293	85.38
627.499	88.38
627.706	99.38
627.912	83.38
628.119	100.38
628.325	89.38
628.532	87.38
628.738	83.38
628.945	80.38
629.151	94.38
629.357	85.38
629.564	100.38
629.77	104.38
629.976	79.38
630.183	85.38
630.389	89.38
630.595	86.38
630.802	103.38
631.008	97.38
631.214	89.38
631.42	89.38
631.627	82.38
631.833	89.38
632.039	100.38
632.245	109.38
632.451	84.38
632.657	102.38
632.863	104.38
633.069	102.38
633.275	96.38
633.481	84.38
633.688	94.38
633.893	85.38
634.099	101.38
634.305	86.38
634.511	84.38
634.717	88.38
634.923	91.38
635.129	83.38
635.335	100.38
635.541	83.38
635.747	80.38
635.952	99.38
636.158	93.38
636.364	91.38
636.57	84.38
636.775	103.38
636.981	80.38
637.187	97.38
637.392	84.38
637.598	89.38
637.804	103.38
638.009	87.38
638.215	87.38
638.421	96.38
638.626	78.38
638.832	105.38
639.037	85.38
639.243	92.38
639.448	90.38
639.654	88.38
639.859	95.38
640.065	97.38
640.27	95.38
640.475	96.38
640.681	84.38
640.886	71.38
641.091	92.38
641.297	90.38
641.502	88.38
641.707	86.38
641.913	77.38
642.118	95.38
642.323	97.38
642.528	103.38
642.733	90.38
642.939	77.38
643.144	91.38
643.349	83.38
643.554	95.38
643.759	90.38
643.964	91.38
644.169	84.38
644.374	82.38
644.579	92.38
644.784	85.38
644.989	99.38
645.194	82.38
645.399	84.38
645.604	76.38
645.809	87.38
646.014	91.38
646.219	106.38
646.423	89.38
646.628	89.38
646.833	96.38
647.038	85.38
647.243	92.38
647.447	94.38
647.652	82.38
647.857	86.38
648.062	97.38
648.266	101.38
648.471	96.38
648.676	92.38
648.88	84.38
649.085	89.38
649.289	81.38
649.494	95.38
649.698	86.38
649.903	84.38
650.107	85.38
650.312	102.38
650.516	82.38
650.721	84.38
650.925	91.38
651.13	79.38
651.334	87.38
651.539	88.38
651.743	71.38
651.947	90.38
652.152	89.38
652.356	95.38
652.56	94.38
652.764	82.38
652.969	82.38
653.173	88.38
653.377	81.38
653.581	92.38
653.785	90.38
653.99	81.38
654.194	86.38
654.398	83.38
654.602	95.38
654.806	75.38
655.01	83.38
655.214	85.38
655.418	107.38
655.622	77.38
655.826	90.38
656.03	74.38
656.234	85.38
656.438	89.38
656.642	70.38
656.846	78.38
657.049	87.38
657.253	88.38
657.457	72.38
657.661	79.38
657.865	84.38
658.068	90.38
658.272	87.38
658.476	87.38
658.68	83.38
658.883	78.38
659.087	91.38
659.291	89.38
659.494	82.38
659.698	81.38
659.901	92.38
660.105	88.38
660.309	83.38
660.512	90.38
660.716	75.38
660.919	81.38
661.123	81.38
661.326	75.38
661.53	81.38
661.733	96.38
661.936	79.38
662.14	86.38
662.343	93.38
662.546	83.38
662.75	74.38
662.953	71.38
663.156	95.38
663.36	71.38
663.563	90.38
663.766	80.38
663.969	84.38
664.173	75.38
664.376	84.38
664.579	75.38
664.782	76.38
664.985	91.38
665.188	84.38
665.391	81.38
665.594	76.38
665.797	75.38
666	77.38
666.203	84.38
666.406	71.38
666.609	84.38
666.812	89.38
667.015	96.38
667.218	72.38
667.421	80.38
667.624	83.38
667.827	81.38
668.03	86.38
668.232	86.38
668.435	99.38
668.638	89.38
668.841	85.38
669.043	91.38
669.246	89.38
669.449	86.38
669.651	91.38
669.854	86.38
670.057	88.38
670.259	77.38
670.462	87.38
670.665	75.38
670.867	84.38
671.07	79.38
671.272	99.38
671.475	87.38
671.677	75.38
671.88	63.38
672.082	78.38
672.284	75.38
672.487	95.38
672.689	86.38
672.892	84.38
