Data from Location4.07152019.Energy5.Lamp.07192019.3%Agarose_HRD10591_15-25-47-578.txt Node
Date: Fri Jul 19 15:25:47 EDT 2019
User: cochatt
Spectrometer: HR+D1059
Trigger mode: 1
Integration Time (sec): 1.000000E-1
Scans to average: 1
Electric dark correction enabled: true
Nonlinearity correction enabled: false
Boxcar width: 0
XAxis mode: Wavelengths
Number of Pixels in Spectrum: 2048
>>>>>Begin Spectral Data<<<<<
223.165	-17.94
223.4	-17.94
223.635	-17.94
223.869	-17.94
224.104	-6.94
224.338	2.06
224.573	-10.94
224.808	-5.94
225.042	-14.94
225.277	0.06
225.511	-1.94
225.746	-5.94
225.98	0.06
226.215	-4.94
226.449	25.06
226.683	5.06
226.918	28.06
227.152	27.06
227.387	39.06
227.621	45.06
227.856	46.06
228.09	53.06
228.324	43.06
228.559	57.06
228.793	72.06
229.027	69.06
229.262	76.06
229.496	78.06
229.73	82.06
229.964	69.06
230.199	81.06
230.433	82.06
230.667	91.06
230.901	75.06
231.136	70.06
231.37	92.06
231.604	74.06
231.838	77.06
232.072	63.06
232.306	79.06
232.541	78.06
232.775	94.06
233.009	85.06
233.243	88.06
233.477	88.06
233.711	84.06
233.945	85.06
234.179	80.06
234.413	89.06
234.647	88.06
234.881	92.06
235.115	87.06
235.349	84.06
235.583	91.06
235.817	73.06
236.051	72.06
236.285	77.06
236.519	82.06
236.753	83.06
236.987	88.06
237.221	92.06
237.455	85.06
237.689	73.06
237.922	83.06
238.156	81.06
238.39	86.06
238.624	80.06
238.858	71.06
239.091	83.06
239.325	75.06
239.559	75.06
239.793	76.06
240.027	80.06
240.26	73.06
240.494	90.06
240.728	97.06
240.961	70.06
241.195	75.06
241.429	71.06
241.662	68.06
241.896	86.06
242.13	69.06
242.363	79.06
242.597	79.06
242.83	84.06
243.064	95.06
243.298	92.06
243.531	74.06
243.765	82.06
243.998	79.06
244.232	88.06
244.465	84.06
244.699	87.06
244.932	92.06
245.166	79.06
245.399	78.06
245.633	88.06
245.866	78.06
246.099	77.06
246.333	74.06
246.566	83.06
246.8	76.06
247.033	93.06
247.266	77.06
247.5	82.06
247.733	69.06
247.966	74.06
248.2	85.06
248.433	74.06
248.666	76.06
248.899	83.06
249.133	78.06
249.366	92.06
249.599	83.06
249.832	86.06
250.066	91.06
250.299	86.06
250.532	79.06
250.765	77.06
250.998	75.06
251.231	85.06
251.465	91.06
251.698	84.06
251.931	75.06
252.164	89.06
252.397	75.06
252.63	83.06
252.863	76.06
253.096	92.06
253.329	90.06
253.562	86.06
253.795	89.06
254.028	87.06
254.261	76.06
254.494	87.06
254.727	90.06
254.96	77.06
255.193	84.06
255.426	85.06
255.659	79.06
255.892	84.06
256.124	84.06
256.357	63.06
256.59	85.06
256.823	91.06
257.056	81.06
257.289	72.06
257.521	83.06
257.754	87.06
257.987	84.06
258.22	89.06
258.452	85.06
258.685	76.06
258.918	82.06
259.151	91.06
259.383	89.06
259.616	74.06
259.849	80.06
260.081	89.06
260.314	76.06
260.547	85.06
260.779	86.06
261.012	91.06
261.244	79.06
261.477	77.06
261.71	86.06
261.942	85.06
262.175	80.06
262.407	92.06
262.64	78.06
262.872	83.06
263.105	91.06
263.337	76.06
263.57	82.06
263.802	85.06
264.035	83.06
264.267	93.06
264.499	82.06
264.732	89.06
264.964	83.06
265.197	88.06
265.429	86.06
265.661	78.06
265.894	77.06
266.126	83.06
266.358	96.06
266.591	92.06
266.823	72.06
267.055	92.06
267.287	99.06
267.52	76.06
267.752	82.06
267.984	89.06
268.216	84.06
268.448	100.06
268.681	82.06
268.913	84.06
269.145	90.06
269.377	86.06
269.609	95.06
269.841	85.06
270.073	94.06
270.306	84.06
270.538	82.06
270.77	65.06
271.002	85.06
271.234	87.06
271.466	90.06
271.698	99.06
271.93	86.06
272.162	83.06
272.394	81.06
272.626	82.06
272.858	80.06
273.09	83.06
273.322	95.06
273.553	90.06
273.785	87.06
274.017	77.06
274.249	90.06
274.481	72.06
274.713	90.06
274.945	82.06
275.176	77.06
275.408	77.06
275.64	78.06
275.872	69.06
276.104	86.06
276.335	91.06
276.567	81.06
276.799	73.06
277.031	84.06
277.262	80.06
277.494	88.06
277.726	86.06
277.957	81.06
278.189	89.06
278.421	97.06
278.652	81.06
278.884	80.06
279.115	86.06
279.347	89.06
279.579	97.06
279.81	76.06
280.042	91.06
280.273	69.06
280.505	84.06
280.736	93.06
280.968	77.06
281.199	80.06
281.431	101.06
281.662	81.06
281.894	91.06
282.125	86.06
282.356	72.06
282.588	83.06
282.819	89.06
283.051	93.06
283.282	76.06
283.513	79.06
283.745	86.06
283.976	100.06
284.207	68.06
284.439	67.06
284.67	81.06
284.901	87.06
285.132	96.06
285.364	78.06
285.595	83.06
285.826	89.06
286.057	85.06
286.288	83.06
286.52	87.06
286.751	90.06
286.982	69.06
287.213	97.06
287.444	87.06
287.675	94.06
287.906	80.06
288.138	85.06
288.369	87.06
288.6	92.06
288.831	99.06
289.062	91.06
289.293	72.06
289.524	77.06
289.755	96.06
289.986	71.06
290.217	82.06
290.448	91.06
290.679	81.06
290.91	85.06
291.141	93.06
291.371	90.06
291.602	73.06
291.833	82.06
292.064	93.06
292.295	85.06
292.526	89.06
292.757	82.06
292.987	94.06
293.218	101.06
293.449	79.06
293.68	78.06
293.91	91.06
294.141	93.06
294.372	88.06
294.603	73.06
294.833	77.06
295.064	80.06
295.295	82.06
295.525	82.06
295.756	92.06
295.987	94.06
296.217	72.06
296.448	95.06
296.679	87.06
296.909	97.06
297.14	86.06
297.37	86.06
297.601	94.06
297.831	93.06
298.062	94.06
298.292	90.06
298.523	98.06
298.753	88.06
298.984	93.06
299.214	73.06
299.445	83.06
299.675	89.06
299.905	84.06
300.136	84.06
300.366	94.06
300.597	90.06
300.827	86.06
301.057	89.06
301.288	82.06
301.518	90.06
301.748	75.06
301.979	81.06
302.209	89.06
302.439	83.06
302.669	73.06
302.9	94.06
303.13	87.06
303.36	79.06
303.59	85.06
303.82	86.06
304.051	85.06
304.281	93.06
304.511	91.06
304.741	96.06
304.971	77.06
305.201	79.06
305.431	81.06
305.661	85.06
305.891	90.06
306.121	85.06
306.352	87.06
306.582	94.06
306.812	83.06
307.042	90.06
307.272	83.06
307.502	90.06
307.731	86.06
307.961	83.06
308.191	90.06
308.421	97.06
308.651	86.06
308.881	93.06
309.111	89.06
309.341	87.06
309.571	99.06
309.8	90.06
310.03	85.06
310.26	89.06
310.49	89.06
310.72	87.06
310.949	92.06
311.179	95.06
311.409	79.06
311.639	78.06
311.868	85.06
312.098	95.06
312.328	90.06
312.557	79.06
312.787	80.06
313.017	93.06
313.246	83.06
313.476	87.06
313.706	91.06
313.935	87.06
314.165	84.06
314.394	104.06
314.624	93.06
314.853	79.06
315.083	92.06
315.312	101.06
315.542	92.06
315.771	73.06
316.001	86.06
316.23	86.06
316.46	79.06
316.689	87.06
316.919	88.06
317.148	91.06
317.377	71.06
317.607	90.06
317.836	84.06
318.065	91.06
318.295	76.06
318.524	94.06
318.753	85.06
318.983	88.06
319.212	98.06
319.441	95.06
319.67	95.06
319.9	86.06
320.129	82.06
320.358	91.06
320.587	86.06
320.816	83.06
321.046	84.06
321.275	77.06
321.504	86.06
321.733	83.06
321.962	89.06
322.191	91.06
322.42	93.06
322.649	83.06
322.878	96.06
323.108	84.06
323.337	83.06
323.566	98.06
323.795	87.06
324.024	79.06
324.253	97.06
324.482	89.06
324.71	92.06
324.939	86.06
325.168	97.06
325.397	101.06
325.626	85.06
325.855	98.06
326.084	101.06
326.313	78.06
326.542	84.06
326.77	87.06
326.999	87.06
327.228	79.06
327.457	94.06
327.686	79.06
327.914	78.06
328.143	91.06
328.372	79.06
328.6	87.06
328.829	89.06
329.058	85.06
329.287	85.06
329.515	92.06
329.744	79.06
329.972	87.06
330.201	84.06
330.43	83.06
330.658	70.06
330.887	95.06
331.115	77.06
331.344	83.06
331.572	97.06
331.801	90.06
332.03	88.06
332.258	87.06
332.486	85.06
332.715	92.06
332.943	82.06
333.172	78.06
333.4	105.06
333.629	88.06
333.857	85.06
334.085	86.06
334.314	85.06
334.542	76.06
334.771	85.06
334.999	79.06
335.227	97.06
335.455	94.06
335.684	85.06
335.912	91.06
336.14	74.06
336.369	73.06
336.597	91.06
336.825	95.06
337.053	101.06
337.281	73.06
337.51	91.06
337.738	89.06
337.966	97.06
338.194	90.06
338.422	77.06
338.65	98.06
338.878	90.06
339.106	88.06
339.334	98.06
339.562	91.06
339.79	98.06
340.018	87.06
340.246	95.06
340.474	77.06
340.702	85.06
340.93	76.06
341.158	74.06
341.386	85.06
341.614	91.06
341.842	94.06
342.07	88.06
342.298	86.06
342.526	79.06
342.754	90.06
342.981	98.06
343.209	87.06
343.437	100.06
343.665	86.06
343.893	100.06
344.12	79.06
344.348	81.06
344.576	94.06
344.804	92.06
345.031	97.06
345.259	100.06
345.487	80.06
345.714	92.06
345.942	93.06
346.17	77.06
346.397	87.06
346.625	93.06
346.853	85.06
347.08	87.06
347.308	98.06
347.535	84.06
347.763	89.06
347.99	85.06
348.218	80.06
348.445	83.06
348.673	97.06
348.9	93.06
349.128	100.06
349.355	78.06
349.583	86.06
349.81	89.06
350.037	89.06
350.265	77.06
350.492	93.06
350.72	90.06
350.947	89.06
351.174	80.06
351.402	74.06
351.629	85.06
351.856	89.06
352.083	83.06
352.311	87.06
352.538	82.06
352.765	70.06
352.992	84.06
353.22	75.06
353.447	82.06
353.674	97.06
353.901	106.06
354.128	103.06
354.355	85.06
354.583	95.06
354.81	75.06
355.037	89.06
355.264	75.06
355.491	91.06
355.718	87.06
355.945	93.06
356.172	90.06
356.399	92.06
356.626	78.06
356.853	93.06
357.08	88.06
357.307	84.06
357.534	88.06
357.761	94.06
357.988	94.06
358.215	76.06
358.441	97.06
358.668	93.06
358.895	77.06
359.122	80.06
359.349	83.06
359.576	85.06
359.802	90.06
360.029	94.06
360.256	76.06
360.483	90.06
360.709	91.06
360.936	93.06
361.163	84.06
361.39	104.06
361.616	90.06
361.843	88.06
362.07	85.06
362.296	96.06
362.523	78.06
362.749	99.06
362.976	77.06
363.203	91.06
363.429	95.06
363.656	99.06
363.882	81.06
364.109	89.06
364.335	90.06
364.562	68.06
364.788	98.06
365.015	89.06
365.241	79.06
365.468	86.06
365.694	77.06
365.92	83.06
366.147	85.06
366.373	68.06
366.599	84.06
366.826	106.06
367.052	80.06
367.278	104.06
367.505	88.06
367.731	92.06
367.957	81.06
368.184	76.06
368.41	75.06
368.636	74.06
368.862	85.06
369.089	96.06
369.315	77.06
369.541	84.06
369.767	85.06
369.993	92.06
370.219	89.06
370.445	91.06
370.672	85.06
370.898	78.06
371.124	91.06
371.35	87.06
371.576	86.06
371.802	70.06
372.028	92.06
372.254	103.06
372.48	95.06
372.706	83.06
372.932	84.06
373.158	93.06
373.384	92.06
373.61	89.06
373.835	77.06
374.061	95.06
374.287	84.06
374.513	102.06
374.739	88.06
374.965	75.06
375.191	78.06
375.416	83.06
375.642	77.06
375.868	85.06
376.094	101.06
376.319	93.06
376.545	92.06
376.771	87.06
376.997	94.06
377.222	76.06
377.448	82.06
377.674	85.06
377.899	80.06
378.125	79.06
378.35	83.06
378.576	87.06
378.802	86.06
379.027	67.06
379.253	89.06
379.478	94.06
379.704	73.06
379.929	91.06
380.155	94.06
380.38	82.06
380.606	82.06
380.831	84.06
381.057	97.06
381.282	74.06
381.507	74.06
381.733	86.06
381.958	86.06
382.184	88.06
382.409	87.06
382.634	73.06
382.86	94.06
383.085	83.06
383.31	94.06
383.535	91.06
383.761	86.06
383.986	91.06
384.211	86.06
384.436	98.06
384.662	87.06
384.887	85.06
385.112	74.06
385.337	79.06
385.562	85.06
385.787	81.06
386.013	91.06
386.238	96.06
386.463	94.06
386.688	86.06
386.913	79.06
387.138	78.06
387.363	86.06
387.588	95.06
387.813	79.06
388.038	92.06
388.263	84.06
388.488	95.06
388.713	85.06
388.938	91.06
389.163	85.06
389.387	94.06
389.612	84.06
389.837	87.06
390.062	82.06
390.287	91.06
390.512	85.06
390.736	83.06
390.961	97.06
391.186	105.06
391.411	82.06
391.636	90.06
391.86	90.06
392.085	93.06
392.31	89.06
392.534	90.06
392.759	100.06
392.984	87.06
393.208	93.06
393.433	96.06
393.658	88.06
393.882	96.06
394.107	105.06
394.331	88.06
394.556	93.06
394.78	82.06
395.005	90.06
395.229	92.06
395.454	90.06
395.678	85.06
395.903	95.06
396.127	103.06
396.352	86.06
396.576	86.06
396.801	83.06
397.025	78.06
397.249	103.06
397.474	91.06
397.698	106.06
397.922	89.06
398.147	73.06
398.371	104.06
398.595	87.06
398.82	95.06
399.044	92.06
399.268	88.06
399.492	89.06
399.717	102.06
399.941	85.06
400.165	100.06
400.389	109.06
400.613	88.06
400.837	95.06
401.062	95.06
401.286	94.06
401.51	97.06
401.734	103.06
401.958	109.06
402.182	95.06
402.406	109.06
402.63	99.06
402.854	96.06
403.078	89.06
403.302	104.06
403.526	92.06
403.75	79.06
403.974	79.06
404.198	99.06
404.422	91.06
404.645	84.06
404.869	97.06
405.093	101.06
405.317	103.06
405.541	101.06
405.765	79.06
405.988	84.06
406.212	101.06
406.436	84.06
406.66	86.06
406.883	78.06
407.107	87.06
407.331	93.06
407.555	105.06
407.778	97.06
408.002	92.06
408.226	87.06
408.449	99.06
408.673	102.06
408.896	94.06
409.12	96.06
409.344	99.06
409.567	94.06
409.791	81.06
410.014	85.06
410.238	82.06
410.461	96.06
410.685	98.06
410.908	95.06
411.132	99.06
411.355	100.06
411.578	84.06
411.802	97.06
412.025	93.06
412.249	94.06
412.472	93.06
412.695	83.06
412.919	99.06
413.142	102.06
413.365	105.06
413.589	101.06
413.812	107.06
414.035	99.06
414.258	99.06
414.482	99.06
414.705	104.06
414.928	80.06
415.151	101.06
415.374	94.06
415.597	99.06
415.821	119.06
416.044	100.06
416.267	99.06
416.49	103.06
416.713	92.06
416.936	97.06
417.159	82.06
417.382	89.06
417.605	90.06
417.828	102.06
418.051	97.06
418.274	102.06
418.497	105.06
418.72	95.06
418.943	107.06
419.166	88.06
419.389	94.06
419.611	102.06
419.834	89.06
420.057	83.06
420.28	103.06
420.503	98.06
420.726	94.06
420.948	97.06
421.171	94.06
421.394	99.06
421.617	111.06
421.839	107.06
422.062	94.06
422.285	90.06
422.507	96.06
422.73	105.06
422.953	110.06
423.175	87.06
423.398	85.06
423.621	86.06
423.843	92.06
424.066	104.06
424.288	107.06
424.511	109.06
424.733	97.06
424.956	97.06
425.178	115.06
425.401	100.06
425.623	99.06
425.846	98.06
426.068	98.06
426.291	103.06
426.513	97.06
426.735	107.06
426.958	103.06
427.18	102.06
427.402	79.06
427.625	95.06
427.847	104.06
428.069	95.06
428.292	101.06
428.514	107.06
428.736	95.06
428.958	99.06
429.181	100.06
429.403	107.06
429.625	98.06
429.847	100.06
430.069	99.06
430.292	110.06
430.514	92.06
430.736	91.06
430.958	101.06
431.18	110.06
431.402	86.06
431.624	92.06
431.846	81.06
432.068	96.06
432.29	102.06
432.512	87.06
432.734	81.06
432.956	110.06
433.178	109.06
433.4	104.06
433.622	101.06
433.844	90.06
434.066	96.06
434.287	90.06
434.509	83.06
434.731	94.06
434.953	85.06
435.175	103.06
435.397	91.06
435.618	92.06
435.84	85.06
436.062	91.06
436.284	93.06
436.505	83.06
436.727	86.06
436.949	90.06
437.17	90.06
437.392	86.06
437.614	94.06
437.835	92.06
438.057	90.06
438.278	104.06
438.5	109.06
438.721	93.06
438.943	111.06
439.165	107.06
439.386	103.06
439.608	108.06
439.829	110.06
440.05	94.06
440.272	83.06
440.493	94.06
440.715	97.06
440.936	108.06
441.158	100.06
441.379	94.06
441.6	102.06
441.822	89.06
442.043	100.06
442.264	109.06
442.486	106.06
442.707	101.06
442.928	94.06
443.149	96.06
443.371	110.06
443.592	108.06
443.813	96.06
444.034	103.06
444.255	90.06
444.476	101.06
444.698	105.06
444.919	102.06
445.14	244.06
445.361	170.06
445.582	102.06
445.803	105.06
446.024	108.06
446.245	112.06
446.466	102.06
446.687	89.06
446.908	96.06
447.129	94.06
447.35	111.06
447.571	98.06
447.792	97.06
448.013	100.06
448.234	95.06
448.455	99.06
448.675	97.06
448.896	108.06
449.117	104.06
449.338	94.06
449.559	96.06
449.779	97.06
450	102.06
450.221	117.06
450.442	93.06
450.662	93.06
450.883	104.06
451.104	91.06
451.324	101.06
451.545	92.06
451.766	91.06
451.986	95.06
452.207	104.06
452.428	103.06
452.648	101.06
452.869	92.06
453.089	86.06
453.31	91.06
453.53	82.06
453.751	97.06
453.971	96.06
454.192	85.06
454.412	98.06
454.633	103.06
454.853	104.06
455.073	95.06
455.294	102.06
455.514	85.06
455.734	90.06
455.955	87.06
456.175	76.06
456.395	77.06
456.616	89.06
456.836	88.06
457.056	92.06
457.276	79.06
457.497	78.06
457.717	89.06
457.937	97.06
458.157	84.06
458.377	95.06
458.598	93.06
458.818	85.06
459.038	95.06
459.258	92.06
459.478	87.06
459.698	95.06
459.918	90.06
460.138	97.06
460.358	99.06
460.578	102.06
460.798	98.06
461.018	96.06
461.238	87.06
461.458	91.06
461.678	97.06
461.898	102.06
462.118	85.06
462.338	105.06
462.558	96.06
462.777	84.06
462.997	92.06
463.217	70.06
463.437	91.06
463.657	93.06
463.876	82.06
464.096	95.06
464.316	99.06
464.536	90.06
464.755	91.06
464.975	88.06
465.195	87.06
465.414	90.06
465.634	107.06
465.854	97.06
466.073	97.06
466.293	119.06
466.512	91.06
466.732	104.06
466.951	98.06
467.171	102.06
467.391	86.06
467.61	93.06
467.829	105.06
468.049	108.06
468.268	107.06
468.488	101.06
468.707	97.06
468.927	83.06
469.146	106.06
469.365	95.06
469.585	110.06
469.804	90.06
470.023	99.06
470.243	85.06
470.462	94.06
470.681	109.06
470.901	105.06
471.12	102.06
471.339	93.06
471.558	88.06
471.777	97.06
471.997	113.06
472.216	98.06
472.435	97.06
472.654	93.06
472.873	92.06
473.092	91.06
473.311	94.06
473.53	86.06
473.749	107.06
473.968	100.06
474.187	97.06
474.406	100.06
474.625	91.06
474.844	101.06
475.063	92.06
475.282	91.06
475.501	95.06
475.72	101.06
475.939	100.06
476.158	94.06
476.377	89.06
476.596	105.06
476.814	89.06
477.033	91.06
477.252	105.06
477.471	95.06
477.69	103.06
477.908	101.06
478.127	107.06
478.346	101.06
478.564	104.06
478.783	88.06
479.002	103.06
479.22	102.06
479.439	99.06
479.658	95.06
479.876	90.06
480.095	100.06
480.313	94.06
480.532	106.06
480.751	89.06
480.969	103.06
481.188	83.06
481.406	91.06
481.624	94.06
481.843	103.06
482.061	100.06
482.28	94.06
482.498	94.06
482.717	99.06
482.935	98.06
483.153	94.06
483.372	106.06
483.59	107.06
483.808	105.06
484.027	108.06
484.245	104.06
484.463	98.06
484.681	113.06
484.9	107.06
485.118	104.06
485.336	110.06
485.554	95.06
485.772	102.06
485.99	83.06
486.209	87.06
486.427	85.06
486.645	101.06
486.863	92.06
487.081	105.06
487.299	94.06
487.517	102.06
487.735	109.06
487.953	116.06
488.171	106.06
488.389	115.06
488.607	116.06
488.825	97.06
489.043	87.06
489.261	94.06
489.479	91.06
489.696	106.06
489.914	95.06
490.132	115.06
490.35	115.06
490.568	106.06
490.786	110.06
491.003	125.06
491.221	115.06
491.439	127.06
491.657	124.06
491.874	131.06
492.092	119.06
492.31	140.06
492.527	135.06
492.745	129.06
492.963	118.06
493.18	94.06
493.398	115.06
493.615	119.06
493.833	97.06
494.05	117.06
494.268	127.06
494.485	100.06
494.703	105.06
494.92	104.06
495.138	103.06
495.355	120.06
495.573	121.06
495.79	102.06
496.008	110.06
496.225	121.06
496.442	116.06
496.66	109.06
496.877	109.06
497.094	132.06
497.312	114.06
497.529	101.06
497.746	105.06
497.963	104.06
498.181	105.06
498.398	101.06
498.615	95.06
498.832	87.06
499.049	100.06
499.267	90.06
499.484	93.06
499.701	102.06
499.918	107.06
500.135	92.06
500.352	104.06
500.569	93.06
500.786	100.06
501.003	94.06
501.22	99.06
501.437	103.06
501.654	103.06
501.871	107.06
502.088	76.06
502.305	87.06
502.522	102.06
502.739	105.06
502.956	104.06
503.172	99.06
503.389	101.06
503.606	101.06
503.823	98.06
504.04	91.06
504.256	93.06
504.473	99.06
504.69	106.06
504.907	91.06
505.123	82.06
505.34	108.06
505.557	104.06
505.773	98.06
505.99	103.06
506.207	100.06
506.423	101.06
506.64	90.06
506.856	91.06
507.073	90.06
507.289	106.06
507.506	95.06
507.722	98.06
507.939	85.06
508.155	98.06
508.372	97.06
508.588	85.06
508.805	102.06
509.021	95.06
509.238	99.06
509.454	85.06
509.67	105.06
509.887	90.06
510.103	98.06
510.319	90.06
510.536	87.06
510.752	83.06
510.968	85.06
511.184	86.06
511.401	77.06
511.617	85.06
511.833	90.06
512.049	76.06
512.265	86.06
512.481	89.06
512.698	78.06
512.914	94.06
513.13	96.06
513.346	93.06
513.562	88.06
513.778	95.06
513.994	86.06
514.21	97.06
514.426	98.06
514.642	100.06
514.858	91.06
515.074	87.06
515.29	95.06
515.506	82.06
515.721	105.06
515.937	91.06
516.153	91.06
516.369	77.06
516.585	87.06
516.801	91.06
517.016	92.06
517.232	93.06
517.448	82.06
517.664	91.06
517.879	90.06
518.095	94.06
518.311	92.06
518.527	88.06
518.742	94.06
518.958	88.06
519.173	89.06
519.389	86.06
519.605	88.06
519.82	95.06
520.036	113.06
520.251	96.06
520.467	90.06
520.682	98.06
520.898	82.06
521.113	88.06
521.329	81.06
521.544	81.06
521.76	96.06
521.975	89.06
522.19	93.06
522.406	91.06
522.621	95.06
522.836	105.06
523.052	87.06
523.267	92.06
523.482	98.06
523.698	85.06
523.913	96.06
524.128	92.06
524.343	101.06
524.559	102.06
524.774	100.06
524.989	108.06
525.204	94.06
525.419	102.06
525.634	91.06
525.849	95.06
526.064	97.06
526.28	95.06
526.495	97.06
526.71	97.06
526.925	87.06
527.14	89.06
527.355	93.06
527.57	80.06
527.785	98.06
527.999	82.06
528.214	100.06
528.429	92.06
528.644	108.06
528.859	90.06
529.074	107.06
529.289	104.06
529.503	110.06
529.718	102.06
529.933	107.06
530.148	99.06
530.363	102.06
530.577	88.06
530.792	79.06
531.007	78.06
531.221	91.06
531.436	91.06
531.651	91.06
531.865	83.06
532.08	91.06
532.295	83.06
532.509	96.06
532.724	87.06
532.938	89.06
533.153	94.06
533.367	77.06
533.582	96.06
533.796	80.06
534.011	111.06
534.225	75.06
534.44	89.06
534.654	94.06
534.868	79.06
535.083	103.06
535.297	91.06
535.511	90.06
535.726	93.06
535.94	100.06
536.154	91.06
536.369	96.06
536.583	76.06
536.797	85.06
537.011	91.06
537.225	79.06
537.44	97.06
537.654	99.06
537.868	69.06
538.082	88.06
538.296	101.06
538.51	92.06
538.724	86.06
538.938	109.06
539.153	98.06
539.367	97.06
539.581	86.06
539.795	109.06
540.009	95.06
540.222	93.06
540.436	91.06
540.65	90.06
540.864	93.06
541.078	106.06
541.292	114.06
541.506	121.06
541.72	112.06
541.934	117.06
542.147	125.06
542.361	127.06
542.575	108.06
542.789	100.06
543.002	88.06
543.216	95.06
543.43	103.06
543.644	109.06
543.857	99.06
544.071	95.06
544.285	103.06
544.498	111.06
544.712	110.06
544.925	115.06
545.139	116.06
545.352	105.06
545.566	108.06
545.779	104.06
545.993	107.06
546.206	100.06
546.42	104.06
546.633	97.06
546.847	124.06
547.06	109.06
547.274	113.06
547.487	113.06
547.7	108.06
547.914	121.06
548.127	105.06
548.34	120.06
548.554	101.06
548.767	100.06
548.98	107.06
549.193	119.06
549.407	115.06
549.62	103.06
549.833	103.06
550.046	95.06
550.259	104.06
550.473	104.06
550.686	114.06
550.899	100.06
551.112	103.06
551.325	105.06
551.538	93.06
551.751	105.06
551.964	100.06
552.177	111.06
552.39	95.06
552.603	117.06
552.816	112.06
553.029	116.06
553.242	100.06
553.455	123.06
553.667	122.06
553.88	108.06
554.093	91.06
554.306	110.06
554.519	102.06
554.732	101.06
554.944	101.06
555.157	77.06
555.37	109.06
555.583	103.06
555.795	113.06
556.008	107.06
556.221	109.06
556.433	107.06
556.646	95.06
556.859	111.06
557.071	112.06
557.284	105.06
557.496	93.06
557.709	91.06
557.921	108.06
558.134	102.06
558.346	106.06
558.559	112.06
558.771	106.06
558.984	96.06
559.196	106.06
559.409	104.06
559.621	89.06
559.833	91.06
560.046	97.06
560.258	84.06
560.47	110.06
560.683	100.06
560.895	110.06
561.107	100.06
561.32	119.06
561.532	89.06
561.744	113.06
561.956	104.06
562.168	101.06
562.381	104.06
562.593	101.06
562.805	107.06
563.017	100.06
563.229	95.06
563.441	93.06
563.653	101.06
563.865	102.06
564.077	99.06
564.289	103.06
564.501	92.06
564.713	101.06
564.925	101.06
565.137	88.06
565.349	106.06
565.561	102.06
565.773	98.06
565.985	116.06
566.197	102.06
566.408	117.06
566.62	102.06
566.832	98.06
567.044	91.06
567.255	109.06
567.467	90.06
567.679	82.06
567.891	77.06
568.102	104.06
568.314	96.06
568.526	70.06
568.737	84.06
568.949	90.06
569.161	89.06
569.372	90.06
569.584	83.06
569.795	87.06
570.007	93.06
570.218	91.06
570.43	96.06
570.641	89.06
570.853	80.06
571.064	90.06
571.276	86.06
571.487	101.06
571.698	83.06
571.91	99.06
572.121	99.06
572.333	92.06
572.544	110.06
572.755	92.06
572.966	97.06
573.178	94.06
573.389	116.06
573.6	85.06
573.811	90.06
574.023	69.06
574.234	85.06
574.445	92.06
574.656	100.06
574.867	81.06
575.078	99.06
575.289	98.06
575.501	103.06
575.712	94.06
575.923	93.06
576.134	91.06
576.345	88.06
576.556	91.06
576.767	107.06
576.978	78.06
577.188	98.06
577.399	95.06
577.61	85.06
577.821	89.06
578.032	97.06
578.243	102.06
578.454	105.06
578.665	94.06
578.875	94.06
579.086	91.06
579.297	89.06
579.508	90.06
579.718	87.06
579.929	83.06
580.14	89.06
580.35	100.06
580.561	88.06
580.772	91.06
580.982	84.06
581.193	95.06
581.403	97.06
581.614	100.06
581.825	74.06
582.035	88.06
582.246	84.06
582.456	83.06
582.667	86.06
582.877	86.06
583.087	95.06
583.298	91.06
583.508	93.06
583.719	86.06
583.929	91.06
584.139	81.06
584.35	88.06
584.56	99.06
584.77	79.06
584.981	82.06
585.191	94.06
585.401	83.06
585.611	83.06
585.821	88.06
586.032	82.06
586.242	99.06
586.452	76.06
586.662	77.06
586.872	90.06
587.082	92.06
587.292	98.06
587.502	73.06
587.713	86.06
587.923	90.06
588.133	94.06
588.343	103.06
588.553	85.06
588.762	97.06
588.972	94.06
589.182	101.06
589.392	97.06
589.602	82.06
589.812	86.06
590.022	95.06
590.232	81.06
590.441	95.06
590.651	84.06
590.861	76.06
591.071	90.06
591.281	87.06
591.49	90.06
591.7	84.06
591.91	105.06
592.119	89.06
592.329	89.06
592.539	104.06
592.748	82.06
592.958	84.06
593.167	96.06
593.377	90.06
593.587	103.06
593.796	98.06
594.006	83.06
594.215	99.06
594.424	83.06
594.634	74.06
594.843	86.06
595.053	98.06
595.262	108.06
595.472	103.06
595.681	93.06
595.89	88.06
596.1	91.06
596.309	99.06
596.518	77.06
596.727	88.06
596.937	88.06
597.146	93.06
597.355	89.06
597.564	93.06
597.774	86.06
597.983	94.06
598.192	94.06
598.401	95.06
598.61	85.06
598.819	86.06
599.028	94.06
599.237	76.06
599.446	86.06
599.655	83.06
599.864	76.06
600.073	93.06
600.282	84.06
600.491	83.06
600.7	83.06
600.909	85.06
601.118	94.06
601.327	80.06
601.536	103.06
601.745	99.06
601.953	100.06
602.162	83.06
602.371	91.06
602.58	86.06
602.789	90.06
602.997	103.06
603.206	86.06
603.415	87.06
603.623	86.06
603.832	105.06
604.041	89.06
604.249	90.06
604.458	100.06
604.666	89.06
604.875	83.06
605.084	82.06
605.292	87.06
605.501	96.06
605.709	98.06
605.918	92.06
606.126	100.06
606.334	97.06
606.543	91.06
606.751	92.06
606.96	90.06
607.168	84.06
607.376	91.06
607.585	93.06
607.793	92.06
608.001	88.06
608.21	100.06
608.418	105.06
608.626	88.06
608.834	78.06
609.043	88.06
609.251	84.06
609.459	103.06
609.667	99.06
609.875	96.06
610.083	102.06
610.291	106.06
610.499	97.06
610.707	85.06
610.916	105.06
611.124	109.06
611.332	88.06
611.54	105.06
611.748	92.06
611.955	100.06
612.163	95.06
612.371	105.06
612.579	102.06
612.787	102.06
612.995	94.06
613.203	94.06
613.411	89.06
613.618	99.06
613.826	85.06
614.034	91.06
614.242	107.06
614.449	90.06
614.657	93.06
614.865	94.06
615.072	94.06
615.28	90.06
615.488	98.06
615.695	105.06
615.903	95.06
616.111	107.06
616.318	99.06
616.526	92.06
616.733	99.06
616.941	90.06
617.148	90.06
617.356	96.06
617.563	98.06
617.771	88.06
617.978	97.06
618.185	98.06
618.393	94.06
618.6	93.06
618.807	88.06
619.015	94.06
619.222	96.06
619.429	96.06
619.637	87.06
619.844	87.06
620.051	94.06
620.258	85.06
620.466	101.06
620.673	86.06
620.88	87.06
621.087	95.06
621.294	93.06
621.501	71.06
621.708	90.06
621.915	97.06
622.122	106.06
622.329	110.06
622.536	88.06
622.743	81.06
622.95	95.06
623.157	86.06
623.364	73.06
623.571	93.06
623.778	93.06
623.985	93.06
624.192	98.06
624.399	99.06
624.606	99.06
624.812	83.06
625.019	110.06
625.226	97.06
625.433	80.06
625.639	92.06
625.846	108.06
626.053	97.06
626.259	85.06
626.466	104.06
626.673	90.06
626.879	94.06
627.086	83.06
627.293	89.06
627.499	77.06
627.706	98.06
627.912	84.06
628.119	102.06
628.325	99.06
628.532	101.06
628.738	82.06
628.945	80.06
629.151	85.06
629.357	91.06
629.564	91.06
629.77	97.06
629.976	89.06
630.183	88.06
630.389	103.06
630.595	81.06
630.802	86.06
631.008	95.06
631.214	103.06
631.42	90.06
631.627	94.06
631.833	95.06
632.039	82.06
632.245	82.06
632.451	98.06
632.657	90.06
632.863	83.06
633.069	98.06
633.275	88.06
633.481	90.06
633.688	94.06
633.893	94.06
634.099	90.06
634.305	95.06
634.511	97.06
634.717	87.06
634.923	83.06
635.129	101.06
635.335	98.06
635.541	91.06
635.747	80.06
635.952	78.06
636.158	89.06
636.364	108.06
636.57	86.06
636.775	87.06
636.981	95.06
637.187	89.06
637.392	91.06
637.598	92.06
637.804	100.06
638.009	89.06
638.215	87.06
638.421	85.06
638.626	91.06
638.832	92.06
639.037	97.06
639.243	84.06
639.448	92.06
639.654	96.06
639.859	97.06
640.065	92.06
640.27	102.06
640.475	99.06
640.681	95.06
640.886	99.06
641.091	91.06
641.297	93.06
641.502	86.06
641.707	70.06
641.913	100.06
642.118	81.06
642.323	87.06
642.528	91.06
642.733	94.06
642.939	103.06
643.144	90.06
643.349	86.06
643.554	101.06
643.759	97.06
643.964	82.06
644.169	101.06
644.374	102.06
644.579	87.06
644.784	91.06
644.989	99.06
645.194	92.06
645.399	95.06
645.604	85.06
645.809	85.06
646.014	92.06
646.219	97.06
646.423	81.06
646.628	92.06
646.833	91.06
647.038	103.06
647.243	96.06
647.447	99.06
647.652	91.06
647.857	91.06
648.062	92.06
648.266	107.06
648.471	92.06
648.676	92.06
648.88	83.06
649.085	67.06
649.289	87.06
649.494	89.06
649.698	84.06
649.903	86.06
650.107	90.06
650.312	91.06
650.516	95.06
650.721	82.06
650.925	92.06
651.13	91.06
651.334	99.06
651.539	83.06
651.743	79.06
651.947	88.06
652.152	99.06
652.356	84.06
652.56	85.06
652.764	95.06
652.969	93.06
653.173	73.06
653.377	78.06
653.581	87.06
653.785	99.06
653.99	81.06
654.194	91.06
654.398	99.06
654.602	76.06
654.806	94.06
655.01	81.06
655.214	79.06
655.418	101.06
655.622	81.06
655.826	93.06
656.03	98.06
656.234	89.06
656.438	97.06
656.642	92.06
656.846	103.06
657.049	86.06
657.253	88.06
657.457	73.06
657.661	82.06
657.865	86.06
658.068	86.06
658.272	108.06
658.476	93.06
658.68	83.06
658.883	92.06
659.087	83.06
659.291	82.06
659.494	89.06
659.698	89.06
659.901	84.06
660.105	88.06
660.309	78.06
660.512	79.06
660.716	72.06
660.919	87.06
661.123	102.06
661.326	93.06
661.53	86.06
661.733	75.06
661.936	77.06
662.14	93.06
662.343	84.06
662.546	108.06
662.75	93.06
662.953	85.06
663.156	84.06
663.36	84.06
663.563	86.06
663.766	99.06
663.969	71.06
664.173	78.06
664.376	89.06
664.579	93.06
664.782	77.06
664.985	85.06
665.188	88.06
665.391	81.06
665.594	81.06
665.797	76.06
666	86.06
666.203	89.06
666.406	81.06
666.609	70.06
666.812	79.06
667.015	86.06
667.218	91.06
667.421	95.06
667.624	77.06
667.827	82.06
668.03	81.06
668.232	89.06
668.435	84.06
668.638	99.06
668.841	90.06
669.043	80.06
669.246	87.06
669.449	91.06
669.651	83.06
669.854	84.06
670.057	80.06
670.259	67.06
670.462	85.06
670.665	98.06
670.867	82.06
671.07	88.06
671.272	89.06
671.475	101.06
671.677	89.06
671.88	100.06
672.082	66.06
672.284	85.06
672.487	79.06
672.689	76.06
672.892	78.06
