Data from Location4.07152019.Energy5.Lamp.07192019.3%Agarose_HRD10591_15-23-34-576.txt Node
Date: Fri Jul 19 15:23:34 EDT 2019
User: cochatt
Spectrometer: HR+D1059
Trigger mode: 1
Integration Time (sec): 1.000000E-1
Scans to average: 1
Electric dark correction enabled: true
Nonlinearity correction enabled: false
Boxcar width: 0
XAxis mode: Wavelengths
Number of Pixels in Spectrum: 2048
>>>>>Begin Spectral Data<<<<<
223.165	-8.31
223.4	-8.31
223.635	-8.31
223.869	-15.31
224.104	-13.31
224.338	-30.31
224.573	-28.31
224.808	-10.31
225.042	2.69
225.277	-15.31
225.511	2.69
225.746	9.69
225.98	15.69
226.215	19.69
226.449	6.69
226.683	16.69
226.918	13.69
227.152	33.69
227.387	36.69
227.621	38.69
227.856	38.69
228.09	60.69
228.324	34.69
228.559	70.69
228.793	64.69
229.027	63.69
229.262	47.69
229.496	78.69
229.73	57.69
229.964	66.69
230.199	62.69
230.433	66.69
230.667	80.69
230.901	88.69
231.136	83.69
231.37	76.69
231.604	77.69
231.838	88.69
232.072	88.69
232.306	73.69
232.541	86.69
232.775	93.69
233.009	79.69
233.243	86.69
233.477	92.69
233.711	72.69
233.945	86.69
234.179	87.69
234.413	82.69
234.647	86.69
234.881	79.69
235.115	77.69
235.349	72.69
235.583	87.69
235.817	88.69
236.051	86.69
236.285	87.69
236.519	80.69
236.753	80.69
236.987	92.69
237.221	74.69
237.455	85.69
237.689	88.69
237.922	97.69
238.156	77.69
238.39	70.69
238.624	74.69
238.858	68.69
239.091	79.69
239.325	83.69
239.559	69.69
239.793	89.69
240.027	73.69
240.26	73.69
240.494	73.69
240.728	90.69
240.961	55.69
241.195	70.69
241.429	75.69
241.662	84.69
241.896	73.69
242.13	78.69
242.363	79.69
242.597	80.69
242.83	72.69
243.064	76.69
243.298	69.69
243.531	89.69
243.765	74.69
243.998	85.69
244.232	68.69
244.465	75.69
244.699	84.69
244.932	82.69
245.166	72.69
245.399	69.69
245.633	64.69
245.866	70.69
246.099	83.69
246.333	83.69
246.566	78.69
246.8	65.69
247.033	78.69
247.266	87.69
247.5	79.69
247.733	86.69
247.966	84.69
248.2	87.69
248.433	75.69
248.666	79.69
248.899	78.69
249.133	81.69
249.366	95.69
249.599	84.69
249.832	76.69
250.066	76.69
250.299	76.69
250.532	75.69
250.765	76.69
250.998	76.69
251.231	69.69
251.465	93.69
251.698	86.69
251.931	82.69
252.164	86.69
252.397	81.69
252.63	88.69
252.863	78.69
253.096	81.69
253.329	71.69
253.562	68.69
253.795	76.69
254.028	87.69
254.261	73.69
254.494	90.69
254.727	82.69
254.96	72.69
255.193	82.69
255.426	96.69
255.659	96.69
255.892	69.69
256.124	72.69
256.357	70.69
256.59	77.69
256.823	83.69
257.056	68.69
257.289	97.69
257.521	98.69
257.754	86.69
257.987	87.69
258.22	93.69
258.452	83.69
258.685	87.69
258.918	94.69
259.151	79.69
259.383	76.69
259.616	79.69
259.849	76.69
260.081	70.69
260.314	83.69
260.547	91.69
260.779	81.69
261.012	84.69
261.244	74.69
261.477	80.69
261.71	78.69
261.942	88.69
262.175	84.69
262.407	82.69
262.64	75.69
262.872	90.69
263.105	71.69
263.337	85.69
263.57	98.69
263.802	83.69
264.035	82.69
264.267	86.69
264.499	80.69
264.732	81.69
264.964	83.69
265.197	78.69
265.429	79.69
265.661	75.69
265.894	71.69
266.126	87.69
266.358	79.69
266.591	95.69
266.823	71.69
267.055	79.69
267.287	105.69
267.52	75.69
267.752	89.69
267.984	74.69
268.216	74.69
268.448	78.69
268.681	83.69
268.913	77.69
269.145	84.69
269.377	75.69
269.609	81.69
269.841	86.69
270.073	95.69
270.306	91.69
270.538	91.69
270.77	80.69
271.002	74.69
271.234	85.69
271.466	90.69
271.698	75.69
271.93	76.69
272.162	91.69
272.394	71.69
272.626	78.69
272.858	74.69
273.09	76.69
273.322	73.69
273.553	68.69
273.785	75.69
274.017	63.69
274.249	89.69
274.481	86.69
274.713	88.69
274.945	79.69
275.176	88.69
275.408	78.69
275.64	80.69
275.872	77.69
276.104	99.69
276.335	72.69
276.567	84.69
276.799	86.69
277.031	87.69
277.262	78.69
277.494	84.69
277.726	81.69
277.957	89.69
278.189	78.69
278.421	71.69
278.652	75.69
278.884	88.69
279.115	90.69
279.347	95.69
279.579	85.69
279.81	86.69
280.042	88.69
280.273	76.69
280.505	72.69
280.736	83.69
280.968	90.69
281.199	86.69
281.431	78.69
281.662	95.69
281.894	84.69
282.125	84.69
282.356	73.69
282.588	74.69
282.819	76.69
283.051	86.69
283.282	78.69
283.513	82.69
283.745	87.69
283.976	97.69
284.207	83.69
284.439	76.69
284.67	84.69
284.901	86.69
285.132	97.69
285.364	79.69
285.595	77.69
285.826	81.69
286.057	87.69
286.288	91.69
286.52	76.69
286.751	84.69
286.982	88.69
287.213	90.69
287.444	71.69
287.675	80.69
287.906	84.69
288.138	86.69
288.369	82.69
288.6	88.69
288.831	87.69
289.062	95.69
289.293	82.69
289.524	88.69
289.755	90.69
289.986	87.69
290.217	80.69
290.448	72.69
290.679	96.69
290.91	96.69
291.141	89.69
291.371	88.69
291.602	67.69
291.833	81.69
292.064	90.69
292.295	88.69
292.526	75.69
292.757	82.69
292.987	83.69
293.218	72.69
293.449	80.69
293.68	88.69
293.91	88.69
294.141	91.69
294.372	82.69
294.603	96.69
294.833	83.69
295.064	74.69
295.295	80.69
295.525	78.69
295.756	80.69
295.987	101.69
296.217	77.69
296.448	84.69
296.679	91.69
296.909	81.69
297.14	91.69
297.37	87.69
297.601	71.69
297.831	87.69
298.062	79.69
298.292	76.69
298.523	79.69
298.753	83.69
298.984	96.69
299.214	110.69
299.445	88.69
299.675	82.69
299.905	101.69
300.136	84.69
300.366	70.69
300.597	112.69
300.827	81.69
301.057	98.69
301.288	85.69
301.518	80.69
301.748	92.69
301.979	84.69
302.209	80.69
302.439	82.69
302.669	94.69
302.9	75.69
303.13	80.69
303.36	91.69
303.59	92.69
303.82	76.69
304.051	91.69
304.281	85.69
304.511	86.69
304.741	85.69
304.971	84.69
305.201	65.69
305.431	79.69
305.661	93.69
305.891	95.69
306.121	86.69
306.352	75.69
306.582	76.69
306.812	83.69
307.042	96.69
307.272	87.69
307.502	83.69
307.731	65.69
307.961	75.69
308.191	74.69
308.421	88.69
308.651	84.69
308.881	87.69
309.111	81.69
309.341	80.69
309.571	68.69
309.8	75.69
310.03	80.69
310.26	74.69
310.49	92.69
310.72	85.69
310.949	78.69
311.179	80.69
311.409	88.69
311.639	92.69
311.868	94.69
312.098	73.69
312.328	96.69
312.557	79.69
312.787	92.69
313.017	82.69
313.246	88.69
313.476	88.69
313.706	90.69
313.935	86.69
314.165	89.69
314.394	88.69
314.624	87.69
314.853	84.69
315.083	84.69
315.312	87.69
315.542	73.69
315.771	83.69
316.001	86.69
316.23	92.69
316.46	85.69
316.689	92.69
316.919	83.69
317.148	94.69
317.377	88.69
317.607	84.69
317.836	80.69
318.065	81.69
318.295	93.69
318.524	86.69
318.753	79.69
318.983	83.69
319.212	85.69
319.441	75.69
319.67	89.69
319.9	85.69
320.129	87.69
320.358	102.69
320.587	85.69
320.816	79.69
321.046	86.69
321.275	90.69
321.504	81.69
321.733	87.69
321.962	102.69
322.191	80.69
322.42	94.69
322.649	83.69
322.878	83.69
323.108	87.69
323.337	95.69
323.566	79.69
323.795	78.69
324.024	72.69
324.253	74.69
324.482	73.69
324.71	85.69
324.939	100.69
325.168	86.69
325.397	92.69
325.626	70.69
325.855	83.69
326.084	96.69
326.313	94.69
326.542	89.69
326.77	76.69
326.999	74.69
327.228	75.69
327.457	84.69
327.686	76.69
327.914	86.69
328.143	73.69
328.372	73.69
328.6	95.69
328.829	78.69
329.058	79.69
329.287	84.69
329.515	94.69
329.744	79.69
329.972	92.69
330.201	75.69
330.43	70.69
330.658	92.69
330.887	82.69
331.115	82.69
331.344	87.69
331.572	96.69
331.801	84.69
332.03	83.69
332.258	79.69
332.486	93.69
332.715	82.69
332.943	72.69
333.172	76.69
333.4	93.69
333.629	83.69
333.857	81.69
334.085	87.69
334.314	72.69
334.542	75.69
334.771	89.69
334.999	72.69
335.227	86.69
335.455	85.69
335.684	87.69
335.912	81.69
336.14	81.69
336.369	82.69
336.597	87.69
336.825	92.69
337.053	71.69
337.281	92.69
337.51	86.69
337.738	74.69
337.966	81.69
338.194	82.69
338.422	91.69
338.65	95.69
338.878	94.69
339.106	85.69
339.334	77.69
339.562	72.69
339.79	88.69
340.018	87.69
340.246	82.69
340.474	86.69
340.702	81.69
340.93	83.69
341.158	88.69
341.386	96.69
341.614	91.69
341.842	81.69
342.07	86.69
342.298	84.69
342.526	79.69
342.754	86.69
342.981	85.69
343.209	77.69
343.437	91.69
343.665	91.69
343.893	86.69
344.12	99.69
344.348	94.69
344.576	82.69
344.804	73.69
345.031	64.69
345.259	95.69
345.487	80.69
345.714	71.69
345.942	79.69
346.17	68.69
346.397	84.69
346.625	88.69
346.853	92.69
347.08	85.69
347.308	99.69
347.535	94.69
347.763	98.69
347.99	91.69
348.218	97.69
348.445	77.69
348.673	89.69
348.9	84.69
349.128	87.69
349.355	76.69
349.583	87.69
349.81	79.69
350.037	78.69
350.265	69.69
350.492	79.69
350.72	82.69
350.947	88.69
351.174	86.69
351.402	83.69
351.629	90.69
351.856	92.69
352.083	80.69
352.311	90.69
352.538	95.69
352.765	79.69
352.992	91.69
353.22	89.69
353.447	91.69
353.674	83.69
353.901	84.69
354.128	97.69
354.355	84.69
354.583	86.69
354.81	96.69
355.037	87.69
355.264	96.69
355.491	87.69
355.718	85.69
355.945	75.69
356.172	95.69
356.399	76.69
356.626	83.69
356.853	79.69
357.08	69.69
357.307	83.69
357.534	87.69
357.761	94.69
357.988	71.69
358.215	79.69
358.441	88.69
358.668	84.69
358.895	82.69
359.122	62.69
359.349	88.69
359.576	70.69
359.802	80.69
360.029	85.69
360.256	86.69
360.483	79.69
360.709	84.69
360.936	94.69
361.163	76.69
361.39	85.69
361.616	99.69
361.843	80.69
362.07	81.69
362.296	77.69
362.523	76.69
362.749	85.69
362.976	71.69
363.203	80.69
363.429	89.69
363.656	95.69
363.882	95.69
364.109	80.69
364.335	87.69
364.562	83.69
364.788	81.69
365.015	99.69
365.241	86.69
365.468	85.69
365.694	73.69
365.92	81.69
366.147	76.69
366.373	70.69
366.599	101.69
366.826	91.69
367.052	84.69
367.278	74.69
367.505	72.69
367.731	97.69
367.957	86.69
368.184	65.69
368.41	84.69
368.636	87.69
368.862	78.69
369.089	75.69
369.315	85.69
369.541	93.69
369.767	86.69
369.993	87.69
370.219	74.69
370.445	82.69
370.672	84.69
370.898	73.69
371.124	83.69
371.35	82.69
371.576	79.69
371.802	92.69
372.028	75.69
372.254	77.69
372.48	85.69
372.706	85.69
372.932	73.69
373.158	77.69
373.384	83.69
373.61	86.69
373.835	85.69
374.061	90.69
374.287	83.69
374.513	82.69
374.739	91.69
374.965	87.69
375.191	87.69
375.416	88.69
375.642	69.69
375.868	88.69
376.094	91.69
376.319	81.69
376.545	87.69
376.771	86.69
376.997	98.69
377.222	81.69
377.448	70.69
377.674	78.69
377.899	93.69
378.125	69.69
378.35	80.69
378.576	81.69
378.802	73.69
379.027	80.69
379.253	83.69
379.478	112.69
379.704	98.69
379.929	91.69
380.155	75.69
380.38	85.69
380.606	84.69
380.831	75.69
381.057	104.69
381.282	94.69
381.507	85.69
381.733	108.69
381.958	88.69
382.184	82.69
382.409	91.69
382.634	74.69
382.86	88.69
383.085	90.69
383.31	90.69
383.535	96.69
383.761	94.69
383.986	81.69
384.211	94.69
384.436	94.69
384.662	93.69
384.887	75.69
385.112	75.69
385.337	95.69
385.562	80.69
385.787	69.69
386.013	92.69
386.238	89.69
386.463	76.69
386.688	80.69
386.913	88.69
387.138	80.69
387.363	75.69
387.588	90.69
387.813	76.69
388.038	74.69
388.263	93.69
388.488	84.69
388.713	82.69
388.938	81.69
389.163	88.69
389.387	89.69
389.612	71.69
389.837	84.69
390.062	86.69
390.287	89.69
390.512	88.69
390.736	92.69
390.961	91.69
391.186	75.69
391.411	81.69
391.636	92.69
391.86	104.69
392.085	89.69
392.31	83.69
392.534	89.69
392.759	93.69
392.984	86.69
393.208	97.69
393.433	74.69
393.658	83.69
393.882	82.69
394.107	78.69
394.331	81.69
394.556	96.69
394.78	76.69
395.005	80.69
395.229	88.69
395.454	73.69
395.678	80.69
395.903	92.69
396.127	93.69
396.352	90.69
396.576	86.69
396.801	80.69
397.025	100.69
397.249	87.69
397.474	96.69
397.698	92.69
397.922	82.69
398.147	92.69
398.371	98.69
398.595	106.69
398.82	86.69
399.044	82.69
399.268	86.69
399.492	98.69
399.717	84.69
399.941	82.69
400.165	82.69
400.389	96.69
400.613	70.69
400.837	90.69
401.062	94.69
401.286	82.69
401.51	91.69
401.734	85.69
401.958	82.69
402.182	85.69
402.406	91.69
402.63	87.69
402.854	81.69
403.078	108.69
403.302	89.69
403.526	86.69
403.75	83.69
403.974	88.69
404.198	85.69
404.422	82.69
404.645	88.69
404.869	92.69
405.093	84.69
405.317	98.69
405.541	95.69
405.765	75.69
405.988	90.69
406.212	108.69
406.436	85.69
406.66	90.69
406.883	99.69
407.107	85.69
407.331	84.69
407.555	102.69
407.778	98.69
408.002	83.69
408.226	98.69
408.449	86.69
408.673	89.69
408.896	108.69
409.12	102.69
409.344	90.69
409.567	85.69
409.791	86.69
410.014	89.69
410.238	86.69
410.461	87.69
410.685	100.69
410.908	87.69
411.132	92.69
411.355	86.69
411.578	100.69
411.802	103.69
412.025	86.69
412.249	84.69
412.472	88.69
412.695	85.69
412.919	80.69
413.142	90.69
413.365	88.69
413.589	85.69
413.812	90.69
414.035	81.69
414.258	94.69
414.482	97.69
414.705	88.69
414.928	88.69
415.151	94.69
415.374	75.69
415.597	73.69
415.821	88.69
416.044	100.69
416.267	90.69
416.49	104.69
416.713	91.69
416.936	84.69
417.159	88.69
417.382	98.69
417.605	89.69
417.828	94.69
418.051	96.69
418.274	102.69
418.497	101.69
418.72	94.69
418.943	103.69
419.166	90.69
419.389	101.69
419.611	96.69
419.834	91.69
420.057	93.69
420.28	102.69
420.503	100.69
420.726	102.69
420.948	101.69
421.171	87.69
421.394	89.69
421.617	90.69
421.839	91.69
422.062	94.69
422.285	87.69
422.507	82.69
422.73	98.69
422.953	97.69
423.175	96.69
423.398	87.69
423.621	83.69
423.843	90.69
424.066	111.69
424.288	96.69
424.511	92.69
424.733	94.69
424.956	78.69
425.178	97.69
425.401	102.69
425.623	100.69
425.846	98.69
426.068	100.69
426.291	94.69
426.513	93.69
426.735	84.69
426.958	83.69
427.18	100.69
427.402	88.69
427.625	87.69
427.847	88.69
428.069	86.69
428.292	80.69
428.514	90.69
428.736	100.69
428.958	79.69
429.181	102.69
429.403	91.69
429.625	87.69
429.847	96.69
430.069	96.69
430.292	94.69
430.514	95.69
430.736	97.69
430.958	82.69
431.18	104.69
431.402	92.69
431.624	82.69
431.846	78.69
432.068	95.69
432.29	86.69
432.512	92.69
432.734	85.69
432.956	106.69
433.178	98.69
433.4	100.69
433.622	100.69
433.844	96.69
434.066	98.69
434.287	87.69
434.509	80.69
434.731	87.69
434.953	85.69
435.175	86.69
435.397	79.69
435.618	105.69
435.84	96.69
436.062	99.69
436.284	107.69
436.505	88.69
436.727	102.69
436.949	106.69
437.17	97.69
437.392	118.69
437.614	90.69
437.835	96.69
438.057	86.69
438.278	93.69
438.5	97.69
438.721	95.69
438.943	93.69
439.165	93.69
439.386	97.69
439.608	116.69
439.829	112.69
440.05	104.69
440.272	114.69
440.493	110.69
440.715	108.69
440.936	95.69
441.158	104.69
441.379	96.69
441.6	110.69
441.822	96.69
442.043	104.69
442.264	93.69
442.486	98.69
442.707	97.69
442.928	111.69
443.149	94.69
443.371	100.69
443.592	96.69
443.813	103.69
444.034	103.69
444.255	100.69
444.476	102.69
444.698	97.69
444.919	108.69
445.14	188.69
445.361	129.69
445.582	105.69
445.803	91.69
446.024	86.69
446.245	106.69
446.466	106.69
446.687	95.69
446.908	95.69
447.129	100.69
447.35	102.69
447.571	98.69
447.792	92.69
448.013	101.69
448.234	112.69
448.455	106.69
448.675	88.69
448.896	88.69
449.117	99.69
449.338	96.69
449.559	99.69
449.779	103.69
450	101.69
450.221	103.69
450.442	85.69
450.662	98.69
450.883	88.69
451.104	88.69
451.324	82.69
451.545	85.69
451.766	91.69
451.986	86.69
452.207	82.69
452.428	98.69
452.648	90.69
452.869	89.69
453.089	83.69
453.31	82.69
453.53	79.69
453.751	81.69
453.971	92.69
454.192	92.69
454.412	77.69
454.633	92.69
454.853	96.69
455.073	86.69
455.294	88.69
455.514	83.69
455.734	95.69
455.955	95.69
456.175	97.69
456.395	80.69
456.616	86.69
456.836	69.69
457.056	92.69
457.276	74.69
457.497	83.69
457.717	81.69
457.937	83.69
458.157	87.69
458.377	81.69
458.598	74.69
458.818	93.69
459.038	98.69
459.258	95.69
459.478	77.69
459.698	85.69
459.918	92.69
460.138	92.69
460.358	77.69
460.578	88.69
460.798	89.69
461.018	88.69
461.238	89.69
461.458	91.69
461.678	97.69
461.898	101.69
462.118	91.69
462.338	85.69
462.558	89.69
462.777	99.69
462.997	95.69
463.217	84.69
463.437	81.69
463.657	86.69
463.876	93.69
464.096	80.69
464.316	85.69
464.536	89.69
464.755	91.69
464.975	85.69
465.195	98.69
465.414	88.69
465.634	87.69
465.854	101.69
466.073	99.69
466.293	102.69
466.512	97.69
466.732	84.69
466.951	91.69
467.171	85.69
467.391	81.69
467.61	88.69
467.829	87.69
468.049	92.69
468.268	89.69
468.488	90.69
468.707	98.69
468.927	107.69
469.146	107.69
469.365	94.69
469.585	90.69
469.804	106.69
470.023	95.69
470.243	99.69
470.462	92.69
470.681	92.69
470.901	89.69
471.12	95.69
471.339	93.69
471.558	91.69
471.777	106.69
471.997	97.69
472.216	100.69
472.435	83.69
472.654	80.69
472.873	98.69
473.092	83.69
473.311	91.69
473.53	93.69
473.749	105.69
473.968	95.69
474.187	97.69
474.406	83.69
474.625	102.69
474.844	108.69
475.063	104.69
475.282	86.69
475.501	102.69
475.72	81.69
475.939	82.69
476.158	93.69
476.377	109.69
476.596	97.69
476.814	97.69
477.033	72.69
477.252	90.69
477.471	100.69
477.69	91.69
477.908	103.69
478.127	107.69
478.346	101.69
478.564	89.69
478.783	95.69
479.002	99.69
479.22	90.69
479.439	92.69
479.658	87.69
479.876	97.69
480.095	95.69
480.313	99.69
480.532	106.69
480.751	85.69
480.969	86.69
481.188	82.69
481.406	81.69
481.624	75.69
481.843	96.69
482.061	93.69
482.28	84.69
482.498	98.69
482.717	100.69
482.935	90.69
483.153	105.69
483.372	91.69
483.59	89.69
483.808	96.69
484.027	103.69
484.245	107.69
484.463	98.69
484.681	106.69
484.9	108.69
485.118	90.69
485.336	94.69
485.554	94.69
485.772	89.69
485.99	85.69
486.209	101.69
486.427	95.69
486.645	98.69
486.863	98.69
487.081	80.69
487.299	98.69
487.517	96.69
487.735	111.69
487.953	115.69
488.171	118.69
488.389	117.69
488.607	90.69
488.825	112.69
489.043	103.69
489.261	97.69
489.479	111.69
489.696	110.69
489.914	105.69
490.132	97.69
490.35	103.69
490.568	110.69
490.786	102.69
491.003	107.69
491.221	132.69
491.439	118.69
491.657	113.69
491.874	110.69
492.092	116.69
492.31	140.69
492.527	114.69
492.745	130.69
492.963	111.69
493.18	108.69
493.398	98.69
493.615	107.69
493.833	111.69
494.05	102.69
494.268	113.69
494.485	126.69
494.703	95.69
494.92	119.69
495.138	100.69
495.355	126.69
495.573	111.69
495.79	99.69
496.008	107.69
496.225	102.69
496.442	110.69
496.66	109.69
496.877	108.69
497.094	112.69
497.312	107.69
497.529	108.69
497.746	97.69
497.963	98.69
498.181	95.69
498.398	83.69
498.615	98.69
498.832	92.69
499.049	106.69
499.267	81.69
499.484	87.69
499.701	89.69
499.918	97.69
500.135	92.69
500.352	102.69
500.569	97.69
500.786	94.69
501.003	106.69
501.22	114.69
501.437	101.69
501.654	103.69
501.871	97.69
502.088	100.69
502.305	94.69
502.522	90.69
502.739	103.69
502.956	97.69
503.172	93.69
503.389	88.69
503.606	90.69
503.823	90.69
504.04	104.69
504.256	91.69
504.473	83.69
504.69	86.69
504.907	94.69
505.123	94.69
505.34	92.69
505.557	97.69
505.773	99.69
505.99	102.69
506.207	102.69
506.423	99.69
506.64	92.69
506.856	88.69
507.073	103.69
507.289	93.69
507.506	95.69
507.722	95.69
507.939	103.69
508.155	92.69
508.372	96.69
508.588	77.69
508.805	82.69
509.021	91.69
509.238	91.69
509.454	87.69
509.67	108.69
509.887	90.69
510.103	99.69
510.319	106.69
510.536	82.69
510.752	76.69
510.968	87.69
511.184	79.69
511.401	76.69
511.617	78.69
511.833	87.69
512.049	85.69
512.265	88.69
512.481	84.69
512.698	76.69
512.914	86.69
513.13	84.69
513.346	85.69
513.562	84.69
513.778	89.69
513.994	80.69
514.21	79.69
514.426	85.69
514.642	79.69
514.858	87.69
515.074	87.69
515.29	95.69
515.506	87.69
515.721	80.69
515.937	89.69
516.153	100.69
516.369	92.69
516.585	70.69
516.801	99.69
517.016	89.69
517.232	87.69
517.448	84.69
517.664	83.69
517.879	96.69
518.095	89.69
518.311	84.69
518.527	99.69
518.742	80.69
518.958	88.69
519.173	99.69
519.389	84.69
519.605	90.69
519.82	99.69
520.036	98.69
520.251	82.69
520.467	96.69
520.682	69.69
520.898	87.69
521.113	98.69
521.329	76.69
521.544	90.69
521.76	88.69
521.975	86.69
522.19	87.69
522.406	86.69
522.621	98.69
522.836	91.69
523.052	85.69
523.267	88.69
523.482	90.69
523.698	98.69
523.913	80.69
524.128	91.69
524.343	87.69
524.559	96.69
524.774	97.69
524.989	90.69
525.204	92.69
525.419	103.69
525.634	89.69
525.849	89.69
526.064	80.69
526.28	99.69
526.495	83.69
526.71	82.69
526.925	78.69
527.14	86.69
527.355	96.69
527.57	71.69
527.785	92.69
527.999	91.69
528.214	94.69
528.429	94.69
528.644	93.69
528.859	94.69
529.074	107.69
529.289	103.69
529.503	103.69
529.718	100.69
529.933	90.69
530.148	88.69
530.363	95.69
530.577	73.69
530.792	86.69
531.007	82.69
531.221	73.69
531.436	86.69
531.651	72.69
531.865	86.69
532.08	82.69
532.295	80.69
532.509	86.69
532.724	73.69
532.938	84.69
533.153	92.69
533.367	90.69
533.582	104.69
533.796	100.69
534.011	96.69
534.225	96.69
534.44	78.69
534.654	96.69
534.868	89.69
535.083	85.69
535.297	101.69
535.511	89.69
535.726	85.69
535.94	94.69
536.154	95.69
536.369	89.69
536.583	84.69
536.797	97.69
537.011	89.69
537.225	97.69
537.44	78.69
537.654	91.69
537.868	91.69
538.082	96.69
538.296	93.69
538.51	91.69
538.724	86.69
538.938	93.69
539.153	102.69
539.367	92.69
539.581	99.69
539.795	96.69
540.009	88.69
540.222	97.69
540.436	81.69
540.65	94.69
540.864	93.69
541.078	97.69
541.292	102.69
541.506	116.69
541.72	116.69
541.934	105.69
542.147	122.69
542.361	107.69
542.575	96.69
542.789	105.69
543.002	96.69
543.216	96.69
543.43	85.69
543.644	98.69
543.857	115.69
544.071	108.69
544.285	114.69
544.498	103.69
544.712	107.69
544.925	118.69
545.139	93.69
545.352	96.69
545.566	115.69
545.779	104.69
545.993	108.69
546.206	116.69
546.42	107.69
546.633	98.69
546.847	101.69
547.06	114.69
547.274	112.69
547.487	106.69
547.7	114.69
547.914	106.69
548.127	101.69
548.34	102.69
548.554	91.69
548.767	116.69
548.98	107.69
549.193	110.69
549.407	94.69
549.62	95.69
549.833	98.69
550.046	117.69
550.259	94.69
550.473	116.69
550.686	114.69
550.899	99.69
551.112	98.69
551.325	102.69
551.538	94.69
551.751	120.69
551.964	88.69
552.177	97.69
552.39	108.69
552.603	103.69
552.816	106.69
553.029	115.69
553.242	98.69
553.455	104.69
553.667	106.69
553.88	107.69
554.093	104.69
554.306	105.69
554.519	99.69
554.732	96.69
554.944	108.69
555.157	92.69
555.37	112.69
555.583	94.69
555.795	93.69
556.008	102.69
556.221	106.69
556.433	103.69
556.646	94.69
556.859	96.69
557.071	101.69
557.284	108.69
557.496	107.69
557.709	94.69
557.921	95.69
558.134	98.69
558.346	95.69
558.559	98.69
558.771	89.69
558.984	111.69
559.196	95.69
559.409	99.69
559.621	98.69
559.833	99.69
560.046	87.69
560.258	90.69
560.47	94.69
560.683	107.69
560.895	96.69
561.107	95.69
561.32	95.69
561.532	110.69
561.744	93.69
561.956	91.69
562.168	90.69
562.381	99.69
562.593	106.69
562.805	104.69
563.017	107.69
563.229	94.69
563.441	90.69
563.653	97.69
563.865	90.69
564.077	90.69
564.289	87.69
564.501	92.69
564.713	104.69
564.925	98.69
565.137	90.69
565.349	104.69
565.561	89.69
565.773	90.69
565.985	94.69
566.197	97.69
566.408	94.69
566.62	99.69
566.832	103.69
567.044	98.69
567.255	108.69
567.467	108.69
567.679	90.69
567.891	84.69
568.102	72.69
568.314	92.69
568.526	79.69
568.737	89.69
568.949	86.69
569.161	82.69
569.372	87.69
569.584	78.69
569.795	76.69
570.007	88.69
570.218	97.69
570.43	88.69
570.641	86.69
570.853	90.69
571.064	87.69
571.276	90.69
571.487	78.69
571.698	88.69
571.91	90.69
572.121	85.69
572.333	82.69
572.544	95.69
572.755	87.69
572.966	95.69
573.178	80.69
573.389	75.69
573.6	82.69
573.811	91.69
574.023	90.69
574.234	74.69
574.445	76.69
574.656	89.69
574.867	84.69
575.078	90.69
575.289	84.69
575.501	89.69
575.712	89.69
575.923	88.69
576.134	87.69
576.345	91.69
576.556	92.69
576.767	92.69
576.978	91.69
577.188	93.69
577.399	100.69
577.61	70.69
577.821	88.69
578.032	89.69
578.243	67.69
578.454	92.69
578.665	76.69
578.875	80.69
579.086	94.69
579.297	85.69
579.508	83.69
579.718	83.69
579.929	91.69
580.14	90.69
580.35	84.69
580.561	74.69
580.772	114.69
580.982	82.69
581.193	73.69
581.403	73.69
581.614	80.69
581.825	93.69
582.035	87.69
582.246	74.69
582.456	90.69
582.667	78.69
582.877	74.69
583.087	85.69
583.298	72.69
583.508	87.69
583.719	110.69
583.929	103.69
584.139	84.69
584.35	93.69
584.56	99.69
584.77	80.69
584.981	83.69
585.191	80.69
585.401	83.69
585.611	96.69
585.821	94.69
586.032	84.69
586.242	82.69
586.452	83.69
586.662	77.69
586.872	85.69
587.082	90.69
587.292	82.69
587.502	87.69
587.713	86.69
587.923	85.69
588.133	85.69
588.343	74.69
588.553	83.69
588.762	93.69
588.972	82.69
589.182	76.69
589.392	93.69
589.602	67.69
589.812	67.69
590.022	89.69
590.232	83.69
590.441	101.69
590.651	82.69
590.861	81.69
591.071	87.69
591.281	73.69
591.49	89.69
591.7	83.69
591.91	100.69
592.119	92.69
592.329	79.69
592.539	98.69
592.748	82.69
592.958	87.69
593.167	86.69
593.377	77.69
593.587	89.69
593.796	92.69
594.006	85.69
594.215	82.69
594.424	91.69
594.634	83.69
594.843	96.69
595.053	78.69
595.262	74.69
595.472	91.69
595.681	81.69
595.89	89.69
596.1	82.69
596.309	87.69
596.518	100.69
596.727	84.69
596.937	86.69
597.146	84.69
597.355	82.69
597.564	81.69
597.774	95.69
597.983	84.69
598.192	104.69
598.401	97.69
598.61	75.69
598.819	86.69
599.028	87.69
599.237	83.69
599.446	94.69
599.655	93.69
599.864	87.69
600.073	103.69
600.282	87.69
600.491	86.69
600.7	89.69
600.909	91.69
601.118	76.69
601.327	90.69
601.536	86.69
601.745	86.69
601.953	88.69
602.162	106.69
602.371	97.69
602.58	93.69
602.789	90.69
602.997	100.69
603.206	98.69
603.415	86.69
603.623	94.69
603.832	98.69
604.041	97.69
604.249	85.69
604.458	93.69
604.666	83.69
604.875	78.69
605.084	92.69
605.292	87.69
605.501	85.69
605.709	90.69
605.918	91.69
606.126	89.69
606.334	85.69
606.543	86.69
606.751	77.69
606.96	90.69
607.168	93.69
607.376	82.69
607.585	87.69
607.793	99.69
608.001	87.69
608.21	84.69
608.418	102.69
608.626	107.69
608.834	80.69
609.043	102.69
609.251	91.69
609.459	104.69
609.667	94.69
609.875	105.69
610.083	91.69
610.291	93.69
610.499	93.69
610.707	86.69
610.916	99.69
611.124	96.69
611.332	99.69
611.54	91.69
611.748	93.69
611.955	94.69
612.163	92.69
612.371	93.69
612.579	98.69
612.787	88.69
612.995	97.69
613.203	104.69
613.411	89.69
613.618	91.69
613.826	83.69
614.034	82.69
614.242	103.69
614.449	98.69
614.657	82.69
614.865	76.69
615.072	95.69
615.28	88.69
615.488	91.69
615.695	78.69
615.903	93.69
616.111	103.69
616.318	81.69
616.526	95.69
616.733	90.69
616.941	87.69
617.148	90.69
617.356	94.69
617.563	92.69
617.771	86.69
617.978	87.69
618.185	95.69
618.393	99.69
618.6	83.69
618.807	102.69
619.015	75.69
619.222	98.69
619.429	93.69
619.637	92.69
619.844	87.69
620.051	81.69
620.258	99.69
620.466	84.69
620.673	79.69
620.88	91.69
621.087	118.69
621.294	100.69
621.501	88.69
621.708	73.69
621.915	77.69
622.122	84.69
622.329	96.69
622.536	102.69
622.743	81.69
622.95	89.69
623.157	91.69
623.364	90.69
623.571	73.69
623.778	87.69
623.985	98.69
624.192	84.69
624.399	80.69
624.606	96.69
624.812	94.69
625.019	90.69
625.226	97.69
625.433	83.69
625.639	93.69
625.846	86.69
626.053	80.69
626.259	88.69
626.466	83.69
626.673	80.69
626.879	79.69
627.086	108.69
627.293	84.69
627.499	69.69
627.706	110.69
627.912	81.69
628.119	93.69
628.325	88.69
628.532	92.69
628.738	99.69
628.945	93.69
629.151	90.69
629.357	94.69
629.564	95.69
629.77	80.69
629.976	86.69
630.183	99.69
630.389	90.69
630.595	82.69
630.802	91.69
631.008	83.69
631.214	89.69
631.42	96.69
631.627	96.69
631.833	78.69
632.039	79.69
632.245	97.69
632.451	97.69
632.657	81.69
632.863	94.69
633.069	83.69
633.275	95.69
633.481	78.69
633.688	85.69
633.893	89.69
634.099	90.69
634.305	89.69
634.511	95.69
634.717	93.69
634.923	92.69
635.129	80.69
635.335	95.69
635.541	85.69
635.747	98.69
635.952	85.69
636.158	97.69
636.364	91.69
636.57	102.69
636.775	81.69
636.981	76.69
637.187	99.69
637.392	84.69
637.598	90.69
637.804	103.69
638.009	79.69
638.215	91.69
638.421	89.69
638.626	98.69
638.832	80.69
639.037	98.69
639.243	81.69
639.448	74.69
639.654	101.69
639.859	82.69
640.065	94.69
640.27	91.69
640.475	85.69
640.681	85.69
640.886	90.69
641.091	95.69
641.297	80.69
641.502	88.69
641.707	97.69
641.913	99.69
642.118	92.69
642.323	88.69
642.528	86.69
642.733	73.69
642.939	89.69
643.144	92.69
643.349	83.69
643.554	98.69
643.759	80.69
643.964	78.69
644.169	82.69
644.374	80.69
644.579	87.69
644.784	81.69
644.989	101.69
645.194	81.69
645.399	91.69
645.604	94.69
645.809	80.69
646.014	95.69
646.219	84.69
646.423	91.69
646.628	102.69
646.833	98.69
647.038	85.69
647.243	97.69
647.447	102.69
647.652	96.69
647.857	86.69
648.062	107.69
648.266	89.69
648.471	91.69
648.676	74.69
648.88	84.69
649.085	94.69
649.289	81.69
649.494	107.69
649.698	84.69
649.903	82.69
650.107	88.69
650.312	106.69
650.516	83.69
650.721	91.69
650.925	82.69
651.13	87.69
651.334	94.69
651.539	87.69
651.743	95.69
651.947	103.69
652.152	89.69
652.356	85.69
652.56	85.69
652.764	76.69
652.969	78.69
653.173	86.69
653.377	79.69
653.581	90.69
653.785	72.69
653.99	92.69
654.194	88.69
654.398	81.69
654.602	74.69
654.806	87.69
655.01	96.69
655.214	78.69
655.418	78.69
655.622	76.69
655.826	90.69
656.03	87.69
656.234	76.69
656.438	94.69
656.642	89.69
656.846	68.69
657.049	82.69
657.253	92.69
657.457	90.69
657.661	70.69
657.865	86.69
658.068	87.69
658.272	74.69
658.476	74.69
658.68	79.69
658.883	72.69
659.087	81.69
659.291	78.69
659.494	73.69
659.698	89.69
659.901	88.69
660.105	80.69
660.309	89.69
660.512	82.69
660.716	73.69
660.919	80.69
661.123	98.69
661.326	80.69
661.53	74.69
661.733	95.69
661.936	87.69
662.14	80.69
662.343	83.69
662.546	77.69
662.75	74.69
662.953	90.69
663.156	84.69
663.36	83.69
663.563	80.69
663.766	88.69
663.969	70.69
664.173	76.69
664.376	83.69
664.579	81.69
664.782	90.69
664.985	90.69
665.188	85.69
665.391	79.69
665.594	86.69
665.797	88.69
666	98.69
666.203	79.69
666.406	85.69
666.609	87.69
666.812	81.69
667.015	90.69
667.218	83.69
667.421	83.69
667.624	97.69
667.827	76.69
668.03	68.69
668.232	69.69
668.435	74.69
668.638	83.69
668.841	95.69
669.043	83.69
669.246	90.69
669.449	75.69
669.651	74.69
669.854	82.69
670.057	85.69
670.259	82.69
670.462	66.69
670.665	73.69
670.867	80.69
671.07	83.69
671.272	87.69
671.475	83.69
671.677	78.69
671.88	83.69
672.082	76.69
672.284	78.69
672.487	74.69
672.689	75.69
672.892	83.69
