Data from Location4.07152019.Energy5.Lamp.07192019.3%Agarose_HRD10591_15-25-48-577.txt Node
Date: Fri Jul 19 15:25:48 EDT 2019
User: cochatt
Spectrometer: HR+D1059
Trigger mode: 1
Integration Time (sec): 1.000000E-1
Scans to average: 1
Electric dark correction enabled: true
Nonlinearity correction enabled: false
Boxcar width: 0
XAxis mode: Wavelengths
Number of Pixels in Spectrum: 2048
>>>>>Begin Spectral Data<<<<<
223.165	-16.62
223.4	-16.62
223.635	-16.62
223.869	-0.62
224.104	-18.62
224.338	-14.62
224.573	-8.62
224.808	-21.62
225.042	-11.62
225.277	2.38
225.511	-1.62
225.746	11.38
225.98	5.38
226.215	17.38
226.449	10.38
226.683	15.38
226.918	16.38
227.152	15.38
227.387	14.38
227.621	39.38
227.856	35.38
228.09	52.38
228.324	52.38
228.559	60.38
228.793	59.38
229.027	62.38
229.262	64.38
229.496	59.38
229.73	58.38
229.964	76.38
230.199	96.38
230.433	56.38
230.667	70.38
230.901	91.38
231.136	78.38
231.37	84.38
231.604	81.38
231.838	84.38
232.072	75.38
232.306	82.38
232.541	83.38
232.775	78.38
233.009	72.38
233.243	65.38
233.477	89.38
233.711	80.38
233.945	68.38
234.179	81.38
234.413	71.38
234.647	88.38
234.881	70.38
235.115	74.38
235.349	74.38
235.583	71.38
235.817	73.38
236.051	78.38
236.285	75.38
236.519	88.38
236.753	94.38
236.987	90.38
237.221	88.38
237.455	79.38
237.689	69.38
237.922	77.38
238.156	83.38
238.39	72.38
238.624	71.38
238.858	64.38
239.091	86.38
239.325	79.38
239.559	66.38
239.793	79.38
240.027	80.38
240.26	87.38
240.494	94.38
240.728	81.38
240.961	74.38
241.195	72.38
241.429	77.38
241.662	68.38
241.896	58.38
242.13	72.38
242.363	79.38
242.597	79.38
242.83	83.38
243.064	78.38
243.298	77.38
243.531	73.38
243.765	79.38
243.998	80.38
244.232	96.38
244.465	88.38
244.699	72.38
244.932	70.38
245.166	78.38
245.399	66.38
245.633	76.38
245.866	74.38
246.099	76.38
246.333	79.38
246.566	71.38
246.8	85.38
247.033	80.38
247.266	79.38
247.5	79.38
247.733	84.38
247.966	87.38
248.2	86.38
248.433	75.38
248.666	84.38
248.899	75.38
249.133	71.38
249.366	95.38
249.599	71.38
249.832	72.38
250.066	82.38
250.299	74.38
250.532	66.38
250.765	75.38
250.998	78.38
251.231	73.38
251.465	82.38
251.698	73.38
251.931	87.38
252.164	62.38
252.397	65.38
252.63	70.38
252.863	72.38
253.096	74.38
253.329	75.38
253.562	75.38
253.795	86.38
254.028	84.38
254.261	90.38
254.494	81.38
254.727	75.38
254.96	94.38
255.193	79.38
255.426	78.38
255.659	81.38
255.892	85.38
256.124	81.38
256.357	74.38
256.59	68.38
256.823	63.38
257.056	72.38
257.289	81.38
257.521	88.38
257.754	92.38
257.987	79.38
258.22	91.38
258.452	82.38
258.685	90.38
258.918	89.38
259.151	87.38
259.383	73.38
259.616	76.38
259.849	76.38
260.081	80.38
260.314	67.38
260.547	79.38
260.779	80.38
261.012	74.38
261.244	86.38
261.477	70.38
261.71	78.38
261.942	70.38
262.175	81.38
262.407	80.38
262.64	82.38
262.872	90.38
263.105	78.38
263.337	71.38
263.57	73.38
263.802	79.38
264.035	64.38
264.267	90.38
264.499	66.38
264.732	79.38
264.964	86.38
265.197	89.38
265.429	81.38
265.661	81.38
265.894	79.38
266.126	76.38
266.358	84.38
266.591	80.38
266.823	84.38
267.055	76.38
267.287	82.38
267.52	91.38
267.752	85.38
267.984	80.38
268.216	93.38
268.448	76.38
268.681	74.38
268.913	81.38
269.145	84.38
269.377	81.38
269.609	79.38
269.841	90.38
270.073	89.38
270.306	86.38
270.538	80.38
270.77	95.38
271.002	80.38
271.234	73.38
271.466	84.38
271.698	103.38
271.93	82.38
272.162	80.38
272.394	88.38
272.626	67.38
272.858	67.38
273.09	72.38
273.322	71.38
273.553	85.38
273.785	74.38
274.017	74.38
274.249	88.38
274.481	85.38
274.713	81.38
274.945	87.38
275.176	88.38
275.408	83.38
275.64	76.38
275.872	78.38
276.104	89.38
276.335	70.38
276.567	84.38
276.799	103.38
277.031	89.38
277.262	83.38
277.494	81.38
277.726	77.38
277.957	89.38
278.189	96.38
278.421	73.38
278.652	91.38
278.884	78.38
279.115	83.38
279.347	88.38
279.579	68.38
279.81	82.38
280.042	73.38
280.273	70.38
280.505	78.38
280.736	83.38
280.968	71.38
281.199	83.38
281.431	89.38
281.662	93.38
281.894	78.38
282.125	79.38
282.356	79.38
282.588	81.38
282.819	93.38
283.051	91.38
283.282	87.38
283.513	99.38
283.745	82.38
283.976	76.38
284.207	91.38
284.439	76.38
284.67	85.38
284.901	80.38
285.132	71.38
285.364	95.38
285.595	87.38
285.826	78.38
286.057	95.38
286.288	81.38
286.52	78.38
286.751	71.38
286.982	85.38
287.213	74.38
287.444	86.38
287.675	85.38
287.906	98.38
288.138	88.38
288.369	92.38
288.6	88.38
288.831	84.38
289.062	81.38
289.293	88.38
289.524	80.38
289.755	74.38
289.986	92.38
290.217	92.38
290.448	85.38
290.679	87.38
290.91	84.38
291.141	86.38
291.371	81.38
291.602	92.38
291.833	73.38
292.064	82.38
292.295	74.38
292.526	80.38
292.757	81.38
292.987	83.38
293.218	79.38
293.449	88.38
293.68	92.38
293.91	79.38
294.141	81.38
294.372	81.38
294.603	77.38
294.833	74.38
295.064	74.38
295.295	83.38
295.525	87.38
295.756	65.38
295.987	75.38
296.217	85.38
296.448	82.38
296.679	80.38
296.909	84.38
297.14	87.38
297.37	95.38
297.601	85.38
297.831	82.38
298.062	86.38
298.292	84.38
298.523	86.38
298.753	73.38
298.984	80.38
299.214	71.38
299.445	88.38
299.675	86.38
299.905	81.38
300.136	85.38
300.366	81.38
300.597	93.38
300.827	90.38
301.057	73.38
301.288	78.38
301.518	72.38
301.748	91.38
301.979	79.38
302.209	87.38
302.439	76.38
302.669	102.38
302.9	77.38
303.13	78.38
303.36	84.38
303.59	98.38
303.82	80.38
304.051	89.38
304.281	87.38
304.511	95.38
304.741	84.38
304.971	84.38
305.201	76.38
305.431	84.38
305.661	97.38
305.891	77.38
306.121	94.38
306.352	86.38
306.582	88.38
306.812	82.38
307.042	71.38
307.272	80.38
307.502	81.38
307.731	76.38
307.961	89.38
308.191	90.38
308.421	83.38
308.651	75.38
308.881	79.38
309.111	76.38
309.341	84.38
309.571	91.38
309.8	90.38
310.03	66.38
310.26	70.38
310.49	74.38
310.72	82.38
310.949	77.38
311.179	82.38
311.409	76.38
311.639	75.38
311.868	91.38
312.098	84.38
312.328	80.38
312.557	84.38
312.787	75.38
313.017	81.38
313.246	92.38
313.476	86.38
313.706	84.38
313.935	76.38
314.165	85.38
314.394	79.38
314.624	87.38
314.853	79.38
315.083	84.38
315.312	87.38
315.542	87.38
315.771	79.38
316.001	95.38
316.23	82.38
316.46	81.38
316.689	79.38
316.919	83.38
317.148	86.38
317.377	85.38
317.607	102.38
317.836	94.38
318.065	75.38
318.295	85.38
318.524	74.38
318.753	90.38
318.983	85.38
319.212	79.38
319.441	85.38
319.67	70.38
319.9	85.38
320.129	85.38
320.358	87.38
320.587	84.38
320.816	96.38
321.046	82.38
321.275	106.38
321.504	78.38
321.733	88.38
321.962	79.38
322.191	82.38
322.42	85.38
322.649	85.38
322.878	74.38
323.108	98.38
323.337	82.38
323.566	66.38
323.795	79.38
324.024	79.38
324.253	90.38
324.482	83.38
324.71	88.38
324.939	84.38
325.168	84.38
325.397	90.38
325.626	87.38
325.855	78.38
326.084	78.38
326.313	86.38
326.542	78.38
326.77	80.38
326.999	84.38
327.228	88.38
327.457	75.38
327.686	89.38
327.914	81.38
328.143	70.38
328.372	82.38
328.6	73.38
328.829	87.38
329.058	68.38
329.287	81.38
329.515	77.38
329.744	74.38
329.972	75.38
330.201	87.38
330.43	95.38
330.658	86.38
330.887	82.38
331.115	76.38
331.344	74.38
331.572	64.38
331.801	91.38
332.03	90.38
332.258	88.38
332.486	97.38
332.715	61.38
332.943	79.38
333.172	86.38
333.4	68.38
333.629	85.38
333.857	92.38
334.085	83.38
334.314	91.38
334.542	86.38
334.771	96.38
334.999	88.38
335.227	81.38
335.455	80.38
335.684	89.38
335.912	94.38
336.14	94.38
336.369	91.38
336.597	94.38
336.825	79.38
337.053	78.38
337.281	80.38
337.51	81.38
337.738	87.38
337.966	89.38
338.194	79.38
338.422	92.38
338.65	92.38
338.878	99.38
339.106	79.38
339.334	81.38
339.562	80.38
339.79	85.38
340.018	82.38
340.246	81.38
340.474	77.38
340.702	79.38
340.93	92.38
341.158	96.38
341.386	81.38
341.614	82.38
341.842	79.38
342.07	73.38
342.298	73.38
342.526	90.38
342.754	91.38
342.981	82.38
343.209	88.38
343.437	79.38
343.665	100.38
343.893	82.38
344.12	95.38
344.348	99.38
344.576	87.38
344.804	81.38
345.031	90.38
345.259	89.38
345.487	82.38
345.714	86.38
345.942	76.38
346.17	94.38
346.397	72.38
346.625	89.38
346.853	89.38
347.08	86.38
347.308	100.38
347.535	77.38
347.763	72.38
347.99	79.38
348.218	79.38
348.445	78.38
348.673	84.38
348.9	93.38
349.128	85.38
349.355	87.38
349.583	84.38
349.81	85.38
350.037	82.38
350.265	88.38
350.492	86.38
350.72	94.38
350.947	75.38
351.174	87.38
351.402	91.38
351.629	74.38
351.856	88.38
352.083	79.38
352.311	82.38
352.538	78.38
352.765	84.38
352.992	80.38
353.22	78.38
353.447	76.38
353.674	91.38
353.901	86.38
354.128	83.38
354.355	80.38
354.583	96.38
354.81	81.38
355.037	84.38
355.264	91.38
355.491	86.38
355.718	70.38
355.945	83.38
356.172	81.38
356.399	80.38
356.626	93.38
356.853	90.38
357.08	84.38
357.307	88.38
357.534	83.38
357.761	74.38
357.988	91.38
358.215	70.38
358.441	79.38
358.668	86.38
358.895	79.38
359.122	94.38
359.349	78.38
359.576	86.38
359.802	97.38
360.029	87.38
360.256	80.38
360.483	78.38
360.709	91.38
360.936	86.38
361.163	85.38
361.39	59.38
361.616	81.38
361.843	76.38
362.07	70.38
362.296	87.38
362.523	78.38
362.749	83.38
362.976	87.38
363.203	83.38
363.429	83.38
363.656	87.38
363.882	74.38
364.109	82.38
364.335	78.38
364.562	85.38
364.788	74.38
365.015	87.38
365.241	80.38
365.468	89.38
365.694	86.38
365.92	73.38
366.147	78.38
366.373	79.38
366.599	74.38
366.826	76.38
367.052	87.38
367.278	84.38
367.505	79.38
367.731	86.38
367.957	90.38
368.184	77.38
368.41	78.38
368.636	79.38
368.862	84.38
369.089	79.38
369.315	92.38
369.541	80.38
369.767	80.38
369.993	85.38
370.219	85.38
370.445	67.38
370.672	89.38
370.898	82.38
371.124	71.38
371.35	83.38
371.576	86.38
371.802	86.38
372.028	98.38
372.254	83.38
372.48	82.38
372.706	102.38
372.932	95.38
373.158	94.38
373.384	82.38
373.61	79.38
373.835	85.38
374.061	78.38
374.287	98.38
374.513	81.38
374.739	90.38
374.965	82.38
375.191	74.38
375.416	84.38
375.642	91.38
375.868	83.38
376.094	85.38
376.319	95.38
376.545	101.38
376.771	87.38
376.997	86.38
377.222	80.38
377.448	95.38
377.674	75.38
377.899	74.38
378.125	82.38
378.35	71.38
378.576	83.38
378.802	80.38
379.027	90.38
379.253	82.38
379.478	71.38
379.704	90.38
379.929	87.38
380.155	97.38
380.38	90.38
380.606	83.38
380.831	74.38
381.057	83.38
381.282	86.38
381.507	85.38
381.733	73.38
381.958	89.38
382.184	76.38
382.409	90.38
382.634	81.38
382.86	92.38
383.085	78.38
383.31	81.38
383.535	68.38
383.761	81.38
383.986	85.38
384.211	79.38
384.436	89.38
384.662	82.38
384.887	99.38
385.112	76.38
385.337	95.38
385.562	82.38
385.787	94.38
386.013	95.38
386.238	84.38
386.463	77.38
386.688	75.38
386.913	90.38
387.138	72.38
387.363	71.38
387.588	81.38
387.813	94.38
388.038	91.38
388.263	76.38
388.488	80.38
388.713	91.38
388.938	88.38
389.163	89.38
389.387	89.38
389.612	96.38
389.837	89.38
390.062	90.38
390.287	103.38
390.512	80.38
390.736	90.38
390.961	96.38
391.186	84.38
391.411	91.38
391.636	90.38
391.86	91.38
392.085	82.38
392.31	90.38
392.534	81.38
392.759	94.38
392.984	71.38
393.208	85.38
393.433	70.38
393.658	87.38
393.882	78.38
394.107	84.38
394.331	83.38
394.556	80.38
394.78	77.38
395.005	88.38
395.229	87.38
395.454	89.38
395.678	90.38
395.903	79.38
396.127	95.38
396.352	91.38
396.576	92.38
396.801	82.38
397.025	86.38
397.249	95.38
397.474	80.38
397.698	81.38
397.922	72.38
398.147	88.38
398.371	97.38
398.595	82.38
398.82	88.38
399.044	82.38
399.268	83.38
399.492	95.38
399.717	99.38
399.941	94.38
400.165	88.38
400.389	78.38
400.613	80.38
400.837	89.38
401.062	82.38
401.286	88.38
401.51	94.38
401.734	98.38
401.958	88.38
402.182	78.38
402.406	94.38
402.63	86.38
402.854	79.38
403.078	78.38
403.302	88.38
403.526	98.38
403.75	87.38
403.974	93.38
404.198	91.38
404.422	87.38
404.645	97.38
404.869	86.38
405.093	86.38
405.317	74.38
405.541	94.38
405.765	89.38
405.988	78.38
406.212	89.38
406.436	97.38
406.66	92.38
406.883	85.38
407.107	89.38
407.331	89.38
407.555	103.38
407.778	94.38
408.002	76.38
408.226	89.38
408.449	88.38
408.673	77.38
408.896	94.38
409.12	80.38
409.344	102.38
409.567	92.38
409.791	85.38
410.014	100.38
410.238	90.38
410.461	77.38
410.685	83.38
410.908	83.38
411.132	75.38
411.355	70.38
411.578	96.38
411.802	89.38
412.025	89.38
412.249	102.38
412.472	92.38
412.695	93.38
412.919	87.38
413.142	88.38
413.365	107.38
413.589	94.38
413.812	84.38
414.035	95.38
414.258	106.38
414.482	86.38
414.705	94.38
414.928	95.38
415.151	78.38
415.374	82.38
415.597	91.38
415.821	83.38
416.044	98.38
416.267	95.38
416.49	105.38
416.713	90.38
416.936	84.38
417.159	82.38
417.382	92.38
417.605	97.38
417.828	106.38
418.051	90.38
418.274	98.38
418.497	89.38
418.72	84.38
418.943	92.38
419.166	102.38
419.389	94.38
419.611	91.38
419.834	79.38
420.057	95.38
420.28	101.38
420.503	95.38
420.726	92.38
420.948	110.38
421.171	92.38
421.394	96.38
421.617	88.38
421.839	110.38
422.062	89.38
422.285	86.38
422.507	100.38
422.73	94.38
422.953	83.38
423.175	93.38
423.398	90.38
423.621	88.38
423.843	98.38
424.066	95.38
424.288	105.38
424.511	92.38
424.733	85.38
424.956	72.38
425.178	102.38
425.401	90.38
425.623	103.38
425.846	91.38
426.068	82.38
426.291	95.38
426.513	94.38
426.735	97.38
426.958	105.38
427.18	94.38
427.402	88.38
427.625	107.38
427.847	95.38
428.069	80.38
428.292	101.38
428.514	86.38
428.736	90.38
428.958	97.38
429.181	106.38
429.403	84.38
429.625	96.38
429.847	76.38
430.069	114.38
430.292	106.38
430.514	90.38
430.736	81.38
430.958	91.38
431.18	83.38
431.402	86.38
431.624	94.38
431.846	98.38
432.068	100.38
432.29	91.38
432.512	103.38
432.734	91.38
432.956	103.38
433.178	91.38
433.4	103.38
433.622	95.38
433.844	91.38
434.066	84.38
434.287	80.38
434.509	79.38
434.731	82.38
434.953	80.38
435.175	89.38
435.397	94.38
435.618	88.38
435.84	80.38
436.062	97.38
436.284	78.38
436.505	93.38
436.727	90.38
436.949	92.38
437.17	92.38
437.392	82.38
437.614	95.38
437.835	103.38
438.057	94.38
438.278	79.38
438.5	84.38
438.721	95.38
438.943	95.38
439.165	102.38
439.386	101.38
439.608	97.38
439.829	87.38
440.05	103.38
440.272	93.38
440.493	104.38
440.715	95.38
440.936	96.38
441.158	107.38
441.379	82.38
441.6	99.38
441.822	99.38
442.043	101.38
442.264	90.38
442.486	99.38
442.707	99.38
442.928	103.38
443.149	87.38
443.371	106.38
443.592	86.38
443.813	96.38
444.034	112.38
444.255	110.38
444.476	99.38
444.698	102.38
444.919	99.38
445.14	219.38
445.361	143.38
445.582	103.38
445.803	95.38
446.024	96.38
446.245	100.38
446.466	106.38
446.687	104.38
446.908	101.38
447.129	100.38
447.35	100.38
447.571	94.38
447.792	89.38
448.013	112.38
448.234	99.38
448.455	106.38
448.675	99.38
448.896	93.38
449.117	94.38
449.338	85.38
449.559	106.38
449.779	101.38
450	90.38
450.221	102.38
450.442	91.38
450.662	102.38
450.883	96.38
451.104	102.38
451.324	122.38
451.545	94.38
451.766	100.38
451.986	93.38
452.207	85.38
452.428	97.38
452.648	97.38
452.869	76.38
453.089	86.38
453.31	91.38
453.53	86.38
453.751	104.38
453.971	90.38
454.192	83.38
454.412	94.38
454.633	96.38
454.853	94.38
455.073	83.38
455.294	82.38
455.514	86.38
455.734	99.38
455.955	96.38
456.175	98.38
456.395	90.38
456.616	78.38
456.836	95.38
457.056	92.38
457.276	92.38
457.497	89.38
457.717	84.38
457.937	90.38
458.157	90.38
458.377	94.38
458.598	92.38
458.818	76.38
459.038	77.38
459.258	84.38
459.478	73.38
459.698	94.38
459.918	89.38
460.138	86.38
460.358	95.38
460.578	90.38
460.798	91.38
461.018	94.38
461.238	87.38
461.458	90.38
461.678	95.38
461.898	78.38
462.118	86.38
462.338	98.38
462.558	92.38
462.777	89.38
462.997	87.38
463.217	90.38
463.437	92.38
463.657	82.38
463.876	82.38
464.096	90.38
464.316	96.38
464.536	83.38
464.755	82.38
464.975	105.38
465.195	84.38
465.414	75.38
465.634	98.38
465.854	80.38
466.073	96.38
466.293	91.38
466.512	97.38
466.732	89.38
466.951	93.38
467.171	94.38
467.391	79.38
467.61	95.38
467.829	102.38
468.049	114.38
468.268	88.38
468.488	92.38
468.707	90.38
468.927	103.38
469.146	99.38
469.365	96.38
469.585	84.38
469.804	89.38
470.023	93.38
470.243	111.38
470.462	106.38
470.681	97.38
470.901	96.38
471.12	98.38
471.339	104.38
471.558	94.38
471.777	101.38
471.997	86.38
472.216	101.38
472.435	89.38
472.654	82.38
472.873	102.38
473.092	91.38
473.311	97.38
473.53	98.38
473.749	100.38
473.968	92.38
474.187	81.38
474.406	94.38
474.625	99.38
474.844	94.38
475.063	103.38
475.282	98.38
475.501	96.38
475.72	103.38
475.939	91.38
476.158	94.38
476.377	93.38
476.596	70.38
476.814	96.38
477.033	86.38
477.252	94.38
477.471	76.38
477.69	90.38
477.908	94.38
478.127	105.38
478.346	105.38
478.564	97.38
478.783	97.38
479.002	92.38
479.22	85.38
479.439	110.38
479.658	100.38
479.876	103.38
480.095	83.38
480.313	101.38
480.532	99.38
480.751	94.38
480.969	76.38
481.188	76.38
481.406	96.38
481.624	97.38
481.843	66.38
482.061	80.38
482.28	103.38
482.498	88.38
482.717	99.38
482.935	102.38
483.153	98.38
483.372	98.38
483.59	103.38
483.808	101.38
484.027	83.38
484.245	104.38
484.463	108.38
484.681	114.38
484.9	93.38
485.118	103.38
485.336	98.38
485.554	116.38
485.772	95.38
485.99	84.38
486.209	98.38
486.427	85.38
486.645	69.38
486.863	84.38
487.081	91.38
487.299	95.38
487.517	79.38
487.735	98.38
487.953	112.38
488.171	101.38
488.389	120.38
488.607	95.38
488.825	104.38
489.043	108.38
489.261	92.38
489.479	93.38
489.696	95.38
489.914	106.38
490.132	99.38
490.35	106.38
490.568	107.38
490.786	107.38
491.003	104.38
491.221	121.38
491.439	116.38
491.657	114.38
491.874	124.38
492.092	113.38
492.31	118.38
492.527	103.38
492.745	128.38
492.963	106.38
493.18	95.38
493.398	122.38
493.615	108.38
493.833	108.38
494.05	104.38
494.268	114.38
494.485	101.38
494.703	122.38
494.92	106.38
495.138	102.38
495.355	107.38
495.573	105.38
495.79	118.38
496.008	122.38
496.225	98.38
496.442	95.38
496.66	107.38
496.877	107.38
497.094	105.38
497.312	100.38
497.529	120.38
497.746	107.38
497.963	104.38
498.181	118.38
498.398	112.38
498.615	90.38
498.832	104.38
499.049	88.38
499.267	94.38
499.484	99.38
499.701	97.38
499.918	99.38
500.135	93.38
500.352	100.38
500.569	99.38
500.786	113.38
501.003	101.38
501.22	101.38
501.437	110.38
501.654	113.38
501.871	91.38
502.088	92.38
502.305	100.38
502.522	96.38
502.739	94.38
502.956	97.38
503.172	84.38
503.389	106.38
503.606	103.38
503.823	93.38
504.04	88.38
504.256	78.38
504.473	97.38
504.69	94.38
504.907	99.38
505.123	95.38
505.34	86.38
505.557	98.38
505.773	108.38
505.99	94.38
506.207	88.38
506.423	88.38
506.64	96.38
506.856	94.38
507.073	86.38
507.289	97.38
507.506	97.38
507.722	111.38
507.939	88.38
508.155	86.38
508.372	85.38
508.588	86.38
508.805	88.38
509.021	88.38
509.238	83.38
509.454	93.38
509.67	91.38
509.887	88.38
510.103	80.38
510.319	91.38
510.536	83.38
510.752	82.38
510.968	84.38
511.184	89.38
511.401	85.38
511.617	80.38
511.833	84.38
512.049	88.38
512.265	95.38
512.481	81.38
512.698	86.38
512.914	70.38
513.13	96.38
513.346	90.38
513.562	93.38
513.778	95.38
513.994	88.38
514.21	84.38
514.426	100.38
514.642	85.38
514.858	83.38
515.074	76.38
515.29	92.38
515.506	84.38
515.721	92.38
515.937	93.38
516.153	82.38
516.369	91.38
516.585	72.38
516.801	82.38
517.016	92.38
517.232	86.38
517.448	90.38
517.664	80.38
517.879	78.38
518.095	87.38
518.311	89.38
518.527	85.38
518.742	83.38
518.958	111.38
519.173	91.38
519.389	80.38
519.605	91.38
519.82	82.38
520.036	107.38
520.251	81.38
520.467	95.38
520.682	90.38
520.898	91.38
521.113	82.38
521.329	95.38
521.544	98.38
521.76	80.38
521.975	76.38
522.19	97.38
522.406	80.38
522.621	93.38
522.836	101.38
523.052	84.38
523.267	98.38
523.482	84.38
523.698	94.38
523.913	94.38
524.128	95.38
524.343	95.38
524.559	88.38
524.774	102.38
524.989	94.38
525.204	84.38
525.419	91.38
525.634	91.38
525.849	94.38
526.064	77.38
526.28	97.38
526.495	90.38
526.71	81.38
526.925	86.38
527.14	78.38
527.355	81.38
527.57	80.38
527.785	72.38
527.999	90.38
528.214	79.38
528.429	91.38
528.644	98.38
528.859	100.38
529.074	101.38
529.289	98.38
529.503	102.38
529.718	92.38
529.933	103.38
530.148	82.38
530.363	97.38
530.577	90.38
530.792	72.38
531.007	84.38
531.221	86.38
531.436	83.38
531.651	73.38
531.865	89.38
532.08	75.38
532.295	90.38
532.509	90.38
532.724	73.38
532.938	90.38
533.153	76.38
533.367	87.38
533.582	93.38
533.796	108.38
534.011	84.38
534.225	89.38
534.44	70.38
534.654	96.38
534.868	86.38
535.083	86.38
535.297	90.38
535.511	91.38
535.726	96.38
535.94	92.38
536.154	79.38
536.369	95.38
536.583	76.38
536.797	82.38
537.011	75.38
537.225	77.38
537.44	96.38
537.654	75.38
537.868	80.38
538.082	84.38
538.296	95.38
538.51	99.38
538.724	85.38
538.938	104.38
539.153	98.38
539.367	99.38
539.581	79.38
539.795	83.38
540.009	86.38
540.222	96.38
540.436	84.38
540.65	97.38
540.864	90.38
541.078	88.38
541.292	108.38
541.506	102.38
541.72	117.38
541.934	114.38
542.147	115.38
542.361	110.38
542.575	100.38
542.789	97.38
543.002	100.38
543.216	108.38
543.43	82.38
543.644	107.38
543.857	116.38
544.071	101.38
544.285	101.38
544.498	121.38
544.712	107.38
544.925	93.38
545.139	85.38
545.352	108.38
545.566	119.38
545.779	100.38
545.993	106.38
546.206	105.38
546.42	105.38
546.633	115.38
546.847	95.38
547.06	114.38
547.274	120.38
547.487	102.38
547.7	113.38
547.914	110.38
548.127	102.38
548.34	99.38
548.554	92.38
548.767	86.38
548.98	107.38
549.193	100.38
549.407	106.38
549.62	108.38
549.833	112.38
550.046	102.38
550.259	104.38
550.473	103.38
550.686	98.38
550.899	99.38
551.112	98.38
551.325	104.38
551.538	120.38
551.751	99.38
551.964	98.38
552.177	90.38
552.39	95.38
552.603	97.38
552.816	112.38
553.029	103.38
553.242	104.38
553.455	102.38
553.667	115.38
553.88	103.38
554.093	100.38
554.306	117.38
554.519	104.38
554.732	108.38
554.944	112.38
555.157	111.38
555.37	89.38
555.583	108.38
555.795	103.38
556.008	99.38
556.221	102.38
556.433	105.38
556.646	96.38
556.859	92.38
557.071	102.38
557.284	90.38
557.496	95.38
557.709	107.38
557.921	120.38
558.134	95.38
558.346	103.38
558.559	96.38
558.771	95.38
558.984	99.38
559.196	112.38
559.409	86.38
559.621	92.38
559.833	106.38
560.046	95.38
560.258	79.38
560.47	85.38
560.683	107.38
560.895	90.38
561.107	105.38
561.32	102.38
561.532	107.38
561.744	112.38
561.956	98.38
562.168	102.38
562.381	98.38
562.593	97.38
562.805	103.38
563.017	102.38
563.229	96.38
563.441	87.38
563.653	94.38
563.865	83.38
564.077	89.38
564.289	103.38
564.501	104.38
564.713	94.38
564.925	105.38
565.137	92.38
565.349	82.38
565.561	94.38
565.773	103.38
565.985	93.38
566.197	113.38
566.408	95.38
566.62	100.38
566.832	93.38
567.044	89.38
567.255	101.38
567.467	90.38
567.679	77.38
567.891	84.38
568.102	90.38
568.314	94.38
568.526	99.38
568.737	88.38
568.949	87.38
569.161	82.38
569.372	81.38
569.584	83.38
569.795	86.38
570.007	83.38
570.218	79.38
570.43	102.38
570.641	83.38
570.853	78.38
571.064	96.38
571.276	92.38
571.487	84.38
571.698	80.38
571.91	83.38
572.121	86.38
572.333	80.38
572.544	91.38
572.755	76.38
572.966	85.38
573.178	82.38
573.389	90.38
573.6	96.38
573.811	81.38
574.023	79.38
574.234	71.38
574.445	83.38
574.656	77.38
574.867	85.38
575.078	76.38
575.289	92.38
575.501	82.38
575.712	86.38
575.923	82.38
576.134	74.38
576.345	86.38
576.556	82.38
576.767	84.38
576.978	92.38
577.188	103.38
577.399	86.38
577.61	83.38
577.821	79.38
578.032	70.38
578.243	97.38
578.454	89.38
578.665	91.38
578.875	89.38
579.086	95.38
579.297	82.38
579.508	83.38
579.718	85.38
579.929	82.38
580.14	76.38
580.35	84.38
580.561	88.38
580.772	80.38
580.982	89.38
581.193	79.38
581.403	86.38
581.614	79.38
581.825	82.38
582.035	76.38
582.246	72.38
582.456	100.38
582.667	88.38
582.877	94.38
583.087	86.38
583.298	94.38
583.508	72.38
583.719	91.38
583.929	83.38
584.139	76.38
584.35	96.38
584.56	82.38
584.77	84.38
584.981	87.38
585.191	84.38
585.401	77.38
585.611	71.38
585.821	84.38
586.032	98.38
586.242	84.38
586.452	78.38
586.662	84.38
586.872	72.38
587.082	84.38
587.292	75.38
587.502	74.38
587.713	90.38
587.923	94.38
588.133	82.38
588.343	88.38
588.553	96.38
588.762	80.38
588.972	86.38
589.182	81.38
589.392	73.38
589.602	94.38
589.812	78.38
590.022	94.38
590.232	87.38
590.441	70.38
590.651	73.38
590.861	84.38
591.071	83.38
591.281	79.38
591.49	78.38
591.7	87.38
591.91	94.38
592.119	82.38
592.329	76.38
592.539	74.38
592.748	84.38
592.958	82.38
593.167	81.38
593.377	89.38
593.587	79.38
593.796	85.38
594.006	83.38
594.215	97.38
594.424	63.38
594.634	76.38
594.843	84.38
595.053	86.38
595.262	84.38
595.472	70.38
595.681	90.38
595.89	83.38
596.1	69.38
596.309	76.38
596.518	86.38
596.727	92.38
596.937	93.38
597.146	84.38
597.355	82.38
597.564	89.38
597.774	94.38
597.983	77.38
598.192	89.38
598.401	75.38
598.61	88.38
598.819	88.38
599.028	81.38
599.237	95.38
599.446	67.38
599.655	83.38
599.864	79.38
600.073	67.38
600.282	88.38
600.491	74.38
600.7	85.38
600.909	75.38
601.118	95.38
601.327	82.38
601.536	85.38
601.745	94.38
601.953	89.38
602.162	84.38
602.371	93.38
602.58	101.38
602.789	84.38
602.997	90.38
603.206	90.38
603.415	93.38
603.623	97.38
603.832	85.38
604.041	87.38
604.249	92.38
604.458	79.38
604.666	88.38
604.875	84.38
605.084	82.38
605.292	84.38
605.501	91.38
605.709	82.38
605.918	100.38
606.126	91.38
606.334	99.38
606.543	80.38
606.751	92.38
606.96	85.38
607.168	83.38
607.376	80.38
607.585	103.38
607.793	90.38
608.001	95.38
608.21	98.38
608.418	82.38
608.626	95.38
608.834	86.38
609.043	101.38
609.251	80.38
609.459	91.38
609.667	82.38
609.875	79.38
610.083	97.38
610.291	80.38
610.499	94.38
610.707	90.38
610.916	93.38
611.124	95.38
611.332	81.38
611.54	84.38
611.748	100.38
611.955	88.38
612.163	81.38
612.371	98.38
612.579	99.38
612.787	90.38
612.995	85.38
613.203	98.38
613.411	100.38
613.618	97.38
613.826	98.38
614.034	89.38
614.242	104.38
614.449	84.38
614.657	95.38
614.865	92.38
615.072	93.38
615.28	82.38
615.488	96.38
615.695	93.38
615.903	88.38
616.111	82.38
616.318	93.38
616.526	92.38
616.733	99.38
616.941	94.38
617.148	78.38
617.356	93.38
617.563	99.38
617.771	85.38
617.978	85.38
618.185	89.38
618.393	87.38
618.6	83.38
618.807	77.38
619.015	99.38
619.222	85.38
619.429	75.38
619.637	73.38
619.844	80.38
620.051	91.38
620.258	91.38
620.466	89.38
620.673	81.38
620.88	82.38
621.087	94.38
621.294	83.38
621.501	102.38
621.708	88.38
621.915	76.38
622.122	87.38
622.329	84.38
622.536	83.38
622.743	85.38
622.95	102.38
623.157	84.38
623.364	91.38
623.571	95.38
623.778	112.38
623.985	93.38
624.192	106.38
624.399	88.38
624.606	94.38
624.812	86.38
625.019	88.38
625.226	103.38
625.433	93.38
625.639	84.38
625.846	92.38
626.053	79.38
626.259	100.38
626.466	83.38
626.673	84.38
626.879	84.38
627.086	87.38
627.293	100.38
627.499	95.38
627.706	90.38
627.912	95.38
628.119	95.38
628.325	97.38
628.532	75.38
628.738	88.38
628.945	88.38
629.151	100.38
629.357	78.38
629.564	86.38
629.77	91.38
629.976	94.38
630.183	90.38
630.389	89.38
630.595	88.38
630.802	91.38
631.008	92.38
631.214	89.38
631.42	97.38
631.627	95.38
631.833	78.38
632.039	77.38
632.245	82.38
632.451	102.38
632.657	94.38
632.863	81.38
633.069	95.38
633.275	90.38
633.481	88.38
633.688	86.38
633.893	90.38
634.099	100.38
634.305	83.38
634.511	89.38
634.717	88.38
634.923	97.38
635.129	80.38
635.335	84.38
635.541	88.38
635.747	92.38
635.952	74.38
636.158	90.38
636.364	86.38
636.57	103.38
636.775	88.38
636.981	82.38
637.187	85.38
637.392	77.38
637.598	88.38
637.804	87.38
638.009	78.38
638.215	95.38
638.421	84.38
638.626	98.38
638.832	91.38
639.037	73.38
639.243	64.38
639.448	66.38
639.654	90.38
639.859	89.38
640.065	82.38
640.27	92.38
640.475	75.38
640.681	90.38
640.886	96.38
641.091	94.38
641.297	84.38
641.502	77.38
641.707	89.38
641.913	86.38
642.118	96.38
642.323	79.38
642.528	94.38
642.733	94.38
642.939	93.38
643.144	76.38
643.349	88.38
643.554	81.38
643.759	82.38
643.964	83.38
644.169	67.38
644.374	81.38
644.579	91.38
644.784	99.38
644.989	74.38
645.194	85.38
645.399	93.38
645.604	95.38
645.809	89.38
646.014	80.38
646.219	83.38
646.423	89.38
646.628	83.38
646.833	85.38
647.038	94.38
647.243	93.38
647.447	84.38
647.652	97.38
647.857	92.38
648.062	84.38
648.266	95.38
648.471	95.38
648.676	102.38
648.88	86.38
649.085	80.38
649.289	91.38
649.494	100.38
649.698	82.38
649.903	87.38
650.107	93.38
650.312	96.38
650.516	100.38
650.721	92.38
650.925	80.38
651.13	91.38
651.334	97.38
651.539	99.38
651.743	91.38
651.947	90.38
652.152	74.38
652.356	81.38
652.56	83.38
652.764	96.38
652.969	106.38
653.173	89.38
653.377	82.38
653.581	92.38
653.785	89.38
653.99	84.38
654.194	83.38
654.398	74.38
654.602	84.38
654.806	75.38
655.01	74.38
655.214	101.38
655.418	85.38
655.622	84.38
655.826	77.38
656.03	70.38
656.234	78.38
656.438	106.38
656.642	102.38
656.846	80.38
657.049	87.38
657.253	85.38
657.457	95.38
657.661	69.38
657.865	83.38
658.068	77.38
658.272	73.38
658.476	79.38
658.68	86.38
658.883	92.38
659.087	80.38
659.291	77.38
659.494	84.38
659.698	88.38
659.901	83.38
660.105	80.38
660.309	76.38
660.512	86.38
660.716	83.38
660.919	82.38
661.123	91.38
661.326	72.38
661.53	76.38
661.733	85.38
661.936	85.38
662.14	89.38
662.343	85.38
662.546	65.38
662.75	88.38
662.953	90.38
663.156	82.38
663.36	83.38
663.563	86.38
663.766	73.38
663.969	81.38
664.173	81.38
664.376	83.38
664.579	87.38
664.782	85.38
664.985	62.38
665.188	71.38
665.391	78.38
665.594	85.38
665.797	74.38
666	80.38
666.203	84.38
666.406	70.38
666.609	83.38
666.812	62.38
667.015	76.38
667.218	70.38
667.421	82.38
667.624	82.38
667.827	81.38
668.03	86.38
668.232	75.38
668.435	76.38
668.638	89.38
668.841	84.38
669.043	76.38
669.246	83.38
669.449	71.38
669.651	81.38
669.854	83.38
670.057	87.38
670.259	72.38
670.462	78.38
670.665	90.38
670.867	80.38
671.07	75.38
671.272	80.38
671.475	90.38
671.677	66.38
671.88	66.38
672.082	74.38
672.284	85.38
672.487	75.38
672.689	84.38
672.892	66.38
