Data from Location4.07152019.Energy5.Lamp.07192019.3%Agarose_HRD10591_15-24-39-577.txt Node
Date: Fri Jul 19 15:24:39 EDT 2019
User: cochatt
Spectrometer: HR+D1059
Trigger mode: 1
Integration Time (sec): 1.000000E-1
Scans to average: 1
Electric dark correction enabled: true
Nonlinearity correction enabled: false
Boxcar width: 0
XAxis mode: Wavelengths
Number of Pixels in Spectrum: 2048
>>>>>Begin Spectral Data<<<<<
223.165	-8.31
223.4	-8.31
223.635	-8.31
223.869	-28.31
224.104	-32.31
224.338	-28.31
224.573	-13.31
224.808	-23.31
225.042	-3.31
225.277	4.69
225.511	-8.31
225.746	9.69
225.98	-2.31
226.215	15.69
226.449	26.69
226.683	25.69
226.918	24.69
227.152	40.69
227.387	40.69
227.621	32.69
227.856	46.69
228.09	50.69
228.324	53.69
228.559	53.69
228.793	60.69
229.027	45.69
229.262	62.69
229.496	66.69
229.73	69.69
229.964	78.69
230.199	71.69
230.433	76.69
230.667	91.69
230.901	77.69
231.136	88.69
231.37	72.69
231.604	80.69
231.838	81.69
232.072	85.69
232.306	76.69
232.541	90.69
232.775	71.69
233.009	79.69
233.243	74.69
233.477	84.69
233.711	90.69
233.945	86.69
234.179	69.69
234.413	90.69
234.647	86.69
234.881	67.69
235.115	86.69
235.349	84.69
235.583	91.69
235.817	82.69
236.051	82.69
236.285	77.69
236.519	82.69
236.753	73.69
236.987	75.69
237.221	78.69
237.455	68.69
237.689	71.69
237.922	85.69
238.156	80.69
238.39	75.69
238.624	85.69
238.858	69.69
239.091	79.69
239.325	70.69
239.559	79.69
239.793	77.69
240.027	72.69
240.26	79.69
240.494	78.69
240.728	78.69
240.961	85.69
241.195	80.69
241.429	90.69
241.662	65.69
241.896	74.69
242.13	61.69
242.363	76.69
242.597	86.69
242.83	95.69
243.064	71.69
243.298	86.69
243.531	87.69
243.765	91.69
243.998	94.69
244.232	88.69
244.465	75.69
244.699	78.69
244.932	92.69
245.166	81.69
245.399	95.69
245.633	82.69
245.866	88.69
246.099	82.69
246.333	90.69
246.566	93.69
246.8	74.69
247.033	79.69
247.266	78.69
247.5	67.69
247.733	96.69
247.966	98.69
248.2	91.69
248.433	85.69
248.666	82.69
248.899	65.69
249.133	77.69
249.366	89.69
249.599	90.69
249.832	90.69
250.066	92.69
250.299	85.69
250.532	78.69
250.765	77.69
250.998	64.69
251.231	87.69
251.465	77.69
251.698	88.69
251.931	85.69
252.164	85.69
252.397	83.69
252.63	84.69
252.863	70.69
253.096	82.69
253.329	77.69
253.562	91.69
253.795	83.69
254.028	91.69
254.261	75.69
254.494	81.69
254.727	87.69
254.96	88.69
255.193	98.69
255.426	85.69
255.659	87.69
255.892	82.69
256.124	89.69
256.357	88.69
256.59	85.69
256.823	77.69
257.056	81.69
257.289	82.69
257.521	81.69
257.754	83.69
257.987	78.69
258.22	80.69
258.452	82.69
258.685	82.69
258.918	76.69
259.151	89.69
259.383	91.69
259.616	76.69
259.849	75.69
260.081	78.69
260.314	77.69
260.547	75.69
260.779	88.69
261.012	83.69
261.244	74.69
261.477	91.69
261.71	93.69
261.942	81.69
262.175	91.69
262.407	83.69
262.64	86.69
262.872	85.69
263.105	83.69
263.337	73.69
263.57	73.69
263.802	83.69
264.035	91.69
264.267	84.69
264.499	67.69
264.732	71.69
264.964	79.69
265.197	74.69
265.429	80.69
265.661	79.69
265.894	68.69
266.126	92.69
266.358	74.69
266.591	88.69
266.823	99.69
267.055	86.69
267.287	91.69
267.52	80.69
267.752	87.69
267.984	81.69
268.216	90.69
268.448	82.69
268.681	69.69
268.913	81.69
269.145	86.69
269.377	80.69
269.609	72.69
269.841	85.69
270.073	89.69
270.306	77.69
270.538	90.69
270.77	93.69
271.002	73.69
271.234	89.69
271.466	90.69
271.698	83.69
271.93	84.69
272.162	79.69
272.394	86.69
272.626	78.69
272.858	85.69
273.09	88.69
273.322	82.69
273.553	88.69
273.785	88.69
274.017	105.69
274.249	91.69
274.481	84.69
274.713	89.69
274.945	88.69
275.176	90.69
275.408	89.69
275.64	82.69
275.872	87.69
276.104	90.69
276.335	97.69
276.567	107.69
276.799	101.69
277.031	84.69
277.262	87.69
277.494	71.69
277.726	72.69
277.957	96.69
278.189	88.69
278.421	91.69
278.652	82.69
278.884	93.69
279.115	94.69
279.347	93.69
279.579	89.69
279.81	88.69
280.042	93.69
280.273	82.69
280.505	90.69
280.736	83.69
280.968	79.69
281.199	93.69
281.431	102.69
281.662	92.69
281.894	87.69
282.125	92.69
282.356	93.69
282.588	96.69
282.819	81.69
283.051	74.69
283.282	82.69
283.513	100.69
283.745	78.69
283.976	79.69
284.207	88.69
284.439	88.69
284.67	100.69
284.901	98.69
285.132	89.69
285.364	102.69
285.595	89.69
285.826	94.69
286.057	83.69
286.288	87.69
286.52	81.69
286.751	85.69
286.982	86.69
287.213	83.69
287.444	90.69
287.675	89.69
287.906	92.69
288.138	94.69
288.369	88.69
288.6	82.69
288.831	98.69
289.062	86.69
289.293	86.69
289.524	81.69
289.755	97.69
289.986	77.69
290.217	92.69
290.448	89.69
290.679	72.69
290.91	83.69
291.141	89.69
291.371	100.69
291.602	80.69
291.833	90.69
292.064	76.69
292.295	76.69
292.526	88.69
292.757	92.69
292.987	99.69
293.218	92.69
293.449	84.69
293.68	89.69
293.91	86.69
294.141	71.69
294.372	84.69
294.603	91.69
294.833	73.69
295.064	83.69
295.295	83.69
295.525	79.69
295.756	83.69
295.987	88.69
296.217	94.69
296.448	98.69
296.679	97.69
296.909	78.69
297.14	86.69
297.37	84.69
297.601	87.69
297.831	101.69
298.062	92.69
298.292	82.69
298.523	87.69
298.753	69.69
298.984	89.69
299.214	83.69
299.445	85.69
299.675	86.69
299.905	71.69
300.136	86.69
300.366	86.69
300.597	81.69
300.827	78.69
301.057	72.69
301.288	86.69
301.518	80.69
301.748	90.69
301.979	85.69
302.209	77.69
302.439	73.69
302.669	97.69
302.9	82.69
303.13	77.69
303.36	88.69
303.59	93.69
303.82	86.69
304.051	97.69
304.281	78.69
304.511	89.69
304.741	77.69
304.971	91.69
305.201	85.69
305.431	90.69
305.661	91.69
305.891	76.69
306.121	88.69
306.352	93.69
306.582	82.69
306.812	92.69
307.042	98.69
307.272	74.69
307.502	74.69
307.731	93.69
307.961	90.69
308.191	78.69
308.421	108.69
308.651	86.69
308.881	88.69
309.111	90.69
309.341	84.69
309.571	74.69
309.8	93.69
310.03	90.69
310.26	80.69
310.49	87.69
310.72	100.69
310.949	103.69
311.179	87.69
311.409	81.69
311.639	93.69
311.868	88.69
312.098	84.69
312.328	96.69
312.557	82.69
312.787	80.69
313.017	83.69
313.246	89.69
313.476	90.69
313.706	93.69
313.935	88.69
314.165	88.69
314.394	89.69
314.624	85.69
314.853	88.69
315.083	76.69
315.312	90.69
315.542	88.69
315.771	84.69
316.001	89.69
316.23	86.69
316.46	89.69
316.689	74.69
316.919	91.69
317.148	101.69
317.377	85.69
317.607	72.69
317.836	80.69
318.065	88.69
318.295	81.69
318.524	85.69
318.753	84.69
318.983	96.69
319.212	89.69
319.441	94.69
319.67	94.69
319.9	75.69
320.129	74.69
320.358	84.69
320.587	96.69
320.816	85.69
321.046	84.69
321.275	85.69
321.504	90.69
321.733	90.69
321.962	80.69
322.191	78.69
322.42	80.69
322.649	88.69
322.878	79.69
323.108	89.69
323.337	79.69
323.566	100.69
323.795	89.69
324.024	93.69
324.253	88.69
324.482	74.69
324.71	89.69
324.939	97.69
325.168	84.69
325.397	96.69
325.626	84.69
325.855	89.69
326.084	82.69
326.313	78.69
326.542	81.69
326.77	84.69
326.999	88.69
327.228	82.69
327.457	85.69
327.686	93.69
327.914	86.69
328.143	95.69
328.372	74.69
328.6	78.69
328.829	96.69
329.058	90.69
329.287	81.69
329.515	85.69
329.744	108.69
329.972	92.69
330.201	95.69
330.43	78.69
330.658	68.69
330.887	83.69
331.115	81.69
331.344	98.69
331.572	77.69
331.801	78.69
332.03	82.69
332.258	83.69
332.486	70.69
332.715	83.69
332.943	100.69
333.172	78.69
333.4	91.69
333.629	86.69
333.857	92.69
334.085	93.69
334.314	86.69
334.542	76.69
334.771	83.69
334.999	76.69
335.227	81.69
335.455	88.69
335.684	93.69
335.912	79.69
336.14	86.69
336.369	104.69
336.597	74.69
336.825	81.69
337.053	91.69
337.281	94.69
337.51	86.69
337.738	77.69
337.966	87.69
338.194	90.69
338.422	83.69
338.65	93.69
338.878	103.69
339.106	86.69
339.334	92.69
339.562	88.69
339.79	76.69
340.018	73.69
340.246	80.69
340.474	80.69
340.702	92.69
340.93	90.69
341.158	92.69
341.386	82.69
341.614	98.69
341.842	85.69
342.07	97.69
342.298	68.69
342.526	80.69
342.754	84.69
342.981	91.69
343.209	92.69
343.437	93.69
343.665	88.69
343.893	83.69
344.12	80.69
344.348	74.69
344.576	74.69
344.804	85.69
345.031	85.69
345.259	84.69
345.487	100.69
345.714	83.69
345.942	83.69
346.17	93.69
346.397	90.69
346.625	89.69
346.853	92.69
347.08	83.69
347.308	84.69
347.535	91.69
347.763	91.69
347.99	93.69
348.218	86.69
348.445	86.69
348.673	84.69
348.9	68.69
349.128	82.69
349.355	64.69
349.583	78.69
349.81	75.69
350.037	83.69
350.265	90.69
350.492	95.69
350.72	90.69
350.947	92.69
351.174	89.69
351.402	74.69
351.629	81.69
351.856	83.69
352.083	83.69
352.311	85.69
352.538	77.69
352.765	83.69
352.992	90.69
353.22	82.69
353.447	77.69
353.674	92.69
353.901	93.69
354.128	84.69
354.355	94.69
354.583	100.69
354.81	81.69
355.037	83.69
355.264	89.69
355.491	91.69
355.718	94.69
355.945	84.69
356.172	89.69
356.399	97.69
356.626	86.69
356.853	90.69
357.08	87.69
357.307	86.69
357.534	96.69
357.761	85.69
357.988	76.69
358.215	79.69
358.441	85.69
358.668	97.69
358.895	106.69
359.122	90.69
359.349	76.69
359.576	88.69
359.802	77.69
360.029	100.69
360.256	92.69
360.483	82.69
360.709	85.69
360.936	91.69
361.163	81.69
361.39	91.69
361.616	95.69
361.843	68.69
362.07	85.69
362.296	86.69
362.523	70.69
362.749	99.69
362.976	92.69
363.203	87.69
363.429	104.69
363.656	93.69
363.882	80.69
364.109	102.69
364.335	98.69
364.562	76.69
364.788	69.69
365.015	76.69
365.241	94.69
365.468	84.69
365.694	84.69
365.92	90.69
366.147	90.69
366.373	82.69
366.599	85.69
366.826	93.69
367.052	75.69
367.278	88.69
367.505	79.69
367.731	78.69
367.957	106.69
368.184	101.69
368.41	91.69
368.636	82.69
368.862	84.69
369.089	75.69
369.315	93.69
369.541	81.69
369.767	84.69
369.993	89.69
370.219	78.69
370.445	89.69
370.672	86.69
370.898	88.69
371.124	103.69
371.35	104.69
371.576	77.69
371.802	91.69
372.028	89.69
372.254	73.69
372.48	87.69
372.706	78.69
372.932	90.69
373.158	71.69
373.384	88.69
373.61	77.69
373.835	74.69
374.061	76.69
374.287	86.69
374.513	86.69
374.739	75.69
374.965	88.69
375.191	91.69
375.416	84.69
375.642	83.69
375.868	85.69
376.094	85.69
376.319	84.69
376.545	79.69
376.771	97.69
376.997	77.69
377.222	88.69
377.448	84.69
377.674	95.69
377.899	94.69
378.125	89.69
378.35	92.69
378.576	87.69
378.802	77.69
379.027	79.69
379.253	92.69
379.478	95.69
379.704	92.69
379.929	79.69
380.155	76.69
380.38	86.69
380.606	85.69
380.831	110.69
381.057	102.69
381.282	89.69
381.507	93.69
381.733	89.69
381.958	88.69
382.184	101.69
382.409	94.69
382.634	91.69
382.86	90.69
383.085	99.69
383.31	82.69
383.535	90.69
383.761	98.69
383.986	100.69
384.211	100.69
384.436	79.69
384.662	84.69
384.887	95.69
385.112	96.69
385.337	92.69
385.562	91.69
385.787	89.69
386.013	85.69
386.238	96.69
386.463	99.69
386.688	97.69
386.913	94.69
387.138	83.69
387.363	87.69
387.588	90.69
387.813	88.69
388.038	65.69
388.263	82.69
388.488	84.69
388.713	80.69
388.938	91.69
389.163	78.69
389.387	97.69
389.612	76.69
389.837	93.69
390.062	77.69
390.287	90.69
390.512	97.69
390.736	88.69
390.961	81.69
391.186	91.69
391.411	96.69
391.636	94.69
391.86	85.69
392.085	83.69
392.31	100.69
392.534	88.69
392.759	79.69
392.984	92.69
393.208	96.69
393.433	90.69
393.658	85.69
393.882	82.69
394.107	91.69
394.331	87.69
394.556	93.69
394.78	92.69
395.005	91.69
395.229	92.69
395.454	95.69
395.678	93.69
395.903	84.69
396.127	91.69
396.352	89.69
396.576	83.69
396.801	92.69
397.025	86.69
397.249	81.69
397.474	105.69
397.698	87.69
397.922	99.69
398.147	84.69
398.371	102.69
398.595	92.69
398.82	101.69
399.044	92.69
399.268	89.69
399.492	81.69
399.717	104.69
399.941	94.69
400.165	93.69
400.389	91.69
400.613	89.69
400.837	91.69
401.062	90.69
401.286	88.69
401.51	99.69
401.734	102.69
401.958	91.69
402.182	82.69
402.406	90.69
402.63	78.69
402.854	93.69
403.078	96.69
403.302	73.69
403.526	98.69
403.75	99.69
403.974	86.69
404.198	80.69
404.422	92.69
404.645	77.69
404.869	85.69
405.093	88.69
405.317	78.69
405.541	93.69
405.765	98.69
405.988	86.69
406.212	85.69
406.436	87.69
406.66	101.69
406.883	79.69
407.107	84.69
407.331	94.69
407.555	96.69
407.778	97.69
408.002	89.69
408.226	101.69
408.449	94.69
408.673	104.69
408.896	110.69
409.12	94.69
409.344	94.69
409.567	102.69
409.791	74.69
410.014	91.69
410.238	88.69
410.461	88.69
410.685	100.69
410.908	94.69
411.132	91.69
411.355	103.69
411.578	93.69
411.802	86.69
412.025	86.69
412.249	108.69
412.472	97.69
412.695	94.69
412.919	89.69
413.142	117.69
413.365	91.69
413.589	91.69
413.812	92.69
414.035	120.69
414.258	91.69
414.482	91.69
414.705	104.69
414.928	108.69
415.151	97.69
415.374	94.69
415.597	95.69
415.821	94.69
416.044	88.69
416.267	90.69
416.49	96.69
416.713	81.69
416.936	97.69
417.159	70.69
417.382	87.69
417.605	90.69
417.828	94.69
418.051	88.69
418.274	102.69
418.497	103.69
418.72	98.69
418.943	93.69
419.166	99.69
419.389	99.69
419.611	103.69
419.834	84.69
420.057	86.69
420.28	88.69
420.503	88.69
420.726	90.69
420.948	92.69
421.171	119.69
421.394	109.69
421.617	94.69
421.839	100.69
422.062	93.69
422.285	93.69
422.507	105.69
422.73	99.69
422.953	97.69
423.175	77.69
423.398	104.69
423.621	79.69
423.843	90.69
424.066	96.69
424.288	94.69
424.511	97.69
424.733	105.69
424.956	110.69
425.178	99.69
425.401	103.69
425.623	95.69
425.846	104.69
426.068	89.69
426.291	108.69
426.513	103.69
426.735	95.69
426.958	85.69
427.18	101.69
427.402	106.69
427.625	100.69
427.847	94.69
428.069	88.69
428.292	97.69
428.514	92.69
428.736	89.69
428.958	84.69
429.181	92.69
429.403	90.69
429.625	96.69
429.847	106.69
430.069	96.69
430.292	99.69
430.514	101.69
430.736	94.69
430.958	112.69
431.18	101.69
431.402	95.69
431.624	91.69
431.846	83.69
432.068	96.69
432.29	85.69
432.512	102.69
432.734	96.69
432.956	83.69
433.178	97.69
433.4	97.69
433.622	90.69
433.844	92.69
434.066	92.69
434.287	81.69
434.509	78.69
434.731	87.69
434.953	92.69
435.175	109.69
435.397	103.69
435.618	95.69
435.84	85.69
436.062	86.69
436.284	85.69
436.505	88.69
436.727	78.69
436.949	84.69
437.17	94.69
437.392	92.69
437.614	92.69
437.835	88.69
438.057	87.69
438.278	92.69
438.5	85.69
438.721	96.69
438.943	108.69
439.165	103.69
439.386	112.69
439.608	104.69
439.829	113.69
440.05	104.69
440.272	102.69
440.493	108.69
440.715	97.69
440.936	91.69
441.158	114.69
441.379	110.69
441.6	116.69
441.822	104.69
442.043	99.69
442.264	93.69
442.486	108.69
442.707	104.69
442.928	98.69
443.149	109.69
443.371	103.69
443.592	97.69
443.813	82.69
444.034	99.69
444.255	86.69
444.476	101.69
444.698	91.69
444.919	95.69
445.14	234.69
445.361	141.69
445.582	104.69
445.803	107.69
446.024	113.69
446.245	106.69
446.466	105.69
446.687	98.69
446.908	112.69
447.129	97.69
447.35	103.69
447.571	106.69
447.792	88.69
448.013	93.69
448.234	106.69
448.455	94.69
448.675	96.69
448.896	100.69
449.117	102.69
449.338	89.69
449.559	97.69
449.779	92.69
450	96.69
450.221	96.69
450.442	84.69
450.662	85.69
450.883	122.69
451.104	99.69
451.324	98.69
451.545	89.69
451.766	88.69
451.986	104.69
452.207	98.69
452.428	105.69
452.648	86.69
452.869	96.69
453.089	85.69
453.31	101.69
453.53	99.69
453.751	101.69
453.971	86.69
454.192	98.69
454.412	97.69
454.633	84.69
454.853	97.69
455.073	94.69
455.294	94.69
455.514	112.69
455.734	97.69
455.955	94.69
456.175	104.69
456.395	93.69
456.616	97.69
456.836	99.69
457.056	94.69
457.276	82.69
457.497	88.69
457.717	93.69
457.937	110.69
458.157	83.69
458.377	78.69
458.598	97.69
458.818	102.69
459.038	80.69
459.258	82.69
459.478	84.69
459.698	81.69
459.918	96.69
460.138	93.69
460.358	94.69
460.578	104.69
460.798	96.69
461.018	83.69
461.238	89.69
461.458	95.69
461.678	97.69
461.898	91.69
462.118	94.69
462.338	93.69
462.558	84.69
462.777	89.69
462.997	94.69
463.217	97.69
463.437	89.69
463.657	83.69
463.876	89.69
464.096	80.69
464.316	86.69
464.536	81.69
464.755	90.69
464.975	90.69
465.195	109.69
465.414	88.69
465.634	92.69
465.854	93.69
466.073	95.69
466.293	100.69
466.512	93.69
466.732	100.69
466.951	96.69
467.171	99.69
467.391	95.69
467.61	101.69
467.829	81.69
468.049	107.69
468.268	84.69
468.488	94.69
468.707	105.69
468.927	106.69
469.146	98.69
469.365	104.69
469.585	93.69
469.804	101.69
470.023	99.69
470.243	93.69
470.462	92.69
470.681	112.69
470.901	109.69
471.12	106.69
471.339	89.69
471.558	97.69
471.777	102.69
471.997	107.69
472.216	100.69
472.435	104.69
472.654	96.69
472.873	106.69
473.092	87.69
473.311	104.69
473.53	89.69
473.749	108.69
473.968	92.69
474.187	107.69
474.406	100.69
474.625	82.69
474.844	84.69
475.063	87.69
475.282	112.69
475.501	98.69
475.72	101.69
475.939	102.69
476.158	124.69
476.377	108.69
476.596	94.69
476.814	101.69
477.033	93.69
477.252	110.69
477.471	91.69
477.69	88.69
477.908	91.69
478.127	88.69
478.346	85.69
478.564	98.69
478.783	110.69
479.002	98.69
479.22	109.69
479.439	97.69
479.658	82.69
479.876	93.69
480.095	89.69
480.313	82.69
480.532	100.69
480.751	93.69
480.969	92.69
481.188	85.69
481.406	90.69
481.624	74.69
481.843	91.69
482.061	86.69
482.28	89.69
482.498	98.69
482.717	97.69
482.935	75.69
483.153	106.69
483.372	98.69
483.59	95.69
483.808	90.69
484.027	101.69
484.245	112.69
484.463	90.69
484.681	108.69
484.9	86.69
485.118	96.69
485.336	93.69
485.554	89.69
485.772	101.69
485.99	92.69
486.209	92.69
486.427	94.69
486.645	85.69
486.863	86.69
487.081	105.69
487.299	100.69
487.517	90.69
487.735	94.69
487.953	108.69
488.171	116.69
488.389	109.69
488.607	104.69
488.825	110.69
489.043	91.69
489.261	96.69
489.479	100.69
489.696	96.69
489.914	86.69
490.132	100.69
490.35	108.69
490.568	113.69
490.786	102.69
491.003	113.69
491.221	106.69
491.439	96.69
491.657	109.69
491.874	110.69
492.092	125.69
492.31	139.69
492.527	145.69
492.745	112.69
492.963	121.69
493.18	122.69
493.398	107.69
493.615	124.69
493.833	114.69
494.05	124.69
494.268	105.69
494.485	116.69
494.703	94.69
494.92	95.69
495.138	116.69
495.355	107.69
495.573	117.69
495.79	117.69
496.008	94.69
496.225	112.69
496.442	99.69
496.66	115.69
496.877	114.69
497.094	90.69
497.312	112.69
497.529	103.69
497.746	107.69
497.963	96.69
498.181	92.69
498.398	92.69
498.615	95.69
498.832	84.69
499.049	93.69
499.267	93.69
499.484	112.69
499.701	103.69
499.918	104.69
500.135	105.69
500.352	101.69
500.569	105.69
500.786	88.69
501.003	96.69
501.22	89.69
501.437	92.69
501.654	96.69
501.871	99.69
502.088	82.69
502.305	92.69
502.522	89.69
502.739	97.69
502.956	97.69
503.172	91.69
503.389	97.69
503.606	96.69
503.823	89.69
504.04	100.69
504.256	104.69
504.473	82.69
504.69	74.69
504.907	96.69
505.123	98.69
505.34	83.69
505.557	96.69
505.773	89.69
505.99	90.69
506.207	94.69
506.423	95.69
506.64	88.69
506.856	91.69
507.073	97.69
507.289	99.69
507.506	89.69
507.722	108.69
507.939	90.69
508.155	103.69
508.372	91.69
508.588	92.69
508.805	83.69
509.021	90.69
509.238	95.69
509.454	86.69
509.67	79.69
509.887	82.69
510.103	108.69
510.319	72.69
510.536	85.69
510.752	80.69
510.968	83.69
511.184	81.69
511.401	92.69
511.617	90.69
511.833	76.69
512.049	91.69
512.265	83.69
512.481	94.69
512.698	85.69
512.914	93.69
513.13	101.69
513.346	85.69
513.562	84.69
513.778	98.69
513.994	94.69
514.21	69.69
514.426	91.69
514.642	87.69
514.858	81.69
515.074	87.69
515.29	83.69
515.506	78.69
515.721	108.69
515.937	95.69
516.153	76.69
516.369	71.69
516.585	81.69
516.801	84.69
517.016	81.69
517.232	78.69
517.448	83.69
517.664	92.69
517.879	73.69
518.095	86.69
518.311	96.69
518.527	94.69
518.742	90.69
518.958	85.69
519.173	91.69
519.389	100.69
519.605	97.69
519.82	100.69
520.036	84.69
520.251	96.69
520.467	97.69
520.682	86.69
520.898	104.69
521.113	99.69
521.329	103.69
521.544	73.69
521.76	92.69
521.975	76.69
522.19	98.69
522.406	104.69
522.621	87.69
522.836	87.69
523.052	91.69
523.267	102.69
523.482	105.69
523.698	112.69
523.913	105.69
524.128	105.69
524.343	99.69
524.559	109.69
524.774	98.69
524.989	95.69
525.204	107.69
525.419	100.69
525.634	86.69
525.849	81.69
526.064	88.69
526.28	76.69
526.495	90.69
526.71	88.69
526.925	88.69
527.14	84.69
527.355	78.69
527.57	92.69
527.785	72.69
527.999	84.69
528.214	93.69
528.429	84.69
528.644	87.69
528.859	108.69
529.074	94.69
529.289	113.69
529.503	98.69
529.718	90.69
529.933	104.69
530.148	94.69
530.363	94.69
530.577	92.69
530.792	87.69
531.007	100.69
531.221	96.69
531.436	85.69
531.651	104.69
531.865	97.69
532.08	91.69
532.295	102.69
532.509	102.69
532.724	81.69
532.938	87.69
533.153	95.69
533.367	94.69
533.582	108.69
533.796	99.69
534.011	80.69
534.225	94.69
534.44	91.69
534.654	84.69
534.868	83.69
535.083	87.69
535.297	105.69
535.511	96.69
535.726	83.69
535.94	103.69
536.154	94.69
536.369	86.69
536.583	83.69
536.797	74.69
537.011	73.69
537.225	88.69
537.44	81.69
537.654	90.69
537.868	95.69
538.082	84.69
538.296	79.69
538.51	83.69
538.724	95.69
538.938	86.69
539.153	97.69
539.367	76.69
539.581	100.69
539.795	83.69
540.009	89.69
540.222	97.69
540.436	84.69
540.65	106.69
540.864	90.69
541.078	108.69
541.292	104.69
541.506	89.69
541.72	115.69
541.934	132.69
542.147	128.69
542.361	122.69
542.575	119.69
542.789	115.69
543.002	110.69
543.216	84.69
543.43	103.69
543.644	102.69
543.857	102.69
544.071	101.69
544.285	104.69
544.498	106.69
544.712	113.69
544.925	104.69
545.139	115.69
545.352	105.69
545.566	104.69
545.779	107.69
545.993	113.69
546.206	114.69
546.42	117.69
546.633	112.69
546.847	104.69
547.06	110.69
547.274	101.69
547.487	119.69
547.7	122.69
547.914	113.69
548.127	100.69
548.34	94.69
548.554	111.69
548.767	107.69
548.98	96.69
549.193	93.69
549.407	109.69
549.62	106.69
549.833	118.69
550.046	110.69
550.259	108.69
550.473	113.69
550.686	110.69
550.899	99.69
551.112	105.69
551.325	91.69
551.538	94.69
551.751	97.69
551.964	111.69
552.177	109.69
552.39	104.69
552.603	91.69
552.816	94.69
553.029	102.69
553.242	109.69
553.455	106.69
553.667	120.69
553.88	118.69
554.093	112.69
554.306	89.69
554.519	92.69
554.732	110.69
554.944	101.69
555.157	92.69
555.37	109.69
555.583	105.69
555.795	101.69
556.008	102.69
556.221	101.69
556.433	103.69
556.646	102.69
556.859	108.69
557.071	95.69
557.284	116.69
557.496	105.69
557.709	84.69
557.921	117.69
558.134	114.69
558.346	105.69
558.559	108.69
558.771	102.69
558.984	107.69
559.196	92.69
559.409	104.69
559.621	100.69
559.833	101.69
560.046	93.69
560.258	98.69
560.47	114.69
560.683	110.69
560.895	93.69
561.107	92.69
561.32	95.69
561.532	104.69
561.744	109.69
561.956	91.69
562.168	93.69
562.381	112.69
562.593	110.69
562.805	100.69
563.017	98.69
563.229	100.69
563.441	98.69
563.653	89.69
563.865	91.69
564.077	103.69
564.289	108.69
564.501	101.69
564.713	99.69
564.925	92.69
565.137	91.69
565.349	103.69
565.561	97.69
565.773	83.69
565.985	94.69
566.197	93.69
566.408	94.69
566.62	88.69
566.832	93.69
567.044	80.69
567.255	100.69
567.467	87.69
567.679	95.69
567.891	90.69
568.102	95.69
568.314	86.69
568.526	83.69
568.737	84.69
568.949	80.69
569.161	92.69
569.372	87.69
569.584	92.69
569.795	88.69
570.007	88.69
570.218	75.69
570.43	84.69
570.641	94.69
570.853	94.69
571.064	106.69
571.276	109.69
571.487	105.69
571.698	72.69
571.91	102.69
572.121	85.69
572.333	87.69
572.544	84.69
572.755	85.69
572.966	101.69
573.178	98.69
573.389	86.69
573.6	87.69
573.811	88.69
574.023	85.69
574.234	90.69
574.445	81.69
574.656	76.69
574.867	79.69
575.078	89.69
575.289	101.69
575.501	92.69
575.712	84.69
575.923	78.69
576.134	101.69
576.345	96.69
576.556	94.69
576.767	93.69
576.978	81.69
577.188	75.69
577.399	76.69
577.61	98.69
577.821	94.69
578.032	93.69
578.243	83.69
578.454	88.69
578.665	85.69
578.875	87.69
579.086	72.69
579.297	78.69
579.508	86.69
579.718	82.69
579.929	98.69
580.14	90.69
580.35	97.69
580.561	89.69
580.772	85.69
580.982	99.69
581.193	91.69
581.403	88.69
581.614	91.69
581.825	96.69
582.035	99.69
582.246	99.69
582.456	105.69
582.667	87.69
582.877	79.69
583.087	77.69
583.298	85.69
583.508	83.69
583.719	82.69
583.929	101.69
584.139	96.69
584.35	96.69
584.56	83.69
584.77	104.69
584.981	86.69
585.191	87.69
585.401	86.69
585.611	91.69
585.821	98.69
586.032	93.69
586.242	95.69
586.452	92.69
586.662	79.69
586.872	92.69
587.082	81.69
587.292	85.69
587.502	98.69
587.713	77.69
587.923	93.69
588.133	75.69
588.343	98.69
588.553	78.69
588.762	81.69
588.972	87.69
589.182	77.69
589.392	97.69
589.602	80.69
589.812	106.69
590.022	95.69
590.232	89.69
590.441	87.69
590.651	86.69
590.861	80.69
591.071	90.69
591.281	78.69
591.49	78.69
591.7	82.69
591.91	90.69
592.119	87.69
592.329	100.69
592.539	82.69
592.748	91.69
592.958	99.69
593.167	82.69
593.377	85.69
593.587	104.69
593.796	92.69
594.006	83.69
594.215	92.69
594.424	80.69
594.634	83.69
594.843	83.69
595.053	86.69
595.262	82.69
595.472	78.69
595.681	94.69
595.89	98.69
596.1	87.69
596.309	106.69
596.518	74.69
596.727	89.69
596.937	94.69
597.146	71.69
597.355	103.69
597.564	84.69
597.774	93.69
597.983	94.69
598.192	91.69
598.401	89.69
598.61	100.69
598.819	83.69
599.028	85.69
599.237	99.69
599.446	87.69
599.655	93.69
599.864	93.69
600.073	77.69
600.282	87.69
600.491	90.69
600.7	81.69
600.909	96.69
601.118	100.69
601.327	103.69
601.536	100.69
601.745	88.69
601.953	98.69
602.162	87.69
602.371	89.69
602.58	77.69
602.789	82.69
602.997	92.69
603.206	92.69
603.415	94.69
603.623	76.69
603.832	93.69
604.041	89.69
604.249	94.69
604.458	92.69
604.666	73.69
604.875	92.69
605.084	93.69
605.292	92.69
605.501	105.69
605.709	100.69
605.918	90.69
606.126	105.69
606.334	92.69
606.543	92.69
606.751	105.69
606.96	92.69
607.168	104.69
607.376	99.69
607.585	115.69
607.793	78.69
608.001	89.69
608.21	94.69
608.418	87.69
608.626	112.69
608.834	88.69
609.043	93.69
609.251	99.69
609.459	88.69
609.667	92.69
609.875	85.69
610.083	105.69
610.291	90.69
610.499	92.69
610.707	87.69
610.916	108.69
611.124	108.69
611.332	96.69
611.54	81.69
611.748	93.69
611.955	100.69
612.163	89.69
612.371	112.69
612.579	105.69
612.787	103.69
612.995	78.69
613.203	99.69
613.411	90.69
613.618	89.69
613.826	99.69
614.034	101.69
614.242	101.69
614.449	82.69
614.657	96.69
614.865	101.69
615.072	91.69
615.28	85.69
615.488	96.69
615.695	102.69
615.903	100.69
616.111	93.69
616.318	101.69
616.526	97.69
616.733	99.69
616.941	108.69
617.148	95.69
617.356	84.69
617.563	91.69
617.771	93.69
617.978	85.69
618.185	99.69
618.393	77.69
618.6	87.69
618.807	96.69
619.015	96.69
619.222	91.69
619.429	88.69
619.637	84.69
619.844	90.69
620.051	100.69
620.258	90.69
620.466	90.69
620.673	77.69
620.88	90.69
621.087	111.69
621.294	88.69
621.501	84.69
621.708	95.69
621.915	98.69
622.122	101.69
622.329	94.69
622.536	101.69
622.743	87.69
622.95	90.69
623.157	93.69
623.364	104.69
623.571	91.69
623.778	80.69
623.985	81.69
624.192	85.69
624.399	101.69
624.606	89.69
624.812	90.69
625.019	89.69
625.226	85.69
625.433	102.69
625.639	90.69
625.846	89.69
626.053	91.69
626.259	91.69
626.466	85.69
626.673	81.69
626.879	84.69
627.086	83.69
627.293	89.69
627.499	94.69
627.706	114.69
627.912	100.69
628.119	94.69
628.325	103.69
628.532	84.69
628.738	97.69
628.945	99.69
629.151	104.69
629.357	83.69
629.564	88.69
629.77	85.69
629.976	85.69
630.183	94.69
630.389	89.69
630.595	85.69
630.802	98.69
631.008	85.69
631.214	94.69
631.42	103.69
631.627	96.69
631.833	89.69
632.039	87.69
632.245	90.69
632.451	94.69
632.657	81.69
632.863	79.69
633.069	94.69
633.275	110.69
633.481	93.69
633.688	104.69
633.893	77.69
634.099	95.69
634.305	90.69
634.511	78.69
634.717	97.69
634.923	98.69
635.129	91.69
635.335	81.69
635.541	96.69
635.747	86.69
635.952	96.69
636.158	98.69
636.364	104.69
636.57	83.69
636.775	82.69
636.981	89.69
637.187	96.69
637.392	93.69
637.598	100.69
637.804	94.69
638.009	90.69
638.215	94.69
638.421	92.69
638.626	87.69
638.832	88.69
639.037	92.69
639.243	97.69
639.448	97.69
639.654	89.69
639.859	97.69
640.065	93.69
640.27	93.69
640.475	85.69
640.681	92.69
640.886	103.69
641.091	99.69
641.297	99.69
641.502	104.69
641.707	84.69
641.913	87.69
642.118	71.69
642.323	84.69
642.528	93.69
642.733	92.69
642.939	102.69
643.144	90.69
643.349	97.69
643.554	80.69
643.759	90.69
643.964	96.69
644.169	93.69
644.374	114.69
644.579	81.69
644.784	85.69
644.989	97.69
645.194	88.69
645.399	84.69
645.604	91.69
645.809	93.69
646.014	80.69
646.219	93.69
646.423	89.69
646.628	90.69
646.833	104.69
647.038	91.69
647.243	90.69
647.447	93.69
647.652	82.69
647.857	98.69
648.062	100.69
648.266	109.69
648.471	93.69
648.676	88.69
648.88	88.69
649.085	79.69
649.289	92.69
649.494	97.69
649.698	92.69
649.903	80.69
650.107	84.69
650.312	83.69
650.516	74.69
650.721	93.69
650.925	95.69
651.13	85.69
651.334	111.69
651.539	86.69
651.743	99.69
651.947	108.69
652.152	99.69
652.356	82.69
652.56	86.69
652.764	88.69
652.969	91.69
653.173	84.69
653.377	81.69
653.581	86.69
653.785	82.69
653.99	86.69
654.194	98.69
654.398	90.69
654.602	89.69
654.806	90.69
655.01	85.69
655.214	92.69
655.418	95.69
655.622	98.69
655.826	94.69
656.03	92.69
656.234	95.69
656.438	88.69
656.642	96.69
656.846	75.69
657.049	91.69
657.253	86.69
657.457	73.69
657.661	82.69
657.865	93.69
658.068	86.69
658.272	82.69
658.476	81.69
658.68	78.69
658.883	93.69
659.087	98.69
659.291	88.69
659.494	79.69
659.698	92.69
659.901	80.69
660.105	98.69
660.309	93.69
660.512	68.69
660.716	90.69
660.919	84.69
661.123	69.69
661.326	101.69
661.53	99.69
661.733	82.69
661.936	72.69
662.14	86.69
662.343	81.69
662.546	88.69
662.75	65.69
662.953	81.69
663.156	75.69
663.36	86.69
663.563	92.69
663.766	82.69
663.969	85.69
664.173	88.69
664.376	88.69
664.579	81.69
664.782	84.69
664.985	76.69
665.188	82.69
665.391	87.69
665.594	85.69
665.797	78.69
666	96.69
666.203	86.69
666.406	93.69
666.609	92.69
666.812	88.69
667.015	75.69
667.218	92.69
667.421	83.69
667.624	77.69
667.827	92.69
668.03	77.69
668.232	86.69
668.435	91.69
668.638	70.69
668.841	91.69
669.043	93.69
669.246	83.69
669.449	72.69
669.651	77.69
669.854	87.69
670.057	84.69
670.259	70.69
670.462	78.69
670.665	93.69
670.867	81.69
671.07	76.69
671.272	66.69
671.475	74.69
671.677	70.69
671.88	72.69
672.082	73.69
672.284	94.69
672.487	78.69
672.689	92.69
672.892	75.69
