Data from Location4.07152019.Energy5.Lamp.07192019.3%Agarose_HRD10591_15-23-15-576.txt Node
Date: Fri Jul 19 15:23:15 EDT 2019
User: cochatt
Spectrometer: HR+D1059
Trigger mode: 1
Integration Time (sec): 1.000000E-1
Scans to average: 1
Electric dark correction enabled: true
Nonlinearity correction enabled: false
Boxcar width: 0
XAxis mode: Wavelengths
Number of Pixels in Spectrum: 2048
>>>>>Begin Spectral Data<<<<<
223.165	-15.25
223.4	-15.25
223.635	-15.25
223.869	-17.25
224.104	-7.25
224.338	-29.25
224.573	-25.25
224.808	-8.25
225.042	-4.25
225.277	-0.25
225.511	-7.25
225.746	-8.25
225.98	8.75
226.215	22.75
226.449	19.75
226.683	15.75
226.918	30.75
227.152	24.75
227.387	32.75
227.621	44.75
227.856	44.75
228.09	56.75
228.324	51.75
228.559	52.75
228.793	55.75
229.027	53.75
229.262	61.75
229.496	60.75
229.73	66.75
229.964	69.75
230.199	77.75
230.433	66.75
230.667	74.75
230.901	78.75
231.136	80.75
231.37	80.75
231.604	78.75
231.838	78.75
232.072	90.75
232.306	83.75
232.541	62.75
232.775	85.75
233.009	82.75
233.243	82.75
233.477	76.75
233.711	90.75
233.945	73.75
234.179	75.75
234.413	75.75
234.647	70.75
234.881	71.75
235.115	71.75
235.349	68.75
235.583	62.75
235.817	64.75
236.051	63.75
236.285	69.75
236.519	86.75
236.753	76.75
236.987	76.75
237.221	80.75
237.455	84.75
237.689	60.75
237.922	76.75
238.156	59.75
238.39	71.75
238.624	64.75
238.858	73.75
239.091	80.75
239.325	78.75
239.559	79.75
239.793	70.75
240.027	67.75
240.26	65.75
240.494	79.75
240.728	72.75
240.961	73.75
241.195	87.75
241.429	59.75
241.662	80.75
241.896	73.75
242.13	66.75
242.363	72.75
242.597	85.75
242.83	84.75
243.064	69.75
243.298	84.75
243.531	77.75
243.765	62.75
243.998	73.75
244.232	76.75
244.465	69.75
244.699	70.75
244.932	75.75
245.166	86.75
245.399	83.75
245.633	68.75
245.866	68.75
246.099	78.75
246.333	65.75
246.566	67.75
246.8	78.75
247.033	88.75
247.266	76.75
247.5	86.75
247.733	67.75
247.966	75.75
248.2	76.75
248.433	77.75
248.666	51.75
248.899	72.75
249.133	77.75
249.366	79.75
249.599	64.75
249.832	65.75
250.066	80.75
250.299	87.75
250.532	78.75
250.765	91.75
250.998	76.75
251.231	91.75
251.465	65.75
251.698	74.75
251.931	76.75
252.164	80.75
252.397	72.75
252.63	92.75
252.863	81.75
253.096	80.75
253.329	75.75
253.562	78.75
253.795	88.75
254.028	78.75
254.261	70.75
254.494	72.75
254.727	82.75
254.96	73.75
255.193	73.75
255.426	72.75
255.659	80.75
255.892	86.75
256.124	57.75
256.357	64.75
256.59	78.75
256.823	63.75
257.056	81.75
257.289	70.75
257.521	86.75
257.754	83.75
257.987	87.75
258.22	71.75
258.452	74.75
258.685	79.75
258.918	83.75
259.151	72.75
259.383	79.75
259.616	79.75
259.849	79.75
260.081	75.75
260.314	68.75
260.547	79.75
260.779	64.75
261.012	67.75
261.244	83.75
261.477	85.75
261.71	80.75
261.942	68.75
262.175	73.75
262.407	75.75
262.64	83.75
262.872	73.75
263.105	64.75
263.337	80.75
263.57	91.75
263.802	78.75
264.035	74.75
264.267	76.75
264.499	76.75
264.732	78.75
264.964	84.75
265.197	84.75
265.429	76.75
265.661	88.75
265.894	86.75
266.126	96.75
266.358	83.75
266.591	74.75
266.823	62.75
267.055	74.75
267.287	86.75
267.52	85.75
267.752	81.75
267.984	80.75
268.216	72.75
268.448	87.75
268.681	63.75
268.913	74.75
269.145	75.75
269.377	77.75
269.609	89.75
269.841	73.75
270.073	90.75
270.306	93.75
270.538	80.75
270.77	84.75
271.002	75.75
271.234	78.75
271.466	81.75
271.698	75.75
271.93	84.75
272.162	98.75
272.394	83.75
272.626	73.75
272.858	74.75
273.09	77.75
273.322	84.75
273.553	90.75
273.785	87.75
274.017	64.75
274.249	79.75
274.481	76.75
274.713	84.75
274.945	78.75
275.176	76.75
275.408	73.75
275.64	85.75
275.872	86.75
276.104	67.75
276.335	84.75
276.567	73.75
276.799	89.75
277.031	85.75
277.262	93.75
277.494	74.75
277.726	81.75
277.957	81.75
278.189	79.75
278.421	76.75
278.652	74.75
278.884	81.75
279.115	79.75
279.347	69.75
279.579	70.75
279.81	82.75
280.042	60.75
280.273	86.75
280.505	89.75
280.736	67.75
280.968	85.75
281.199	87.75
281.431	73.75
281.662	88.75
281.894	85.75
282.125	75.75
282.356	81.75
282.588	73.75
282.819	82.75
283.051	77.75
283.282	87.75
283.513	86.75
283.745	76.75
283.976	79.75
284.207	80.75
284.439	91.75
284.67	80.75
284.901	82.75
285.132	82.75
285.364	78.75
285.595	88.75
285.826	84.75
286.057	98.75
286.288	72.75
286.52	86.75
286.751	76.75
286.982	84.75
287.213	85.75
287.444	82.75
287.675	84.75
287.906	89.75
288.138	75.75
288.369	77.75
288.6	80.75
288.831	86.75
289.062	90.75
289.293	72.75
289.524	85.75
289.755	87.75
289.986	86.75
290.217	99.75
290.448	90.75
290.679	87.75
290.91	80.75
291.141	78.75
291.371	80.75
291.602	80.75
291.833	79.75
292.064	80.75
292.295	79.75
292.526	83.75
292.757	79.75
292.987	88.75
293.218	92.75
293.449	89.75
293.68	84.75
293.91	86.75
294.141	79.75
294.372	81.75
294.603	75.75
294.833	71.75
295.064	75.75
295.295	79.75
295.525	70.75
295.756	86.75
295.987	87.75
296.217	80.75
296.448	78.75
296.679	64.75
296.909	75.75
297.14	88.75
297.37	93.75
297.601	88.75
297.831	89.75
298.062	78.75
298.292	89.75
298.523	93.75
298.753	78.75
298.984	79.75
299.214	72.75
299.445	84.75
299.675	77.75
299.905	84.75
300.136	80.75
300.366	75.75
300.597	85.75
300.827	79.75
301.057	77.75
301.288	83.75
301.518	92.75
301.748	73.75
301.979	81.75
302.209	79.75
302.439	82.75
302.669	94.75
302.9	79.75
303.13	73.75
303.36	64.75
303.59	68.75
303.82	73.75
304.051	57.75
304.281	73.75
304.511	74.75
304.741	79.75
304.971	71.75
305.201	76.75
305.431	76.75
305.661	92.75
305.891	64.75
306.121	86.75
306.352	86.75
306.582	77.75
306.812	87.75
307.042	96.75
307.272	66.75
307.502	77.75
307.731	73.75
307.961	83.75
308.191	82.75
308.421	67.75
308.651	76.75
308.881	90.75
309.111	68.75
309.341	84.75
309.571	68.75
309.8	70.75
310.03	75.75
310.26	70.75
310.49	70.75
310.72	82.75
310.949	79.75
311.179	66.75
311.409	89.75
311.639	81.75
311.868	67.75
312.098	74.75
312.328	71.75
312.557	67.75
312.787	84.75
313.017	76.75
313.246	73.75
313.476	77.75
313.706	82.75
313.935	87.75
314.165	76.75
314.394	88.75
314.624	73.75
314.853	79.75
315.083	74.75
315.312	89.75
315.542	73.75
315.771	61.75
316.001	73.75
316.23	92.75
316.46	72.75
316.689	82.75
316.919	85.75
317.148	72.75
317.377	87.75
317.607	93.75
317.836	79.75
318.065	92.75
318.295	91.75
318.524	79.75
318.753	91.75
318.983	73.75
319.212	82.75
319.441	81.75
319.67	89.75
319.9	70.75
320.129	82.75
320.358	81.75
320.587	79.75
320.816	77.75
321.046	76.75
321.275	89.75
321.504	74.75
321.733	62.75
321.962	87.75
322.191	82.75
322.42	79.75
322.649	71.75
322.878	76.75
323.108	83.75
323.337	82.75
323.566	78.75
323.795	78.75
324.024	92.75
324.253	79.75
324.482	76.75
324.71	71.75
324.939	80.75
325.168	72.75
325.397	84.75
325.626	77.75
325.855	81.75
326.084	87.75
326.313	76.75
326.542	77.75
326.77	90.75
326.999	77.75
327.228	93.75
327.457	85.75
327.686	73.75
327.914	78.75
328.143	89.75
328.372	69.75
328.6	86.75
328.829	64.75
329.058	82.75
329.287	76.75
329.515	84.75
329.744	90.75
329.972	84.75
330.201	72.75
330.43	84.75
330.658	71.75
330.887	75.75
331.115	78.75
331.344	88.75
331.572	92.75
331.801	89.75
332.03	76.75
332.258	83.75
332.486	92.75
332.715	89.75
332.943	88.75
333.172	85.75
333.4	83.75
333.629	72.75
333.857	93.75
334.085	68.75
334.314	72.75
334.542	84.75
334.771	74.75
334.999	75.75
335.227	74.75
335.455	79.75
335.684	93.75
335.912	87.75
336.14	84.75
336.369	84.75
336.597	89.75
336.825	88.75
337.053	77.75
337.281	95.75
337.51	82.75
337.738	72.75
337.966	76.75
338.194	85.75
338.422	83.75
338.65	84.75
338.878	93.75
339.106	78.75
339.334	80.75
339.562	65.75
339.79	87.75
340.018	78.75
340.246	74.75
340.474	67.75
340.702	73.75
340.93	74.75
341.158	79.75
341.386	81.75
341.614	93.75
341.842	87.75
342.07	72.75
342.298	80.75
342.526	94.75
342.754	79.75
342.981	85.75
343.209	70.75
343.437	77.75
343.665	88.75
343.893	85.75
344.12	80.75
344.348	82.75
344.576	71.75
344.804	79.75
345.031	61.75
345.259	77.75
345.487	80.75
345.714	86.75
345.942	77.75
346.17	86.75
346.397	67.75
346.625	92.75
346.853	80.75
347.08	70.75
347.308	71.75
347.535	82.75
347.763	92.75
347.99	80.75
348.218	82.75
348.445	95.75
348.673	76.75
348.9	77.75
349.128	81.75
349.355	69.75
349.583	84.75
349.81	83.75
350.037	78.75
350.265	84.75
350.492	81.75
350.72	81.75
350.947	86.75
351.174	81.75
351.402	87.75
351.629	74.75
351.856	85.75
352.083	76.75
352.311	72.75
352.538	77.75
352.765	81.75
352.992	80.75
353.22	67.75
353.447	68.75
353.674	63.75
353.901	91.75
354.128	78.75
354.355	81.75
354.583	84.75
354.81	79.75
355.037	77.75
355.264	71.75
355.491	77.75
355.718	88.75
355.945	79.75
356.172	83.75
356.399	79.75
356.626	79.75
356.853	87.75
357.08	76.75
357.307	69.75
357.534	70.75
357.761	79.75
357.988	84.75
358.215	74.75
358.441	73.75
358.668	73.75
358.895	64.75
359.122	87.75
359.349	81.75
359.576	70.75
359.802	80.75
360.029	85.75
360.256	85.75
360.483	85.75
360.709	84.75
360.936	79.75
361.163	82.75
361.39	74.75
361.616	83.75
361.843	79.75
362.07	73.75
362.296	73.75
362.523	85.75
362.749	82.75
362.976	83.75
363.203	87.75
363.429	76.75
363.656	72.75
363.882	80.75
364.109	77.75
364.335	79.75
364.562	83.75
364.788	69.75
365.015	82.75
365.241	76.75
365.468	87.75
365.694	76.75
365.92	81.75
366.147	83.75
366.373	78.75
366.599	73.75
366.826	82.75
367.052	88.75
367.278	67.75
367.505	77.75
367.731	89.75
367.957	88.75
368.184	77.75
368.41	84.75
368.636	93.75
368.862	72.75
369.089	71.75
369.315	72.75
369.541	79.75
369.767	84.75
369.993	71.75
370.219	81.75
370.445	83.75
370.672	69.75
370.898	84.75
371.124	73.75
371.35	68.75
371.576	61.75
371.802	78.75
372.028	82.75
372.254	86.75
372.48	72.75
372.706	85.75
372.932	71.75
373.158	86.75
373.384	88.75
373.61	80.75
373.835	88.75
374.061	74.75
374.287	80.75
374.513	79.75
374.739	61.75
374.965	77.75
375.191	73.75
375.416	81.75
375.642	86.75
375.868	86.75
376.094	77.75
376.319	68.75
376.545	77.75
376.771	76.75
376.997	78.75
377.222	72.75
377.448	88.75
377.674	91.75
377.899	75.75
378.125	84.75
378.35	70.75
378.576	87.75
378.802	66.75
379.027	89.75
379.253	90.75
379.478	90.75
379.704	90.75
379.929	80.75
380.155	88.75
380.38	78.75
380.606	77.75
380.831	74.75
381.057	85.75
381.282	96.75
381.507	87.75
381.733	93.75
381.958	78.75
382.184	82.75
382.409	93.75
382.634	98.75
382.86	73.75
383.085	85.75
383.31	92.75
383.535	83.75
383.761	89.75
383.986	85.75
384.211	81.75
384.436	73.75
384.662	66.75
384.887	74.75
385.112	82.75
385.337	92.75
385.562	93.75
385.787	81.75
386.013	93.75
386.238	81.75
386.463	95.75
386.688	84.75
386.913	88.75
387.138	82.75
387.363	81.75
387.588	84.75
387.813	78.75
388.038	84.75
388.263	74.75
388.488	74.75
388.713	65.75
388.938	83.75
389.163	98.75
389.387	80.75
389.612	82.75
389.837	80.75
390.062	102.75
390.287	91.75
390.512	88.75
390.736	73.75
390.961	80.75
391.186	89.75
391.411	72.75
391.636	83.75
391.86	89.75
392.085	83.75
392.31	85.75
392.534	79.75
392.759	86.75
392.984	79.75
393.208	88.75
393.433	86.75
393.658	79.75
393.882	105.75
394.107	77.75
394.331	72.75
394.556	82.75
394.78	85.75
395.005	86.75
395.229	81.75
395.454	80.75
395.678	76.75
395.903	87.75
396.127	93.75
396.352	77.75
396.576	85.75
396.801	77.75
397.025	96.75
397.249	77.75
397.474	80.75
397.698	87.75
397.922	83.75
398.147	82.75
398.371	85.75
398.595	82.75
398.82	109.75
399.044	89.75
399.268	80.75
399.492	81.75
399.717	93.75
399.941	65.75
400.165	63.75
400.389	80.75
400.613	87.75
400.837	83.75
401.062	89.75
401.286	88.75
401.51	94.75
401.734	89.75
401.958	95.75
402.182	92.75
402.406	84.75
402.63	83.75
402.854	72.75
403.078	92.75
403.302	89.75
403.526	79.75
403.75	95.75
403.974	83.75
404.198	71.75
404.422	85.75
404.645	89.75
404.869	89.75
405.093	101.75
405.317	87.75
405.541	97.75
405.765	87.75
405.988	89.75
406.212	72.75
406.436	85.75
406.66	79.75
406.883	81.75
407.107	87.75
407.331	98.75
407.555	79.75
407.778	73.75
408.002	77.75
408.226	84.75
408.449	81.75
408.673	87.75
408.896	73.75
409.12	92.75
409.344	91.75
409.567	85.75
409.791	81.75
410.014	85.75
410.238	88.75
410.461	84.75
410.685	84.75
410.908	85.75
411.132	93.75
411.355	102.75
411.578	97.75
411.802	100.75
412.025	84.75
412.249	72.75
412.472	76.75
412.695	92.75
412.919	80.75
413.142	90.75
413.365	86.75
413.589	95.75
413.812	94.75
414.035	88.75
414.258	97.75
414.482	87.75
414.705	98.75
414.928	91.75
415.151	81.75
415.374	75.75
415.597	96.75
415.821	95.75
416.044	89.75
416.267	85.75
416.49	81.75
416.713	88.75
416.936	84.75
417.159	89.75
417.382	76.75
417.605	89.75
417.828	84.75
418.051	108.75
418.274	93.75
418.497	100.75
418.72	88.75
418.943	107.75
419.166	85.75
419.389	89.75
419.611	99.75
419.834	91.75
420.057	89.75
420.28	91.75
420.503	85.75
420.726	79.75
420.948	78.75
421.171	98.75
421.394	91.75
421.617	95.75
421.839	89.75
422.062	98.75
422.285	92.75
422.507	86.75
422.73	92.75
422.953	92.75
423.175	85.75
423.398	97.75
423.621	97.75
423.843	92.75
424.066	81.75
424.288	88.75
424.511	95.75
424.733	105.75
424.956	89.75
425.178	86.75
425.401	83.75
425.623	85.75
425.846	81.75
426.068	85.75
426.291	92.75
426.513	102.75
426.735	79.75
426.958	80.75
427.18	94.75
427.402	84.75
427.625	80.75
427.847	89.75
428.069	87.75
428.292	91.75
428.514	89.75
428.736	87.75
428.958	87.75
429.181	88.75
429.403	80.75
429.625	87.75
429.847	95.75
430.069	99.75
430.292	101.75
430.514	79.75
430.736	91.75
430.958	94.75
431.18	98.75
431.402	103.75
431.624	98.75
431.846	88.75
432.068	89.75
432.29	81.75
432.512	79.75
432.734	97.75
432.956	85.75
433.178	82.75
433.4	89.75
433.622	92.75
433.844	96.75
434.066	95.75
434.287	73.75
434.509	82.75
434.731	85.75
434.953	91.75
435.175	82.75
435.397	101.75
435.618	88.75
435.84	73.75
436.062	81.75
436.284	100.75
436.505	90.75
436.727	103.75
436.949	101.75
437.17	83.75
437.392	81.75
437.614	83.75
437.835	90.75
438.057	78.75
438.278	83.75
438.5	88.75
438.721	92.75
438.943	91.75
439.165	84.75
439.386	82.75
439.608	76.75
439.829	82.75
440.05	97.75
440.272	84.75
440.493	107.75
440.715	96.75
440.936	95.75
441.158	105.75
441.379	102.75
441.6	88.75
441.822	91.75
442.043	85.75
442.264	96.75
442.486	100.75
442.707	101.75
442.928	109.75
443.149	100.75
443.371	100.75
443.592	80.75
443.813	97.75
444.034	94.75
444.255	93.75
444.476	104.75
444.698	98.75
444.919	81.75
445.14	173.75
445.361	135.75
445.582	110.75
445.803	95.75
446.024	103.75
446.245	108.75
446.466	98.75
446.687	104.75
446.908	100.75
447.129	95.75
447.35	84.75
447.571	86.75
447.792	95.75
448.013	88.75
448.234	92.75
448.455	92.75
448.675	96.75
448.896	100.75
449.117	101.75
449.338	91.75
449.559	98.75
449.779	88.75
450	96.75
450.221	93.75
450.442	73.75
450.662	93.75
450.883	93.75
451.104	98.75
451.324	103.75
451.545	80.75
451.766	90.75
451.986	84.75
452.207	105.75
452.428	104.75
452.648	87.75
452.869	80.75
453.089	93.75
453.31	78.75
453.53	89.75
453.751	80.75
453.971	86.75
454.192	89.75
454.412	71.75
454.633	70.75
454.853	83.75
455.073	77.75
455.294	96.75
455.514	91.75
455.734	79.75
455.955	67.75
456.175	81.75
456.395	84.75
456.616	95.75
456.836	75.75
457.056	84.75
457.276	91.75
457.497	92.75
457.717	76.75
457.937	89.75
458.157	101.75
458.377	77.75
458.598	94.75
458.818	82.75
459.038	80.75
459.258	74.75
459.478	84.75
459.698	85.75
459.918	73.75
460.138	88.75
460.358	96.75
460.578	94.75
460.798	85.75
461.018	96.75
461.238	80.75
461.458	77.75
461.678	82.75
461.898	78.75
462.118	93.75
462.338	81.75
462.558	84.75
462.777	104.75
462.997	77.75
463.217	69.75
463.437	74.75
463.657	85.75
463.876	79.75
464.096	80.75
464.316	87.75
464.536	97.75
464.755	87.75
464.975	88.75
465.195	85.75
465.414	83.75
465.634	95.75
465.854	96.75
466.073	79.75
466.293	85.75
466.512	86.75
466.732	94.75
466.951	99.75
467.171	87.75
467.391	101.75
467.61	93.75
467.829	92.75
468.049	97.75
468.268	87.75
468.488	99.75
468.707	85.75
468.927	86.75
469.146	87.75
469.365	84.75
469.585	92.75
469.804	95.75
470.023	95.75
470.243	96.75
470.462	100.75
470.681	84.75
470.901	94.75
471.12	96.75
471.339	92.75
471.558	87.75
471.777	89.75
471.997	77.75
472.216	99.75
472.435	84.75
472.654	65.75
472.873	81.75
473.092	102.75
473.311	92.75
473.53	93.75
473.749	83.75
473.968	80.75
474.187	88.75
474.406	77.75
474.625	86.75
474.844	73.75
475.063	103.75
475.282	79.75
475.501	81.75
475.72	95.75
475.939	84.75
476.158	84.75
476.377	95.75
476.596	94.75
476.814	86.75
477.033	89.75
477.252	82.75
477.471	87.75
477.69	72.75
477.908	101.75
478.127	96.75
478.346	87.75
478.564	87.75
478.783	89.75
479.002	81.75
479.22	97.75
479.439	85.75
479.658	95.75
479.876	92.75
480.095	84.75
480.313	108.75
480.532	87.75
480.751	77.75
480.969	85.75
481.188	89.75
481.406	76.75
481.624	87.75
481.843	73.75
482.061	87.75
482.28	85.75
482.498	86.75
482.717	85.75
482.935	93.75
483.153	93.75
483.372	97.75
483.59	116.75
483.808	91.75
484.027	74.75
484.245	87.75
484.463	100.75
484.681	104.75
484.9	89.75
485.118	89.75
485.336	91.75
485.554	83.75
485.772	75.75
485.99	81.75
486.209	77.75
486.427	78.75
486.645	96.75
486.863	97.75
487.081	92.75
487.299	94.75
487.517	99.75
487.735	111.75
487.953	109.75
488.171	110.75
488.389	118.75
488.607	107.75
488.825	110.75
489.043	102.75
489.261	93.75
489.479	91.75
489.696	93.75
489.914	95.75
490.132	84.75
490.35	107.75
490.568	97.75
490.786	98.75
491.003	107.75
491.221	99.75
491.439	114.75
491.657	109.75
491.874	112.75
492.092	110.75
492.31	120.75
492.527	119.75
492.745	111.75
492.963	111.75
493.18	105.75
493.398	108.75
493.615	92.75
493.833	120.75
494.05	94.75
494.268	96.75
494.485	103.75
494.703	105.75
494.92	102.75
495.138	111.75
495.355	88.75
495.573	105.75
495.79	87.75
496.008	96.75
496.225	93.75
496.442	105.75
496.66	115.75
496.877	99.75
497.094	99.75
497.312	98.75
497.529	87.75
497.746	88.75
497.963	86.75
498.181	89.75
498.398	89.75
498.615	101.75
498.832	91.75
499.049	89.75
499.267	85.75
499.484	97.75
499.701	101.75
499.918	87.75
500.135	92.75
500.352	104.75
500.569	103.75
500.786	89.75
501.003	93.75
501.22	96.75
501.437	105.75
501.654	89.75
501.871	109.75
502.088	95.75
502.305	96.75
502.522	97.75
502.739	86.75
502.956	76.75
503.172	93.75
503.389	99.75
503.606	95.75
503.823	88.75
504.04	91.75
504.256	84.75
504.473	82.75
504.69	88.75
504.907	88.75
505.123	72.75
505.34	86.75
505.557	91.75
505.773	104.75
505.99	82.75
506.207	111.75
506.423	89.75
506.64	100.75
506.856	91.75
507.073	91.75
507.289	107.75
507.506	85.75
507.722	88.75
507.939	102.75
508.155	100.75
508.372	78.75
508.588	93.75
508.805	87.75
509.021	96.75
509.238	95.75
509.454	68.75
509.67	93.75
509.887	89.75
510.103	84.75
510.319	90.75
510.536	76.75
510.752	87.75
510.968	84.75
511.184	92.75
511.401	74.75
511.617	80.75
511.833	73.75
512.049	76.75
512.265	92.75
512.481	90.75
512.698	84.75
512.914	87.75
513.13	91.75
513.346	73.75
513.562	84.75
513.778	76.75
513.994	79.75
514.21	75.75
514.426	89.75
514.642	94.75
514.858	76.75
515.074	80.75
515.29	90.75
515.506	91.75
515.721	78.75
515.937	87.75
516.153	83.75
516.369	87.75
516.585	77.75
516.801	83.75
517.016	84.75
517.232	75.75
517.448	69.75
517.664	77.75
517.879	83.75
518.095	81.75
518.311	81.75
518.527	95.75
518.742	87.75
518.958	81.75
519.173	77.75
519.389	88.75
519.605	77.75
519.82	83.75
520.036	81.75
520.251	100.75
520.467	95.75
520.682	94.75
520.898	92.75
521.113	84.75
521.329	79.75
521.544	86.75
521.76	82.75
521.975	77.75
522.19	84.75
522.406	80.75
522.621	82.75
522.836	98.75
523.052	97.75
523.267	84.75
523.482	91.75
523.698	80.75
523.913	86.75
524.128	88.75
524.343	91.75
524.559	97.75
524.774	104.75
524.989	79.75
525.204	94.75
525.419	95.75
525.634	104.75
525.849	80.75
526.064	74.75
526.28	80.75
526.495	75.75
526.71	85.75
526.925	85.75
527.14	96.75
527.355	83.75
527.57	87.75
527.785	85.75
527.999	72.75
528.214	83.75
528.429	95.75
528.644	88.75
528.859	86.75
529.074	101.75
529.289	107.75
529.503	102.75
529.718	97.75
529.933	83.75
530.148	77.75
530.363	88.75
530.577	81.75
530.792	95.75
531.007	62.75
531.221	73.75
531.436	74.75
531.651	75.75
531.865	73.75
532.08	79.75
532.295	82.75
532.509	75.75
532.724	79.75
532.938	72.75
533.153	78.75
533.367	94.75
533.582	101.75
533.796	92.75
534.011	79.75
534.225	80.75
534.44	82.75
534.654	90.75
534.868	98.75
535.083	99.75
535.297	76.75
535.511	89.75
535.726	94.75
535.94	91.75
536.154	69.75
536.369	97.75
536.583	84.75
536.797	84.75
537.011	92.75
537.225	87.75
537.44	92.75
537.654	73.75
537.868	80.75
538.082	84.75
538.296	80.75
538.51	71.75
538.724	92.75
538.938	89.75
539.153	95.75
539.367	89.75
539.581	91.75
539.795	76.75
540.009	96.75
540.222	68.75
540.436	85.75
540.65	105.75
540.864	90.75
541.078	102.75
541.292	112.75
541.506	115.75
541.72	109.75
541.934	100.75
542.147	123.75
542.361	112.75
542.575	101.75
542.789	93.75
543.002	103.75
543.216	87.75
543.43	88.75
543.644	84.75
543.857	97.75
544.071	100.75
544.285	115.75
544.498	100.75
544.712	107.75
544.925	118.75
545.139	104.75
545.352	88.75
545.566	106.75
545.779	91.75
545.993	103.75
546.206	100.75
546.42	109.75
546.633	103.75
546.847	99.75
547.06	108.75
547.274	115.75
547.487	105.75
547.7	115.75
547.914	91.75
548.127	101.75
548.34	88.75
548.554	96.75
548.767	111.75
548.98	105.75
549.193	107.75
549.407	112.75
549.62	102.75
549.833	119.75
550.046	89.75
550.259	96.75
550.473	115.75
550.686	91.75
550.899	88.75
551.112	106.75
551.325	97.75
551.538	97.75
551.751	100.75
551.964	98.75
552.177	97.75
552.39	102.75
552.603	96.75
552.816	112.75
553.029	87.75
553.242	99.75
553.455	99.75
553.667	92.75
553.88	101.75
554.093	109.75
554.306	110.75
554.519	99.75
554.732	105.75
554.944	101.75
555.157	105.75
555.37	108.75
555.583	103.75
555.795	93.75
556.008	97.75
556.221	103.75
556.433	91.75
556.646	95.75
556.859	95.75
557.071	107.75
557.284	93.75
557.496	101.75
557.709	101.75
557.921	88.75
558.134	109.75
558.346	92.75
558.559	102.75
558.771	92.75
558.984	92.75
559.196	118.75
559.409	85.75
559.621	113.75
559.833	90.75
560.046	103.75
560.258	101.75
560.47	92.75
560.683	102.75
560.895	97.75
561.107	98.75
561.32	91.75
561.532	95.75
561.744	96.75
561.956	96.75
562.168	97.75
562.381	93.75
562.593	94.75
562.805	85.75
563.017	104.75
563.229	86.75
563.441	92.75
563.653	114.75
563.865	99.75
564.077	83.75
564.289	85.75
564.501	95.75
564.713	94.75
564.925	93.75
565.137	104.75
565.349	99.75
565.561	83.75
565.773	94.75
565.985	93.75
566.197	101.75
566.408	95.75
566.62	101.75
566.832	85.75
567.044	101.75
567.255	79.75
567.467	85.75
567.679	104.75
567.891	84.75
568.102	96.75
568.314	91.75
568.526	79.75
568.737	82.75
568.949	82.75
569.161	77.75
569.372	79.75
569.584	80.75
569.795	78.75
570.007	82.75
570.218	88.75
570.43	71.75
570.641	88.75
570.853	87.75
571.064	86.75
571.276	82.75
571.487	66.75
571.698	83.75
571.91	81.75
572.121	84.75
572.333	83.75
572.544	82.75
572.755	79.75
572.966	112.75
573.178	69.75
573.389	94.75
573.6	84.75
573.811	89.75
574.023	86.75
574.234	77.75
574.445	84.75
574.656	89.75
574.867	91.75
575.078	77.75
575.289	82.75
575.501	102.75
575.712	96.75
575.923	95.75
576.134	78.75
576.345	85.75
576.556	81.75
576.767	96.75
576.978	86.75
577.188	93.75
577.399	85.75
577.61	93.75
577.821	83.75
578.032	88.75
578.243	79.75
578.454	91.75
578.665	82.75
578.875	83.75
579.086	83.75
579.297	92.75
579.508	72.75
579.718	74.75
579.929	71.75
580.14	86.75
580.35	77.75
580.561	91.75
580.772	78.75
580.982	81.75
581.193	77.75
581.403	92.75
581.614	80.75
581.825	81.75
582.035	90.75
582.246	73.75
582.456	83.75
582.667	77.75
582.877	84.75
583.087	95.75
583.298	85.75
583.508	77.75
583.719	89.75
583.929	83.75
584.139	84.75
584.35	79.75
584.56	91.75
584.77	87.75
584.981	81.75
585.191	66.75
585.401	88.75
585.611	75.75
585.821	91.75
586.032	83.75
586.242	84.75
586.452	82.75
586.662	68.75
586.872	72.75
587.082	77.75
587.292	85.75
587.502	99.75
587.713	84.75
587.923	93.75
588.133	95.75
588.343	81.75
588.553	64.75
588.762	89.75
588.972	81.75
589.182	82.75
589.392	88.75
589.602	73.75
589.812	76.75
590.022	93.75
590.232	94.75
590.441	73.75
590.651	77.75
590.861	79.75
591.071	77.75
591.281	84.75
591.49	73.75
591.7	87.75
591.91	92.75
592.119	79.75
592.329	85.75
592.539	83.75
592.748	88.75
592.958	87.75
593.167	87.75
593.377	71.75
593.587	84.75
593.796	87.75
594.006	94.75
594.215	84.75
594.424	86.75
594.634	93.75
594.843	91.75
595.053	94.75
595.262	95.75
595.472	76.75
595.681	78.75
595.89	76.75
596.1	79.75
596.309	80.75
596.518	93.75
596.727	78.75
596.937	82.75
597.146	89.75
597.355	83.75
597.564	79.75
597.774	84.75
597.983	84.75
598.192	76.75
598.401	89.75
598.61	86.75
598.819	85.75
599.028	74.75
599.237	85.75
599.446	79.75
599.655	92.75
599.864	95.75
600.073	87.75
600.282	91.75
600.491	81.75
600.7	80.75
600.909	78.75
601.118	79.75
601.327	84.75
601.536	81.75
601.745	84.75
601.953	85.75
602.162	80.75
602.371	85.75
602.58	78.75
602.789	71.75
602.997	82.75
603.206	77.75
603.415	95.75
603.623	104.75
603.832	91.75
604.041	89.75
604.249	85.75
604.458	79.75
604.666	84.75
604.875	83.75
605.084	74.75
605.292	77.75
605.501	86.75
605.709	81.75
605.918	102.75
606.126	90.75
606.334	73.75
606.543	80.75
606.751	80.75
606.96	101.75
607.168	83.75
607.376	86.75
607.585	87.75
607.793	73.75
608.001	98.75
608.21	94.75
608.418	77.75
608.626	88.75
608.834	89.75
609.043	88.75
609.251	88.75
609.459	67.75
609.667	93.75
609.875	95.75
610.083	96.75
610.291	95.75
610.499	98.75
610.707	93.75
610.916	98.75
611.124	83.75
611.332	92.75
611.54	84.75
611.748	84.75
611.955	85.75
612.163	93.75
612.371	80.75
612.579	87.75
612.787	93.75
612.995	107.75
613.203	96.75
613.411	91.75
613.618	75.75
613.826	90.75
614.034	80.75
614.242	91.75
614.449	86.75
614.657	104.75
614.865	78.75
615.072	88.75
615.28	86.75
615.488	74.75
615.695	76.75
615.903	84.75
616.111	94.75
616.318	92.75
616.526	83.75
616.733	91.75
616.941	91.75
617.148	90.75
617.356	92.75
617.563	81.75
617.771	88.75
617.978	78.75
618.185	107.75
618.393	89.75
618.6	85.75
618.807	88.75
619.015	83.75
619.222	85.75
619.429	75.75
619.637	84.75
619.844	80.75
620.051	81.75
620.258	90.75
620.466	88.75
620.673	81.75
620.88	91.75
621.087	83.75
621.294	85.75
621.501	86.75
621.708	87.75
621.915	95.75
622.122	89.75
622.329	95.75
622.536	85.75
622.743	97.75
622.95	93.75
623.157	78.75
623.364	87.75
623.571	83.75
623.778	95.75
623.985	94.75
624.192	83.75
624.399	82.75
624.606	87.75
624.812	89.75
625.019	79.75
625.226	78.75
625.433	80.75
625.639	66.75
625.846	87.75
626.053	68.75
626.259	87.75
626.466	80.75
626.673	84.75
626.879	79.75
627.086	80.75
627.293	79.75
627.499	97.75
627.706	88.75
627.912	78.75
628.119	84.75
628.325	81.75
628.532	87.75
628.738	78.75
628.945	85.75
629.151	85.75
629.357	80.75
629.564	84.75
629.77	77.75
629.976	76.75
630.183	76.75
630.389	91.75
630.595	89.75
630.802	73.75
631.008	88.75
631.214	89.75
631.42	80.75
631.627	86.75
631.833	74.75
632.039	70.75
632.245	96.75
632.451	85.75
632.657	100.75
632.863	76.75
633.069	89.75
633.275	85.75
633.481	91.75
633.688	82.75
633.893	99.75
634.099	96.75
634.305	76.75
634.511	85.75
634.717	95.75
634.923	82.75
635.129	63.75
635.335	83.75
635.541	87.75
635.747	95.75
635.952	81.75
636.158	79.75
636.364	80.75
636.57	74.75
636.775	93.75
636.981	83.75
637.187	77.75
637.392	82.75
637.598	84.75
637.804	84.75
638.009	87.75
638.215	77.75
638.421	85.75
638.626	81.75
638.832	91.75
639.037	74.75
639.243	87.75
639.448	82.75
639.654	82.75
639.859	86.75
640.065	86.75
640.27	97.75
640.475	85.75
640.681	76.75
640.886	91.75
641.091	84.75
641.297	95.75
641.502	89.75
641.707	85.75
641.913	77.75
642.118	95.75
642.323	101.75
642.528	83.75
642.733	87.75
642.939	82.75
643.144	86.75
643.349	74.75
643.554	90.75
643.759	84.75
643.964	81.75
644.169	84.75
644.374	81.75
644.579	84.75
644.784	99.75
644.989	83.75
645.194	81.75
645.399	100.75
645.604	69.75
645.809	105.75
646.014	79.75
646.219	70.75
646.423	85.75
646.628	83.75
646.833	89.75
647.038	96.75
647.243	75.75
647.447	71.75
647.652	83.75
647.857	83.75
648.062	87.75
648.266	87.75
648.471	78.75
648.676	91.75
648.88	87.75
649.085	80.75
649.289	73.75
649.494	83.75
649.698	79.75
649.903	87.75
650.107	71.75
650.312	71.75
650.516	80.75
650.721	92.75
650.925	88.75
651.13	87.75
651.334	73.75
651.539	79.75
651.743	68.75
651.947	85.75
652.152	99.75
652.356	90.75
652.56	76.75
652.764	80.75
652.969	63.75
653.173	83.75
653.377	91.75
653.581	86.75
653.785	79.75
653.99	81.75
654.194	68.75
654.398	85.75
654.602	73.75
654.806	81.75
655.01	89.75
655.214	85.75
655.418	80.75
655.622	79.75
655.826	85.75
656.03	93.75
656.234	81.75
656.438	69.75
656.642	72.75
656.846	97.75
657.049	100.75
657.253	89.75
657.457	72.75
657.661	78.75
657.865	75.75
658.068	74.75
658.272	99.75
658.476	74.75
658.68	79.75
658.883	85.75
659.087	69.75
659.291	81.75
659.494	87.75
659.698	61.75
659.901	77.75
660.105	86.75
660.309	83.75
660.512	68.75
660.716	81.75
660.919	80.75
661.123	85.75
661.326	82.75
661.53	88.75
661.733	87.75
661.936	80.75
662.14	64.75
662.343	70.75
662.546	72.75
662.75	88.75
662.953	68.75
663.156	79.75
663.36	77.75
663.563	88.75
663.766	73.75
663.969	65.75
664.173	87.75
664.376	63.75
664.579	80.75
664.782	83.75
664.985	79.75
665.188	80.75
665.391	85.75
665.594	73.75
665.797	87.75
666	87.75
666.203	69.75
666.406	78.75
666.609	64.75
666.812	86.75
667.015	87.75
667.218	87.75
667.421	91.75
667.624	103.75
667.827	73.75
668.03	79.75
668.232	81.75
668.435	75.75
668.638	81.75
668.841	78.75
669.043	82.75
669.246	79.75
669.449	75.75
669.651	73.75
669.854	99.75
670.057	78.75
670.259	63.75
670.462	88.75
670.665	86.75
670.867	79.75
671.07	73.75
671.272	78.75
671.475	75.75
671.677	71.75
671.88	80.75
672.082	82.75
672.284	83.75
672.487	75.75
672.689	77.75
672.892	76.75
