Data from Location4.07152019.Energy5.Lamp.07192019.3%Agarose_HRD10591_15-25-26-579.txt Node
Date: Fri Jul 19 15:25:26 EDT 2019
User: cochatt
Spectrometer: HR+D1059
Trigger mode: 1
Integration Time (sec): 1.000000E-1
Scans to average: 1
Electric dark correction enabled: true
Nonlinearity correction enabled: false
Boxcar width: 0
XAxis mode: Wavelengths
Number of Pixels in Spectrum: 2048
>>>>>Begin Spectral Data<<<<<
223.165	-13.62
223.4	-13.62
223.635	-13.62
223.869	-20.62
224.104	-14.62
224.338	-24.62
224.573	-19.62
224.808	-12.62
225.042	-2.62
225.277	3.38
225.511	-18.62
225.746	6.38
225.98	13.38
226.215	12.38
226.449	13.38
226.683	9.38
226.918	39.38
227.152	29.38
227.387	41.38
227.621	41.38
227.856	44.38
228.09	36.38
228.324	52.38
228.559	55.38
228.793	74.38
229.027	67.38
229.262	62.38
229.496	71.38
229.73	59.38
229.964	60.38
230.199	76.38
230.433	69.38
230.667	74.38
230.901	71.38
231.136	75.38
231.37	80.38
231.604	83.38
231.838	84.38
232.072	79.38
232.306	77.38
232.541	87.38
232.775	93.38
233.009	77.38
233.243	79.38
233.477	77.38
233.711	63.38
233.945	86.38
234.179	83.38
234.413	87.38
234.647	81.38
234.881	89.38
235.115	74.38
235.349	67.38
235.583	78.38
235.817	76.38
236.051	62.38
236.285	79.38
236.519	69.38
236.753	98.38
236.987	88.38
237.221	78.38
237.455	83.38
237.689	75.38
237.922	67.38
238.156	76.38
238.39	75.38
238.624	66.38
238.858	83.38
239.091	81.38
239.325	87.38
239.559	71.38
239.793	86.38
240.027	97.38
240.26	86.38
240.494	80.38
240.728	74.38
240.961	76.38
241.195	75.38
241.429	71.38
241.662	91.38
241.896	64.38
242.13	77.38
242.363	85.38
242.597	65.38
242.83	83.38
243.064	80.38
243.298	73.38
243.531	92.38
243.765	71.38
243.998	83.38
244.232	91.38
244.465	74.38
244.699	73.38
244.932	88.38
245.166	91.38
245.399	72.38
245.633	79.38
245.866	76.38
246.099	86.38
246.333	86.38
246.566	76.38
246.8	56.38
247.033	72.38
247.266	77.38
247.5	77.38
247.733	71.38
247.966	65.38
248.2	77.38
248.433	73.38
248.666	75.38
248.899	85.38
249.133	77.38
249.366	77.38
249.599	77.38
249.832	98.38
250.066	69.38
250.299	76.38
250.532	74.38
250.765	81.38
250.998	73.38
251.231	80.38
251.465	94.38
251.698	78.38
251.931	87.38
252.164	69.38
252.397	80.38
252.63	82.38
252.863	77.38
253.096	67.38
253.329	75.38
253.562	93.38
253.795	75.38
254.028	91.38
254.261	84.38
254.494	82.38
254.727	75.38
254.96	90.38
255.193	79.38
255.426	91.38
255.659	69.38
255.892	74.38
256.124	90.38
256.357	91.38
256.59	81.38
256.823	76.38
257.056	72.38
257.289	89.38
257.521	95.38
257.754	93.38
257.987	76.38
258.22	78.38
258.452	83.38
258.685	73.38
258.918	80.38
259.151	79.38
259.383	76.38
259.616	75.38
259.849	90.38
260.081	84.38
260.314	98.38
260.547	78.38
260.779	80.38
261.012	71.38
261.244	87.38
261.477	79.38
261.71	82.38
261.942	79.38
262.175	67.38
262.407	88.38
262.64	68.38
262.872	73.38
263.105	87.38
263.337	85.38
263.57	69.38
263.802	67.38
264.035	84.38
264.267	71.38
264.499	75.38
264.732	86.38
264.964	69.38
265.197	92.38
265.429	68.38
265.661	84.38
265.894	87.38
266.126	90.38
266.358	75.38
266.591	73.38
266.823	90.38
267.055	83.38
267.287	64.38
267.52	83.38
267.752	73.38
267.984	80.38
268.216	81.38
268.448	83.38
268.681	88.38
268.913	92.38
269.145	79.38
269.377	86.38
269.609	91.38
269.841	72.38
270.073	73.38
270.306	79.38
270.538	76.38
270.77	71.38
271.002	94.38
271.234	69.38
271.466	88.38
271.698	87.38
271.93	73.38
272.162	71.38
272.394	77.38
272.626	92.38
272.858	88.38
273.09	83.38
273.322	82.38
273.553	77.38
273.785	91.38
274.017	86.38
274.249	84.38
274.481	84.38
274.713	83.38
274.945	92.38
275.176	93.38
275.408	74.38
275.64	80.38
275.872	92.38
276.104	86.38
276.335	81.38
276.567	91.38
276.799	90.38
277.031	91.38
277.262	81.38
277.494	91.38
277.726	86.38
277.957	87.38
278.189	76.38
278.421	88.38
278.652	62.38
278.884	101.38
279.115	81.38
279.347	86.38
279.579	73.38
279.81	77.38
280.042	82.38
280.273	91.38
280.505	85.38
280.736	80.38
280.968	84.38
281.199	81.38
281.431	88.38
281.662	91.38
281.894	86.38
282.125	88.38
282.356	99.38
282.588	83.38
282.819	87.38
283.051	87.38
283.282	89.38
283.513	86.38
283.745	90.38
283.976	80.38
284.207	84.38
284.439	92.38
284.67	86.38
284.901	79.38
285.132	90.38
285.364	79.38
285.595	81.38
285.826	83.38
286.057	84.38
286.288	72.38
286.52	84.38
286.751	87.38
286.982	111.38
287.213	81.38
287.444	85.38
287.675	91.38
287.906	96.38
288.138	91.38
288.369	87.38
288.6	85.38
288.831	87.38
289.062	83.38
289.293	78.38
289.524	90.38
289.755	80.38
289.986	85.38
290.217	87.38
290.448	74.38
290.679	69.38
290.91	91.38
291.141	85.38
291.371	84.38
291.602	76.38
291.833	71.38
292.064	82.38
292.295	88.38
292.526	89.38
292.757	90.38
292.987	81.38
293.218	88.38
293.449	77.38
293.68	75.38
293.91	80.38
294.141	92.38
294.372	76.38
294.603	76.38
294.833	89.38
295.064	76.38
295.295	83.38
295.525	77.38
295.756	92.38
295.987	83.38
296.217	83.38
296.448	90.38
296.679	84.38
296.909	85.38
297.14	71.38
297.37	82.38
297.601	75.38
297.831	80.38
298.062	83.38
298.292	88.38
298.523	86.38
298.753	81.38
298.984	86.38
299.214	89.38
299.445	78.38
299.675	83.38
299.905	92.38
300.136	88.38
300.366	76.38
300.597	79.38
300.827	108.38
301.057	103.38
301.288	68.38
301.518	78.38
301.748	75.38
301.979	80.38
302.209	86.38
302.439	85.38
302.669	72.38
302.9	67.38
303.13	78.38
303.36	87.38
303.59	79.38
303.82	78.38
304.051	82.38
304.281	93.38
304.511	74.38
304.741	77.38
304.971	67.38
305.201	76.38
305.431	81.38
305.661	63.38
305.891	84.38
306.121	94.38
306.352	88.38
306.582	80.38
306.812	88.38
307.042	85.38
307.272	101.38
307.502	87.38
307.731	76.38
307.961	79.38
308.191	103.38
308.421	74.38
308.651	65.38
308.881	77.38
309.111	88.38
309.341	76.38
309.571	85.38
309.8	78.38
310.03	86.38
310.26	76.38
310.49	89.38
310.72	71.38
310.949	74.38
311.179	84.38
311.409	86.38
311.639	82.38
311.868	88.38
312.098	85.38
312.328	79.38
312.557	84.38
312.787	96.38
313.017	89.38
313.246	82.38
313.476	85.38
313.706	86.38
313.935	89.38
314.165	83.38
314.394	70.38
314.624	83.38
314.853	79.38
315.083	96.38
315.312	84.38
315.542	82.38
315.771	76.38
316.001	77.38
316.23	82.38
316.46	89.38
316.689	89.38
316.919	95.38
317.148	90.38
317.377	71.38
317.607	80.38
317.836	77.38
318.065	83.38
318.295	89.38
318.524	90.38
318.753	85.38
318.983	87.38
319.212	76.38
319.441	100.38
319.67	83.38
319.9	83.38
320.129	90.38
320.358	86.38
320.587	85.38
320.816	80.38
321.046	77.38
321.275	90.38
321.504	83.38
321.733	84.38
321.962	94.38
322.191	68.38
322.42	71.38
322.649	88.38
322.878	75.38
323.108	91.38
323.337	84.38
323.566	80.38
323.795	79.38
324.024	84.38
324.253	86.38
324.482	77.38
324.71	85.38
324.939	90.38
325.168	85.38
325.397	84.38
325.626	92.38
325.855	101.38
326.084	94.38
326.313	64.38
326.542	98.38
326.77	89.38
326.999	91.38
327.228	100.38
327.457	81.38
327.686	79.38
327.914	88.38
328.143	92.38
328.372	89.38
328.6	88.38
328.829	83.38
329.058	76.38
329.287	85.38
329.515	91.38
329.744	88.38
329.972	83.38
330.201	91.38
330.43	79.38
330.658	88.38
330.887	84.38
331.115	73.38
331.344	75.38
331.572	83.38
331.801	73.38
332.03	83.38
332.258	85.38
332.486	78.38
332.715	77.38
332.943	92.38
333.172	91.38
333.4	69.38
333.629	81.38
333.857	95.38
334.085	72.38
334.314	75.38
334.542	93.38
334.771	93.38
334.999	82.38
335.227	76.38
335.455	79.38
335.684	85.38
335.912	101.38
336.14	77.38
336.369	77.38
336.597	74.38
336.825	84.38
337.053	77.38
337.281	81.38
337.51	89.38
337.738	94.38
337.966	81.38
338.194	76.38
338.422	72.38
338.65	87.38
338.878	85.38
339.106	99.38
339.334	74.38
339.562	96.38
339.79	93.38
340.018	88.38
340.246	86.38
340.474	74.38
340.702	67.38
340.93	81.38
341.158	70.38
341.386	88.38
341.614	86.38
341.842	84.38
342.07	99.38
342.298	77.38
342.526	83.38
342.754	75.38
342.981	94.38
343.209	91.38
343.437	83.38
343.665	85.38
343.893	94.38
344.12	94.38
344.348	95.38
344.576	82.38
344.804	72.38
345.031	85.38
345.259	84.38
345.487	93.38
345.714	80.38
345.942	92.38
346.17	73.38
346.397	86.38
346.625	86.38
346.853	80.38
347.08	84.38
347.308	84.38
347.535	77.38
347.763	91.38
347.99	73.38
348.218	86.38
348.445	83.38
348.673	85.38
348.9	90.38
349.128	88.38
349.355	88.38
349.583	79.38
349.81	84.38
350.037	91.38
350.265	87.38
350.492	83.38
350.72	73.38
350.947	90.38
351.174	80.38
351.402	83.38
351.629	91.38
351.856	75.38
352.083	75.38
352.311	90.38
352.538	82.38
352.765	75.38
352.992	79.38
353.22	85.38
353.447	84.38
353.674	92.38
353.901	66.38
354.128	83.38
354.355	91.38
354.583	63.38
354.81	87.38
355.037	88.38
355.264	72.38
355.491	82.38
355.718	74.38
355.945	95.38
356.172	75.38
356.399	85.38
356.626	79.38
356.853	84.38
357.08	93.38
357.307	82.38
357.534	81.38
357.761	92.38
357.988	83.38
358.215	84.38
358.441	72.38
358.668	82.38
358.895	89.38
359.122	75.38
359.349	89.38
359.576	67.38
359.802	87.38
360.029	76.38
360.256	70.38
360.483	85.38
360.709	86.38
360.936	84.38
361.163	89.38
361.39	82.38
361.616	87.38
361.843	76.38
362.07	103.38
362.296	76.38
362.523	92.38
362.749	80.38
362.976	74.38
363.203	83.38
363.429	77.38
363.656	82.38
363.882	92.38
364.109	90.38
364.335	87.38
364.562	89.38
364.788	85.38
365.015	81.38
365.241	103.38
365.468	89.38
365.694	77.38
365.92	88.38
366.147	90.38
366.373	87.38
366.599	92.38
366.826	83.38
367.052	99.38
367.278	91.38
367.505	77.38
367.731	79.38
367.957	79.38
368.184	92.38
368.41	84.38
368.636	91.38
368.862	84.38
369.089	93.38
369.315	88.38
369.541	73.38
369.767	86.38
369.993	94.38
370.219	85.38
370.445	82.38
370.672	64.38
370.898	90.38
371.124	82.38
371.35	81.38
371.576	90.38
371.802	76.38
372.028	92.38
372.254	92.38
372.48	91.38
372.706	92.38
372.932	73.38
373.158	67.38
373.384	85.38
373.61	98.38
373.835	77.38
374.061	88.38
374.287	86.38
374.513	91.38
374.739	75.38
374.965	92.38
375.191	100.38
375.416	88.38
375.642	100.38
375.868	73.38
376.094	77.38
376.319	83.38
376.545	87.38
376.771	87.38
376.997	81.38
377.222	77.38
377.448	94.38
377.674	88.38
377.899	87.38
378.125	83.38
378.35	74.38
378.576	83.38
378.802	74.38
379.027	88.38
379.253	93.38
379.478	86.38
379.704	85.38
379.929	82.38
380.155	82.38
380.38	91.38
380.606	84.38
380.831	83.38
381.057	95.38
381.282	80.38
381.507	89.38
381.733	85.38
381.958	88.38
382.184	95.38
382.409	88.38
382.634	83.38
382.86	89.38
383.085	91.38
383.31	90.38
383.535	81.38
383.761	89.38
383.986	83.38
384.211	84.38
384.436	85.38
384.662	84.38
384.887	87.38
385.112	83.38
385.337	90.38
385.562	82.38
385.787	81.38
386.013	99.38
386.238	84.38
386.463	83.38
386.688	95.38
386.913	94.38
387.138	77.38
387.363	82.38
387.588	95.38
387.813	76.38
388.038	85.38
388.263	82.38
388.488	84.38
388.713	92.38
388.938	104.38
389.163	83.38
389.387	103.38
389.612	90.38
389.837	95.38
390.062	85.38
390.287	90.38
390.512	90.38
390.736	94.38
390.961	84.38
391.186	93.38
391.411	81.38
391.636	96.38
391.86	91.38
392.085	95.38
392.31	103.38
392.534	100.38
392.759	84.38
392.984	90.38
393.208	67.38
393.433	83.38
393.658	100.38
393.882	98.38
394.107	78.38
394.331	85.38
394.556	85.38
394.78	90.38
395.005	81.38
395.229	86.38
395.454	83.38
395.678	98.38
395.903	92.38
396.127	100.38
396.352	78.38
396.576	106.38
396.801	75.38
397.025	78.38
397.249	82.38
397.474	95.38
397.698	86.38
397.922	76.38
398.147	89.38
398.371	88.38
398.595	84.38
398.82	96.38
399.044	91.38
399.268	89.38
399.492	89.38
399.717	92.38
399.941	89.38
400.165	100.38
400.389	88.38
400.613	85.38
400.837	88.38
401.062	89.38
401.286	89.38
401.51	93.38
401.734	91.38
401.958	92.38
402.182	93.38
402.406	85.38
402.63	75.38
402.854	94.38
403.078	77.38
403.302	70.38
403.526	91.38
403.75	92.38
403.974	86.38
404.198	87.38
404.422	87.38
404.645	82.38
404.869	111.38
405.093	95.38
405.317	99.38
405.541	95.38
405.765	85.38
405.988	89.38
406.212	105.38
406.436	101.38
406.66	90.38
406.883	104.38
407.107	79.38
407.331	102.38
407.555	83.38
407.778	97.38
408.002	83.38
408.226	86.38
408.449	84.38
408.673	86.38
408.896	83.38
409.12	95.38
409.344	94.38
409.567	92.38
409.791	92.38
410.014	84.38
410.238	88.38
410.461	96.38
410.685	97.38
410.908	103.38
411.132	102.38
411.355	94.38
411.578	95.38
411.802	108.38
412.025	91.38
412.249	85.38
412.472	99.38
412.695	94.38
412.919	101.38
413.142	98.38
413.365	89.38
413.589	89.38
413.812	96.38
414.035	85.38
414.258	111.38
414.482	93.38
414.705	97.38
414.928	94.38
415.151	86.38
415.374	80.38
415.597	80.38
415.821	85.38
416.044	94.38
416.267	84.38
416.49	90.38
416.713	95.38
416.936	91.38
417.159	91.38
417.382	85.38
417.605	90.38
417.828	103.38
418.051	93.38
418.274	103.38
418.497	76.38
418.72	98.38
418.943	91.38
419.166	95.38
419.389	97.38
419.611	86.38
419.834	83.38
420.057	101.38
420.28	94.38
420.503	73.38
420.726	92.38
420.948	98.38
421.171	89.38
421.394	90.38
421.617	80.38
421.839	107.38
422.062	113.38
422.285	96.38
422.507	106.38
422.73	83.38
422.953	94.38
423.175	101.38
423.398	102.38
423.621	92.38
423.843	87.38
424.066	82.38
424.288	86.38
424.511	98.38
424.733	107.38
424.956	99.38
425.178	100.38
425.401	100.38
425.623	102.38
425.846	94.38
426.068	83.38
426.291	86.38
426.513	98.38
426.735	96.38
426.958	91.38
427.18	100.38
427.402	86.38
427.625	93.38
427.847	90.38
428.069	88.38
428.292	97.38
428.514	92.38
428.736	105.38
428.958	103.38
429.181	97.38
429.403	99.38
429.625	92.38
429.847	95.38
430.069	99.38
430.292	99.38
430.514	85.38
430.736	100.38
430.958	97.38
431.18	103.38
431.402	92.38
431.624	94.38
431.846	89.38
432.068	91.38
432.29	84.38
432.512	97.38
432.734	99.38
432.956	103.38
433.178	102.38
433.4	105.38
433.622	96.38
433.844	76.38
434.066	93.38
434.287	92.38
434.509	84.38
434.731	100.38
434.953	87.38
435.175	97.38
435.397	89.38
435.618	100.38
435.84	105.38
436.062	100.38
436.284	97.38
436.505	72.38
436.727	89.38
436.949	103.38
437.17	99.38
437.392	103.38
437.614	104.38
437.835	89.38
438.057	93.38
438.278	87.38
438.5	95.38
438.721	109.38
438.943	104.38
439.165	86.38
439.386	97.38
439.608	82.38
439.829	97.38
440.05	103.38
440.272	99.38
440.493	93.38
440.715	90.38
440.936	89.38
441.158	98.38
441.379	99.38
441.6	95.38
441.822	105.38
442.043	102.38
442.264	93.38
442.486	93.38
442.707	89.38
442.928	105.38
443.149	87.38
443.371	91.38
443.592	99.38
443.813	100.38
444.034	93.38
444.255	97.38
444.476	93.38
444.698	93.38
444.919	98.38
445.14	231.38
445.361	165.38
445.582	108.38
445.803	99.38
446.024	100.38
446.245	95.38
446.466	112.38
446.687	102.38
446.908	100.38
447.129	94.38
447.35	105.38
447.571	113.38
447.792	89.38
448.013	95.38
448.234	108.38
448.455	112.38
448.675	104.38
448.896	106.38
449.117	95.38
449.338	100.38
449.559	92.38
449.779	93.38
450	101.38
450.221	93.38
450.442	90.38
450.662	108.38
450.883	102.38
451.104	90.38
451.324	96.38
451.545	99.38
451.766	95.38
451.986	85.38
452.207	102.38
452.428	97.38
452.648	99.38
452.869	93.38
453.089	104.38
453.31	81.38
453.53	77.38
453.751	89.38
453.971	89.38
454.192	89.38
454.412	94.38
454.633	93.38
454.853	94.38
455.073	89.38
455.294	94.38
455.514	92.38
455.734	106.38
455.955	84.38
456.175	84.38
456.395	91.38
456.616	89.38
456.836	79.38
457.056	85.38
457.276	96.38
457.497	82.38
457.717	81.38
457.937	72.38
458.157	79.38
458.377	92.38
458.598	88.38
458.818	97.38
459.038	87.38
459.258	70.38
459.478	89.38
459.698	74.38
459.918	90.38
460.138	96.38
460.358	88.38
460.578	93.38
460.798	90.38
461.018	95.38
461.238	85.38
461.458	96.38
461.678	96.38
461.898	74.38
462.118	83.38
462.338	91.38
462.558	93.38
462.777	96.38
462.997	99.38
463.217	83.38
463.437	92.38
463.657	83.38
463.876	82.38
464.096	83.38
464.316	88.38
464.536	93.38
464.755	102.38
464.975	91.38
465.195	90.38
465.414	96.38
465.634	84.38
465.854	87.38
466.073	94.38
466.293	92.38
466.512	83.38
466.732	95.38
466.951	99.38
467.171	92.38
467.391	99.38
467.61	90.38
467.829	108.38
468.049	80.38
468.268	70.38
468.488	91.38
468.707	85.38
468.927	102.38
469.146	101.38
469.365	94.38
469.585	96.38
469.804	102.38
470.023	85.38
470.243	104.38
470.462	109.38
470.681	102.38
470.901	94.38
471.12	96.38
471.339	94.38
471.558	96.38
471.777	88.38
471.997	96.38
472.216	114.38
472.435	94.38
472.654	85.38
472.873	89.38
473.092	85.38
473.311	87.38
473.53	96.38
473.749	104.38
473.968	96.38
474.187	103.38
474.406	89.38
474.625	97.38
474.844	91.38
475.063	95.38
475.282	98.38
475.501	95.38
475.72	99.38
475.939	92.38
476.158	94.38
476.377	96.38
476.596	100.38
476.814	92.38
477.033	80.38
477.252	84.38
477.471	105.38
477.69	92.38
477.908	99.38
478.127	108.38
478.346	102.38
478.564	97.38
478.783	88.38
479.002	94.38
479.22	103.38
479.439	86.38
479.658	91.38
479.876	95.38
480.095	92.38
480.313	89.38
480.532	96.38
480.751	82.38
480.969	85.38
481.188	76.38
481.406	76.38
481.624	92.38
481.843	77.38
482.061	91.38
482.28	100.38
482.498	98.38
482.717	81.38
482.935	97.38
483.153	100.38
483.372	84.38
483.59	99.38
483.808	103.38
484.027	104.38
484.245	104.38
484.463	93.38
484.681	117.38
484.9	103.38
485.118	114.38
485.336	95.38
485.554	84.38
485.772	77.38
485.99	87.38
486.209	93.38
486.427	97.38
486.645	89.38
486.863	100.38
487.081	92.38
487.299	93.38
487.517	105.38
487.735	105.38
487.953	115.38
488.171	113.38
488.389	110.38
488.607	100.38
488.825	97.38
489.043	104.38
489.261	93.38
489.479	92.38
489.696	104.38
489.914	96.38
490.132	105.38
490.35	109.38
490.568	94.38
490.786	108.38
491.003	102.38
491.221	113.38
491.439	106.38
491.657	109.38
491.874	122.38
492.092	125.38
492.31	120.38
492.527	122.38
492.745	112.38
492.963	121.38
493.18	115.38
493.398	109.38
493.615	125.38
493.833	123.38
494.05	109.38
494.268	105.38
494.485	117.38
494.703	104.38
494.92	94.38
495.138	96.38
495.355	103.38
495.573	120.38
495.79	117.38
496.008	103.38
496.225	107.38
496.442	116.38
496.66	113.38
496.877	121.38
497.094	104.38
497.312	95.38
497.529	98.38
497.746	104.38
497.963	97.38
498.181	97.38
498.398	93.38
498.615	93.38
498.832	91.38
499.049	110.38
499.267	92.38
499.484	108.38
499.701	86.38
499.918	87.38
500.135	97.38
500.352	113.38
500.569	95.38
500.786	95.38
501.003	114.38
501.22	91.38
501.437	101.38
501.654	87.38
501.871	77.38
502.088	104.38
502.305	97.38
502.522	95.38
502.739	83.38
502.956	93.38
503.172	89.38
503.389	87.38
503.606	78.38
503.823	93.38
504.04	85.38
504.256	100.38
504.473	90.38
504.69	87.38
504.907	99.38
505.123	88.38
505.34	97.38
505.557	92.38
505.773	101.38
505.99	99.38
506.207	86.38
506.423	80.38
506.64	107.38
506.856	71.38
507.073	91.38
507.289	88.38
507.506	89.38
507.722	108.38
507.939	82.38
508.155	89.38
508.372	104.38
508.588	87.38
508.805	102.38
509.021	92.38
509.238	71.38
509.454	77.38
509.67	99.38
509.887	93.38
510.103	89.38
510.319	80.38
510.536	77.38
510.752	68.38
510.968	92.38
511.184	76.38
511.401	86.38
511.617	92.38
511.833	79.38
512.049	80.38
512.265	97.38
512.481	83.38
512.698	83.38
512.914	81.38
513.13	95.38
513.346	87.38
513.562	76.38
513.778	79.38
513.994	98.38
514.21	85.38
514.426	85.38
514.642	83.38
514.858	90.38
515.074	88.38
515.29	88.38
515.506	79.38
515.721	77.38
515.937	89.38
516.153	76.38
516.369	85.38
516.585	88.38
516.801	89.38
517.016	91.38
517.232	75.38
517.448	72.38
517.664	91.38
517.879	96.38
518.095	76.38
518.311	71.38
518.527	88.38
518.742	87.38
518.958	90.38
519.173	87.38
519.389	88.38
519.605	80.38
519.82	83.38
520.036	84.38
520.251	102.38
520.467	94.38
520.682	85.38
520.898	80.38
521.113	90.38
521.329	91.38
521.544	85.38
521.76	92.38
521.975	85.38
522.19	84.38
522.406	88.38
522.621	90.38
522.836	91.38
523.052	89.38
523.267	102.38
523.482	85.38
523.698	80.38
523.913	87.38
524.128	82.38
524.343	94.38
524.559	98.38
524.774	86.38
524.989	105.38
525.204	100.38
525.419	96.38
525.634	97.38
525.849	96.38
526.064	89.38
526.28	90.38
526.495	69.38
526.71	63.38
526.925	79.38
527.14	81.38
527.355	70.38
527.57	90.38
527.785	85.38
527.999	85.38
528.214	88.38
528.429	99.38
528.644	95.38
528.859	88.38
529.074	111.38
529.289	110.38
529.503	96.38
529.718	92.38
529.933	103.38
530.148	95.38
530.363	93.38
530.577	79.38
530.792	79.38
531.007	79.38
531.221	93.38
531.436	77.38
531.651	83.38
531.865	82.38
532.08	84.38
532.295	93.38
532.509	97.38
532.724	73.38
532.938	78.38
533.153	83.38
533.367	98.38
533.582	100.38
533.796	86.38
534.011	92.38
534.225	88.38
534.44	81.38
534.654	81.38
534.868	77.38
535.083	88.38
535.297	89.38
535.511	88.38
535.726	85.38
535.94	89.38
536.154	88.38
536.369	90.38
536.583	86.38
536.797	92.38
537.011	85.38
537.225	80.38
537.44	83.38
537.654	95.38
537.868	80.38
538.082	100.38
538.296	94.38
538.51	91.38
538.724	85.38
538.938	87.38
539.153	85.38
539.367	97.38
539.581	99.38
539.795	96.38
540.009	112.38
540.222	89.38
540.436	91.38
540.65	103.38
540.864	104.38
541.078	108.38
541.292	115.38
541.506	114.38
541.72	100.38
541.934	117.38
542.147	123.38
542.361	119.38
542.575	108.38
542.789	105.38
543.002	112.38
543.216	100.38
543.43	107.38
543.644	100.38
543.857	103.38
544.071	111.38
544.285	106.38
544.498	115.38
544.712	104.38
544.925	119.38
545.139	99.38
545.352	101.38
545.566	108.38
545.779	104.38
545.993	123.38
546.206	105.38
546.42	115.38
546.633	126.38
546.847	106.38
547.06	114.38
547.274	116.38
547.487	121.38
547.7	111.38
547.914	121.38
548.127	105.38
548.34	106.38
548.554	108.38
548.767	93.38
548.98	97.38
549.193	115.38
549.407	122.38
549.62	95.38
549.833	108.38
550.046	103.38
550.259	101.38
550.473	106.38
550.686	104.38
550.899	105.38
551.112	106.38
551.325	95.38
551.538	118.38
551.751	85.38
551.964	99.38
552.177	90.38
552.39	100.38
552.603	99.38
552.816	107.38
553.029	108.38
553.242	99.38
553.455	113.38
553.667	108.38
553.88	95.38
554.093	92.38
554.306	100.38
554.519	114.38
554.732	99.38
554.944	108.38
555.157	101.38
555.37	101.38
555.583	93.38
555.795	102.38
556.008	108.38
556.221	81.38
556.433	101.38
556.646	86.38
556.859	93.38
557.071	108.38
557.284	106.38
557.496	98.38
557.709	102.38
557.921	101.38
558.134	104.38
558.346	102.38
558.559	94.38
558.771	90.38
558.984	91.38
559.196	113.38
559.409	89.38
559.621	97.38
559.833	99.38
560.046	87.38
560.258	109.38
560.47	98.38
560.683	90.38
560.895	103.38
561.107	97.38
561.32	92.38
561.532	92.38
561.744	106.38
561.956	103.38
562.168	100.38
562.381	92.38
562.593	100.38
562.805	95.38
563.017	98.38
563.229	104.38
563.441	100.38
563.653	103.38
563.865	100.38
564.077	102.38
564.289	104.38
564.501	98.38
564.713	89.38
564.925	100.38
565.137	97.38
565.349	87.38
565.561	106.38
565.773	99.38
565.985	89.38
566.197	85.38
566.408	99.38
566.62	90.38
566.832	87.38
567.044	116.38
567.255	88.38
567.467	98.38
567.679	89.38
567.891	98.38
568.102	81.38
568.314	73.38
568.526	101.38
568.737	86.38
568.949	85.38
569.161	96.38
569.372	74.38
569.584	85.38
569.795	88.38
570.007	100.38
570.218	82.38
570.43	77.38
570.641	85.38
570.853	76.38
571.064	93.38
571.276	101.38
571.487	77.38
571.698	86.38
571.91	91.38
572.121	100.38
572.333	100.38
572.544	87.38
572.755	84.38
572.966	81.38
573.178	86.38
573.389	100.38
573.6	92.38
573.811	85.38
574.023	88.38
574.234	81.38
574.445	80.38
574.656	90.38
574.867	79.38
575.078	85.38
575.289	83.38
575.501	90.38
575.712	70.38
575.923	92.38
576.134	77.38
576.345	92.38
576.556	98.38
576.767	85.38
576.978	85.38
577.188	94.38
577.399	89.38
577.61	99.38
577.821	91.38
578.032	90.38
578.243	90.38
578.454	83.38
578.665	104.38
578.875	83.38
579.086	90.38
579.297	75.38
579.508	83.38
579.718	81.38
579.929	89.38
580.14	86.38
580.35	92.38
580.561	72.38
580.772	97.38
580.982	99.38
581.193	91.38
581.403	86.38
581.614	86.38
581.825	87.38
582.035	86.38
582.246	83.38
582.456	83.38
582.667	100.38
582.877	92.38
583.087	97.38
583.298	85.38
583.508	82.38
583.719	87.38
583.929	89.38
584.139	87.38
584.35	89.38
584.56	100.38
584.77	99.38
584.981	83.38
585.191	83.38
585.401	91.38
585.611	99.38
585.821	96.38
586.032	88.38
586.242	101.38
586.452	86.38
586.662	70.38
586.872	82.38
587.082	81.38
587.292	76.38
587.502	90.38
587.713	87.38
587.923	75.38
588.133	101.38
588.343	87.38
588.553	96.38
588.762	100.38
588.972	89.38
589.182	86.38
589.392	97.38
589.602	83.38
589.812	101.38
590.022	94.38
590.232	81.38
590.441	79.38
590.651	88.38
590.861	100.38
591.071	83.38
591.281	92.38
591.49	87.38
591.7	90.38
591.91	84.38
592.119	88.38
592.329	95.38
592.539	92.38
592.748	84.38
592.958	85.38
593.167	79.38
593.377	95.38
593.587	88.38
593.796	67.38
594.006	79.38
594.215	80.38
594.424	99.38
594.634	92.38
594.843	95.38
595.053	90.38
595.262	96.38
595.472	85.38
595.681	95.38
595.89	77.38
596.1	83.38
596.309	90.38
596.518	97.38
596.727	99.38
596.937	80.38
597.146	90.38
597.355	75.38
597.564	85.38
597.774	91.38
597.983	84.38
598.192	88.38
598.401	90.38
598.61	95.38
598.819	101.38
599.028	87.38
599.237	98.38
599.446	86.38
599.655	88.38
599.864	79.38
600.073	80.38
600.282	86.38
600.491	88.38
600.7	89.38
600.909	85.38
601.118	83.38
601.327	90.38
601.536	85.38
601.745	84.38
601.953	84.38
602.162	85.38
602.371	77.38
602.58	100.38
602.789	87.38
602.997	95.38
603.206	97.38
603.415	102.38
603.623	91.38
603.832	91.38
604.041	76.38
604.249	83.38
604.458	81.38
604.666	85.38
604.875	96.38
605.084	91.38
605.292	95.38
605.501	95.38
605.709	92.38
605.918	95.38
606.126	89.38
606.334	93.38
606.543	93.38
606.751	91.38
606.96	101.38
607.168	76.38
607.376	91.38
607.585	104.38
607.793	99.38
608.001	105.38
608.21	95.38
608.418	98.38
608.626	86.38
608.834	81.38
609.043	103.38
609.251	89.38
609.459	84.38
609.667	108.38
609.875	65.38
610.083	87.38
610.291	83.38
610.499	92.38
610.707	92.38
610.916	93.38
611.124	83.38
611.332	85.38
611.54	96.38
611.748	93.38
611.955	89.38
612.163	81.38
612.371	98.38
612.579	102.38
612.787	99.38
612.995	98.38
613.203	99.38
613.411	108.38
613.618	101.38
613.826	81.38
614.034	90.38
614.242	97.38
614.449	93.38
614.657	91.38
614.865	102.38
615.072	89.38
615.28	105.38
615.488	86.38
615.695	82.38
615.903	102.38
616.111	95.38
616.318	98.38
616.526	95.38
616.733	93.38
616.941	93.38
617.148	100.38
617.356	94.38
617.563	101.38
617.771	98.38
617.978	89.38
618.185	95.38
618.393	95.38
618.6	92.38
618.807	87.38
619.015	82.38
619.222	88.38
619.429	83.38
619.637	86.38
619.844	95.38
620.051	86.38
620.258	99.38
620.466	82.38
620.673	94.38
620.88	82.38
621.087	86.38
621.294	92.38
621.501	91.38
621.708	96.38
621.915	87.38
622.122	95.38
622.329	87.38
622.536	94.38
622.743	82.38
622.95	103.38
623.157	82.38
623.364	86.38
623.571	89.38
623.778	96.38
623.985	104.38
624.192	86.38
624.399	87.38
624.606	103.38
624.812	84.38
625.019	95.38
625.226	96.38
625.433	94.38
625.639	98.38
625.846	97.38
626.053	87.38
626.259	77.38
626.466	98.38
626.673	78.38
626.879	86.38
627.086	89.38
627.293	84.38
627.499	86.38
627.706	96.38
627.912	92.38
628.119	82.38
628.325	91.38
628.532	96.38
628.738	97.38
628.945	93.38
629.151	98.38
629.357	96.38
629.564	91.38
629.77	85.38
629.976	95.38
630.183	80.38
630.389	104.38
630.595	95.38
630.802	70.38
631.008	88.38
631.214	83.38
631.42	95.38
631.627	93.38
631.833	76.38
632.039	84.38
632.245	109.38
632.451	100.38
632.657	93.38
632.863	99.38
633.069	77.38
633.275	90.38
633.481	92.38
633.688	91.38
633.893	103.38
634.099	93.38
634.305	91.38
634.511	81.38
634.717	82.38
634.923	83.38
635.129	91.38
635.335	87.38
635.541	92.38
635.747	89.38
635.952	85.38
636.158	87.38
636.364	88.38
636.57	97.38
636.775	96.38
636.981	96.38
637.187	81.38
637.392	74.38
637.598	83.38
637.804	80.38
638.009	91.38
638.215	95.38
638.421	78.38
638.626	88.38
638.832	106.38
639.037	75.38
639.243	99.38
639.448	86.38
639.654	97.38
639.859	85.38
640.065	96.38
640.27	103.38
640.475	81.38
640.681	86.38
640.886	98.38
641.091	90.38
641.297	100.38
641.502	76.38
641.707	104.38
641.913	103.38
642.118	80.38
642.323	74.38
642.528	86.38
642.733	99.38
642.939	92.38
643.144	86.38
643.349	81.38
643.554	96.38
643.759	87.38
643.964	81.38
644.169	93.38
644.374	87.38
644.579	91.38
644.784	77.38
644.989	70.38
645.194	92.38
645.399	86.38
645.604	109.38
645.809	82.38
646.014	93.38
646.219	85.38
646.423	80.38
646.628	98.38
646.833	79.38
647.038	101.38
647.243	113.38
647.447	93.38
647.652	79.38
647.857	92.38
648.062	87.38
648.266	80.38
648.471	80.38
648.676	82.38
648.88	78.38
649.085	87.38
649.289	85.38
649.494	85.38
649.698	90.38
649.903	93.38
650.107	80.38
650.312	98.38
650.516	90.38
650.721	94.38
650.925	93.38
651.13	100.38
651.334	74.38
651.539	80.38
651.743	95.38
651.947	78.38
652.152	87.38
652.356	94.38
652.56	88.38
652.764	81.38
652.969	103.38
653.173	86.38
653.377	87.38
653.581	90.38
653.785	85.38
653.99	90.38
654.194	89.38
654.398	82.38
654.602	78.38
654.806	87.38
655.01	88.38
655.214	95.38
655.418	91.38
655.622	92.38
655.826	100.38
656.03	96.38
656.234	80.38
656.438	77.38
656.642	89.38
656.846	76.38
657.049	85.38
657.253	100.38
657.457	80.38
657.661	89.38
657.865	83.38
658.068	85.38
658.272	81.38
658.476	92.38
658.68	84.38
658.883	83.38
659.087	83.38
659.291	99.38
659.494	78.38
659.698	84.38
659.901	92.38
660.105	84.38
660.309	83.38
660.512	83.38
660.716	87.38
660.919	80.38
661.123	83.38
661.326	83.38
661.53	72.38
661.733	78.38
661.936	97.38
662.14	84.38
662.343	89.38
662.546	81.38
662.75	99.38
662.953	70.38
663.156	76.38
663.36	76.38
663.563	89.38
663.766	80.38
663.969	89.38
664.173	89.38
664.376	85.38
664.579	80.38
664.782	84.38
664.985	80.38
665.188	78.38
665.391	92.38
665.594	79.38
665.797	84.38
666	103.38
666.203	78.38
666.406	81.38
666.609	88.38
666.812	89.38
667.015	97.38
667.218	92.38
667.421	80.38
667.624	72.38
667.827	76.38
668.03	81.38
668.232	69.38
668.435	88.38
668.638	87.38
668.841	84.38
669.043	84.38
669.246	74.38
669.449	76.38
669.651	80.38
669.854	81.38
670.057	89.38
670.259	80.38
670.462	85.38
670.665	82.38
670.867	93.38
671.07	81.38
671.272	83.38
671.475	84.38
671.677	78.38
671.88	99.38
672.082	75.38
672.284	75.38
672.487	76.38
672.689	70.38
672.892	86.38
