Data from Location4.07152019.Energy5.Lamp.07192019.3%Agarose_HRD10591_15-23-25-577.txt Node
Date: Fri Jul 19 15:23:25 EDT 2019
User: cochatt
Spectrometer: HR+D1059
Trigger mode: 1
Integration Time (sec): 1.000000E-1
Scans to average: 1
Electric dark correction enabled: true
Nonlinearity correction enabled: false
Boxcar width: 0
XAxis mode: Wavelengths
Number of Pixels in Spectrum: 2048
>>>>>Begin Spectral Data<<<<<
223.165	-10.62
223.4	-10.62
223.635	-10.62
223.869	-19.62
224.104	-16.62
224.338	-8.62
224.573	-16.62
224.808	-2.62
225.042	-14.62
225.277	3.38
225.511	13.38
225.746	-9.62
225.98	5.38
226.215	8.38
226.449	20.38
226.683	5.38
226.918	16.38
227.152	26.38
227.387	28.38
227.621	35.38
227.856	33.38
228.09	57.38
228.324	40.38
228.559	67.38
228.793	51.38
229.027	63.38
229.262	65.38
229.496	78.38
229.73	76.38
229.964	75.38
230.199	85.38
230.433	85.38
230.667	82.38
230.901	72.38
231.136	66.38
231.37	85.38
231.604	83.38
231.838	79.38
232.072	82.38
232.306	73.38
232.541	87.38
232.775	83.38
233.009	83.38
233.243	68.38
233.477	90.38
233.711	92.38
233.945	80.38
234.179	75.38
234.413	96.38
234.647	79.38
234.881	88.38
235.115	76.38
235.349	93.38
235.583	86.38
235.817	83.38
236.051	86.38
236.285	73.38
236.519	74.38
236.753	95.38
236.987	80.38
237.221	80.38
237.455	67.38
237.689	94.38
237.922	83.38
238.156	68.38
238.39	85.38
238.624	64.38
238.858	84.38
239.091	80.38
239.325	76.38
239.559	91.38
239.793	88.38
240.027	75.38
240.26	83.38
240.494	76.38
240.728	67.38
240.961	72.38
241.195	87.38
241.429	85.38
241.662	79.38
241.896	77.38
242.13	80.38
242.363	73.38
242.597	91.38
242.83	86.38
243.064	81.38
243.298	87.38
243.531	82.38
243.765	85.38
243.998	82.38
244.232	65.38
244.465	81.38
244.699	83.38
244.932	92.38
245.166	69.38
245.399	78.38
245.633	79.38
245.866	80.38
246.099	74.38
246.333	74.38
246.566	75.38
246.8	73.38
247.033	81.38
247.266	95.38
247.5	77.38
247.733	83.38
247.966	82.38
248.2	82.38
248.433	74.38
248.666	80.38
248.899	75.38
249.133	98.38
249.366	88.38
249.599	81.38
249.832	83.38
250.066	67.38
250.299	86.38
250.532	99.38
250.765	86.38
250.998	84.38
251.231	84.38
251.465	85.38
251.698	95.38
251.931	74.38
252.164	76.38
252.397	90.38
252.63	82.38
252.863	76.38
253.096	98.38
253.329	87.38
253.562	104.38
253.795	89.38
254.028	97.38
254.261	93.38
254.494	86.38
254.727	65.38
254.96	79.38
255.193	84.38
255.426	84.38
255.659	91.38
255.892	94.38
256.124	82.38
256.357	87.38
256.59	78.38
256.823	78.38
257.056	90.38
257.289	86.38
257.521	80.38
257.754	88.38
257.987	89.38
258.22	97.38
258.452	94.38
258.685	94.38
258.918	96.38
259.151	101.38
259.383	87.38
259.616	69.38
259.849	88.38
260.081	72.38
260.314	87.38
260.547	86.38
260.779	86.38
261.012	88.38
261.244	98.38
261.477	89.38
261.71	89.38
261.942	84.38
262.175	99.38
262.407	82.38
262.64	92.38
262.872	76.38
263.105	73.38
263.337	90.38
263.57	93.38
263.802	85.38
264.035	88.38
264.267	84.38
264.499	78.38
264.732	83.38
264.964	94.38
265.197	91.38
265.429	77.38
265.661	77.38
265.894	84.38
266.126	89.38
266.358	91.38
266.591	75.38
266.823	86.38
267.055	87.38
267.287	87.38
267.52	86.38
267.752	80.38
267.984	102.38
268.216	77.38
268.448	85.38
268.681	89.38
268.913	85.38
269.145	92.38
269.377	93.38
269.609	90.38
269.841	89.38
270.073	98.38
270.306	86.38
270.538	81.38
270.77	77.38
271.002	94.38
271.234	81.38
271.466	83.38
271.698	91.38
271.93	76.38
272.162	90.38
272.394	86.38
272.626	70.38
272.858	85.38
273.09	90.38
273.322	87.38
273.553	78.38
273.785	81.38
274.017	79.38
274.249	81.38
274.481	94.38
274.713	98.38
274.945	76.38
275.176	84.38
275.408	89.38
275.64	92.38
275.872	90.38
276.104	87.38
276.335	91.38
276.567	75.38
276.799	78.38
277.031	89.38
277.262	82.38
277.494	83.38
277.726	85.38
277.957	87.38
278.189	93.38
278.421	88.38
278.652	86.38
278.884	95.38
279.115	88.38
279.347	90.38
279.579	89.38
279.81	101.38
280.042	72.38
280.273	73.38
280.505	83.38
280.736	90.38
280.968	91.38
281.199	99.38
281.431	91.38
281.662	100.38
281.894	85.38
282.125	85.38
282.356	97.38
282.588	81.38
282.819	80.38
283.051	92.38
283.282	84.38
283.513	93.38
283.745	77.38
283.976	92.38
284.207	78.38
284.439	89.38
284.67	89.38
284.901	93.38
285.132	85.38
285.364	107.38
285.595	72.38
285.826	90.38
286.057	75.38
286.288	81.38
286.52	89.38
286.751	75.38
286.982	98.38
287.213	88.38
287.444	93.38
287.675	107.38
287.906	86.38
288.138	83.38
288.369	88.38
288.6	88.38
288.831	77.38
289.062	90.38
289.293	86.38
289.524	91.38
289.755	105.38
289.986	75.38
290.217	82.38
290.448	79.38
290.679	103.38
290.91	85.38
291.141	83.38
291.371	79.38
291.602	80.38
291.833	89.38
292.064	89.38
292.295	86.38
292.526	89.38
292.757	90.38
292.987	81.38
293.218	96.38
293.449	89.38
293.68	89.38
293.91	85.38
294.141	94.38
294.372	108.38
294.603	95.38
294.833	95.38
295.064	93.38
295.295	92.38
295.525	92.38
295.756	104.38
295.987	90.38
296.217	91.38
296.448	78.38
296.679	82.38
296.909	75.38
297.14	100.38
297.37	91.38
297.601	86.38
297.831	88.38
298.062	85.38
298.292	80.38
298.523	83.38
298.753	88.38
298.984	82.38
299.214	93.38
299.445	94.38
299.675	84.38
299.905	95.38
300.136	84.38
300.366	82.38
300.597	87.38
300.827	101.38
301.057	82.38
301.288	72.38
301.518	71.38
301.748	76.38
301.979	70.38
302.209	82.38
302.439	88.38
302.669	77.38
302.9	82.38
303.13	73.38
303.36	92.38
303.59	71.38
303.82	87.38
304.051	85.38
304.281	78.38
304.511	88.38
304.741	90.38
304.971	98.38
305.201	89.38
305.431	90.38
305.661	80.38
305.891	78.38
306.121	85.38
306.352	88.38
306.582	87.38
306.812	91.38
307.042	82.38
307.272	76.38
307.502	84.38
307.731	82.38
307.961	80.38
308.191	87.38
308.421	85.38
308.651	92.38
308.881	96.38
309.111	93.38
309.341	81.38
309.571	86.38
309.8	90.38
310.03	86.38
310.26	94.38
310.49	88.38
310.72	89.38
310.949	87.38
311.179	91.38
311.409	84.38
311.639	82.38
311.868	79.38
312.098	87.38
312.328	91.38
312.557	78.38
312.787	90.38
313.017	93.38
313.246	82.38
313.476	77.38
313.706	99.38
313.935	95.38
314.165	80.38
314.394	76.38
314.624	74.38
314.853	92.38
315.083	102.38
315.312	104.38
315.542	90.38
315.771	86.38
316.001	78.38
316.23	82.38
316.46	84.38
316.689	86.38
316.919	72.38
317.148	82.38
317.377	89.38
317.607	89.38
317.836	94.38
318.065	89.38
318.295	95.38
318.524	75.38
318.753	79.38
318.983	95.38
319.212	89.38
319.441	86.38
319.67	97.38
319.9	82.38
320.129	94.38
320.358	83.38
320.587	82.38
320.816	95.38
321.046	88.38
321.275	94.38
321.504	80.38
321.733	84.38
321.962	103.38
322.191	87.38
322.42	90.38
322.649	81.38
322.878	80.38
323.108	87.38
323.337	87.38
323.566	94.38
323.795	75.38
324.024	84.38
324.253	69.38
324.482	91.38
324.71	85.38
324.939	78.38
325.168	78.38
325.397	98.38
325.626	74.38
325.855	84.38
326.084	81.38
326.313	86.38
326.542	94.38
326.77	91.38
326.999	88.38
327.228	90.38
327.457	85.38
327.686	80.38
327.914	76.38
328.143	86.38
328.372	83.38
328.6	82.38
328.829	85.38
329.058	87.38
329.287	87.38
329.515	95.38
329.744	81.38
329.972	76.38
330.201	85.38
330.43	83.38
330.658	76.38
330.887	66.38
331.115	90.38
331.344	98.38
331.572	86.38
331.801	77.38
332.03	85.38
332.258	86.38
332.486	81.38
332.715	87.38
332.943	82.38
333.172	84.38
333.4	93.38
333.629	101.38
333.857	95.38
334.085	79.38
334.314	89.38
334.542	93.38
334.771	86.38
334.999	91.38
335.227	95.38
335.455	87.38
335.684	90.38
335.912	102.38
336.14	109.38
336.369	89.38
336.597	88.38
336.825	85.38
337.053	87.38
337.281	98.38
337.51	83.38
337.738	83.38
337.966	93.38
338.194	78.38
338.422	99.38
338.65	84.38
338.878	102.38
339.106	81.38
339.334	84.38
339.562	93.38
339.79	85.38
340.018	84.38
340.246	78.38
340.474	77.38
340.702	91.38
340.93	85.38
341.158	86.38
341.386	90.38
341.614	99.38
341.842	84.38
342.07	62.38
342.298	80.38
342.526	93.38
342.754	83.38
342.981	101.38
343.209	80.38
343.437	80.38
343.665	80.38
343.893	85.38
344.12	84.38
344.348	93.38
344.576	86.38
344.804	78.38
345.031	92.38
345.259	71.38
345.487	76.38
345.714	84.38
345.942	84.38
346.17	88.38
346.397	104.38
346.625	92.38
346.853	93.38
347.08	94.38
347.308	80.38
347.535	87.38
347.763	89.38
347.99	88.38
348.218	84.38
348.445	90.38
348.673	107.38
348.9	82.38
349.128	76.38
349.355	92.38
349.583	81.38
349.81	74.38
350.037	82.38
350.265	88.38
350.492	73.38
350.72	101.38
350.947	81.38
351.174	98.38
351.402	93.38
351.629	84.38
351.856	70.38
352.083	80.38
352.311	84.38
352.538	76.38
352.765	94.38
352.992	79.38
353.22	98.38
353.447	90.38
353.674	90.38
353.901	86.38
354.128	102.38
354.355	82.38
354.583	63.38
354.81	92.38
355.037	75.38
355.264	88.38
355.491	87.38
355.718	93.38
355.945	84.38
356.172	82.38
356.399	93.38
356.626	73.38
356.853	91.38
357.08	68.38
357.307	89.38
357.534	79.38
357.761	69.38
357.988	85.38
358.215	86.38
358.441	74.38
358.668	90.38
358.895	74.38
359.122	78.38
359.349	86.38
359.576	99.38
359.802	93.38
360.029	94.38
360.256	89.38
360.483	77.38
360.709	104.38
360.936	86.38
361.163	92.38
361.39	89.38
361.616	85.38
361.843	78.38
362.07	68.38
362.296	85.38
362.523	82.38
362.749	89.38
362.976	73.38
363.203	97.38
363.429	96.38
363.656	97.38
363.882	85.38
364.109	88.38
364.335	92.38
364.562	93.38
364.788	83.38
365.015	85.38
365.241	92.38
365.468	78.38
365.694	101.38
365.92	91.38
366.147	85.38
366.373	94.38
366.599	89.38
366.826	85.38
367.052	69.38
367.278	79.38
367.505	71.38
367.731	77.38
367.957	82.38
368.184	74.38
368.41	82.38
368.636	95.38
368.862	92.38
369.089	96.38
369.315	93.38
369.541	83.38
369.767	81.38
369.993	85.38
370.219	79.38
370.445	98.38
370.672	74.38
370.898	75.38
371.124	80.38
371.35	93.38
371.576	81.38
371.802	98.38
372.028	74.38
372.254	77.38
372.48	86.38
372.706	82.38
372.932	79.38
373.158	93.38
373.384	79.38
373.61	89.38
373.835	96.38
374.061	86.38
374.287	84.38
374.513	89.38
374.739	99.38
374.965	82.38
375.191	81.38
375.416	86.38
375.642	86.38
375.868	91.38
376.094	74.38
376.319	86.38
376.545	77.38
376.771	87.38
376.997	94.38
377.222	95.38
377.448	74.38
377.674	86.38
377.899	85.38
378.125	92.38
378.35	75.38
378.576	79.38
378.802	78.38
379.027	82.38
379.253	82.38
379.478	79.38
379.704	87.38
379.929	84.38
380.155	96.38
380.38	92.38
380.606	103.38
380.831	99.38
381.057	92.38
381.282	80.38
381.507	93.38
381.733	80.38
381.958	71.38
382.184	83.38
382.409	81.38
382.634	86.38
382.86	82.38
383.085	91.38
383.31	75.38
383.535	83.38
383.761	78.38
383.986	87.38
384.211	98.38
384.436	95.38
384.662	84.38
384.887	90.38
385.112	87.38
385.337	93.38
385.562	79.38
385.787	95.38
386.013	103.38
386.238	90.38
386.463	92.38
386.688	79.38
386.913	97.38
387.138	89.38
387.363	111.38
387.588	89.38
387.813	84.38
388.038	83.38
388.263	84.38
388.488	75.38
388.713	82.38
388.938	95.38
389.163	90.38
389.387	86.38
389.612	101.38
389.837	87.38
390.062	90.38
390.287	81.38
390.512	112.38
390.736	90.38
390.961	94.38
391.186	76.38
391.411	92.38
391.636	88.38
391.86	86.38
392.085	98.38
392.31	97.38
392.534	89.38
392.759	92.38
392.984	86.38
393.208	94.38
393.433	93.38
393.658	97.38
393.882	91.38
394.107	98.38
394.331	76.38
394.556	93.38
394.78	70.38
395.005	88.38
395.229	78.38
395.454	78.38
395.678	85.38
395.903	101.38
396.127	90.38
396.352	87.38
396.576	88.38
396.801	82.38
397.025	82.38
397.249	95.38
397.474	88.38
397.698	89.38
397.922	100.38
398.147	96.38
398.371	86.38
398.595	107.38
398.82	111.38
399.044	86.38
399.268	79.38
399.492	90.38
399.717	94.38
399.941	93.38
400.165	86.38
400.389	94.38
400.613	99.38
400.837	99.38
401.062	89.38
401.286	88.38
401.51	83.38
401.734	77.38
401.958	90.38
402.182	90.38
402.406	89.38
402.63	91.38
402.854	107.38
403.078	82.38
403.302	88.38
403.526	84.38
403.75	99.38
403.974	89.38
404.198	82.38
404.422	93.38
404.645	87.38
404.869	90.38
405.093	88.38
405.317	91.38
405.541	95.38
405.765	110.38
405.988	102.38
406.212	74.38
406.436	71.38
406.66	78.38
406.883	96.38
407.107	79.38
407.331	102.38
407.555	100.38
407.778	92.38
408.002	95.38
408.226	83.38
408.449	93.38
408.673	92.38
408.896	89.38
409.12	108.38
409.344	78.38
409.567	102.38
409.791	98.38
410.014	98.38
410.238	95.38
410.461	84.38
410.685	80.38
410.908	98.38
411.132	84.38
411.355	97.38
411.578	93.38
411.802	98.38
412.025	93.38
412.249	87.38
412.472	104.38
412.695	93.38
412.919	80.38
413.142	90.38
413.365	92.38
413.589	96.38
413.812	70.38
414.035	89.38
414.258	89.38
414.482	82.38
414.705	96.38
414.928	95.38
415.151	97.38
415.374	98.38
415.597	80.38
415.821	94.38
416.044	83.38
416.267	98.38
416.49	93.38
416.713	92.38
416.936	99.38
417.159	103.38
417.382	98.38
417.605	99.38
417.828	96.38
418.051	95.38
418.274	112.38
418.497	95.38
418.72	95.38
418.943	84.38
419.166	89.38
419.389	100.38
419.611	90.38
419.834	97.38
420.057	119.38
420.28	95.38
420.503	84.38
420.726	94.38
420.948	102.38
421.171	87.38
421.394	94.38
421.617	97.38
421.839	102.38
422.062	108.38
422.285	91.38
422.507	86.38
422.73	97.38
422.953	103.38
423.175	88.38
423.398	94.38
423.621	88.38
423.843	92.38
424.066	102.38
424.288	97.38
424.511	103.38
424.733	105.38
424.956	96.38
425.178	92.38
425.401	107.38
425.623	95.38
425.846	93.38
426.068	94.38
426.291	91.38
426.513	102.38
426.735	101.38
426.958	107.38
427.18	91.38
427.402	107.38
427.625	98.38
427.847	93.38
428.069	85.38
428.292	105.38
428.514	89.38
428.736	82.38
428.958	96.38
429.181	107.38
429.403	102.38
429.625	110.38
429.847	94.38
430.069	91.38
430.292	97.38
430.514	105.38
430.736	90.38
430.958	103.38
431.18	89.38
431.402	101.38
431.624	86.38
431.846	100.38
432.068	83.38
432.29	95.38
432.512	78.38
432.734	82.38
432.956	101.38
433.178	93.38
433.4	95.38
433.622	103.38
433.844	99.38
434.066	95.38
434.287	99.38
434.509	97.38
434.731	83.38
434.953	99.38
435.175	85.38
435.397	101.38
435.618	104.38
435.84	83.38
436.062	100.38
436.284	85.38
436.505	85.38
436.727	105.38
436.949	80.38
437.17	77.38
437.392	85.38
437.614	98.38
437.835	89.38
438.057	94.38
438.278	83.38
438.5	91.38
438.721	102.38
438.943	106.38
439.165	99.38
439.386	87.38
439.608	90.38
439.829	101.38
440.05	96.38
440.272	111.38
440.493	101.38
440.715	101.38
440.936	88.38
441.158	100.38
441.379	91.38
441.6	101.38
441.822	89.38
442.043	99.38
442.264	87.38
442.486	85.38
442.707	88.38
442.928	98.38
443.149	102.38
443.371	96.38
443.592	103.38
443.813	99.38
444.034	94.38
444.255	87.38
444.476	94.38
444.698	105.38
444.919	105.38
445.14	186.38
445.361	143.38
445.582	111.38
445.803	110.38
446.024	100.38
446.245	98.38
446.466	102.38
446.687	102.38
446.908	102.38
447.129	125.38
447.35	107.38
447.571	94.38
447.792	108.38
448.013	94.38
448.234	108.38
448.455	103.38
448.675	105.38
448.896	106.38
449.117	82.38
449.338	101.38
449.559	96.38
449.779	99.38
450	98.38
450.221	95.38
450.442	100.38
450.662	105.38
450.883	111.38
451.104	86.38
451.324	107.38
451.545	99.38
451.766	83.38
451.986	102.38
452.207	77.38
452.428	99.38
452.648	113.38
452.869	101.38
453.089	94.38
453.31	83.38
453.53	89.38
453.751	79.38
453.971	86.38
454.192	81.38
454.412	98.38
454.633	91.38
454.853	99.38
455.073	87.38
455.294	82.38
455.514	95.38
455.734	97.38
455.955	77.38
456.175	86.38
456.395	84.38
456.616	93.38
456.836	94.38
457.056	92.38
457.276	85.38
457.497	87.38
457.717	99.38
457.937	71.38
458.157	85.38
458.377	101.38
458.598	82.38
458.818	75.38
459.038	92.38
459.258	92.38
459.478	84.38
459.698	85.38
459.918	86.38
460.138	91.38
460.358	90.38
460.578	86.38
460.798	98.38
461.018	95.38
461.238	93.38
461.458	92.38
461.678	88.38
461.898	102.38
462.118	97.38
462.338	85.38
462.558	100.38
462.777	98.38
462.997	85.38
463.217	74.38
463.437	79.38
463.657	90.38
463.876	80.38
464.096	97.38
464.316	91.38
464.536	90.38
464.755	106.38
464.975	104.38
465.195	100.38
465.414	88.38
465.634	79.38
465.854	92.38
466.073	93.38
466.293	104.38
466.512	99.38
466.732	97.38
466.951	102.38
467.171	99.38
467.391	97.38
467.61	96.38
467.829	87.38
468.049	100.38
468.268	102.38
468.488	92.38
468.707	105.38
468.927	101.38
469.146	101.38
469.365	99.38
469.585	94.38
469.804	107.38
470.023	102.38
470.243	101.38
470.462	100.38
470.681	101.38
470.901	99.38
471.12	101.38
471.339	89.38
471.558	94.38
471.777	90.38
471.997	102.38
472.216	98.38
472.435	93.38
472.654	95.38
472.873	100.38
473.092	93.38
473.311	79.38
473.53	104.38
473.749	102.38
473.968	101.38
474.187	92.38
474.406	91.38
474.625	101.38
474.844	121.38
475.063	99.38
475.282	103.38
475.501	100.38
475.72	123.38
475.939	89.38
476.158	84.38
476.377	109.38
476.596	98.38
476.814	86.38
477.033	86.38
477.252	98.38
477.471	103.38
477.69	107.38
477.908	115.38
478.127	93.38
478.346	110.38
478.564	110.38
478.783	104.38
479.002	102.38
479.22	92.38
479.439	89.38
479.658	101.38
479.876	95.38
480.095	89.38
480.313	96.38
480.532	96.38
480.751	97.38
480.969	98.38
481.188	92.38
481.406	94.38
481.624	91.38
481.843	83.38
482.061	100.38
482.28	95.38
482.498	97.38
482.717	86.38
482.935	108.38
483.153	93.38
483.372	102.38
483.59	100.38
483.808	105.38
484.027	95.38
484.245	88.38
484.463	102.38
484.681	115.38
484.9	90.38
485.118	95.38
485.336	98.38
485.554	95.38
485.772	76.38
485.99	87.38
486.209	91.38
486.427	98.38
486.645	98.38
486.863	106.38
487.081	98.38
487.299	100.38
487.517	103.38
487.735	119.38
487.953	119.38
488.171	125.38
488.389	101.38
488.607	109.38
488.825	89.38
489.043	92.38
489.261	104.38
489.479	98.38
489.696	106.38
489.914	96.38
490.132	106.38
490.35	111.38
490.568	102.38
490.786	107.38
491.003	98.38
491.221	123.38
491.439	118.38
491.657	93.38
491.874	127.38
492.092	141.38
492.31	136.38
492.527	150.38
492.745	136.38
492.963	129.38
493.18	105.38
493.398	114.38
493.615	125.38
493.833	121.38
494.05	109.38
494.268	100.38
494.485	120.38
494.703	115.38
494.92	113.38
495.138	103.38
495.355	108.38
495.573	118.38
495.79	113.38
496.008	119.38
496.225	123.38
496.442	106.38
496.66	117.38
496.877	120.38
497.094	118.38
497.312	96.38
497.529	98.38
497.746	103.38
497.963	98.38
498.181	103.38
498.398	102.38
498.615	99.38
498.832	97.38
499.049	102.38
499.267	90.38
499.484	78.38
499.701	102.38
499.918	93.38
500.135	104.38
500.352	104.38
500.569	97.38
500.786	107.38
501.003	117.38
501.22	121.38
501.437	109.38
501.654	110.38
501.871	94.38
502.088	92.38
502.305	95.38
502.522	101.38
502.739	87.38
502.956	84.38
503.172	109.38
503.389	104.38
503.606	83.38
503.823	104.38
504.04	114.38
504.256	98.38
504.473	100.38
504.69	102.38
504.907	101.38
505.123	92.38
505.34	85.38
505.557	101.38
505.773	108.38
505.99	99.38
506.207	97.38
506.423	103.38
506.64	102.38
506.856	102.38
507.073	91.38
507.289	94.38
507.506	98.38
507.722	99.38
507.939	102.38
508.155	93.38
508.372	102.38
508.588	105.38
508.805	94.38
509.021	97.38
509.238	79.38
509.454	91.38
509.67	98.38
509.887	89.38
510.103	93.38
510.319	81.38
510.536	86.38
510.752	92.38
510.968	97.38
511.184	78.38
511.401	85.38
511.617	83.38
511.833	86.38
512.049	84.38
512.265	92.38
512.481	81.38
512.698	90.38
512.914	97.38
513.13	103.38
513.346	92.38
513.562	86.38
513.778	94.38
513.994	94.38
514.21	85.38
514.426	93.38
514.642	91.38
514.858	83.38
515.074	108.38
515.29	87.38
515.506	87.38
515.721	82.38
515.937	94.38
516.153	93.38
516.369	78.38
516.585	90.38
516.801	82.38
517.016	99.38
517.232	75.38
517.448	99.38
517.664	105.38
517.879	93.38
518.095	75.38
518.311	106.38
518.527	94.38
518.742	85.38
518.958	98.38
519.173	94.38
519.389	97.38
519.605	94.38
519.82	83.38
520.036	93.38
520.251	86.38
520.467	94.38
520.682	78.38
520.898	97.38
521.113	86.38
521.329	97.38
521.544	90.38
521.76	91.38
521.975	94.38
522.19	92.38
522.406	97.38
522.621	90.38
522.836	102.38
523.052	91.38
523.267	97.38
523.482	89.38
523.698	91.38
523.913	91.38
524.128	87.38
524.343	87.38
524.559	86.38
524.774	88.38
524.989	106.38
525.204	107.38
525.419	101.38
525.634	100.38
525.849	97.38
526.064	84.38
526.28	97.38
526.495	79.38
526.71	97.38
526.925	65.38
527.14	73.38
527.355	94.38
527.57	99.38
527.785	95.38
527.999	89.38
528.214	94.38
528.429	101.38
528.644	95.38
528.859	91.38
529.074	105.38
529.289	109.38
529.503	98.38
529.718	110.38
529.933	95.38
530.148	93.38
530.363	98.38
530.577	91.38
530.792	96.38
531.007	88.38
531.221	86.38
531.436	79.38
531.651	86.38
531.865	101.38
532.08	91.38
532.295	117.38
532.509	90.38
532.724	86.38
532.938	77.38
533.153	99.38
533.367	76.38
533.582	86.38
533.796	92.38
534.011	80.38
534.225	90.38
534.44	84.38
534.654	76.38
534.868	94.38
535.083	79.38
535.297	90.38
535.511	88.38
535.726	110.38
535.94	91.38
536.154	89.38
536.369	89.38
536.583	78.38
536.797	105.38
537.011	96.38
537.225	91.38
537.44	90.38
537.654	88.38
537.868	84.38
538.082	92.38
538.296	86.38
538.51	90.38
538.724	94.38
538.938	110.38
539.153	94.38
539.367	106.38
539.581	92.38
539.795	107.38
540.009	92.38
540.222	77.38
540.436	94.38
540.65	96.38
540.864	108.38
541.078	100.38
541.292	106.38
541.506	104.38
541.72	113.38
541.934	120.38
542.147	123.38
542.361	111.38
542.575	109.38
542.789	115.38
543.002	106.38
543.216	102.38
543.43	100.38
543.644	102.38
543.857	94.38
544.071	106.38
544.285	112.38
544.498	97.38
544.712	106.38
544.925	109.38
545.139	115.38
545.352	113.38
545.566	110.38
545.779	108.38
545.993	110.38
546.206	108.38
546.42	114.38
546.633	114.38
546.847	121.38
547.06	118.38
547.274	116.38
547.487	115.38
547.7	113.38
547.914	109.38
548.127	110.38
548.34	110.38
548.554	116.38
548.767	113.38
548.98	110.38
549.193	104.38
549.407	103.38
549.62	101.38
549.833	102.38
550.046	128.38
550.259	105.38
550.473	110.38
550.686	87.38
550.899	116.38
551.112	99.38
551.325	102.38
551.538	101.38
551.751	100.38
551.964	100.38
552.177	95.38
552.39	101.38
552.603	100.38
552.816	97.38
553.029	107.38
553.242	92.38
553.455	116.38
553.667	100.38
553.88	103.38
554.093	109.38
554.306	118.38
554.519	110.38
554.732	109.38
554.944	87.38
555.157	102.38
555.37	106.38
555.583	100.38
555.795	97.38
556.008	108.38
556.221	102.38
556.433	95.38
556.646	108.38
556.859	111.38
557.071	107.38
557.284	99.38
557.496	110.38
557.709	100.38
557.921	95.38
558.134	105.38
558.346	91.38
558.559	103.38
558.771	105.38
558.984	98.38
559.196	103.38
559.409	100.38
559.621	93.38
559.833	96.38
560.046	96.38
560.258	89.38
560.47	125.38
560.683	105.38
560.895	82.38
561.107	96.38
561.32	96.38
561.532	107.38
561.744	91.38
561.956	99.38
562.168	96.38
562.381	112.38
562.593	87.38
562.805	106.38
563.017	96.38
563.229	99.38
563.441	86.38
563.653	102.38
563.865	98.38
564.077	99.38
564.289	100.38
564.501	95.38
564.713	103.38
564.925	94.38
565.137	92.38
565.349	85.38
565.561	78.38
565.773	82.38
565.985	104.38
566.197	96.38
566.408	93.38
566.62	103.38
566.832	97.38
567.044	90.38
567.255	85.38
567.467	90.38
567.679	107.38
567.891	107.38
568.102	92.38
568.314	75.38
568.526	93.38
568.737	79.38
568.949	95.38
569.161	81.38
569.372	97.38
569.584	84.38
569.795	92.38
570.007	87.38
570.218	86.38
570.43	83.38
570.641	98.38
570.853	100.38
571.064	91.38
571.276	95.38
571.487	99.38
571.698	99.38
571.91	93.38
572.121	83.38
572.333	91.38
572.544	94.38
572.755	102.38
572.966	99.38
573.178	94.38
573.389	91.38
573.6	93.38
573.811	89.38
574.023	99.38
574.234	86.38
574.445	93.38
574.656	91.38
574.867	87.38
575.078	86.38
575.289	96.38
575.501	94.38
575.712	95.38
575.923	86.38
576.134	89.38
576.345	88.38
576.556	118.38
576.767	99.38
576.978	95.38
577.188	90.38
577.399	89.38
577.61	102.38
577.821	86.38
578.032	79.38
578.243	91.38
578.454	98.38
578.665	105.38
578.875	84.38
579.086	80.38
579.297	83.38
579.508	85.38
579.718	86.38
579.929	97.38
580.14	99.38
580.35	85.38
580.561	83.38
580.772	92.38
580.982	89.38
581.193	91.38
581.403	95.38
581.614	95.38
581.825	83.38
582.035	96.38
582.246	83.38
582.456	91.38
582.667	100.38
582.877	75.38
583.087	87.38
583.298	98.38
583.508	83.38
583.719	88.38
583.929	85.38
584.139	76.38
584.35	68.38
584.56	85.38
584.77	85.38
584.981	89.38
585.191	95.38
585.401	89.38
585.611	79.38
585.821	89.38
586.032	74.38
586.242	96.38
586.452	86.38
586.662	81.38
586.872	70.38
587.082	82.38
587.292	85.38
587.502	81.38
587.713	78.38
587.923	79.38
588.133	72.38
588.343	72.38
588.553	97.38
588.762	86.38
588.972	84.38
589.182	79.38
589.392	83.38
589.602	86.38
589.812	78.38
590.022	90.38
590.232	96.38
590.441	85.38
590.651	89.38
590.861	78.38
591.071	92.38
591.281	101.38
591.49	77.38
591.7	82.38
591.91	88.38
592.119	92.38
592.329	93.38
592.539	76.38
592.748	92.38
592.958	80.38
593.167	95.38
593.377	96.38
593.587	91.38
593.796	78.38
594.006	83.38
594.215	95.38
594.424	91.38
594.634	87.38
594.843	78.38
595.053	87.38
595.262	93.38
595.472	93.38
595.681	89.38
595.89	94.38
596.1	88.38
596.309	90.38
596.518	84.38
596.727	92.38
596.937	72.38
597.146	79.38
597.355	88.38
597.564	85.38
597.774	100.38
597.983	95.38
598.192	86.38
598.401	94.38
598.61	80.38
598.819	84.38
599.028	72.38
599.237	79.38
599.446	77.38
599.655	88.38
599.864	94.38
600.073	89.38
600.282	89.38
600.491	89.38
600.7	81.38
600.909	90.38
601.118	102.38
601.327	89.38
601.536	89.38
601.745	88.38
601.953	106.38
602.162	99.38
602.371	84.38
602.58	85.38
602.789	92.38
602.997	87.38
603.206	113.38
603.415	105.38
603.623	100.38
603.832	107.38
604.041	100.38
604.249	81.38
604.458	98.38
604.666	90.38
604.875	101.38
605.084	94.38
605.292	83.38
605.501	98.38
605.709	96.38
605.918	97.38
606.126	97.38
606.334	94.38
606.543	93.38
606.751	94.38
606.96	77.38
607.168	84.38
607.376	94.38
607.585	115.38
607.793	89.38
608.001	86.38
608.21	83.38
608.418	98.38
608.626	99.38
608.834	75.38
609.043	98.38
609.251	91.38
609.459	95.38
609.667	97.38
609.875	113.38
610.083	79.38
610.291	96.38
610.499	96.38
610.707	92.38
610.916	100.38
611.124	102.38
611.332	92.38
611.54	104.38
611.748	89.38
611.955	82.38
612.163	103.38
612.371	96.38
612.579	105.38
612.787	101.38
612.995	80.38
613.203	91.38
613.411	86.38
613.618	83.38
613.826	113.38
614.034	98.38
614.242	107.38
614.449	112.38
614.657	99.38
614.865	101.38
615.072	91.38
615.28	91.38
615.488	100.38
615.695	79.38
615.903	108.38
616.111	93.38
616.318	105.38
616.526	90.38
616.733	91.38
616.941	97.38
617.148	91.38
617.356	105.38
617.563	99.38
617.771	88.38
617.978	91.38
618.185	97.38
618.393	94.38
618.6	100.38
618.807	88.38
619.015	81.38
619.222	95.38
619.429	102.38
619.637	93.38
619.844	83.38
620.051	92.38
620.258	109.38
620.466	93.38
620.673	104.38
620.88	96.38
621.087	96.38
621.294	79.38
621.501	96.38
621.708	90.38
621.915	100.38
622.122	101.38
622.329	81.38
622.536	84.38
622.743	102.38
622.95	98.38
623.157	87.38
623.364	100.38
623.571	86.38
623.778	96.38
623.985	100.38
624.192	90.38
624.399	91.38
624.606	104.38
624.812	95.38
625.019	75.38
625.226	80.38
625.433	93.38
625.639	105.38
625.846	99.38
626.053	93.38
626.259	98.38
626.466	96.38
626.673	99.38
626.879	92.38
627.086	83.38
627.293	92.38
627.499	86.38
627.706	99.38
627.912	93.38
628.119	104.38
628.325	109.38
628.532	99.38
628.738	92.38
628.945	90.38
629.151	90.38
629.357	98.38
629.564	89.38
629.77	92.38
629.976	94.38
630.183	83.38
630.389	101.38
630.595	96.38
630.802	96.38
631.008	88.38
631.214	91.38
631.42	73.38
631.627	90.38
631.833	111.38
632.039	97.38
632.245	102.38
632.451	84.38
632.657	97.38
632.863	93.38
633.069	93.38
633.275	90.38
633.481	89.38
633.688	97.38
633.893	94.38
634.099	91.38
634.305	97.38
634.511	79.38
634.717	91.38
634.923	78.38
635.129	84.38
635.335	89.38
635.541	89.38
635.747	92.38
635.952	84.38
636.158	94.38
636.364	97.38
636.57	89.38
636.775	101.38
636.981	92.38
637.187	87.38
637.392	86.38
637.598	92.38
637.804	86.38
638.009	94.38
638.215	102.38
638.421	92.38
638.626	97.38
638.832	93.38
639.037	83.38
639.243	86.38
639.448	88.38
639.654	91.38
639.859	84.38
640.065	85.38
640.27	83.38
640.475	95.38
640.681	88.38
640.886	90.38
641.091	90.38
641.297	94.38
641.502	93.38
641.707	78.38
641.913	93.38
642.118	92.38
642.323	81.38
642.528	92.38
642.733	94.38
642.939	103.38
643.144	97.38
643.349	86.38
643.554	100.38
643.759	97.38
643.964	96.38
644.169	92.38
644.374	94.38
644.579	99.38
644.784	82.38
644.989	92.38
645.194	95.38
645.399	94.38
645.604	94.38
645.809	96.38
646.014	97.38
646.219	90.38
646.423	89.38
646.628	96.38
646.833	97.38
647.038	88.38
647.243	80.38
647.447	89.38
647.652	93.38
647.857	93.38
648.062	104.38
648.266	91.38
648.471	85.38
648.676	88.38
648.88	94.38
649.085	100.38
649.289	96.38
649.494	89.38
649.698	98.38
649.903	88.38
650.107	95.38
650.312	89.38
650.516	89.38
650.721	94.38
650.925	84.38
651.13	97.38
651.334	94.38
651.539	92.38
651.743	94.38
651.947	104.38
652.152	87.38
652.356	93.38
652.56	85.38
652.764	77.38
652.969	75.38
653.173	85.38
653.377	85.38
653.581	85.38
653.785	99.38
653.99	92.38
654.194	95.38
654.398	78.38
654.602	100.38
654.806	79.38
655.01	79.38
655.214	82.38
655.418	99.38
655.622	80.38
655.826	95.38
656.03	91.38
656.234	85.38
656.438	83.38
656.642	94.38
656.846	84.38
657.049	100.38
657.253	91.38
657.457	96.38
657.661	84.38
657.865	70.38
658.068	90.38
658.272	70.38
658.476	70.38
658.68	82.38
658.883	77.38
659.087	90.38
659.291	97.38
659.494	78.38
659.698	86.38
659.901	107.38
660.105	80.38
660.309	83.38
660.512	82.38
660.716	75.38
660.919	85.38
661.123	107.38
661.326	88.38
661.53	91.38
661.733	81.38
661.936	93.38
662.14	82.38
662.343	85.38
662.546	85.38
662.75	83.38
662.953	90.38
663.156	99.38
663.36	95.38
663.563	75.38
663.766	95.38
663.969	90.38
664.173	79.38
664.376	78.38
664.579	81.38
664.782	75.38
664.985	83.38
665.188	92.38
665.391	81.38
665.594	67.38
665.797	98.38
666	83.38
666.203	74.38
666.406	85.38
666.609	91.38
666.812	85.38
667.015	84.38
667.218	94.38
667.421	90.38
667.624	68.38
667.827	85.38
668.03	76.38
668.232	87.38
668.435	87.38
668.638	86.38
668.841	95.38
669.043	75.38
669.246	100.38
669.449	97.38
669.651	92.38
669.854	79.38
670.057	85.38
670.259	73.38
670.462	85.38
670.665	86.38
670.867	86.38
671.07	84.38
671.272	86.38
671.475	91.38
671.677	75.38
671.88	94.38
672.082	78.38
672.284	75.38
672.487	84.38
672.689	79.38
672.892	86.38
