Data from Location4.07152019.Energy5.Lamp.07192019.3%Agarose_HRD10591_15-23-07-576.txt Node
Date: Fri Jul 19 15:23:07 EDT 2019
User: cochatt
Spectrometer: HR+D1059
Trigger mode: 1
Integration Time (sec): 1.000000E-1
Scans to average: 1
Electric dark correction enabled: true
Nonlinearity correction enabled: false
Boxcar width: 0
XAxis mode: Wavelengths
Number of Pixels in Spectrum: 2048
>>>>>Begin Spectral Data<<<<<
223.165	-30.31
223.4	-30.31
223.635	-30.31
223.869	-9.31
224.104	-27.31
224.338	-19.31
224.573	-9.31
224.808	-13.31
225.042	-10.31
225.277	-14.31
225.511	6.69
225.746	6.69
225.98	7.69
226.215	14.69
226.449	4.69
226.683	17.69
226.918	36.69
227.152	38.69
227.387	51.69
227.621	34.69
227.856	52.69
228.09	41.69
228.324	59.69
228.559	62.69
228.793	56.69
229.027	56.69
229.262	59.69
229.496	64.69
229.73	57.69
229.964	77.69
230.199	71.69
230.433	65.69
230.667	84.69
230.901	80.69
231.136	83.69
231.37	78.69
231.604	88.69
231.838	88.69
232.072	84.69
232.306	82.69
232.541	77.69
232.775	95.69
233.009	75.69
233.243	86.69
233.477	85.69
233.711	76.69
233.945	78.69
234.179	79.69
234.413	72.69
234.647	84.69
234.881	93.69
235.115	86.69
235.349	86.69
235.583	90.69
235.817	93.69
236.051	77.69
236.285	84.69
236.519	81.69
236.753	90.69
236.987	91.69
237.221	87.69
237.455	81.69
237.689	79.69
237.922	81.69
238.156	80.69
238.39	74.69
238.624	75.69
238.858	93.69
239.091	78.69
239.325	72.69
239.559	72.69
239.793	78.69
240.027	92.69
240.26	76.69
240.494	71.69
240.728	78.69
240.961	79.69
241.195	89.69
241.429	70.69
241.662	73.69
241.896	86.69
242.13	84.69
242.363	69.69
242.597	84.69
242.83	77.69
243.064	103.69
243.298	86.69
243.531	78.69
243.765	74.69
243.998	75.69
244.232	64.69
244.465	66.69
244.699	91.69
244.932	71.69
245.166	70.69
245.399	77.69
245.633	88.69
245.866	82.69
246.099	87.69
246.333	76.69
246.566	85.69
246.8	86.69
247.033	90.69
247.266	75.69
247.5	81.69
247.733	78.69
247.966	86.69
248.2	81.69
248.433	83.69
248.666	87.69
248.899	78.69
249.133	80.69
249.366	82.69
249.599	76.69
249.832	79.69
250.066	91.69
250.299	91.69
250.532	90.69
250.765	83.69
250.998	89.69
251.231	72.69
251.465	77.69
251.698	88.69
251.931	63.69
252.164	101.69
252.397	83.69
252.63	89.69
252.863	78.69
253.096	92.69
253.329	83.69
253.562	88.69
253.795	80.69
254.028	105.69
254.261	80.69
254.494	79.69
254.727	85.69
254.96	89.69
255.193	74.69
255.426	75.69
255.659	81.69
255.892	70.69
256.124	77.69
256.357	80.69
256.59	97.69
256.823	76.69
257.056	106.69
257.289	81.69
257.521	90.69
257.754	88.69
257.987	76.69
258.22	84.69
258.452	86.69
258.685	94.69
258.918	84.69
259.151	67.69
259.383	88.69
259.616	95.69
259.849	84.69
260.081	90.69
260.314	88.69
260.547	97.69
260.779	67.69
261.012	75.69
261.244	87.69
261.477	88.69
261.71	83.69
261.942	70.69
262.175	74.69
262.407	85.69
262.64	85.69
262.872	75.69
263.105	94.69
263.337	78.69
263.57	83.69
263.802	89.69
264.035	95.69
264.267	100.69
264.499	89.69
264.732	80.69
264.964	85.69
265.197	86.69
265.429	91.69
265.661	80.69
265.894	83.69
266.126	86.69
266.358	81.69
266.591	90.69
266.823	79.69
267.055	77.69
267.287	80.69
267.52	78.69
267.752	91.69
267.984	90.69
268.216	74.69
268.448	82.69
268.681	88.69
268.913	85.69
269.145	90.69
269.377	82.69
269.609	89.69
269.841	93.69
270.073	82.69
270.306	92.69
270.538	81.69
270.77	77.69
271.002	97.69
271.234	94.69
271.466	78.69
271.698	92.69
271.93	81.69
272.162	84.69
272.394	76.69
272.626	80.69
272.858	79.69
273.09	82.69
273.322	76.69
273.553	81.69
273.785	79.69
274.017	95.69
274.249	96.69
274.481	91.69
274.713	91.69
274.945	71.69
275.176	83.69
275.408	84.69
275.64	87.69
275.872	88.69
276.104	74.69
276.335	92.69
276.567	87.69
276.799	90.69
277.031	78.69
277.262	88.69
277.494	80.69
277.726	90.69
277.957	78.69
278.189	86.69
278.421	79.69
278.652	98.69
278.884	92.69
279.115	76.69
279.347	96.69
279.579	80.69
279.81	90.69
280.042	81.69
280.273	87.69
280.505	96.69
280.736	88.69
280.968	87.69
281.199	90.69
281.431	84.69
281.662	81.69
281.894	96.69
282.125	98.69
282.356	85.69
282.588	91.69
282.819	94.69
283.051	83.69
283.282	80.69
283.513	86.69
283.745	92.69
283.976	86.69
284.207	91.69
284.439	92.69
284.67	95.69
284.901	90.69
285.132	77.69
285.364	82.69
285.595	84.69
285.826	80.69
286.057	81.69
286.288	80.69
286.52	84.69
286.751	101.69
286.982	96.69
287.213	90.69
287.444	94.69
287.675	81.69
287.906	90.69
288.138	90.69
288.369	81.69
288.6	81.69
288.831	87.69
289.062	90.69
289.293	83.69
289.524	87.69
289.755	89.69
289.986	100.69
290.217	95.69
290.448	76.69
290.679	92.69
290.91	93.69
291.141	88.69
291.371	89.69
291.602	92.69
291.833	82.69
292.064	89.69
292.295	86.69
292.526	88.69
292.757	84.69
292.987	88.69
293.218	80.69
293.449	88.69
293.68	81.69
293.91	98.69
294.141	88.69
294.372	90.69
294.603	103.69
294.833	94.69
295.064	84.69
295.295	85.69
295.525	90.69
295.756	83.69
295.987	84.69
296.217	92.69
296.448	89.69
296.679	86.69
296.909	92.69
297.14	82.69
297.37	92.69
297.601	79.69
297.831	86.69
298.062	88.69
298.292	84.69
298.523	90.69
298.753	84.69
298.984	99.69
299.214	93.69
299.445	102.69
299.675	91.69
299.905	84.69
300.136	90.69
300.366	100.69
300.597	94.69
300.827	90.69
301.057	91.69
301.288	87.69
301.518	85.69
301.748	91.69
301.979	82.69
302.209	92.69
302.439	88.69
302.669	93.69
302.9	84.69
303.13	89.69
303.36	89.69
303.59	99.69
303.82	103.69
304.051	90.69
304.281	86.69
304.511	94.69
304.741	84.69
304.971	91.69
305.201	86.69
305.431	90.69
305.661	80.69
305.891	92.69
306.121	80.69
306.352	86.69
306.582	91.69
306.812	78.69
307.042	88.69
307.272	94.69
307.502	85.69
307.731	83.69
307.961	92.69
308.191	85.69
308.421	87.69
308.651	84.69
308.881	103.69
309.111	89.69
309.341	82.69
309.571	94.69
309.8	86.69
310.03	90.69
310.26	85.69
310.49	100.69
310.72	77.69
310.949	94.69
311.179	91.69
311.409	85.69
311.639	99.69
311.868	92.69
312.098	87.69
312.328	95.69
312.557	88.69
312.787	79.69
313.017	78.69
313.246	98.69
313.476	79.69
313.706	79.69
313.935	93.69
314.165	100.69
314.394	82.69
314.624	82.69
314.853	79.69
315.083	93.69
315.312	71.69
315.542	81.69
315.771	96.69
316.001	92.69
316.23	84.69
316.46	79.69
316.689	97.69
316.919	83.69
317.148	91.69
317.377	89.69
317.607	72.69
317.836	86.69
318.065	95.69
318.295	84.69
318.524	85.69
318.753	93.69
318.983	85.69
319.212	99.69
319.441	81.69
319.67	87.69
319.9	84.69
320.129	86.69
320.358	84.69
320.587	81.69
320.816	72.69
321.046	75.69
321.275	98.69
321.504	80.69
321.733	81.69
321.962	96.69
322.191	88.69
322.42	86.69
322.649	81.69
322.878	92.69
323.108	92.69
323.337	92.69
323.566	99.69
323.795	84.69
324.024	85.69
324.253	105.69
324.482	98.69
324.71	86.69
324.939	82.69
325.168	93.69
325.397	81.69
325.626	85.69
325.855	88.69
326.084	101.69
326.313	87.69
326.542	91.69
326.77	90.69
326.999	97.69
327.228	85.69
327.457	91.69
327.686	82.69
327.914	88.69
328.143	75.69
328.372	87.69
328.6	101.69
328.829	78.69
329.058	91.69
329.287	75.69
329.515	77.69
329.744	90.69
329.972	88.69
330.201	71.69
330.43	93.69
330.658	82.69
330.887	91.69
331.115	82.69
331.344	98.69
331.572	71.69
331.801	96.69
332.03	79.69
332.258	92.69
332.486	84.69
332.715	102.69
332.943	95.69
333.172	86.69
333.4	76.69
333.629	89.69
333.857	92.69
334.085	80.69
334.314	94.69
334.542	88.69
334.771	81.69
334.999	107.69
335.227	91.69
335.455	86.69
335.684	87.69
335.912	94.69
336.14	78.69
336.369	90.69
336.597	97.69
336.825	84.69
337.053	101.69
337.281	98.69
337.51	93.69
337.738	98.69
337.966	85.69
338.194	89.69
338.422	89.69
338.65	102.69
338.878	78.69
339.106	89.69
339.334	82.69
339.562	88.69
339.79	80.69
340.018	94.69
340.246	83.69
340.474	94.69
340.702	99.69
340.93	86.69
341.158	88.69
341.386	91.69
341.614	78.69
341.842	80.69
342.07	89.69
342.298	90.69
342.526	74.69
342.754	84.69
342.981	85.69
343.209	71.69
343.437	94.69
343.665	89.69
343.893	97.69
344.12	86.69
344.348	85.69
344.576	88.69
344.804	77.69
345.031	76.69
345.259	96.69
345.487	76.69
345.714	90.69
345.942	87.69
346.17	90.69
346.397	90.69
346.625	95.69
346.853	92.69
347.08	93.69
347.308	96.69
347.535	87.69
347.763	84.69
347.99	98.69
348.218	80.69
348.445	92.69
348.673	93.69
348.9	87.69
349.128	87.69
349.355	91.69
349.583	98.69
349.81	90.69
350.037	91.69
350.265	93.69
350.492	79.69
350.72	86.69
350.947	91.69
351.174	95.69
351.402	81.69
351.629	99.69
351.856	90.69
352.083	88.69
352.311	86.69
352.538	98.69
352.765	80.69
352.992	100.69
353.22	91.69
353.447	92.69
353.674	91.69
353.901	84.69
354.128	92.69
354.355	77.69
354.583	85.69
354.81	107.69
355.037	107.69
355.264	85.69
355.491	77.69
355.718	85.69
355.945	92.69
356.172	88.69
356.399	99.69
356.626	87.69
356.853	87.69
357.08	114.69
357.307	94.69
357.534	89.69
357.761	91.69
357.988	103.69
358.215	95.69
358.441	88.69
358.668	88.69
358.895	80.69
359.122	90.69
359.349	76.69
359.576	74.69
359.802	75.69
360.029	88.69
360.256	90.69
360.483	81.69
360.709	87.69
360.936	77.69
361.163	76.69
361.39	100.69
361.616	99.69
361.843	89.69
362.07	82.69
362.296	100.69
362.523	89.69
362.749	90.69
362.976	80.69
363.203	93.69
363.429	88.69
363.656	86.69
363.882	104.69
364.109	83.69
364.335	80.69
364.562	80.69
364.788	90.69
365.015	84.69
365.241	87.69
365.468	92.69
365.694	93.69
365.92	85.69
366.147	84.69
366.373	90.69
366.599	85.69
366.826	87.69
367.052	83.69
367.278	80.69
367.505	87.69
367.731	88.69
367.957	98.69
368.184	79.69
368.41	94.69
368.636	80.69
368.862	83.69
369.089	88.69
369.315	91.69
369.541	80.69
369.767	92.69
369.993	97.69
370.219	72.69
370.445	102.69
370.672	101.69
370.898	74.69
371.124	77.69
371.35	90.69
371.576	93.69
371.802	83.69
372.028	90.69
372.254	83.69
372.48	68.69
372.706	90.69
372.932	113.69
373.158	82.69
373.384	99.69
373.61	91.69
373.835	91.69
374.061	94.69
374.287	76.69
374.513	85.69
374.739	91.69
374.965	90.69
375.191	92.69
375.416	85.69
375.642	77.69
375.868	104.69
376.094	92.69
376.319	101.69
376.545	93.69
376.771	91.69
376.997	95.69
377.222	98.69
377.448	97.69
377.674	88.69
377.899	83.69
378.125	91.69
378.35	98.69
378.576	90.69
378.802	89.69
379.027	90.69
379.253	84.69
379.478	95.69
379.704	86.69
379.929	96.69
380.155	105.69
380.38	101.69
380.606	84.69
380.831	86.69
381.057	99.69
381.282	87.69
381.507	86.69
381.733	99.69
381.958	87.69
382.184	86.69
382.409	91.69
382.634	81.69
382.86	76.69
383.085	95.69
383.31	84.69
383.535	90.69
383.761	106.69
383.986	92.69
384.211	79.69
384.436	80.69
384.662	99.69
384.887	92.69
385.112	83.69
385.337	68.69
385.562	74.69
385.787	83.69
386.013	96.69
386.238	92.69
386.463	95.69
386.688	92.69
386.913	85.69
387.138	80.69
387.363	79.69
387.588	103.69
387.813	102.69
388.038	84.69
388.263	82.69
388.488	105.69
388.713	85.69
388.938	93.69
389.163	87.69
389.387	91.69
389.612	98.69
389.837	76.69
390.062	87.69
390.287	95.69
390.512	86.69
390.736	83.69
390.961	86.69
391.186	84.69
391.411	90.69
391.636	83.69
391.86	85.69
392.085	101.69
392.31	100.69
392.534	84.69
392.759	88.69
392.984	98.69
393.208	95.69
393.433	91.69
393.658	92.69
393.882	91.69
394.107	101.69
394.331	94.69
394.556	92.69
394.78	100.69
395.005	95.69
395.229	95.69
395.454	91.69
395.678	88.69
395.903	86.69
396.127	103.69
396.352	103.69
396.576	95.69
396.801	99.69
397.025	101.69
397.249	102.69
397.474	91.69
397.698	96.69
397.922	83.69
398.147	81.69
398.371	82.69
398.595	92.69
398.82	90.69
399.044	95.69
399.268	93.69
399.492	96.69
399.717	91.69
399.941	91.69
400.165	106.69
400.389	91.69
400.613	95.69
400.837	75.69
401.062	89.69
401.286	95.69
401.51	98.69
401.734	84.69
401.958	105.69
402.182	89.69
402.406	106.69
402.63	94.69
402.854	90.69
403.078	97.69
403.302	78.69
403.526	90.69
403.75	95.69
403.974	97.69
404.198	73.69
404.422	93.69
404.645	89.69
404.869	91.69
405.093	97.69
405.317	93.69
405.541	82.69
405.765	101.69
405.988	95.69
406.212	80.69
406.436	93.69
406.66	86.69
406.883	78.69
407.107	101.69
407.331	80.69
407.555	86.69
407.778	87.69
408.002	104.69
408.226	86.69
408.449	89.69
408.673	100.69
408.896	111.69
409.12	88.69
409.344	105.69
409.567	95.69
409.791	93.69
410.014	93.69
410.238	90.69
410.461	90.69
410.685	98.69
410.908	106.69
411.132	100.69
411.355	104.69
411.578	104.69
411.802	84.69
412.025	90.69
412.249	93.69
412.472	87.69
412.695	99.69
412.919	103.69
413.142	87.69
413.365	100.69
413.589	77.69
413.812	92.69
414.035	113.69
414.258	103.69
414.482	98.69
414.705	106.69
414.928	99.69
415.151	96.69
415.374	115.69
415.597	84.69
415.821	98.69
416.044	87.69
416.267	98.69
416.49	90.69
416.713	91.69
416.936	96.69
417.159	100.69
417.382	83.69
417.605	96.69
417.828	89.69
418.051	97.69
418.274	95.69
418.497	85.69
418.72	95.69
418.943	96.69
419.166	111.69
419.389	98.69
419.611	104.69
419.834	100.69
420.057	100.69
420.28	89.69
420.503	103.69
420.726	95.69
420.948	104.69
421.171	95.69
421.394	90.69
421.617	106.69
421.839	99.69
422.062	99.69
422.285	92.69
422.507	91.69
422.73	96.69
422.953	90.69
423.175	87.69
423.398	103.69
423.621	103.69
423.843	95.69
424.066	95.69
424.288	102.69
424.511	103.69
424.733	104.69
424.956	90.69
425.178	87.69
425.401	102.69
425.623	103.69
425.846	116.69
426.068	100.69
426.291	94.69
426.513	99.69
426.735	92.69
426.958	89.69
427.18	102.69
427.402	94.69
427.625	104.69
427.847	106.69
428.069	81.69
428.292	103.69
428.514	106.69
428.736	110.69
428.958	94.69
429.181	105.69
429.403	105.69
429.625	93.69
429.847	94.69
430.069	104.69
430.292	99.69
430.514	96.69
430.736	102.69
430.958	96.69
431.18	117.69
431.402	98.69
431.624	82.69
431.846	105.69
432.068	98.69
432.29	82.69
432.512	92.69
432.734	99.69
432.956	87.69
433.178	115.69
433.4	108.69
433.622	102.69
433.844	92.69
434.066	98.69
434.287	87.69
434.509	88.69
434.731	78.69
434.953	92.69
435.175	95.69
435.397	93.69
435.618	93.69
435.84	91.69
436.062	101.69
436.284	101.69
436.505	106.69
436.727	101.69
436.949	89.69
437.17	103.69
437.392	93.69
437.614	88.69
437.835	93.69
438.057	106.69
438.278	95.69
438.5	99.69
438.721	110.69
438.943	109.69
439.165	125.69
439.386	107.69
439.608	116.69
439.829	108.69
440.05	90.69
440.272	115.69
440.493	98.69
440.715	113.69
440.936	102.69
441.158	106.69
441.379	115.69
441.6	102.69
441.822	105.69
442.043	108.69
442.264	100.69
442.486	102.69
442.707	101.69
442.928	107.69
443.149	115.69
443.371	95.69
443.592	110.69
443.813	88.69
444.034	112.69
444.255	89.69
444.476	108.69
444.698	110.69
444.919	97.69
445.14	195.69
445.361	141.69
445.582	93.69
445.803	90.69
446.024	121.69
446.245	106.69
446.466	112.69
446.687	95.69
446.908	106.69
447.129	99.69
447.35	98.69
447.571	110.69
447.792	106.69
448.013	104.69
448.234	110.69
448.455	91.69
448.675	94.69
448.896	93.69
449.117	92.69
449.338	117.69
449.559	107.69
449.779	93.69
450	87.69
450.221	102.69
450.442	100.69
450.662	100.69
450.883	114.69
451.104	102.69
451.324	106.69
451.545	100.69
451.766	100.69
451.986	98.69
452.207	108.69
452.428	103.69
452.648	97.69
452.869	104.69
453.089	100.69
453.31	78.69
453.53	83.69
453.751	100.69
453.971	90.69
454.192	87.69
454.412	86.69
454.633	85.69
454.853	81.69
455.073	84.69
455.294	105.69
455.514	105.69
455.734	107.69
455.955	90.69
456.175	87.69
456.395	89.69
456.616	97.69
456.836	95.69
457.056	96.69
457.276	91.69
457.497	86.69
457.717	100.69
457.937	91.69
458.157	92.69
458.377	72.69
458.598	82.69
458.818	88.69
459.038	87.69
459.258	106.69
459.478	83.69
459.698	91.69
459.918	95.69
460.138	79.69
460.358	72.69
460.578	87.69
460.798	91.69
461.018	90.69
461.238	95.69
461.458	96.69
461.678	96.69
461.898	106.69
462.118	95.69
462.338	108.69
462.558	99.69
462.777	88.69
462.997	87.69
463.217	88.69
463.437	84.69
463.657	81.69
463.876	103.69
464.096	81.69
464.316	87.69
464.536	84.69
464.755	81.69
464.975	93.69
465.195	102.69
465.414	88.69
465.634	70.69
465.854	88.69
466.073	96.69
466.293	90.69
466.512	91.69
466.732	96.69
466.951	104.69
467.171	80.69
467.391	97.69
467.61	97.69
467.829	89.69
468.049	108.69
468.268	98.69
468.488	96.69
468.707	98.69
468.927	98.69
469.146	102.69
469.365	95.69
469.585	105.69
469.804	111.69
470.023	111.69
470.243	91.69
470.462	109.69
470.681	94.69
470.901	83.69
471.12	108.69
471.339	99.69
471.558	110.69
471.777	102.69
471.997	102.69
472.216	97.69
472.435	94.69
472.654	86.69
472.873	93.69
473.092	102.69
473.311	87.69
473.53	100.69
473.749	105.69
473.968	91.69
474.187	91.69
474.406	89.69
474.625	95.69
474.844	120.69
475.063	98.69
475.282	94.69
475.501	107.69
475.72	96.69
475.939	88.69
476.158	95.69
476.377	90.69
476.596	95.69
476.814	98.69
477.033	88.69
477.252	95.69
477.471	111.69
477.69	110.69
477.908	107.69
478.127	108.69
478.346	93.69
478.564	101.69
478.783	91.69
479.002	100.69
479.22	94.69
479.439	87.69
479.658	71.69
479.876	84.69
480.095	88.69
480.313	103.69
480.532	90.69
480.751	96.69
480.969	89.69
481.188	91.69
481.406	92.69
481.624	86.69
481.843	90.69
482.061	87.69
482.28	95.69
482.498	84.69
482.717	92.69
482.935	105.69
483.153	92.69
483.372	99.69
483.59	108.69
483.808	109.69
484.027	102.69
484.245	108.69
484.463	101.69
484.681	93.69
484.9	102.69
485.118	109.69
485.336	98.69
485.554	81.69
485.772	90.69
485.99	83.69
486.209	108.69
486.427	103.69
486.645	96.69
486.863	117.69
487.081	106.69
487.299	93.69
487.517	96.69
487.735	102.69
487.953	107.69
488.171	122.69
488.389	100.69
488.607	113.69
488.825	107.69
489.043	108.69
489.261	102.69
489.479	109.69
489.696	116.69
489.914	101.69
490.132	101.69
490.35	97.69
490.568	107.69
490.786	118.69
491.003	111.69
491.221	114.69
491.439	122.69
491.657	112.69
491.874	124.69
492.092	116.69
492.31	145.69
492.527	121.69
492.745	110.69
492.963	101.69
493.18	118.69
493.398	112.69
493.615	118.69
493.833	122.69
494.05	106.69
494.268	111.69
494.485	105.69
494.703	115.69
494.92	108.69
495.138	112.69
495.355	118.69
495.573	122.69
495.79	106.69
496.008	116.69
496.225	110.69
496.442	122.69
496.66	121.69
496.877	108.69
497.094	114.69
497.312	103.69
497.529	110.69
497.746	94.69
497.963	93.69
498.181	104.69
498.398	101.69
498.615	99.69
498.832	92.69
499.049	89.69
499.267	98.69
499.484	107.69
499.701	95.69
499.918	115.69
500.135	106.69
500.352	105.69
500.569	104.69
500.786	86.69
501.003	101.69
501.22	102.69
501.437	92.69
501.654	105.69
501.871	104.69
502.088	101.69
502.305	100.69
502.522	101.69
502.739	92.69
502.956	99.69
503.172	103.69
503.389	99.69
503.606	99.69
503.823	99.69
504.04	92.69
504.256	107.69
504.473	82.69
504.69	85.69
504.907	92.69
505.123	97.69
505.34	80.69
505.557	89.69
505.773	90.69
505.99	106.69
506.207	88.69
506.423	93.69
506.64	99.69
506.856	98.69
507.073	100.69
507.289	94.69
507.506	96.69
507.722	103.69
507.939	96.69
508.155	102.69
508.372	81.69
508.588	93.69
508.805	103.69
509.021	90.69
509.238	85.69
509.454	91.69
509.67	84.69
509.887	95.69
510.103	94.69
510.319	88.69
510.536	95.69
510.752	95.69
510.968	92.69
511.184	84.69
511.401	106.69
511.617	84.69
511.833	82.69
512.049	79.69
512.265	71.69
512.481	90.69
512.698	90.69
512.914	79.69
513.13	91.69
513.346	89.69
513.562	77.69
513.778	109.69
513.994	104.69
514.21	98.69
514.426	104.69
514.642	86.69
514.858	93.69
515.074	95.69
515.29	99.69
515.506	78.69
515.721	88.69
515.937	75.69
516.153	80.69
516.369	95.69
516.585	86.69
516.801	81.69
517.016	77.69
517.232	88.69
517.448	86.69
517.664	103.69
517.879	89.69
518.095	92.69
518.311	77.69
518.527	80.69
518.742	88.69
518.958	92.69
519.173	93.69
519.389	92.69
519.605	102.69
519.82	101.69
520.036	87.69
520.251	89.69
520.467	92.69
520.682	106.69
520.898	82.69
521.113	94.69
521.329	96.69
521.544	92.69
521.76	83.69
521.975	74.69
522.19	83.69
522.406	79.69
522.621	85.69
522.836	84.69
523.052	83.69
523.267	103.69
523.482	79.69
523.698	88.69
523.913	103.69
524.128	103.69
524.343	95.69
524.559	90.69
524.774	96.69
524.989	90.69
525.204	95.69
525.419	102.69
525.634	83.69
525.849	80.69
526.064	81.69
526.28	87.69
526.495	89.69
526.71	85.69
526.925	91.69
527.14	97.69
527.355	83.69
527.57	103.69
527.785	87.69
527.999	97.69
528.214	88.69
528.429	103.69
528.644	92.69
528.859	86.69
529.074	115.69
529.289	118.69
529.503	107.69
529.718	105.69
529.933	95.69
530.148	89.69
530.363	90.69
530.577	89.69
530.792	75.69
531.007	86.69
531.221	79.69
531.436	88.69
531.651	101.69
531.865	85.69
532.08	98.69
532.295	79.69
532.509	84.69
532.724	90.69
532.938	91.69
533.153	85.69
533.367	87.69
533.582	97.69
533.796	94.69
534.011	94.69
534.225	94.69
534.44	96.69
534.654	102.69
534.868	78.69
535.083	96.69
535.297	93.69
535.511	87.69
535.726	94.69
535.94	106.69
536.154	86.69
536.369	80.69
536.583	88.69
536.797	86.69
537.011	72.69
537.225	82.69
537.44	81.69
537.654	87.69
537.868	76.69
538.082	95.69
538.296	101.69
538.51	86.69
538.724	97.69
538.938	103.69
539.153	115.69
539.367	94.69
539.581	98.69
539.795	90.69
540.009	82.69
540.222	87.69
540.436	87.69
540.65	97.69
540.864	99.69
541.078	107.69
541.292	101.69
541.506	126.69
541.72	119.69
541.934	110.69
542.147	117.69
542.361	111.69
542.575	107.69
542.789	118.69
543.002	95.69
543.216	96.69
543.43	91.69
543.644	97.69
543.857	101.69
544.071	107.69
544.285	106.69
544.498	123.69
544.712	118.69
544.925	98.69
545.139	96.69
545.352	109.69
545.566	102.69
545.779	110.69
545.993	107.69
546.206	127.69
546.42	93.69
546.633	110.69
546.847	110.69
547.06	128.69
547.274	109.69
547.487	125.69
547.7	114.69
547.914	94.69
548.127	119.69
548.34	108.69
548.554	110.69
548.767	103.69
548.98	104.69
549.193	114.69
549.407	102.69
549.62	114.69
549.833	107.69
550.046	100.69
550.259	116.69
550.473	94.69
550.686	97.69
550.899	118.69
551.112	108.69
551.325	111.69
551.538	106.69
551.751	86.69
551.964	103.69
552.177	105.69
552.39	104.69
552.603	101.69
552.816	109.69
553.029	110.69
553.242	103.69
553.455	118.69
553.667	115.69
553.88	116.69
554.093	109.69
554.306	104.69
554.519	91.69
554.732	94.69
554.944	114.69
555.157	97.69
555.37	108.69
555.583	110.69
555.795	108.69
556.008	100.69
556.221	114.69
556.433	82.69
556.646	96.69
556.859	99.69
557.071	110.69
557.284	100.69
557.496	117.69
557.709	100.69
557.921	99.69
558.134	110.69
558.346	101.69
558.559	103.69
558.771	97.69
558.984	104.69
559.196	91.69
559.409	98.69
559.621	110.69
559.833	97.69
560.046	100.69
560.258	108.69
560.47	96.69
560.683	103.69
560.895	92.69
561.107	103.69
561.32	97.69
561.532	106.69
561.744	98.69
561.956	103.69
562.168	97.69
562.381	109.69
562.593	111.69
562.805	106.69
563.017	101.69
563.229	100.69
563.441	96.69
563.653	91.69
563.865	103.69
564.077	116.69
564.289	103.69
564.501	97.69
564.713	97.69
564.925	89.69
565.137	90.69
565.349	97.69
565.561	94.69
565.773	103.69
565.985	111.69
566.197	87.69
566.408	96.69
566.62	98.69
566.832	92.69
567.044	89.69
567.255	94.69
567.467	102.69
567.679	110.69
567.891	90.69
568.102	88.69
568.314	98.69
568.526	88.69
568.737	103.69
568.949	86.69
569.161	83.69
569.372	94.69
569.584	91.69
569.795	90.69
570.007	86.69
570.218	85.69
570.43	97.69
570.641	88.69
570.853	90.69
571.064	76.69
571.276	93.69
571.487	101.69
571.698	81.69
571.91	87.69
572.121	94.69
572.333	111.69
572.544	100.69
572.755	99.69
572.966	87.69
573.178	85.69
573.389	95.69
573.6	87.69
573.811	88.69
574.023	92.69
574.234	87.69
574.445	84.69
574.656	97.69
574.867	99.69
575.078	90.69
575.289	87.69
575.501	96.69
575.712	93.69
575.923	78.69
576.134	99.69
576.345	86.69
576.556	95.69
576.767	83.69
576.978	80.69
577.188	87.69
577.399	90.69
577.61	91.69
577.821	93.69
578.032	92.69
578.243	114.69
578.454	91.69
578.665	88.69
578.875	76.69
579.086	90.69
579.297	92.69
579.508	78.69
579.718	96.69
579.929	89.69
580.14	101.69
580.35	88.69
580.561	95.69
580.772	86.69
580.982	82.69
581.193	77.69
581.403	90.69
581.614	89.69
581.825	93.69
582.035	77.69
582.246	93.69
582.456	88.69
582.667	83.69
582.877	101.69
583.087	87.69
583.298	93.69
583.508	80.69
583.719	87.69
583.929	86.69
584.139	95.69
584.35	91.69
584.56	82.69
584.77	86.69
584.981	91.69
585.191	80.69
585.401	105.69
585.611	87.69
585.821	84.69
586.032	83.69
586.242	78.69
586.452	88.69
586.662	75.69
586.872	80.69
587.082	95.69
587.292	101.69
587.502	77.69
587.713	82.69
587.923	86.69
588.133	87.69
588.343	89.69
588.553	87.69
588.762	85.69
588.972	67.69
589.182	86.69
589.392	92.69
589.602	92.69
589.812	83.69
590.022	99.69
590.232	83.69
590.441	84.69
590.651	78.69
590.861	91.69
591.071	94.69
591.281	96.69
591.49	98.69
591.7	77.69
591.91	91.69
592.119	72.69
592.329	86.69
592.539	95.69
592.748	92.69
592.958	101.69
593.167	73.69
593.377	93.69
593.587	89.69
593.796	83.69
594.006	96.69
594.215	90.69
594.424	94.69
594.634	86.69
594.843	89.69
595.053	99.69
595.262	84.69
595.472	90.69
595.681	88.69
595.89	79.69
596.1	85.69
596.309	94.69
596.518	95.69
596.727	101.69
596.937	97.69
597.146	99.69
597.355	99.69
597.564	89.69
597.774	91.69
597.983	71.69
598.192	94.69
598.401	77.69
598.61	79.69
598.819	84.69
599.028	94.69
599.237	87.69
599.446	84.69
599.655	86.69
599.864	76.69
600.073	80.69
600.282	96.69
600.491	97.69
600.7	88.69
600.909	97.69
601.118	109.69
601.327	87.69
601.536	78.69
601.745	93.69
601.953	74.69
602.162	84.69
602.371	87.69
602.58	93.69
602.789	87.69
602.997	106.69
603.206	101.69
603.415	97.69
603.623	93.69
603.832	110.69
604.041	94.69
604.249	101.69
604.458	94.69
604.666	104.69
604.875	111.69
605.084	95.69
605.292	94.69
605.501	90.69
605.709	100.69
605.918	97.69
606.126	99.69
606.334	100.69
606.543	98.69
606.751	86.69
606.96	95.69
607.168	92.69
607.376	99.69
607.585	88.69
607.793	95.69
608.001	93.69
608.21	102.69
608.418	103.69
608.626	97.69
608.834	95.69
609.043	103.69
609.251	96.69
609.459	91.69
609.667	105.69
609.875	100.69
610.083	100.69
610.291	90.69
610.499	97.69
610.707	90.69
610.916	95.69
611.124	111.69
611.332	102.69
611.54	98.69
611.748	95.69
611.955	93.69
612.163	87.69
612.371	98.69
612.579	103.69
612.787	91.69
612.995	100.69
613.203	93.69
613.411	104.69
613.618	96.69
613.826	86.69
614.034	99.69
614.242	98.69
614.449	84.69
614.657	101.69
614.865	100.69
615.072	106.69
615.28	103.69
615.488	80.69
615.695	106.69
615.903	108.69
616.111	97.69
616.318	95.69
616.526	100.69
616.733	106.69
616.941	95.69
617.148	100.69
617.356	94.69
617.563	85.69
617.771	102.69
617.978	83.69
618.185	86.69
618.393	92.69
618.6	83.69
618.807	87.69
619.015	101.69
619.222	85.69
619.429	95.69
619.637	96.69
619.844	100.69
620.051	94.69
620.258	98.69
620.466	95.69
620.673	101.69
620.88	90.69
621.087	94.69
621.294	93.69
621.501	99.69
621.708	94.69
621.915	101.69
622.122	103.69
622.329	96.69
622.536	91.69
622.743	80.69
622.95	82.69
623.157	88.69
623.364	93.69
623.571	84.69
623.778	97.69
623.985	97.69
624.192	75.69
624.399	96.69
624.606	91.69
624.812	103.69
625.019	88.69
625.226	82.69
625.433	95.69
625.639	87.69
625.846	75.69
626.053	90.69
626.259	75.69
626.466	87.69
626.673	84.69
626.879	88.69
627.086	84.69
627.293	97.69
627.499	96.69
627.706	101.69
627.912	104.69
628.119	91.69
628.325	98.69
628.532	84.69
628.738	84.69
628.945	92.69
629.151	109.69
629.357	94.69
629.564	99.69
629.77	111.69
629.976	94.69
630.183	102.69
630.389	91.69
630.595	104.69
630.802	84.69
631.008	98.69
631.214	92.69
631.42	92.69
631.627	102.69
631.833	85.69
632.039	108.69
632.245	85.69
632.451	93.69
632.657	95.69
632.863	93.69
633.069	91.69
633.275	102.69
633.481	76.69
633.688	104.69
633.893	91.69
634.099	91.69
634.305	99.69
634.511	89.69
634.717	82.69
634.923	88.69
635.129	86.69
635.335	97.69
635.541	94.69
635.747	96.69
635.952	87.69
636.158	97.69
636.364	103.69
636.57	77.69
636.775	104.69
636.981	95.69
637.187	96.69
637.392	98.69
637.598	87.69
637.804	91.69
638.009	80.69
638.215	94.69
638.421	102.69
638.626	87.69
638.832	92.69
639.037	92.69
639.243	102.69
639.448	102.69
639.654	106.69
639.859	95.69
640.065	102.69
640.27	97.69
640.475	82.69
640.681	89.69
640.886	94.69
641.091	88.69
641.297	97.69
641.502	86.69
641.707	102.69
641.913	95.69
642.118	99.69
642.323	103.69
642.528	95.69
642.733	102.69
642.939	75.69
643.144	86.69
643.349	101.69
643.554	104.69
643.759	101.69
643.964	84.69
644.169	83.69
644.374	89.69
644.579	86.69
644.784	94.69
644.989	96.69
645.194	89.69
645.399	91.69
645.604	74.69
645.809	107.69
646.014	86.69
646.219	92.69
646.423	97.69
646.628	88.69
646.833	92.69
647.038	83.69
647.243	98.69
647.447	78.69
647.652	86.69
647.857	95.69
648.062	90.69
648.266	84.69
648.471	100.69
648.676	86.69
648.88	78.69
649.085	89.69
649.289	90.69
649.494	87.69
649.698	99.69
649.903	86.69
650.107	90.69
650.312	95.69
650.516	99.69
650.721	87.69
650.925	87.69
651.13	78.69
651.334	72.69
651.539	91.69
651.743	77.69
651.947	99.69
652.152	91.69
652.356	69.69
652.56	89.69
652.764	78.69
652.969	85.69
653.173	85.69
653.377	94.69
653.581	78.69
653.785	84.69
653.99	89.69
654.194	78.69
654.398	98.69
654.602	79.69
654.806	89.69
655.01	96.69
655.214	99.69
655.418	92.69
655.622	93.69
655.826	91.69
656.03	82.69
656.234	86.69
656.438	83.69
656.642	99.69
656.846	95.69
657.049	83.69
657.253	70.69
657.457	75.69
657.661	87.69
657.865	101.69
658.068	96.69
658.272	95.69
658.476	91.69
658.68	94.69
658.883	96.69
659.087	93.69
659.291	76.69
659.494	99.69
659.698	81.69
659.901	93.69
660.105	95.69
660.309	80.69
660.512	86.69
660.716	91.69
660.919	84.69
661.123	91.69
661.326	99.69
661.53	88.69
661.733	81.69
661.936	78.69
662.14	94.69
662.343	101.69
662.546	87.69
662.75	82.69
662.953	95.69
663.156	96.69
663.36	87.69
663.563	89.69
663.766	85.69
663.969	76.69
664.173	81.69
664.376	81.69
664.579	92.69
664.782	87.69
664.985	86.69
665.188	78.69
665.391	100.69
665.594	99.69
665.797	80.69
666	99.69
666.203	99.69
666.406	77.69
666.609	90.69
666.812	78.69
667.015	69.69
667.218	86.69
667.421	90.69
667.624	83.69
667.827	90.69
668.03	88.69
668.232	79.69
668.435	86.69
668.638	79.69
668.841	71.69
669.043	103.69
669.246	83.69
669.449	82.69
669.651	91.69
669.854	86.69
670.057	76.69
670.259	103.69
670.462	88.69
670.665	90.69
670.867	97.69
671.07	77.69
671.272	90.69
671.475	90.69
671.677	75.69
671.88	78.69
672.082	91.69
672.284	89.69
672.487	102.69
672.689	92.69
672.892	79.69
