Data from Location4.07152019.Energy5.Lamp.07192019.3%Agarose_HRD10591_15-24-10-577.txt Node
Date: Fri Jul 19 15:24:10 EDT 2019
User: cochatt
Spectrometer: HR+D1059
Trigger mode: 1
Integration Time (sec): 1.000000E-1
Scans to average: 1
Electric dark correction enabled: true
Nonlinearity correction enabled: false
Boxcar width: 0
XAxis mode: Wavelengths
Number of Pixels in Spectrum: 2048
>>>>>Begin Spectral Data<<<<<
223.165	-20.31
223.4	-20.31
223.635	-20.31
223.869	-0.31
224.104	-19.31
224.338	-15.31
224.573	-22.31
224.808	-18.31
225.042	0.69
225.277	0.69
225.511	3.69
225.746	6.69
225.98	4.69
226.215	3.69
226.449	14.69
226.683	12.69
226.918	7.69
227.152	40.69
227.387	35.69
227.621	53.69
227.856	41.69
228.09	56.69
228.324	42.69
228.559	63.69
228.793	61.69
229.027	48.69
229.262	81.69
229.496	61.69
229.73	66.69
229.964	82.69
230.199	73.69
230.433	77.69
230.667	80.69
230.901	76.69
231.136	88.69
231.37	85.69
231.604	85.69
231.838	78.69
232.072	92.69
232.306	76.69
232.541	95.69
232.775	91.69
233.009	85.69
233.243	87.69
233.477	92.69
233.711	78.69
233.945	78.69
234.179	96.69
234.413	95.69
234.647	85.69
234.881	82.69
235.115	80.69
235.349	68.69
235.583	95.69
235.817	77.69
236.051	65.69
236.285	64.69
236.519	85.69
236.753	80.69
236.987	75.69
237.221	73.69
237.455	84.69
237.689	61.69
237.922	78.69
238.156	83.69
238.39	84.69
238.624	73.69
238.858	81.69
239.091	83.69
239.325	74.69
239.559	76.69
239.793	89.69
240.027	86.69
240.26	75.69
240.494	81.69
240.728	82.69
240.961	70.69
241.195	82.69
241.429	90.69
241.662	83.69
241.896	77.69
242.13	79.69
242.363	78.69
242.597	86.69
242.83	97.69
243.064	62.69
243.298	80.69
243.531	78.69
243.765	88.69
243.998	82.69
244.232	90.69
244.465	83.69
244.699	59.69
244.932	84.69
245.166	88.69
245.399	81.69
245.633	60.69
245.866	71.69
246.099	74.69
246.333	82.69
246.566	77.69
246.8	86.69
247.033	69.69
247.266	91.69
247.5	78.69
247.733	83.69
247.966	78.69
248.2	76.69
248.433	77.69
248.666	73.69
248.899	75.69
249.133	77.69
249.366	78.69
249.599	68.69
249.832	79.69
250.066	84.69
250.299	80.69
250.532	68.69
250.765	77.69
250.998	81.69
251.231	64.69
251.465	82.69
251.698	77.69
251.931	83.69
252.164	85.69
252.397	84.69
252.63	88.69
252.863	96.69
253.096	81.69
253.329	76.69
253.562	78.69
253.795	92.69
254.028	85.69
254.261	72.69
254.494	82.69
254.727	78.69
254.96	77.69
255.193	96.69
255.426	96.69
255.659	65.69
255.892	78.69
256.124	90.69
256.357	83.69
256.59	82.69
256.823	87.69
257.056	73.69
257.289	89.69
257.521	78.69
257.754	79.69
257.987	79.69
258.22	72.69
258.452	76.69
258.685	77.69
258.918	81.69
259.151	74.69
259.383	85.69
259.616	72.69
259.849	74.69
260.081	84.69
260.314	66.69
260.547	84.69
260.779	67.69
261.012	73.69
261.244	78.69
261.477	85.69
261.71	67.69
261.942	83.69
262.175	79.69
262.407	81.69
262.64	82.69
262.872	84.69
263.105	92.69
263.337	84.69
263.57	71.69
263.802	81.69
264.035	97.69
264.267	89.69
264.499	79.69
264.732	82.69
264.964	86.69
265.197	73.69
265.429	76.69
265.661	86.69
265.894	83.69
266.126	86.69
266.358	97.69
266.591	83.69
266.823	81.69
267.055	84.69
267.287	78.69
267.52	84.69
267.752	89.69
267.984	88.69
268.216	81.69
268.448	85.69
268.681	91.69
268.913	99.69
269.145	82.69
269.377	100.69
269.609	84.69
269.841	85.69
270.073	77.69
270.306	76.69
270.538	82.69
270.77	77.69
271.002	86.69
271.234	81.69
271.466	82.69
271.698	84.69
271.93	102.69
272.162	85.69
272.394	86.69
272.626	105.69
272.858	92.69
273.09	75.69
273.322	88.69
273.553	88.69
273.785	88.69
274.017	77.69
274.249	91.69
274.481	91.69
274.713	92.69
274.945	84.69
275.176	90.69
275.408	89.69
275.64	106.69
275.872	86.69
276.104	74.69
276.335	82.69
276.567	77.69
276.799	79.69
277.031	82.69
277.262	84.69
277.494	85.69
277.726	83.69
277.957	85.69
278.189	89.69
278.421	95.69
278.652	82.69
278.884	88.69
279.115	88.69
279.347	92.69
279.579	93.69
279.81	86.69
280.042	93.69
280.273	79.69
280.505	64.69
280.736	86.69
280.968	78.69
281.199	95.69
281.431	93.69
281.662	91.69
281.894	81.69
282.125	87.69
282.356	91.69
282.588	91.69
282.819	69.69
283.051	87.69
283.282	87.69
283.513	89.69
283.745	89.69
283.976	73.69
284.207	83.69
284.439	74.69
284.67	84.69
284.901	104.69
285.132	105.69
285.364	88.69
285.595	87.69
285.826	89.69
286.057	102.69
286.288	86.69
286.52	95.69
286.751	73.69
286.982	88.69
287.213	90.69
287.444	78.69
287.675	83.69
287.906	78.69
288.138	79.69
288.369	85.69
288.6	78.69
288.831	85.69
289.062	78.69
289.293	85.69
289.524	79.69
289.755	86.69
289.986	89.69
290.217	77.69
290.448	75.69
290.679	85.69
290.91	87.69
291.141	97.69
291.371	86.69
291.602	71.69
291.833	94.69
292.064	80.69
292.295	93.69
292.526	94.69
292.757	95.69
292.987	90.69
293.218	88.69
293.449	93.69
293.68	102.69
293.91	89.69
294.141	76.69
294.372	89.69
294.603	85.69
294.833	89.69
295.064	94.69
295.295	94.69
295.525	99.69
295.756	86.69
295.987	97.69
296.217	74.69
296.448	96.69
296.679	86.69
296.909	92.69
297.14	89.69
297.37	92.69
297.601	82.69
297.831	92.69
298.062	84.69
298.292	77.69
298.523	91.69
298.753	92.69
298.984	89.69
299.214	89.69
299.445	99.69
299.675	97.69
299.905	85.69
300.136	80.69
300.366	87.69
300.597	84.69
300.827	79.69
301.057	85.69
301.288	81.69
301.518	82.69
301.748	82.69
301.979	84.69
302.209	81.69
302.439	98.69
302.669	84.69
302.9	98.69
303.13	97.69
303.36	98.69
303.59	71.69
303.82	86.69
304.051	101.69
304.281	94.69
304.511	91.69
304.741	76.69
304.971	104.69
305.201	82.69
305.431	78.69
305.661	77.69
305.891	83.69
306.121	82.69
306.352	88.69
306.582	91.69
306.812	85.69
307.042	86.69
307.272	92.69
307.502	87.69
307.731	81.69
307.961	101.69
308.191	93.69
308.421	80.69
308.651	85.69
308.881	93.69
309.111	86.69
309.341	83.69
309.571	70.69
309.8	82.69
310.03	94.69
310.26	75.69
310.49	85.69
310.72	81.69
310.949	95.69
311.179	90.69
311.409	85.69
311.639	93.69
311.868	91.69
312.098	85.69
312.328	92.69
312.557	84.69
312.787	87.69
313.017	92.69
313.246	89.69
313.476	92.69
313.706	82.69
313.935	86.69
314.165	86.69
314.394	93.69
314.624	71.69
314.853	82.69
315.083	73.69
315.312	84.69
315.542	93.69
315.771	101.69
316.001	73.69
316.23	69.69
316.46	88.69
316.689	81.69
316.919	94.69
317.148	81.69
317.377	87.69
317.607	97.69
317.836	100.69
318.065	84.69
318.295	87.69
318.524	87.69
318.753	92.69
318.983	75.69
319.212	81.69
319.441	92.69
319.67	87.69
319.9	88.69
320.129	85.69
320.358	90.69
320.587	81.69
320.816	89.69
321.046	76.69
321.275	84.69
321.504	85.69
321.733	91.69
321.962	97.69
322.191	85.69
322.42	78.69
322.649	92.69
322.878	89.69
323.108	87.69
323.337	74.69
323.566	90.69
323.795	79.69
324.024	94.69
324.253	73.69
324.482	87.69
324.71	88.69
324.939	76.69
325.168	79.69
325.397	80.69
325.626	79.69
325.855	100.69
326.084	87.69
326.313	85.69
326.542	93.69
326.77	79.69
326.999	82.69
327.228	90.69
327.457	88.69
327.686	85.69
327.914	70.69
328.143	98.69
328.372	74.69
328.6	87.69
328.829	86.69
329.058	90.69
329.287	85.69
329.515	95.69
329.744	103.69
329.972	79.69
330.201	104.69
330.43	83.69
330.658	79.69
330.887	94.69
331.115	92.69
331.344	90.69
331.572	100.69
331.801	81.69
332.03	88.69
332.258	89.69
332.486	93.69
332.715	98.69
332.943	100.69
333.172	82.69
333.4	84.69
333.629	81.69
333.857	84.69
334.085	99.69
334.314	89.69
334.542	97.69
334.771	84.69
334.999	91.69
335.227	82.69
335.455	86.69
335.684	92.69
335.912	79.69
336.14	86.69
336.369	88.69
336.597	86.69
336.825	86.69
337.053	91.69
337.281	86.69
337.51	68.69
337.738	83.69
337.966	83.69
338.194	84.69
338.422	81.69
338.65	91.69
338.878	88.69
339.106	75.69
339.334	99.69
339.562	83.69
339.79	93.69
340.018	89.69
340.246	77.69
340.474	87.69
340.702	86.69
340.93	89.69
341.158	76.69
341.386	81.69
341.614	94.69
341.842	84.69
342.07	82.69
342.298	92.69
342.526	79.69
342.754	81.69
342.981	87.69
343.209	84.69
343.437	84.69
343.665	83.69
343.893	80.69
344.12	85.69
344.348	86.69
344.576	79.69
344.804	88.69
345.031	78.69
345.259	66.69
345.487	74.69
345.714	88.69
345.942	86.69
346.17	83.69
346.397	94.69
346.625	89.69
346.853	86.69
347.08	84.69
347.308	78.69
347.535	88.69
347.763	84.69
347.99	85.69
348.218	84.69
348.445	73.69
348.673	84.69
348.9	92.69
349.128	95.69
349.355	93.69
349.583	90.69
349.81	89.69
350.037	89.69
350.265	89.69
350.492	104.69
350.72	94.69
350.947	88.69
351.174	77.69
351.402	83.69
351.629	70.69
351.856	82.69
352.083	91.69
352.311	79.69
352.538	79.69
352.765	76.69
352.992	85.69
353.22	91.69
353.447	93.69
353.674	94.69
353.901	90.69
354.128	80.69
354.355	98.69
354.583	83.69
354.81	78.69
355.037	90.69
355.264	87.69
355.491	84.69
355.718	89.69
355.945	84.69
356.172	85.69
356.399	98.69
356.626	94.69
356.853	81.69
357.08	99.69
357.307	83.69
357.534	85.69
357.761	105.69
357.988	85.69
358.215	92.69
358.441	107.69
358.668	82.69
358.895	91.69
359.122	84.69
359.349	94.69
359.576	93.69
359.802	77.69
360.029	86.69
360.256	86.69
360.483	78.69
360.709	84.69
360.936	96.69
361.163	93.69
361.39	73.69
361.616	79.69
361.843	86.69
362.07	87.69
362.296	101.69
362.523	80.69
362.749	94.69
362.976	89.69
363.203	102.69
363.429	89.69
363.656	88.69
363.882	85.69
364.109	76.69
364.335	84.69
364.562	79.69
364.788	88.69
365.015	90.69
365.241	91.69
365.468	99.69
365.694	73.69
365.92	70.69
366.147	83.69
366.373	92.69
366.599	77.69
366.826	97.69
367.052	92.69
367.278	76.69
367.505	83.69
367.731	88.69
367.957	91.69
368.184	79.69
368.41	76.69
368.636	76.69
368.862	72.69
369.089	78.69
369.315	83.69
369.541	78.69
369.767	80.69
369.993	80.69
370.219	93.69
370.445	88.69
370.672	85.69
370.898	86.69
371.124	76.69
371.35	91.69
371.576	88.69
371.802	85.69
372.028	89.69
372.254	72.69
372.48	88.69
372.706	97.69
372.932	88.69
373.158	92.69
373.384	90.69
373.61	72.69
373.835	87.69
374.061	89.69
374.287	80.69
374.513	75.69
374.739	88.69
374.965	91.69
375.191	89.69
375.416	76.69
375.642	98.69
375.868	90.69
376.094	76.69
376.319	85.69
376.545	84.69
376.771	94.69
376.997	70.69
377.222	85.69
377.448	91.69
377.674	86.69
377.899	93.69
378.125	88.69
378.35	94.69
378.576	85.69
378.802	82.69
379.027	86.69
379.253	86.69
379.478	79.69
379.704	95.69
379.929	87.69
380.155	86.69
380.38	98.69
380.606	84.69
380.831	93.69
381.057	88.69
381.282	84.69
381.507	96.69
381.733	77.69
381.958	92.69
382.184	90.69
382.409	96.69
382.634	94.69
382.86	100.69
383.085	87.69
383.31	89.69
383.535	93.69
383.761	87.69
383.986	67.69
384.211	91.69
384.436	86.69
384.662	82.69
384.887	82.69
385.112	91.69
385.337	77.69
385.562	74.69
385.787	96.69
386.013	93.69
386.238	84.69
386.463	87.69
386.688	84.69
386.913	91.69
387.138	82.69
387.363	83.69
387.588	95.69
387.813	77.69
388.038	96.69
388.263	85.69
388.488	84.69
388.713	82.69
388.938	93.69
389.163	73.69
389.387	85.69
389.612	86.69
389.837	86.69
390.062	107.69
390.287	77.69
390.512	102.69
390.736	101.69
390.961	75.69
391.186	85.69
391.411	93.69
391.636	97.69
391.86	83.69
392.085	90.69
392.31	90.69
392.534	83.69
392.759	91.69
392.984	79.69
393.208	91.69
393.433	88.69
393.658	82.69
393.882	85.69
394.107	83.69
394.331	93.69
394.556	77.69
394.78	86.69
395.005	84.69
395.229	97.69
395.454	93.69
395.678	82.69
395.903	104.69
396.127	78.69
396.352	97.69
396.576	100.69
396.801	88.69
397.025	78.69
397.249	99.69
397.474	96.69
397.698	100.69
397.922	89.69
398.147	90.69
398.371	89.69
398.595	77.69
398.82	91.69
399.044	99.69
399.268	101.69
399.492	84.69
399.717	86.69
399.941	96.69
400.165	81.69
400.389	88.69
400.613	85.69
400.837	88.69
401.062	93.69
401.286	83.69
401.51	83.69
401.734	99.69
401.958	85.69
402.182	95.69
402.406	86.69
402.63	89.69
402.854	94.69
403.078	105.69
403.302	84.69
403.526	89.69
403.75	81.69
403.974	84.69
404.198	100.69
404.422	90.69
404.645	96.69
404.869	94.69
405.093	95.69
405.317	100.69
405.541	92.69
405.765	83.69
405.988	92.69
406.212	84.69
406.436	81.69
406.66	100.69
406.883	96.69
407.107	99.69
407.331	93.69
407.555	92.69
407.778	94.69
408.002	102.69
408.226	108.69
408.449	85.69
408.673	90.69
408.896	99.69
409.12	100.69
409.344	104.69
409.567	95.69
409.791	100.69
410.014	99.69
410.238	106.69
410.461	80.69
410.685	85.69
410.908	91.69
411.132	94.69
411.355	97.69
411.578	100.69
411.802	97.69
412.025	84.69
412.249	85.69
412.472	97.69
412.695	108.69
412.919	98.69
413.142	94.69
413.365	103.69
413.589	99.69
413.812	104.69
414.035	95.69
414.258	90.69
414.482	78.69
414.705	106.69
414.928	90.69
415.151	79.69
415.374	90.69
415.597	102.69
415.821	89.69
416.044	85.69
416.267	88.69
416.49	90.69
416.713	100.69
416.936	89.69
417.159	96.69
417.382	98.69
417.605	99.69
417.828	92.69
418.051	92.69
418.274	87.69
418.497	88.69
418.72	96.69
418.943	99.69
419.166	102.69
419.389	90.69
419.611	92.69
419.834	90.69
420.057	98.69
420.28	100.69
420.503	101.69
420.726	90.69
420.948	102.69
421.171	104.69
421.394	100.69
421.617	89.69
421.839	108.69
422.062	88.69
422.285	97.69
422.507	79.69
422.73	92.69
422.953	91.69
423.175	90.69
423.398	88.69
423.621	98.69
423.843	99.69
424.066	101.69
424.288	89.69
424.511	101.69
424.733	102.69
424.956	88.69
425.178	103.69
425.401	100.69
425.623	97.69
425.846	108.69
426.068	110.69
426.291	91.69
426.513	88.69
426.735	83.69
426.958	93.69
427.18	89.69
427.402	101.69
427.625	88.69
427.847	92.69
428.069	90.69
428.292	93.69
428.514	92.69
428.736	97.69
428.958	96.69
429.181	81.69
429.403	94.69
429.625	88.69
429.847	100.69
430.069	92.69
430.292	89.69
430.514	89.69
430.736	98.69
430.958	91.69
431.18	89.69
431.402	85.69
431.624	103.69
431.846	89.69
432.068	84.69
432.29	77.69
432.512	108.69
432.734	75.69
432.956	97.69
433.178	98.69
433.4	96.69
433.622	106.69
433.844	104.69
434.066	88.69
434.287	101.69
434.509	73.69
434.731	92.69
434.953	105.69
435.175	97.69
435.397	72.69
435.618	83.69
435.84	96.69
436.062	88.69
436.284	87.69
436.505	98.69
436.727	103.69
436.949	98.69
437.17	100.69
437.392	99.69
437.614	96.69
437.835	91.69
438.057	84.69
438.278	89.69
438.5	96.69
438.721	94.69
438.943	96.69
439.165	105.69
439.386	103.69
439.608	100.69
439.829	98.69
440.05	91.69
440.272	114.69
440.493	103.69
440.715	110.69
440.936	101.69
441.158	107.69
441.379	112.69
441.6	96.69
441.822	104.69
442.043	95.69
442.264	98.69
442.486	94.69
442.707	104.69
442.928	109.69
443.149	112.69
443.371	96.69
443.592	94.69
443.813	105.69
444.034	94.69
444.255	99.69
444.476	111.69
444.698	115.69
444.919	96.69
445.14	171.69
445.361	137.69
445.582	109.69
445.803	105.69
446.024	88.69
446.245	99.69
446.466	92.69
446.687	101.69
446.908	108.69
447.129	106.69
447.35	101.69
447.571	103.69
447.792	105.69
448.013	80.69
448.234	108.69
448.455	111.69
448.675	101.69
448.896	106.69
449.117	118.69
449.338	104.69
449.559	98.69
449.779	87.69
450	122.69
450.221	110.69
450.442	94.69
450.662	101.69
450.883	100.69
451.104	100.69
451.324	94.69
451.545	102.69
451.766	97.69
451.986	99.69
452.207	95.69
452.428	97.69
452.648	99.69
452.869	97.69
453.089	83.69
453.31	93.69
453.53	100.69
453.751	99.69
453.971	78.69
454.192	97.69
454.412	96.69
454.633	100.69
454.853	100.69
455.073	97.69
455.294	92.69
455.514	101.69
455.734	93.69
455.955	86.69
456.175	97.69
456.395	87.69
456.616	93.69
456.836	80.69
457.056	75.69
457.276	85.69
457.497	96.69
457.717	95.69
457.937	88.69
458.157	84.69
458.377	94.69
458.598	89.69
458.818	81.69
459.038	88.69
459.258	91.69
459.478	88.69
459.698	88.69
459.918	79.69
460.138	83.69
460.358	87.69
460.578	85.69
460.798	106.69
461.018	87.69
461.238	89.69
461.458	93.69
461.678	94.69
461.898	97.69
462.118	95.69
462.338	76.69
462.558	78.69
462.777	94.69
462.997	100.69
463.217	81.69
463.437	78.69
463.657	98.69
463.876	85.69
464.096	86.69
464.316	84.69
464.536	88.69
464.755	97.69
464.975	108.69
465.195	96.69
465.414	90.69
465.634	103.69
465.854	96.69
466.073	100.69
466.293	104.69
466.512	99.69
466.732	96.69
466.951	102.69
467.171	89.69
467.391	99.69
467.61	91.69
467.829	98.69
468.049	92.69
468.268	93.69
468.488	108.69
468.707	98.69
468.927	112.69
469.146	81.69
469.365	95.69
469.585	105.69
469.804	108.69
470.023	94.69
470.243	108.69
470.462	114.69
470.681	116.69
470.901	91.69
471.12	101.69
471.339	102.69
471.558	106.69
471.777	101.69
471.997	89.69
472.216	86.69
472.435	96.69
472.654	104.69
472.873	90.69
473.092	98.69
473.311	95.69
473.53	113.69
473.749	93.69
473.968	97.69
474.187	89.69
474.406	90.69
474.625	84.69
474.844	104.69
475.063	103.69
475.282	100.69
475.501	104.69
475.72	97.69
475.939	105.69
476.158	96.69
476.377	78.69
476.596	94.69
476.814	91.69
477.033	95.69
477.252	97.69
477.471	93.69
477.69	100.69
477.908	99.69
478.127	99.69
478.346	96.69
478.564	97.69
478.783	101.69
479.002	102.69
479.22	91.69
479.439	84.69
479.658	86.69
479.876	95.69
480.095	75.69
480.313	108.69
480.532	100.69
480.751	92.69
480.969	102.69
481.188	92.69
481.406	95.69
481.624	94.69
481.843	88.69
482.061	85.69
482.28	93.69
482.498	105.69
482.717	97.69
482.935	106.69
483.153	101.69
483.372	100.69
483.59	109.69
483.808	107.69
484.027	90.69
484.245	96.69
484.463	103.69
484.681	92.69
484.9	108.69
485.118	100.69
485.336	89.69
485.554	82.69
485.772	75.69
485.99	91.69
486.209	97.69
486.427	99.69
486.645	88.69
486.863	103.69
487.081	112.69
487.299	82.69
487.517	97.69
487.735	128.69
487.953	120.69
488.171	125.69
488.389	119.69
488.607	116.69
488.825	99.69
489.043	96.69
489.261	115.69
489.479	90.69
489.696	97.69
489.914	97.69
490.132	117.69
490.35	99.69
490.568	104.69
490.786	104.69
491.003	100.69
491.221	109.69
491.439	103.69
491.657	124.69
491.874	130.69
492.092	114.69
492.31	122.69
492.527	115.69
492.745	110.69
492.963	136.69
493.18	118.69
493.398	118.69
493.615	93.69
493.833	109.69
494.05	116.69
494.268	111.69
494.485	118.69
494.703	124.69
494.92	108.69
495.138	111.69
495.355	102.69
495.573	108.69
495.79	104.69
496.008	125.69
496.225	116.69
496.442	109.69
496.66	128.69
496.877	125.69
497.094	117.69
497.312	114.69
497.529	114.69
497.746	108.69
497.963	97.69
498.181	103.69
498.398	90.69
498.615	93.69
498.832	94.69
499.049	93.69
499.267	87.69
499.484	94.69
499.701	112.69
499.918	102.69
500.135	95.69
500.352	102.69
500.569	112.69
500.786	91.69
501.003	77.69
501.22	89.69
501.437	109.69
501.654	100.69
501.871	98.69
502.088	104.69
502.305	94.69
502.522	102.69
502.739	105.69
502.956	108.69
503.172	96.69
503.389	103.69
503.606	96.69
503.823	115.69
504.04	108.69
504.256	93.69
504.473	101.69
504.69	110.69
504.907	88.69
505.123	98.69
505.34	98.69
505.557	102.69
505.773	102.69
505.99	115.69
506.207	100.69
506.423	82.69
506.64	101.69
506.856	104.69
507.073	109.69
507.289	112.69
507.506	88.69
507.722	96.69
507.939	101.69
508.155	93.69
508.372	83.69
508.588	89.69
508.805	91.69
509.021	89.69
509.238	90.69
509.454	103.69
509.67	84.69
509.887	83.69
510.103	104.69
510.319	93.69
510.536	96.69
510.752	100.69
510.968	88.69
511.184	79.69
511.401	94.69
511.617	90.69
511.833	85.69
512.049	84.69
512.265	100.69
512.481	80.69
512.698	73.69
512.914	81.69
513.13	84.69
513.346	87.69
513.562	84.69
513.778	84.69
513.994	93.69
514.21	90.69
514.426	87.69
514.642	89.69
514.858	82.69
515.074	83.69
515.29	99.69
515.506	86.69
515.721	89.69
515.937	89.69
516.153	105.69
516.369	88.69
516.585	66.69
516.801	88.69
517.016	85.69
517.232	80.69
517.448	89.69
517.664	94.69
517.879	94.69
518.095	89.69
518.311	90.69
518.527	101.69
518.742	90.69
518.958	84.69
519.173	85.69
519.389	90.69
519.605	74.69
519.82	88.69
520.036	90.69
520.251	92.69
520.467	77.69
520.682	87.69
520.898	100.69
521.113	88.69
521.329	84.69
521.544	84.69
521.76	94.69
521.975	78.69
522.19	102.69
522.406	90.69
522.621	87.69
522.836	99.69
523.052	93.69
523.267	93.69
523.482	83.69
523.698	90.69
523.913	94.69
524.128	94.69
524.343	97.69
524.559	94.69
524.774	97.69
524.989	96.69
525.204	88.69
525.419	96.69
525.634	91.69
525.849	93.69
526.064	104.69
526.28	104.69
526.495	93.69
526.71	81.69
526.925	88.69
527.14	115.69
527.355	76.69
527.57	90.69
527.785	86.69
527.999	77.69
528.214	91.69
528.429	92.69
528.644	99.69
528.859	112.69
529.074	109.69
529.289	109.69
529.503	111.69
529.718	120.69
529.933	94.69
530.148	100.69
530.363	101.69
530.577	92.69
530.792	92.69
531.007	78.69
531.221	92.69
531.436	96.69
531.651	78.69
531.865	77.69
532.08	100.69
532.295	89.69
532.509	101.69
532.724	97.69
532.938	91.69
533.153	99.69
533.367	99.69
533.582	96.69
533.796	100.69
534.011	85.69
534.225	69.69
534.44	90.69
534.654	115.69
534.868	84.69
535.083	96.69
535.297	96.69
535.511	91.69
535.726	100.69
535.94	101.69
536.154	81.69
536.369	96.69
536.583	91.69
536.797	88.69
537.011	75.69
537.225	85.69
537.44	98.69
537.654	87.69
537.868	76.69
538.082	86.69
538.296	89.69
538.51	86.69
538.724	85.69
538.938	93.69
539.153	104.69
539.367	92.69
539.581	100.69
539.795	85.69
540.009	87.69
540.222	93.69
540.436	84.69
540.65	96.69
540.864	92.69
541.078	85.69
541.292	114.69
541.506	112.69
541.72	123.69
541.934	112.69
542.147	128.69
542.361	115.69
542.575	105.69
542.789	112.69
543.002	112.69
543.216	97.69
543.43	100.69
543.644	100.69
543.857	115.69
544.071	90.69
544.285	118.69
544.498	105.69
544.712	102.69
544.925	105.69
545.139	114.69
545.352	96.69
545.566	114.69
545.779	115.69
545.993	113.69
546.206	116.69
546.42	107.69
546.633	105.69
546.847	108.69
547.06	110.69
547.274	118.69
547.487	102.69
547.7	107.69
547.914	106.69
548.127	117.69
548.34	104.69
548.554	102.69
548.767	99.69
548.98	100.69
549.193	107.69
549.407	104.69
549.62	113.69
549.833	105.69
550.046	110.69
550.259	107.69
550.473	112.69
550.686	104.69
550.899	120.69
551.112	113.69
551.325	107.69
551.538	89.69
551.751	104.69
551.964	101.69
552.177	102.69
552.39	105.69
552.603	105.69
552.816	93.69
553.029	110.69
553.242	111.69
553.455	114.69
553.667	108.69
553.88	107.69
554.093	105.69
554.306	113.69
554.519	104.69
554.732	105.69
554.944	106.69
555.157	102.69
555.37	109.69
555.583	115.69
555.795	105.69
556.008	96.69
556.221	96.69
556.433	94.69
556.646	91.69
556.859	102.69
557.071	107.69
557.284	109.69
557.496	99.69
557.709	101.69
557.921	107.69
558.134	113.69
558.346	89.69
558.559	100.69
558.771	108.69
558.984	96.69
559.196	91.69
559.409	94.69
559.621	90.69
559.833	101.69
560.046	83.69
560.258	102.69
560.47	98.69
560.683	112.69
560.895	105.69
561.107	96.69
561.32	97.69
561.532	100.69
561.744	98.69
561.956	95.69
562.168	92.69
562.381	104.69
562.593	96.69
562.805	93.69
563.017	99.69
563.229	96.69
563.441	104.69
563.653	107.69
563.865	103.69
564.077	92.69
564.289	97.69
564.501	96.69
564.713	116.69
564.925	102.69
565.137	100.69
565.349	99.69
565.561	89.69
565.773	100.69
565.985	91.69
566.197	90.69
566.408	104.69
566.62	101.69
566.832	106.69
567.044	110.69
567.255	100.69
567.467	102.69
567.679	87.69
567.891	105.69
568.102	81.69
568.314	88.69
568.526	84.69
568.737	85.69
568.949	89.69
569.161	94.69
569.372	101.69
569.584	99.69
569.795	92.69
570.007	92.69
570.218	85.69
570.43	105.69
570.641	91.69
570.853	90.69
571.064	79.69
571.276	94.69
571.487	100.69
571.698	102.69
571.91	82.69
572.121	96.69
572.333	86.69
572.544	101.69
572.755	86.69
572.966	113.69
573.178	76.69
573.389	82.69
573.6	84.69
573.811	77.69
574.023	95.69
574.234	85.69
574.445	90.69
574.656	93.69
574.867	97.69
575.078	87.69
575.289	90.69
575.501	88.69
575.712	94.69
575.923	78.69
576.134	92.69
576.345	75.69
576.556	101.69
576.767	83.69
576.978	99.69
577.188	84.69
577.399	85.69
577.61	85.69
577.821	74.69
578.032	87.69
578.243	90.69
578.454	83.69
578.665	91.69
578.875	82.69
579.086	96.69
579.297	89.69
579.508	71.69
579.718	88.69
579.929	97.69
580.14	88.69
580.35	95.69
580.561	92.69
580.772	87.69
580.982	91.69
581.193	92.69
581.403	98.69
581.614	94.69
581.825	101.69
582.035	91.69
582.246	90.69
582.456	85.69
582.667	94.69
582.877	98.69
583.087	79.69
583.298	95.69
583.508	105.69
583.719	88.69
583.929	95.69
584.139	88.69
584.35	85.69
584.56	100.69
584.77	100.69
584.981	98.69
585.191	105.69
585.401	85.69
585.611	98.69
585.821	88.69
586.032	97.69
586.242	85.69
586.452	100.69
586.662	89.69
586.872	84.69
587.082	91.69
587.292	83.69
587.502	86.69
587.713	89.69
587.923	81.69
588.133	90.69
588.343	78.69
588.553	81.69
588.762	96.69
588.972	88.69
589.182	97.69
589.392	93.69
589.602	91.69
589.812	85.69
590.022	96.69
590.232	89.69
590.441	94.69
590.651	93.69
590.861	86.69
591.071	82.69
591.281	87.69
591.49	84.69
591.7	80.69
591.91	85.69
592.119	81.69
592.329	85.69
592.539	93.69
592.748	91.69
592.958	91.69
593.167	87.69
593.377	99.69
593.587	90.69
593.796	98.69
594.006	89.69
594.215	94.69
594.424	86.69
594.634	100.69
594.843	81.69
595.053	84.69
595.262	99.69
595.472	78.69
595.681	85.69
595.89	89.69
596.1	97.69
596.309	84.69
596.518	92.69
596.727	89.69
596.937	96.69
597.146	97.69
597.355	93.69
597.564	96.69
597.774	92.69
597.983	97.69
598.192	83.69
598.401	85.69
598.61	80.69
598.819	90.69
599.028	83.69
599.237	97.69
599.446	91.69
599.655	100.69
599.864	98.69
600.073	92.69
600.282	91.69
600.491	90.69
600.7	92.69
600.909	91.69
601.118	99.69
601.327	87.69
601.536	90.69
601.745	98.69
601.953	103.69
602.162	91.69
602.371	78.69
602.58	93.69
602.789	97.69
602.997	94.69
603.206	81.69
603.415	91.69
603.623	93.69
603.832	97.69
604.041	96.69
604.249	107.69
604.458	101.69
604.666	107.69
604.875	81.69
605.084	86.69
605.292	97.69
605.501	100.69
605.709	91.69
605.918	100.69
606.126	80.69
606.334	104.69
606.543	99.69
606.751	101.69
606.96	94.69
607.168	77.69
607.376	91.69
607.585	107.69
607.793	89.69
608.001	107.69
608.21	84.69
608.418	97.69
608.626	92.69
608.834	95.69
609.043	94.69
609.251	99.69
609.459	112.69
609.667	104.69
609.875	102.69
610.083	108.69
610.291	82.69
610.499	96.69
610.707	86.69
610.916	96.69
611.124	94.69
611.332	91.69
611.54	95.69
611.748	103.69
611.955	84.69
612.163	99.69
612.371	101.69
612.579	92.69
612.787	102.69
612.995	100.69
613.203	94.69
613.411	95.69
613.618	88.69
613.826	101.69
614.034	99.69
614.242	96.69
614.449	91.69
614.657	116.69
614.865	101.69
615.072	96.69
615.28	96.69
615.488	89.69
615.695	89.69
615.903	100.69
616.111	77.69
616.318	102.69
616.526	97.69
616.733	99.69
616.941	100.69
617.148	99.69
617.356	91.69
617.563	88.69
617.771	100.69
617.978	92.69
618.185	87.69
618.393	93.69
618.6	90.69
618.807	94.69
619.015	91.69
619.222	84.69
619.429	90.69
619.637	92.69
619.844	102.69
620.051	83.69
620.258	73.69
620.466	96.69
620.673	82.69
620.88	85.69
621.087	97.69
621.294	104.69
621.501	97.69
621.708	84.69
621.915	88.69
622.122	107.69
622.329	104.69
622.536	88.69
622.743	94.69
622.95	93.69
623.157	90.69
623.364	86.69
623.571	85.69
623.778	88.69
623.985	100.69
624.192	84.69
624.399	85.69
624.606	91.69
624.812	89.69
625.019	92.69
625.226	104.69
625.433	99.69
625.639	82.69
625.846	89.69
626.053	83.69
626.259	88.69
626.466	92.69
626.673	98.69
626.879	82.69
627.086	101.69
627.293	85.69
627.499	91.69
627.706	100.69
627.912	102.69
628.119	90.69
628.325	85.69
628.532	90.69
628.738	84.69
628.945	92.69
629.151	93.69
629.357	92.69
629.564	95.69
629.77	92.69
629.976	93.69
630.183	78.69
630.389	92.69
630.595	83.69
630.802	90.69
631.008	92.69
631.214	93.69
631.42	80.69
631.627	79.69
631.833	87.69
632.039	89.69
632.245	87.69
632.451	94.69
632.657	93.69
632.863	95.69
633.069	76.69
633.275	80.69
633.481	91.69
633.688	97.69
633.893	97.69
634.099	90.69
634.305	92.69
634.511	90.69
634.717	91.69
634.923	76.69
635.129	94.69
635.335	105.69
635.541	104.69
635.747	81.69
635.952	93.69
636.158	96.69
636.364	93.69
636.57	85.69
636.775	89.69
636.981	74.69
637.187	92.69
637.392	79.69
637.598	79.69
637.804	106.69
638.009	78.69
638.215	80.69
638.421	92.69
638.626	96.69
638.832	86.69
639.037	104.69
639.243	89.69
639.448	97.69
639.654	94.69
639.859	86.69
640.065	90.69
640.27	89.69
640.475	91.69
640.681	80.69
640.886	82.69
641.091	85.69
641.297	96.69
641.502	97.69
641.707	117.69
641.913	87.69
642.118	89.69
642.323	104.69
642.528	94.69
642.733	97.69
642.939	92.69
643.144	72.69
643.349	89.69
643.554	93.69
643.759	89.69
643.964	89.69
644.169	89.69
644.374	75.69
644.579	84.69
644.784	91.69
644.989	105.69
645.194	99.69
645.399	93.69
645.604	88.69
645.809	70.69
646.014	93.69
646.219	103.69
646.423	89.69
646.628	91.69
646.833	90.69
647.038	94.69
647.243	98.69
647.447	90.69
647.652	82.69
647.857	89.69
648.062	92.69
648.266	95.69
648.471	84.69
648.676	84.69
648.88	98.69
649.085	99.69
649.289	91.69
649.494	97.69
649.698	100.69
649.903	96.69
650.107	87.69
650.312	98.69
650.516	86.69
650.721	84.69
650.925	89.69
651.13	83.69
651.334	98.69
651.539	77.69
651.743	79.69
651.947	80.69
652.152	87.69
652.356	85.69
652.56	82.69
652.764	93.69
652.969	78.69
653.173	90.69
653.377	85.69
653.581	83.69
653.785	87.69
653.99	84.69
654.194	84.69
654.398	101.69
654.602	87.69
654.806	101.69
655.01	90.69
655.214	87.69
655.418	79.69
655.622	91.69
655.826	88.69
656.03	101.69
656.234	84.69
656.438	91.69
656.642	90.69
656.846	89.69
657.049	87.69
657.253	97.69
657.457	82.69
657.661	96.69
657.865	79.69
658.068	84.69
658.272	87.69
658.476	84.69
658.68	81.69
658.883	89.69
659.087	77.69
659.291	79.69
659.494	89.69
659.698	81.69
659.901	78.69
660.105	94.69
660.309	87.69
660.512	104.69
660.716	96.69
660.919	93.69
661.123	103.69
661.326	92.69
661.53	85.69
661.733	84.69
661.936	84.69
662.14	85.69
662.343	86.69
662.546	79.69
662.75	82.69
662.953	98.69
663.156	100.69
663.36	99.69
663.563	89.69
663.766	83.69
663.969	89.69
664.173	81.69
664.376	88.69
664.579	76.69
664.782	83.69
664.985	74.69
665.188	91.69
665.391	82.69
665.594	85.69
665.797	81.69
666	80.69
666.203	83.69
666.406	92.69
666.609	87.69
666.812	83.69
667.015	84.69
667.218	100.69
667.421	82.69
667.624	78.69
667.827	93.69
668.03	91.69
668.232	77.69
668.435	81.69
668.638	85.69
668.841	96.69
669.043	84.69
669.246	90.69
669.449	84.69
669.651	85.69
669.854	92.69
670.057	85.69
670.259	77.69
670.462	82.69
670.665	81.69
670.867	84.69
671.07	86.69
671.272	86.69
671.475	80.69
671.677	86.69
671.88	98.69
672.082	82.69
672.284	85.69
672.487	89.69
672.689	87.69
672.892	93.69
