Data from Location4.07152019.Energy5.Lamp.07192019.3%Agarose_HRD10591_15-26-09-578.txt Node
Date: Fri Jul 19 15:26:09 EDT 2019
User: cochatt
Spectrometer: HR+D1059
Trigger mode: 1
Integration Time (sec): 1.000000E-1
Scans to average: 1
Electric dark correction enabled: true
Nonlinearity correction enabled: false
Boxcar width: 0
XAxis mode: Wavelengths
Number of Pixels in Spectrum: 2048
>>>>>Begin Spectral Data<<<<<
223.165	-10.25
223.4	-10.25
223.635	-10.25
223.869	-22.25
224.104	-21.25
224.338	-20.25
224.573	-17.25
224.808	-12.25
225.042	-15.25
225.277	-0.25
225.511	-5.25
225.746	2.75
225.98	13.75
226.215	15.75
226.449	6.75
226.683	24.75
226.918	27.75
227.152	32.75
227.387	45.75
227.621	37.75
227.856	35.75
228.09	38.75
228.324	52.75
228.559	48.75
228.793	54.75
229.027	59.75
229.262	51.75
229.496	74.75
229.73	70.75
229.964	69.75
230.199	72.75
230.433	76.75
230.667	83.75
230.901	96.75
231.136	94.75
231.37	87.75
231.604	70.75
231.838	86.75
232.072	83.75
232.306	89.75
232.541	94.75
232.775	67.75
233.009	85.75
233.243	86.75
233.477	82.75
233.711	92.75
233.945	87.75
234.179	93.75
234.413	97.75
234.647	78.75
234.881	72.75
235.115	65.75
235.349	79.75
235.583	87.75
235.817	70.75
236.051	76.75
236.285	67.75
236.519	93.75
236.753	79.75
236.987	87.75
237.221	80.75
237.455	74.75
237.689	71.75
237.922	91.75
238.156	89.75
238.39	77.75
238.624	67.75
238.858	78.75
239.091	72.75
239.325	82.75
239.559	82.75
239.793	85.75
240.027	84.75
240.26	67.75
240.494	61.75
240.728	80.75
240.961	82.75
241.195	82.75
241.429	88.75
241.662	86.75
241.896	71.75
242.13	76.75
242.363	83.75
242.597	81.75
242.83	84.75
243.064	80.75
243.298	75.75
243.531	99.75
243.765	82.75
243.998	92.75
244.232	84.75
244.465	76.75
244.699	85.75
244.932	69.75
245.166	82.75
245.399	77.75
245.633	83.75
245.866	75.75
246.099	72.75
246.333	96.75
246.566	77.75
246.8	94.75
247.033	103.75
247.266	83.75
247.5	82.75
247.733	86.75
247.966	91.75
248.2	82.75
248.433	86.75
248.666	77.75
248.899	76.75
249.133	91.75
249.366	70.75
249.599	84.75
249.832	85.75
250.066	78.75
250.299	93.75
250.532	70.75
250.765	81.75
250.998	86.75
251.231	78.75
251.465	76.75
251.698	84.75
251.931	86.75
252.164	80.75
252.397	82.75
252.63	89.75
252.863	86.75
253.096	67.75
253.329	82.75
253.562	92.75
253.795	81.75
254.028	74.75
254.261	78.75
254.494	74.75
254.727	69.75
254.96	87.75
255.193	78.75
255.426	76.75
255.659	90.75
255.892	77.75
256.124	73.75
256.357	98.75
256.59	83.75
256.823	80.75
257.056	98.75
257.289	84.75
257.521	87.75
257.754	79.75
257.987	74.75
258.22	72.75
258.452	82.75
258.685	89.75
258.918	89.75
259.151	78.75
259.383	77.75
259.616	101.75
259.849	79.75
260.081	85.75
260.314	81.75
260.547	96.75
260.779	71.75
261.012	82.75
261.244	81.75
261.477	95.75
261.71	74.75
261.942	69.75
262.175	82.75
262.407	65.75
262.64	81.75
262.872	81.75
263.105	66.75
263.337	76.75
263.57	77.75
263.802	80.75
264.035	84.75
264.267	95.75
264.499	78.75
264.732	97.75
264.964	74.75
265.197	73.75
265.429	72.75
265.661	88.75
265.894	88.75
266.126	85.75
266.358	87.75
266.591	90.75
266.823	79.75
267.055	92.75
267.287	88.75
267.52	75.75
267.752	62.75
267.984	80.75
268.216	78.75
268.448	77.75
268.681	84.75
268.913	79.75
269.145	83.75
269.377	77.75
269.609	84.75
269.841	79.75
270.073	85.75
270.306	96.75
270.538	76.75
270.77	78.75
271.002	81.75
271.234	69.75
271.466	75.75
271.698	86.75
271.93	80.75
272.162	75.75
272.394	86.75
272.626	76.75
272.858	78.75
273.09	99.75
273.322	63.75
273.553	78.75
273.785	80.75
274.017	73.75
274.249	74.75
274.481	81.75
274.713	86.75
274.945	78.75
275.176	84.75
275.408	89.75
275.64	85.75
275.872	89.75
276.104	76.75
276.335	96.75
276.567	68.75
276.799	88.75
277.031	83.75
277.262	97.75
277.494	86.75
277.726	101.75
277.957	86.75
278.189	83.75
278.421	90.75
278.652	78.75
278.884	87.75
279.115	85.75
279.347	93.75
279.579	92.75
279.81	87.75
280.042	84.75
280.273	86.75
280.505	82.75
280.736	95.75
280.968	97.75
281.199	80.75
281.431	86.75
281.662	76.75
281.894	88.75
282.125	89.75
282.356	93.75
282.588	76.75
282.819	86.75
283.051	88.75
283.282	76.75
283.513	90.75
283.745	76.75
283.976	75.75
284.207	80.75
284.439	74.75
284.67	86.75
284.901	103.75
285.132	89.75
285.364	76.75
285.595	77.75
285.826	92.75
286.057	64.75
286.288	89.75
286.52	87.75
286.751	80.75
286.982	76.75
287.213	84.75
287.444	82.75
287.675	72.75
287.906	86.75
288.138	102.75
288.369	86.75
288.6	85.75
288.831	97.75
289.062	85.75
289.293	95.75
289.524	86.75
289.755	91.75
289.986	79.75
290.217	84.75
290.448	91.75
290.679	95.75
290.91	83.75
291.141	89.75
291.371	94.75
291.602	82.75
291.833	74.75
292.064	101.75
292.295	87.75
292.526	64.75
292.757	88.75
292.987	86.75
293.218	88.75
293.449	85.75
293.68	89.75
293.91	83.75
294.141	80.75
294.372	83.75
294.603	87.75
294.833	82.75
295.064	78.75
295.295	90.75
295.525	98.75
295.756	94.75
295.987	73.75
296.217	87.75
296.448	80.75
296.679	88.75
296.909	88.75
297.14	94.75
297.37	105.75
297.601	85.75
297.831	99.75
298.062	75.75
298.292	84.75
298.523	79.75
298.753	99.75
298.984	75.75
299.214	69.75
299.445	82.75
299.675	93.75
299.905	88.75
300.136	81.75
300.366	82.75
300.597	83.75
300.827	95.75
301.057	94.75
301.288	77.75
301.518	88.75
301.748	81.75
301.979	87.75
302.209	80.75
302.439	77.75
302.669	90.75
302.9	100.75
303.13	86.75
303.36	84.75
303.59	92.75
303.82	78.75
304.051	87.75
304.281	88.75
304.511	93.75
304.741	88.75
304.971	85.75
305.201	87.75
305.431	86.75
305.661	98.75
305.891	77.75
306.121	93.75
306.352	76.75
306.582	73.75
306.812	97.75
307.042	86.75
307.272	70.75
307.502	99.75
307.731	83.75
307.961	79.75
308.191	82.75
308.421	73.75
308.651	88.75
308.881	92.75
309.111	86.75
309.341	91.75
309.571	81.75
309.8	90.75
310.03	74.75
310.26	80.75
310.49	97.75
310.72	86.75
310.949	96.75
311.179	83.75
311.409	85.75
311.639	87.75
311.868	95.75
312.098	85.75
312.328	79.75
312.557	94.75
312.787	96.75
313.017	79.75
313.246	90.75
313.476	90.75
313.706	70.75
313.935	81.75
314.165	93.75
314.394	74.75
314.624	74.75
314.853	73.75
315.083	75.75
315.312	78.75
315.542	86.75
315.771	79.75
316.001	77.75
316.23	77.75
316.46	78.75
316.689	105.75
316.919	87.75
317.148	82.75
317.377	93.75
317.607	73.75
317.836	91.75
318.065	94.75
318.295	88.75
318.524	93.75
318.753	92.75
318.983	85.75
319.212	74.75
319.441	87.75
319.67	88.75
319.9	76.75
320.129	84.75
320.358	81.75
320.587	89.75
320.816	86.75
321.046	89.75
321.275	84.75
321.504	71.75
321.733	76.75
321.962	74.75
322.191	88.75
322.42	79.75
322.649	84.75
322.878	86.75
323.108	85.75
323.337	96.75
323.566	85.75
323.795	71.75
324.024	96.75
324.253	82.75
324.482	82.75
324.71	108.75
324.939	85.75
325.168	86.75
325.397	97.75
325.626	85.75
325.855	103.75
326.084	93.75
326.313	70.75
326.542	96.75
326.77	94.75
326.999	84.75
327.228	86.75
327.457	77.75
327.686	77.75
327.914	93.75
328.143	95.75
328.372	82.75
328.6	88.75
328.829	89.75
329.058	80.75
329.287	97.75
329.515	93.75
329.744	79.75
329.972	68.75
330.201	75.75
330.43	85.75
330.658	90.75
330.887	69.75
331.115	86.75
331.344	75.75
331.572	95.75
331.801	79.75
332.03	90.75
332.258	76.75
332.486	86.75
332.715	70.75
332.943	97.75
333.172	80.75
333.4	68.75
333.629	91.75
333.857	76.75
334.085	82.75
334.314	92.75
334.542	91.75
334.771	78.75
334.999	85.75
335.227	76.75
335.455	86.75
335.684	87.75
335.912	91.75
336.14	89.75
336.369	104.75
336.597	93.75
336.825	89.75
337.053	89.75
337.281	81.75
337.51	88.75
337.738	91.75
337.966	85.75
338.194	86.75
338.422	82.75
338.65	65.75
338.878	76.75
339.106	91.75
339.334	94.75
339.562	87.75
339.79	81.75
340.018	77.75
340.246	84.75
340.474	85.75
340.702	86.75
340.93	93.75
341.158	80.75
341.386	76.75
341.614	84.75
341.842	101.75
342.07	78.75
342.298	84.75
342.526	80.75
342.754	80.75
342.981	101.75
343.209	89.75
343.437	92.75
343.665	77.75
343.893	75.75
344.12	78.75
344.348	88.75
344.576	94.75
344.804	83.75
345.031	93.75
345.259	84.75
345.487	76.75
345.714	76.75
345.942	78.75
346.17	86.75
346.397	79.75
346.625	92.75
346.853	84.75
347.08	88.75
347.308	76.75
347.535	73.75
347.763	82.75
347.99	80.75
348.218	77.75
348.445	93.75
348.673	80.75
348.9	88.75
349.128	80.75
349.355	71.75
349.583	78.75
349.81	82.75
350.037	92.75
350.265	85.75
350.492	89.75
350.72	71.75
350.947	84.75
351.174	77.75
351.402	75.75
351.629	93.75
351.856	80.75
352.083	77.75
352.311	91.75
352.538	88.75
352.765	84.75
352.992	77.75
353.22	83.75
353.447	83.75
353.674	81.75
353.901	66.75
354.128	81.75
354.355	85.75
354.583	77.75
354.81	83.75
355.037	88.75
355.264	72.75
355.491	88.75
355.718	72.75
355.945	82.75
356.172	71.75
356.399	73.75
356.626	86.75
356.853	78.75
357.08	89.75
357.307	76.75
357.534	79.75
357.761	88.75
357.988	85.75
358.215	87.75
358.441	79.75
358.668	80.75
358.895	79.75
359.122	69.75
359.349	97.75
359.576	85.75
359.802	83.75
360.029	80.75
360.256	77.75
360.483	76.75
360.709	94.75
360.936	80.75
361.163	77.75
361.39	76.75
361.616	86.75
361.843	81.75
362.07	81.75
362.296	77.75
362.523	75.75
362.749	78.75
362.976	102.75
363.203	79.75
363.429	84.75
363.656	86.75
363.882	90.75
364.109	79.75
364.335	69.75
364.562	82.75
364.788	82.75
365.015	78.75
365.241	66.75
365.468	84.75
365.694	81.75
365.92	92.75
366.147	79.75
366.373	77.75
366.599	79.75
366.826	86.75
367.052	87.75
367.278	96.75
367.505	88.75
367.731	89.75
367.957	70.75
368.184	90.75
368.41	96.75
368.636	76.75
368.862	84.75
369.089	92.75
369.315	78.75
369.541	84.75
369.767	90.75
369.993	80.75
370.219	77.75
370.445	90.75
370.672	97.75
370.898	97.75
371.124	90.75
371.35	75.75
371.576	60.75
371.802	78.75
372.028	79.75
372.254	96.75
372.48	82.75
372.706	70.75
372.932	88.75
373.158	77.75
373.384	66.75
373.61	94.75
373.835	84.75
374.061	100.75
374.287	76.75
374.513	93.75
374.739	76.75
374.965	94.75
375.191	82.75
375.416	75.75
375.642	90.75
375.868	91.75
376.094	63.75
376.319	79.75
376.545	87.75
376.771	86.75
376.997	86.75
377.222	62.75
377.448	87.75
377.674	83.75
377.899	74.75
378.125	88.75
378.35	95.75
378.576	76.75
378.802	88.75
379.027	92.75
379.253	92.75
379.478	74.75
379.704	74.75
379.929	76.75
380.155	82.75
380.38	76.75
380.606	83.75
380.831	78.75
381.057	94.75
381.282	83.75
381.507	86.75
381.733	71.75
381.958	76.75
382.184	92.75
382.409	76.75
382.634	81.75
382.86	77.75
383.085	91.75
383.31	94.75
383.535	94.75
383.761	96.75
383.986	94.75
384.211	99.75
384.436	83.75
384.662	81.75
384.887	88.75
385.112	86.75
385.337	93.75
385.562	97.75
385.787	86.75
386.013	100.75
386.238	87.75
386.463	87.75
386.688	92.75
386.913	65.75
387.138	83.75
387.363	89.75
387.588	82.75
387.813	89.75
388.038	93.75
388.263	82.75
388.488	98.75
388.713	84.75
388.938	83.75
389.163	94.75
389.387	90.75
389.612	98.75
389.837	76.75
390.062	71.75
390.287	84.75
390.512	83.75
390.736	89.75
390.961	85.75
391.186	93.75
391.411	86.75
391.636	91.75
391.86	100.75
392.085	84.75
392.31	92.75
392.534	86.75
392.759	90.75
392.984	87.75
393.208	98.75
393.433	89.75
393.658	77.75
393.882	94.75
394.107	99.75
394.331	86.75
394.556	92.75
394.78	78.75
395.005	75.75
395.229	97.75
395.454	85.75
395.678	91.75
395.903	77.75
396.127	88.75
396.352	94.75
396.576	60.75
396.801	87.75
397.025	88.75
397.249	88.75
397.474	94.75
397.698	83.75
397.922	96.75
398.147	84.75
398.371	81.75
398.595	94.75
398.82	96.75
399.044	98.75
399.268	87.75
399.492	98.75
399.717	89.75
399.941	94.75
400.165	102.75
400.389	78.75
400.613	86.75
400.837	87.75
401.062	81.75
401.286	78.75
401.51	92.75
401.734	89.75
401.958	100.75
402.182	90.75
402.406	95.75
402.63	74.75
402.854	85.75
403.078	86.75
403.302	96.75
403.526	108.75
403.75	84.75
403.974	104.75
404.198	94.75
404.422	89.75
404.645	86.75
404.869	81.75
405.093	103.75
405.317	90.75
405.541	75.75
405.765	89.75
405.988	107.75
406.212	83.75
406.436	96.75
406.66	84.75
406.883	93.75
407.107	101.75
407.331	86.75
407.555	85.75
407.778	87.75
408.002	95.75
408.226	96.75
408.449	104.75
408.673	93.75
408.896	72.75
409.12	92.75
409.344	77.75
409.567	97.75
409.791	88.75
410.014	83.75
410.238	97.75
410.461	99.75
410.685	95.75
410.908	100.75
411.132	84.75
411.355	78.75
411.578	97.75
411.802	105.75
412.025	75.75
412.249	89.75
412.472	104.75
412.695	72.75
412.919	88.75
413.142	91.75
413.365	84.75
413.589	78.75
413.812	96.75
414.035	108.75
414.258	105.75
414.482	93.75
414.705	101.75
414.928	89.75
415.151	80.75
415.374	83.75
415.597	77.75
415.821	91.75
416.044	97.75
416.267	95.75
416.49	84.75
416.713	86.75
416.936	93.75
417.159	91.75
417.382	96.75
417.605	89.75
417.828	85.75
418.051	96.75
418.274	88.75
418.497	108.75
418.72	89.75
418.943	94.75
419.166	97.75
419.389	102.75
419.611	88.75
419.834	104.75
420.057	81.75
420.28	95.75
420.503	92.75
420.726	93.75
420.948	88.75
421.171	99.75
421.394	98.75
421.617	96.75
421.839	103.75
422.062	102.75
422.285	99.75
422.507	103.75
422.73	101.75
422.953	89.75
423.175	90.75
423.398	88.75
423.621	97.75
423.843	92.75
424.066	87.75
424.288	109.75
424.511	102.75
424.733	97.75
424.956	96.75
425.178	110.75
425.401	101.75
425.623	112.75
425.846	95.75
426.068	99.75
426.291	98.75
426.513	92.75
426.735	86.75
426.958	78.75
427.18	96.75
427.402	88.75
427.625	84.75
427.847	101.75
428.069	100.75
428.292	90.75
428.514	97.75
428.736	90.75
428.958	115.75
429.181	88.75
429.403	95.75
429.625	88.75
429.847	87.75
430.069	105.75
430.292	92.75
430.514	93.75
430.736	98.75
430.958	85.75
431.18	74.75
431.402	85.75
431.624	86.75
431.846	87.75
432.068	86.75
432.29	102.75
432.512	87.75
432.734	94.75
432.956	79.75
433.178	82.75
433.4	100.75
433.622	99.75
433.844	102.75
434.066	94.75
434.287	95.75
434.509	83.75
434.731	86.75
434.953	95.75
435.175	99.75
435.397	100.75
435.618	96.75
435.84	82.75
436.062	91.75
436.284	99.75
436.505	84.75
436.727	90.75
436.949	97.75
437.17	81.75
437.392	99.75
437.614	88.75
437.835	90.75
438.057	78.75
438.278	94.75
438.5	100.75
438.721	98.75
438.943	92.75
439.165	96.75
439.386	106.75
439.608	99.75
439.829	86.75
440.05	102.75
440.272	99.75
440.493	101.75
440.715	94.75
440.936	94.75
441.158	99.75
441.379	94.75
441.6	106.75
441.822	117.75
442.043	84.75
442.264	88.75
442.486	95.75
442.707	91.75
442.928	113.75
443.149	104.75
443.371	88.75
443.592	93.75
443.813	100.75
444.034	98.75
444.255	98.75
444.476	93.75
444.698	90.75
444.919	95.75
445.14	219.75
445.361	151.75
445.582	105.75
445.803	101.75
446.024	103.75
446.245	109.75
446.466	84.75
446.687	106.75
446.908	95.75
447.129	90.75
447.35	99.75
447.571	116.75
447.792	105.75
448.013	96.75
448.234	93.75
448.455	87.75
448.675	92.75
448.896	104.75
449.117	94.75
449.338	83.75
449.559	97.75
449.779	94.75
450	93.75
450.221	89.75
450.442	98.75
450.662	102.75
450.883	77.75
451.104	91.75
451.324	89.75
451.545	87.75
451.766	103.75
451.986	84.75
452.207	89.75
452.428	86.75
452.648	98.75
452.869	95.75
453.089	73.75
453.31	95.75
453.53	97.75
453.751	97.75
453.971	88.75
454.192	87.75
454.412	101.75
454.633	98.75
454.853	98.75
455.073	75.75
455.294	83.75
455.514	99.75
455.734	103.75
455.955	93.75
456.175	97.75
456.395	93.75
456.616	93.75
456.836	90.75
457.056	98.75
457.276	89.75
457.497	99.75
457.717	83.75
457.937	99.75
458.157	79.75
458.377	84.75
458.598	93.75
458.818	80.75
459.038	87.75
459.258	87.75
459.478	97.75
459.698	78.75
459.918	81.75
460.138	101.75
460.358	88.75
460.578	97.75
460.798	80.75
461.018	72.75
461.238	89.75
461.458	93.75
461.678	94.75
461.898	81.75
462.118	112.75
462.338	84.75
462.558	92.75
462.777	92.75
462.997	85.75
463.217	91.75
463.437	107.75
463.657	82.75
463.876	104.75
464.096	91.75
464.316	88.75
464.536	92.75
464.755	116.75
464.975	97.75
465.195	96.75
465.414	89.75
465.634	89.75
465.854	90.75
466.073	98.75
466.293	91.75
466.512	93.75
466.732	90.75
466.951	99.75
467.171	85.75
467.391	92.75
467.61	97.75
467.829	84.75
468.049	96.75
468.268	105.75
468.488	88.75
468.707	102.75
468.927	112.75
469.146	91.75
469.365	102.75
469.585	101.75
469.804	105.75
470.023	98.75
470.243	95.75
470.462	99.75
470.681	109.75
470.901	87.75
471.12	92.75
471.339	79.75
471.558	104.75
471.777	104.75
471.997	93.75
472.216	89.75
472.435	76.75
472.654	96.75
472.873	81.75
473.092	91.75
473.311	114.75
473.53	92.75
473.749	108.75
473.968	88.75
474.187	91.75
474.406	90.75
474.625	87.75
474.844	104.75
475.063	79.75
475.282	99.75
475.501	88.75
475.72	86.75
475.939	95.75
476.158	94.75
476.377	100.75
476.596	88.75
476.814	100.75
477.033	89.75
477.252	86.75
477.471	99.75
477.69	94.75
477.908	114.75
478.127	105.75
478.346	94.75
478.564	93.75
478.783	88.75
479.002	107.75
479.22	101.75
479.439	109.75
479.658	97.75
479.876	92.75
480.095	83.75
480.313	82.75
480.532	98.75
480.751	91.75
480.969	87.75
481.188	70.75
481.406	72.75
481.624	96.75
481.843	86.75
482.061	78.75
482.28	99.75
482.498	80.75
482.717	90.75
482.935	85.75
483.153	118.75
483.372	109.75
483.59	114.75
483.808	92.75
484.027	98.75
484.245	93.75
484.463	86.75
484.681	109.75
484.9	109.75
485.118	104.75
485.336	94.75
485.554	96.75
485.772	81.75
485.99	94.75
486.209	96.75
486.427	89.75
486.645	89.75
486.863	113.75
487.081	96.75
487.299	98.75
487.517	85.75
487.735	109.75
487.953	116.75
488.171	108.75
488.389	113.75
488.607	99.75
488.825	101.75
489.043	94.75
489.261	113.75
489.479	98.75
489.696	105.75
489.914	91.75
490.132	100.75
490.35	98.75
490.568	109.75
490.786	116.75
491.003	126.75
491.221	109.75
491.439	109.75
491.657	113.75
491.874	104.75
492.092	120.75
492.31	124.75
492.527	112.75
492.745	124.75
492.963	113.75
493.18	124.75
493.398	118.75
493.615	121.75
493.833	106.75
494.05	118.75
494.268	95.75
494.485	109.75
494.703	111.75
494.92	109.75
495.138	104.75
495.355	103.75
495.573	116.75
495.79	102.75
496.008	106.75
496.225	108.75
496.442	116.75
496.66	107.75
496.877	102.75
497.094	105.75
497.312	103.75
497.529	104.75
497.746	94.75
497.963	113.75
498.181	93.75
498.398	96.75
498.615	76.75
498.832	98.75
499.049	87.75
499.267	122.75
499.484	94.75
499.701	109.75
499.918	98.75
500.135	97.75
500.352	119.75
500.569	104.75
500.786	93.75
501.003	95.75
501.22	94.75
501.437	105.75
501.654	105.75
501.871	98.75
502.088	82.75
502.305	97.75
502.522	95.75
502.739	86.75
502.956	82.75
503.172	97.75
503.389	88.75
503.606	103.75
503.823	89.75
504.04	101.75
504.256	92.75
504.473	93.75
504.69	82.75
504.907	86.75
505.123	82.75
505.34	96.75
505.557	93.75
505.773	105.75
505.99	94.75
506.207	89.75
506.423	105.75
506.64	97.75
506.856	89.75
507.073	90.75
507.289	88.75
507.506	113.75
507.722	100.75
507.939	107.75
508.155	106.75
508.372	86.75
508.588	93.75
508.805	100.75
509.021	96.75
509.238	98.75
509.454	93.75
509.67	79.75
509.887	90.75
510.103	99.75
510.319	84.75
510.536	78.75
510.752	81.75
510.968	82.75
511.184	84.75
511.401	101.75
511.617	80.75
511.833	84.75
512.049	77.75
512.265	78.75
512.481	88.75
512.698	91.75
512.914	90.75
513.13	85.75
513.346	83.75
513.562	84.75
513.778	88.75
513.994	80.75
514.21	90.75
514.426	98.75
514.642	89.75
514.858	77.75
515.074	76.75
515.29	86.75
515.506	70.75
515.721	85.75
515.937	90.75
516.153	81.75
516.369	98.75
516.585	79.75
516.801	96.75
517.016	83.75
517.232	91.75
517.448	71.75
517.664	73.75
517.879	65.75
518.095	100.75
518.311	78.75
518.527	70.75
518.742	94.75
518.958	99.75
519.173	99.75
519.389	92.75
519.605	93.75
519.82	71.75
520.036	109.75
520.251	94.75
520.467	98.75
520.682	89.75
520.898	87.75
521.113	72.75
521.329	74.75
521.544	69.75
521.76	91.75
521.975	90.75
522.19	106.75
522.406	95.75
522.621	76.75
522.836	79.75
523.052	90.75
523.267	94.75
523.482	96.75
523.698	98.75
523.913	88.75
524.128	72.75
524.343	81.75
524.559	95.75
524.774	87.75
524.989	105.75
525.204	95.75
525.419	99.75
525.634	100.75
525.849	96.75
526.064	85.75
526.28	88.75
526.495	79.75
526.71	88.75
526.925	83.75
527.14	82.75
527.355	81.75
527.57	83.75
527.785	85.75
527.999	76.75
528.214	94.75
528.429	92.75
528.644	88.75
528.859	120.75
529.074	106.75
529.289	108.75
529.503	104.75
529.718	101.75
529.933	91.75
530.148	84.75
530.363	96.75
530.577	101.75
530.792	81.75
531.007	83.75
531.221	84.75
531.436	82.75
531.651	97.75
531.865	79.75
532.08	94.75
532.295	64.75
532.509	89.75
532.724	88.75
532.938	108.75
533.153	95.75
533.367	98.75
533.582	83.75
533.796	88.75
534.011	90.75
534.225	98.75
534.44	79.75
534.654	84.75
534.868	89.75
535.083	87.75
535.297	83.75
535.511	90.75
535.726	110.75
535.94	91.75
536.154	84.75
536.369	87.75
536.583	82.75
536.797	90.75
537.011	81.75
537.225	88.75
537.44	93.75
537.654	93.75
537.868	84.75
538.082	73.75
538.296	85.75
538.51	93.75
538.724	96.75
538.938	98.75
539.153	94.75
539.367	107.75
539.581	100.75
539.795	89.75
540.009	79.75
540.222	88.75
540.436	102.75
540.65	100.75
540.864	87.75
541.078	99.75
541.292	100.75
541.506	115.75
541.72	106.75
541.934	124.75
542.147	116.75
542.361	106.75
542.575	113.75
542.789	89.75
543.002	107.75
543.216	112.75
543.43	94.75
543.644	112.75
543.857	118.75
544.071	105.75
544.285	114.75
544.498	114.75
544.712	115.75
544.925	108.75
545.139	101.75
545.352	101.75
545.566	93.75
545.779	114.75
545.993	105.75
546.206	105.75
546.42	109.75
546.633	103.75
546.847	134.75
547.06	107.75
547.274	118.75
547.487	120.75
547.7	116.75
547.914	113.75
548.127	115.75
548.34	110.75
548.554	124.75
548.767	96.75
548.98	115.75
549.193	100.75
549.407	104.75
549.62	110.75
549.833	96.75
550.046	100.75
550.259	93.75
550.473	92.75
550.686	96.75
550.899	122.75
551.112	111.75
551.325	96.75
551.538	97.75
551.751	103.75
551.964	81.75
552.177	97.75
552.39	99.75
552.603	99.75
552.816	112.75
553.029	98.75
553.242	108.75
553.455	108.75
553.667	106.75
553.88	95.75
554.093	94.75
554.306	115.75
554.519	102.75
554.732	106.75
554.944	114.75
555.157	91.75
555.37	100.75
555.583	95.75
555.795	96.75
556.008	96.75
556.221	101.75
556.433	96.75
556.646	101.75
556.859	96.75
557.071	112.75
557.284	122.75
557.496	106.75
557.709	100.75
557.921	108.75
558.134	108.75
558.346	109.75
558.559	101.75
558.771	105.75
558.984	91.75
559.196	100.75
559.409	93.75
559.621	99.75
559.833	95.75
560.046	90.75
560.258	100.75
560.47	93.75
560.683	113.75
560.895	99.75
561.107	88.75
561.32	94.75
561.532	97.75
561.744	93.75
561.956	101.75
562.168	88.75
562.381	86.75
562.593	90.75
562.805	97.75
563.017	99.75
563.229	122.75
563.441	86.75
563.653	97.75
563.865	93.75
564.077	92.75
564.289	86.75
564.501	86.75
564.713	83.75
564.925	108.75
565.137	104.75
565.349	91.75
565.561	78.75
565.773	107.75
565.985	113.75
566.197	88.75
566.408	88.75
566.62	93.75
566.832	86.75
567.044	99.75
567.255	80.75
567.467	88.75
567.679	95.75
567.891	101.75
568.102	92.75
568.314	93.75
568.526	91.75
568.737	89.75
568.949	86.75
569.161	88.75
569.372	87.75
569.584	85.75
569.795	96.75
570.007	102.75
570.218	102.75
570.43	88.75
570.641	81.75
570.853	81.75
571.064	98.75
571.276	88.75
571.487	91.75
571.698	97.75
571.91	86.75
572.121	88.75
572.333	81.75
572.544	90.75
572.755	88.75
572.966	78.75
573.178	86.75
573.389	88.75
573.6	91.75
573.811	92.75
574.023	98.75
574.234	92.75
574.445	85.75
574.656	83.75
574.867	85.75
575.078	78.75
575.289	89.75
575.501	92.75
575.712	87.75
575.923	97.75
576.134	84.75
576.345	84.75
576.556	90.75
576.767	85.75
576.978	82.75
577.188	93.75
577.399	90.75
577.61	85.75
577.821	87.75
578.032	86.75
578.243	84.75
578.454	104.75
578.665	92.75
578.875	78.75
579.086	85.75
579.297	76.75
579.508	91.75
579.718	97.75
579.929	85.75
580.14	80.75
580.35	84.75
580.561	77.75
580.772	86.75
580.982	85.75
581.193	81.75
581.403	99.75
581.614	88.75
581.825	85.75
582.035	84.75
582.246	89.75
582.456	98.75
582.667	90.75
582.877	92.75
583.087	78.75
583.298	91.75
583.508	98.75
583.719	74.75
583.929	94.75
584.139	84.75
584.35	84.75
584.56	88.75
584.77	78.75
584.981	80.75
585.191	82.75
585.401	94.75
585.611	88.75
585.821	98.75
586.032	91.75
586.242	87.75
586.452	100.75
586.662	70.75
586.872	88.75
587.082	91.75
587.292	86.75
587.502	93.75
587.713	86.75
587.923	87.75
588.133	86.75
588.343	74.75
588.553	69.75
588.762	88.75
588.972	85.75
589.182	93.75
589.392	92.75
589.602	94.75
589.812	93.75
590.022	95.75
590.232	83.75
590.441	76.75
590.651	81.75
590.861	82.75
591.071	74.75
591.281	81.75
591.49	82.75
591.7	86.75
591.91	89.75
592.119	88.75
592.329	76.75
592.539	96.75
592.748	73.75
592.958	89.75
593.167	85.75
593.377	81.75
593.587	107.75
593.796	86.75
594.006	87.75
594.215	94.75
594.424	100.75
594.634	82.75
594.843	82.75
595.053	77.75
595.262	79.75
595.472	82.75
595.681	91.75
595.89	80.75
596.1	74.75
596.309	99.75
596.518	93.75
596.727	89.75
596.937	71.75
597.146	83.75
597.355	88.75
597.564	88.75
597.774	101.75
597.983	91.75
598.192	68.75
598.401	88.75
598.61	92.75
598.819	82.75
599.028	82.75
599.237	72.75
599.446	95.75
599.655	76.75
599.864	88.75
600.073	98.75
600.282	91.75
600.491	87.75
600.7	89.75
600.909	85.75
601.118	96.75
601.327	85.75
601.536	84.75
601.745	87.75
601.953	101.75
602.162	91.75
602.371	88.75
602.58	82.75
602.789	93.75
602.997	90.75
603.206	85.75
603.415	81.75
603.623	80.75
603.832	87.75
604.041	94.75
604.249	85.75
604.458	78.75
604.666	84.75
604.875	87.75
605.084	102.75
605.292	92.75
605.501	84.75
605.709	89.75
605.918	98.75
606.126	101.75
606.334	84.75
606.543	98.75
606.751	93.75
606.96	95.75
607.168	93.75
607.376	102.75
607.585	87.75
607.793	84.75
608.001	88.75
608.21	113.75
608.418	90.75
608.626	102.75
608.834	90.75
609.043	89.75
609.251	86.75
609.459	89.75
609.667	93.75
609.875	91.75
610.083	109.75
610.291	103.75
610.499	89.75
610.707	96.75
610.916	112.75
611.124	90.75
611.332	83.75
611.54	93.75
611.748	84.75
611.955	104.75
612.163	114.75
612.371	96.75
612.579	86.75
612.787	97.75
612.995	100.75
613.203	101.75
613.411	95.75
613.618	95.75
613.826	83.75
614.034	77.75
614.242	85.75
614.449	84.75
614.657	75.75
614.865	97.75
615.072	98.75
615.28	81.75
615.488	90.75
615.695	94.75
615.903	83.75
616.111	92.75
616.318	105.75
616.526	85.75
616.733	86.75
616.941	95.75
617.148	94.75
617.356	101.75
617.563	78.75
617.771	89.75
617.978	93.75
618.185	107.75
618.393	109.75
618.6	90.75
618.807	97.75
619.015	97.75
619.222	95.75
619.429	89.75
619.637	92.75
619.844	93.75
620.051	85.75
620.258	86.75
620.466	85.75
620.673	91.75
620.88	105.75
621.087	100.75
621.294	80.75
621.501	95.75
621.708	98.75
621.915	100.75
622.122	101.75
622.329	85.75
622.536	92.75
622.743	98.75
622.95	86.75
623.157	82.75
623.364	83.75
623.571	102.75
623.778	85.75
623.985	112.75
624.192	106.75
624.399	91.75
624.606	107.75
624.812	93.75
625.019	93.75
625.226	85.75
625.433	83.75
625.639	81.75
625.846	79.75
626.053	73.75
626.259	99.75
626.466	94.75
626.673	93.75
626.879	85.75
627.086	94.75
627.293	93.75
627.499	89.75
627.706	90.75
627.912	76.75
628.119	91.75
628.325	92.75
628.532	89.75
628.738	74.75
628.945	94.75
629.151	92.75
629.357	105.75
629.564	101.75
629.77	95.75
629.976	86.75
630.183	84.75
630.389	100.75
630.595	92.75
630.802	84.75
631.008	88.75
631.214	84.75
631.42	82.75
631.627	90.75
631.833	99.75
632.039	99.75
632.245	85.75
632.451	90.75
632.657	98.75
632.863	101.75
633.069	94.75
633.275	81.75
633.481	81.75
633.688	82.75
633.893	82.75
634.099	84.75
634.305	94.75
634.511	101.75
634.717	87.75
634.923	84.75
635.129	87.75
635.335	88.75
635.541	99.75
635.747	104.75
635.952	82.75
636.158	94.75
636.364	88.75
636.57	80.75
636.775	112.75
636.981	100.75
637.187	99.75
637.392	90.75
637.598	85.75
637.804	82.75
638.009	108.75
638.215	94.75
638.421	100.75
638.626	92.75
638.832	98.75
639.037	92.75
639.243	89.75
639.448	86.75
639.654	92.75
639.859	95.75
640.065	89.75
640.27	99.75
640.475	107.75
640.681	74.75
640.886	86.75
641.091	95.75
641.297	100.75
641.502	97.75
641.707	79.75
641.913	95.75
642.118	81.75
642.323	90.75
642.528	95.75
642.733	81.75
642.939	100.75
643.144	102.75
643.349	75.75
643.554	92.75
643.759	85.75
643.964	88.75
644.169	100.75
644.374	92.75
644.579	88.75
644.784	85.75
644.989	73.75
645.194	94.75
645.399	90.75
645.604	76.75
645.809	81.75
646.014	78.75
646.219	84.75
646.423	89.75
646.628	98.75
646.833	95.75
647.038	86.75
647.243	88.75
647.447	90.75
647.652	93.75
647.857	82.75
648.062	89.75
648.266	78.75
648.471	85.75
648.676	89.75
648.88	92.75
649.085	94.75
649.289	88.75
649.494	82.75
649.698	93.75
649.903	102.75
650.107	87.75
650.312	84.75
650.516	88.75
650.721	89.75
650.925	83.75
651.13	83.75
651.334	88.75
651.539	94.75
651.743	89.75
651.947	102.75
652.152	95.75
652.356	85.75
652.56	92.75
652.764	91.75
652.969	97.75
653.173	93.75
653.377	88.75
653.581	82.75
653.785	92.75
653.99	97.75
654.194	91.75
654.398	70.75
654.602	89.75
654.806	88.75
655.01	88.75
655.214	79.75
655.418	81.75
655.622	85.75
655.826	82.75
656.03	69.75
656.234	88.75
656.438	72.75
656.642	79.75
656.846	91.75
657.049	79.75
657.253	78.75
657.457	80.75
657.661	83.75
657.865	93.75
658.068	84.75
658.272	70.75
658.476	87.75
658.68	77.75
658.883	77.75
659.087	87.75
659.291	85.75
659.494	85.75
659.698	86.75
659.901	85.75
660.105	79.75
660.309	76.75
660.512	72.75
660.716	87.75
660.919	74.75
661.123	81.75
661.326	94.75
661.53	106.75
661.733	93.75
661.936	96.75
662.14	84.75
662.343	79.75
662.546	79.75
662.75	84.75
662.953	85.75
663.156	85.75
663.36	85.75
663.563	91.75
663.766	79.75
663.969	85.75
664.173	87.75
664.376	81.75
664.579	81.75
664.782	78.75
664.985	86.75
665.188	96.75
665.391	92.75
665.594	79.75
665.797	75.75
666	79.75
666.203	80.75
666.406	88.75
666.609	80.75
666.812	76.75
667.015	91.75
667.218	91.75
667.421	83.75
667.624	86.75
667.827	94.75
668.03	90.75
668.232	82.75
668.435	72.75
668.638	92.75
668.841	96.75
669.043	81.75
669.246	84.75
669.449	77.75
669.651	82.75
669.854	60.75
670.057	84.75
670.259	72.75
670.462	65.75
670.665	81.75
670.867	82.75
671.07	74.75
671.272	86.75
671.475	88.75
671.677	77.75
671.88	87.75
672.082	92.75
672.284	93.75
672.487	78.75
672.689	91.75
672.892	84.75
