Data from Location4.07152019.Energy5.Lamp.07192019.3%Agarose_HRD10591_15-23-12-576.txt Node
Date: Fri Jul 19 15:23:12 EDT 2019
User: cochatt
Spectrometer: HR+D1059
Trigger mode: 1
Integration Time (sec): 1.000000E-1
Scans to average: 1
Electric dark correction enabled: true
Nonlinearity correction enabled: false
Boxcar width: 0
XAxis mode: Wavelengths
Number of Pixels in Spectrum: 2048
>>>>>Begin Spectral Data<<<<<
223.165	-21.25
223.4	-21.25
223.635	-21.25
223.869	-32.25
224.104	-14.25
224.338	-14.25
224.573	-22.25
224.808	2.75
225.042	-3.25
225.277	-10.25
225.511	-1.25
225.746	-1.25
225.98	10.75
226.215	13.75
226.449	12.75
226.683	20.75
226.918	33.75
227.152	25.75
227.387	28.75
227.621	33.75
227.856	50.75
228.09	39.75
228.324	42.75
228.559	58.75
228.793	61.75
229.027	55.75
229.262	73.75
229.496	70.75
229.73	61.75
229.964	67.75
230.199	69.75
230.433	65.75
230.667	66.75
230.901	67.75
231.136	71.75
231.37	85.75
231.604	82.75
231.838	78.75
232.072	77.75
232.306	78.75
232.541	89.75
232.775	63.75
233.009	87.75
233.243	89.75
233.477	78.75
233.711	79.75
233.945	81.75
234.179	80.75
234.413	74.75
234.647	88.75
234.881	93.75
235.115	81.75
235.349	83.75
235.583	74.75
235.817	85.75
236.051	75.75
236.285	79.75
236.519	77.75
236.753	79.75
236.987	74.75
237.221	60.75
237.455	77.75
237.689	81.75
237.922	74.75
238.156	69.75
238.39	74.75
238.624	78.75
238.858	82.75
239.091	80.75
239.325	70.75
239.559	87.75
239.793	70.75
240.027	94.75
240.26	69.75
240.494	82.75
240.728	81.75
240.961	76.75
241.195	74.75
241.429	84.75
241.662	76.75
241.896	80.75
242.13	76.75
242.363	77.75
242.597	77.75
242.83	74.75
243.064	88.75
243.298	84.75
243.531	81.75
243.765	78.75
243.998	83.75
244.232	79.75
244.465	77.75
244.699	90.75
244.932	81.75
245.166	74.75
245.399	81.75
245.633	83.75
245.866	76.75
246.099	76.75
246.333	77.75
246.566	80.75
246.8	82.75
247.033	83.75
247.266	69.75
247.5	73.75
247.733	86.75
247.966	66.75
248.2	77.75
248.433	71.75
248.666	76.75
248.899	76.75
249.133	79.75
249.366	80.75
249.599	92.75
249.832	74.75
250.066	77.75
250.299	81.75
250.532	100.75
250.765	75.75
250.998	78.75
251.231	71.75
251.465	82.75
251.698	82.75
251.931	84.75
252.164	68.75
252.397	74.75
252.63	64.75
252.863	81.75
253.096	74.75
253.329	98.75
253.562	83.75
253.795	94.75
254.028	91.75
254.261	77.75
254.494	82.75
254.727	83.75
254.96	70.75
255.193	80.75
255.426	77.75
255.659	88.75
255.892	99.75
256.124	73.75
256.357	81.75
256.59	83.75
256.823	72.75
257.056	74.75
257.289	87.75
257.521	81.75
257.754	74.75
257.987	82.75
258.22	70.75
258.452	73.75
258.685	91.75
258.918	67.75
259.151	80.75
259.383	78.75
259.616	89.75
259.849	63.75
260.081	83.75
260.314	72.75
260.547	85.75
260.779	78.75
261.012	83.75
261.244	80.75
261.477	78.75
261.71	64.75
261.942	84.75
262.175	89.75
262.407	80.75
262.64	79.75
262.872	63.75
263.105	80.75
263.337	72.75
263.57	79.75
263.802	72.75
264.035	75.75
264.267	73.75
264.499	81.75
264.732	86.75
264.964	78.75
265.197	69.75
265.429	82.75
265.661	84.75
265.894	75.75
266.126	72.75
266.358	86.75
266.591	98.75
266.823	72.75
267.055	81.75
267.287	93.75
267.52	81.75
267.752	92.75
267.984	83.75
268.216	76.75
268.448	82.75
268.681	95.75
268.913	78.75
269.145	79.75
269.377	83.75
269.609	76.75
269.841	89.75
270.073	88.75
270.306	81.75
270.538	74.75
270.77	79.75
271.002	78.75
271.234	81.75
271.466	82.75
271.698	71.75
271.93	81.75
272.162	69.75
272.394	83.75
272.626	83.75
272.858	89.75
273.09	81.75
273.322	78.75
273.553	76.75
273.785	92.75
274.017	73.75
274.249	84.75
274.481	78.75
274.713	79.75
274.945	76.75
275.176	89.75
275.408	81.75
275.64	81.75
275.872	79.75
276.104	100.75
276.335	88.75
276.567	82.75
276.799	73.75
277.031	80.75
277.262	86.75
277.494	74.75
277.726	82.75
277.957	83.75
278.189	71.75
278.421	88.75
278.652	85.75
278.884	74.75
279.115	73.75
279.347	74.75
279.579	89.75
279.81	80.75
280.042	84.75
280.273	83.75
280.505	98.75
280.736	72.75
280.968	55.75
281.199	88.75
281.431	83.75
281.662	90.75
281.894	82.75
282.125	73.75
282.356	75.75
282.588	71.75
282.819	83.75
283.051	103.75
283.282	89.75
283.513	93.75
283.745	85.75
283.976	91.75
284.207	97.75
284.439	84.75
284.67	88.75
284.901	74.75
285.132	74.75
285.364	76.75
285.595	79.75
285.826	82.75
286.057	89.75
286.288	96.75
286.52	96.75
286.751	80.75
286.982	86.75
287.213	92.75
287.444	82.75
287.675	74.75
287.906	100.75
288.138	87.75
288.369	82.75
288.6	89.75
288.831	75.75
289.062	84.75
289.293	84.75
289.524	84.75
289.755	74.75
289.986	82.75
290.217	80.75
290.448	85.75
290.679	69.75
290.91	93.75
291.141	86.75
291.371	88.75
291.602	82.75
291.833	78.75
292.064	83.75
292.295	92.75
292.526	92.75
292.757	87.75
292.987	92.75
293.218	71.75
293.449	77.75
293.68	85.75
293.91	89.75
294.141	66.75
294.372	80.75
294.603	94.75
294.833	81.75
295.064	72.75
295.295	90.75
295.525	88.75
295.756	83.75
295.987	90.75
296.217	87.75
296.448	80.75
296.679	77.75
296.909	98.75
297.14	85.75
297.37	70.75
297.601	83.75
297.831	82.75
298.062	89.75
298.292	94.75
298.523	78.75
298.753	88.75
298.984	75.75
299.214	91.75
299.445	74.75
299.675	76.75
299.905	87.75
300.136	72.75
300.366	95.75
300.597	88.75
300.827	86.75
301.057	93.75
301.288	81.75
301.518	90.75
301.748	74.75
301.979	70.75
302.209	88.75
302.439	81.75
302.669	79.75
302.9	83.75
303.13	92.75
303.36	74.75
303.59	79.75
303.82	71.75
304.051	85.75
304.281	94.75
304.511	74.75
304.741	75.75
304.971	73.75
305.201	84.75
305.431	74.75
305.661	90.75
305.891	83.75
306.121	83.75
306.352	86.75
306.582	81.75
306.812	94.75
307.042	67.75
307.272	80.75
307.502	78.75
307.731	87.75
307.961	79.75
308.191	74.75
308.421	74.75
308.651	84.75
308.881	88.75
309.111	91.75
309.341	86.75
309.571	92.75
309.8	81.75
310.03	80.75
310.26	85.75
310.49	73.75
310.72	87.75
310.949	74.75
311.179	81.75
311.409	83.75
311.639	93.75
311.868	73.75
312.098	84.75
312.328	89.75
312.557	89.75
312.787	84.75
313.017	73.75
313.246	84.75
313.476	97.75
313.706	75.75
313.935	78.75
314.165	93.75
314.394	65.75
314.624	79.75
314.853	78.75
315.083	104.75
315.312	79.75
315.542	81.75
315.771	87.75
316.001	71.75
316.23	96.75
316.46	88.75
316.689	95.75
316.919	80.75
317.148	86.75
317.377	92.75
317.607	94.75
317.836	79.75
318.065	81.75
318.295	84.75
318.524	89.75
318.753	73.75
318.983	85.75
319.212	93.75
319.441	98.75
319.67	84.75
319.9	73.75
320.129	89.75
320.358	86.75
320.587	97.75
320.816	76.75
321.046	95.75
321.275	74.75
321.504	83.75
321.733	85.75
321.962	90.75
322.191	87.75
322.42	74.75
322.649	77.75
322.878	70.75
323.108	72.75
323.337	84.75
323.566	77.75
323.795	70.75
324.024	77.75
324.253	68.75
324.482	85.75
324.71	84.75
324.939	79.75
325.168	96.75
325.397	69.75
325.626	76.75
325.855	78.75
326.084	92.75
326.313	98.75
326.542	83.75
326.77	84.75
326.999	92.75
327.228	82.75
327.457	75.75
327.686	74.75
327.914	90.75
328.143	97.75
328.372	83.75
328.6	81.75
328.829	113.75
329.058	83.75
329.287	81.75
329.515	88.75
329.744	70.75
329.972	86.75
330.201	80.75
330.43	77.75
330.658	77.75
330.887	86.75
331.115	83.75
331.344	80.75
331.572	82.75
331.801	83.75
332.03	84.75
332.258	89.75
332.486	80.75
332.715	84.75
332.943	75.75
333.172	83.75
333.4	66.75
333.629	89.75
333.857	97.75
334.085	76.75
334.314	82.75
334.542	83.75
334.771	81.75
334.999	77.75
335.227	79.75
335.455	82.75
335.684	77.75
335.912	82.75
336.14	81.75
336.369	89.75
336.597	81.75
336.825	75.75
337.053	88.75
337.281	89.75
337.51	71.75
337.738	89.75
337.966	98.75
338.194	78.75
338.422	74.75
338.65	86.75
338.878	87.75
339.106	82.75
339.334	89.75
339.562	83.75
339.79	89.75
340.018	70.75
340.246	90.75
340.474	81.75
340.702	69.75
340.93	86.75
341.158	82.75
341.386	84.75
341.614	88.75
341.842	83.75
342.07	79.75
342.298	66.75
342.526	70.75
342.754	89.75
342.981	92.75
343.209	95.75
343.437	85.75
343.665	88.75
343.893	79.75
344.12	77.75
344.348	74.75
344.576	84.75
344.804	88.75
345.031	72.75
345.259	80.75
345.487	88.75
345.714	85.75
345.942	64.75
346.17	77.75
346.397	79.75
346.625	88.75
346.853	82.75
347.08	84.75
347.308	85.75
347.535	76.75
347.763	101.75
347.99	75.75
348.218	87.75
348.445	96.75
348.673	75.75
348.9	85.75
349.128	80.75
349.355	83.75
349.583	74.75
349.81	80.75
350.037	74.75
350.265	81.75
350.492	78.75
350.72	86.75
350.947	95.75
351.174	80.75
351.402	76.75
351.629	80.75
351.856	78.75
352.083	79.75
352.311	88.75
352.538	80.75
352.765	80.75
352.992	81.75
353.22	81.75
353.447	86.75
353.674	98.75
353.901	80.75
354.128	87.75
354.355	72.75
354.583	93.75
354.81	90.75
355.037	90.75
355.264	91.75
355.491	77.75
355.718	78.75
355.945	86.75
356.172	91.75
356.399	74.75
356.626	81.75
356.853	71.75
357.08	79.75
357.307	82.75
357.534	85.75
357.761	84.75
357.988	78.75
358.215	81.75
358.441	73.75
358.668	92.75
358.895	86.75
359.122	85.75
359.349	86.75
359.576	83.75
359.802	96.75
360.029	86.75
360.256	74.75
360.483	67.75
360.709	65.75
360.936	87.75
361.163	80.75
361.39	80.75
361.616	88.75
361.843	83.75
362.07	79.75
362.296	81.75
362.523	81.75
362.749	86.75
362.976	92.75
363.203	88.75
363.429	89.75
363.656	82.75
363.882	73.75
364.109	90.75
364.335	91.75
364.562	70.75
364.788	80.75
365.015	80.75
365.241	87.75
365.468	99.75
365.694	76.75
365.92	94.75
366.147	81.75
366.373	82.75
366.599	85.75
366.826	75.75
367.052	82.75
367.278	95.75
367.505	79.75
367.731	80.75
367.957	74.75
368.184	88.75
368.41	76.75
368.636	78.75
368.862	85.75
369.089	82.75
369.315	75.75
369.541	84.75
369.767	79.75
369.993	84.75
370.219	96.75
370.445	80.75
370.672	86.75
370.898	91.75
371.124	74.75
371.35	71.75
371.576	66.75
371.802	84.75
372.028	77.75
372.254	88.75
372.48	87.75
372.706	85.75
372.932	80.75
373.158	83.75
373.384	83.75
373.61	93.75
373.835	74.75
374.061	85.75
374.287	84.75
374.513	83.75
374.739	61.75
374.965	74.75
375.191	88.75
375.416	84.75
375.642	87.75
375.868	82.75
376.094	69.75
376.319	77.75
376.545	72.75
376.771	85.75
376.997	96.75
377.222	85.75
377.448	68.75
377.674	80.75
377.899	82.75
378.125	78.75
378.35	80.75
378.576	86.75
378.802	87.75
379.027	82.75
379.253	94.75
379.478	80.75
379.704	87.75
379.929	82.75
380.155	82.75
380.38	83.75
380.606	87.75
380.831	83.75
381.057	100.75
381.282	92.75
381.507	74.75
381.733	81.75
381.958	103.75
382.184	85.75
382.409	100.75
382.634	87.75
382.86	84.75
383.085	90.75
383.31	79.75
383.535	94.75
383.761	93.75
383.986	89.75
384.211	86.75
384.436	90.75
384.662	72.75
384.887	82.75
385.112	83.75
385.337	88.75
385.562	74.75
385.787	89.75
386.013	83.75
386.238	92.75
386.463	79.75
386.688	88.75
386.913	91.75
387.138	86.75
387.363	71.75
387.588	89.75
387.813	98.75
388.038	92.75
388.263	83.75
388.488	96.75
388.713	87.75
388.938	74.75
389.163	85.75
389.387	91.75
389.612	86.75
389.837	83.75
390.062	83.75
390.287	90.75
390.512	89.75
390.736	85.75
390.961	89.75
391.186	88.75
391.411	88.75
391.636	69.75
391.86	86.75
392.085	89.75
392.31	92.75
392.534	97.75
392.759	81.75
392.984	89.75
393.208	82.75
393.433	87.75
393.658	75.75
393.882	82.75
394.107	81.75
394.331	86.75
394.556	80.75
394.78	83.75
395.005	89.75
395.229	93.75
395.454	87.75
395.678	81.75
395.903	101.75
396.127	93.75
396.352	76.75
396.576	93.75
396.801	92.75
397.025	85.75
397.249	67.75
397.474	84.75
397.698	89.75
397.922	90.75
398.147	85.75
398.371	73.75
398.595	78.75
398.82	74.75
399.044	86.75
399.268	80.75
399.492	91.75
399.717	89.75
399.941	75.75
400.165	78.75
400.389	94.75
400.613	77.75
400.837	87.75
401.062	75.75
401.286	81.75
401.51	74.75
401.734	96.75
401.958	84.75
402.182	92.75
402.406	88.75
402.63	78.75
402.854	102.75
403.078	83.75
403.302	80.75
403.526	91.75
403.75	89.75
403.974	88.75
404.198	93.75
404.422	91.75
404.645	91.75
404.869	85.75
405.093	85.75
405.317	93.75
405.541	94.75
405.765	102.75
405.988	89.75
406.212	89.75
406.436	96.75
406.66	101.75
406.883	86.75
407.107	81.75
407.331	78.75
407.555	85.75
407.778	82.75
408.002	86.75
408.226	82.75
408.449	87.75
408.673	99.75
408.896	80.75
409.12	90.75
409.344	85.75
409.567	90.75
409.791	85.75
410.014	84.75
410.238	88.75
410.461	93.75
410.685	90.75
410.908	92.75
411.132	88.75
411.355	81.75
411.578	96.75
411.802	88.75
412.025	88.75
412.249	76.75
412.472	87.75
412.695	74.75
412.919	84.75
413.142	85.75
413.365	86.75
413.589	67.75
413.812	78.75
414.035	82.75
414.258	81.75
414.482	84.75
414.705	85.75
414.928	78.75
415.151	90.75
415.374	71.75
415.597	86.75
415.821	87.75
416.044	94.75
416.267	86.75
416.49	85.75
416.713	95.75
416.936	86.75
417.159	100.75
417.382	84.75
417.605	89.75
417.828	88.75
418.051	82.75
418.274	101.75
418.497	90.75
418.72	84.75
418.943	83.75
419.166	100.75
419.389	89.75
419.611	103.75
419.834	76.75
420.057	85.75
420.28	94.75
420.503	86.75
420.726	77.75
420.948	76.75
421.171	98.75
421.394	108.75
421.617	97.75
421.839	106.75
422.062	95.75
422.285	93.75
422.507	87.75
422.73	84.75
422.953	94.75
423.175	96.75
423.398	100.75
423.621	84.75
423.843	85.75
424.066	85.75
424.288	89.75
424.511	101.75
424.733	102.75
424.956	87.75
425.178	93.75
425.401	89.75
425.623	101.75
425.846	98.75
426.068	94.75
426.291	98.75
426.513	83.75
426.735	85.75
426.958	96.75
427.18	89.75
427.402	107.75
427.625	77.75
427.847	81.75
428.069	88.75
428.292	103.75
428.514	85.75
428.736	103.75
428.958	86.75
429.181	96.75
429.403	84.75
429.625	87.75
429.847	90.75
430.069	91.75
430.292	81.75
430.514	91.75
430.736	84.75
430.958	90.75
431.18	89.75
431.402	85.75
431.624	86.75
431.846	85.75
432.068	71.75
432.29	87.75
432.512	94.75
432.734	87.75
432.956	95.75
433.178	97.75
433.4	75.75
433.622	99.75
433.844	105.75
434.066	90.75
434.287	95.75
434.509	89.75
434.731	83.75
434.953	100.75
435.175	97.75
435.397	77.75
435.618	101.75
435.84	86.75
436.062	79.75
436.284	82.75
436.505	90.75
436.727	82.75
436.949	87.75
437.17	81.75
437.392	89.75
437.614	95.75
437.835	75.75
438.057	92.75
438.278	85.75
438.5	94.75
438.721	95.75
438.943	89.75
439.165	80.75
439.386	99.75
439.608	101.75
439.829	95.75
440.05	105.75
440.272	96.75
440.493	86.75
440.715	92.75
440.936	110.75
441.158	92.75
441.379	84.75
441.6	92.75
441.822	91.75
442.043	112.75
442.264	92.75
442.486	100.75
442.707	89.75
442.928	96.75
443.149	97.75
443.371	98.75
443.592	99.75
443.813	86.75
444.034	103.75
444.255	82.75
444.476	100.75
444.698	88.75
444.919	103.75
445.14	178.75
445.361	144.75
445.582	104.75
445.803	95.75
446.024	96.75
446.245	89.75
446.466	96.75
446.687	95.75
446.908	93.75
447.129	100.75
447.35	98.75
447.571	99.75
447.792	97.75
448.013	86.75
448.234	101.75
448.455	101.75
448.675	94.75
448.896	99.75
449.117	103.75
449.338	97.75
449.559	96.75
449.779	101.75
450	78.75
450.221	90.75
450.442	90.75
450.662	92.75
450.883	92.75
451.104	106.75
451.324	90.75
451.545	88.75
451.766	78.75
451.986	89.75
452.207	87.75
452.428	101.75
452.648	93.75
452.869	85.75
453.089	76.75
453.31	95.75
453.53	78.75
453.751	78.75
453.971	81.75
454.192	81.75
454.412	82.75
454.633	89.75
454.853	87.75
455.073	80.75
455.294	90.75
455.514	96.75
455.734	92.75
455.955	83.75
456.175	88.75
456.395	81.75
456.616	88.75
456.836	84.75
457.056	89.75
457.276	82.75
457.497	93.75
457.717	82.75
457.937	104.75
458.157	79.75
458.377	89.75
458.598	85.75
458.818	81.75
459.038	80.75
459.258	87.75
459.478	72.75
459.698	72.75
459.918	86.75
460.138	82.75
460.358	88.75
460.578	93.75
460.798	80.75
461.018	92.75
461.238	97.75
461.458	88.75
461.678	106.75
461.898	98.75
462.118	87.75
462.338	74.75
462.558	94.75
462.777	88.75
462.997	87.75
463.217	80.75
463.437	79.75
463.657	93.75
463.876	87.75
464.096	78.75
464.316	90.75
464.536	97.75
464.755	98.75
464.975	88.75
465.195	95.75
465.414	100.75
465.634	89.75
465.854	99.75
466.073	83.75
466.293	73.75
466.512	103.75
466.732	102.75
466.951	99.75
467.171	99.75
467.391	94.75
467.61	110.75
467.829	112.75
468.049	87.75
468.268	86.75
468.488	97.75
468.707	97.75
468.927	99.75
469.146	101.75
469.365	97.75
469.585	82.75
469.804	89.75
470.023	78.75
470.243	93.75
470.462	81.75
470.681	89.75
470.901	88.75
471.12	96.75
471.339	85.75
471.558	90.75
471.777	90.75
471.997	104.75
472.216	83.75
472.435	96.75
472.654	90.75
472.873	81.75
473.092	88.75
473.311	80.75
473.53	94.75
473.749	92.75
473.968	88.75
474.187	108.75
474.406	80.75
474.625	92.75
474.844	96.75
475.063	84.75
475.282	95.75
475.501	88.75
475.72	89.75
475.939	82.75
476.158	90.75
476.377	86.75
476.596	91.75
476.814	82.75
477.033	81.75
477.252	99.75
477.471	86.75
477.69	94.75
477.908	99.75
478.127	95.75
478.346	85.75
478.564	92.75
478.783	98.75
479.002	106.75
479.22	100.75
479.439	88.75
479.658	95.75
479.876	101.75
480.095	94.75
480.313	92.75
480.532	95.75
480.751	81.75
480.969	80.75
481.188	74.75
481.406	78.75
481.624	74.75
481.843	84.75
482.061	81.75
482.28	85.75
482.498	99.75
482.717	82.75
482.935	82.75
483.153	102.75
483.372	85.75
483.59	102.75
483.808	85.75
484.027	81.75
484.245	99.75
484.463	82.75
484.681	96.75
484.9	86.75
485.118	95.75
485.336	89.75
485.554	93.75
485.772	83.75
485.99	82.75
486.209	97.75
486.427	89.75
486.645	101.75
486.863	97.75
487.081	83.75
487.299	89.75
487.517	102.75
487.735	114.75
487.953	119.75
488.171	105.75
488.389	100.75
488.607	99.75
488.825	82.75
489.043	94.75
489.261	94.75
489.479	93.75
489.696	100.75
489.914	104.75
490.132	104.75
490.35	113.75
490.568	97.75
490.786	99.75
491.003	111.75
491.221	103.75
491.439	114.75
491.657	120.75
491.874	110.75
492.092	111.75
492.31	126.75
492.527	126.75
492.745	124.75
492.963	108.75
493.18	106.75
493.398	92.75
493.615	118.75
493.833	108.75
494.05	108.75
494.268	117.75
494.485	97.75
494.703	102.75
494.92	110.75
495.138	105.75
495.355	114.75
495.573	116.75
495.79	98.75
496.008	107.75
496.225	99.75
496.442	111.75
496.66	111.75
496.877	111.75
497.094	98.75
497.312	118.75
497.529	85.75
497.746	88.75
497.963	94.75
498.181	94.75
498.398	102.75
498.615	95.75
498.832	83.75
499.049	86.75
499.267	85.75
499.484	93.75
499.701	113.75
499.918	99.75
500.135	94.75
500.352	101.75
500.569	99.75
500.786	100.75
501.003	94.75
501.22	90.75
501.437	84.75
501.654	109.75
501.871	94.75
502.088	100.75
502.305	101.75
502.522	97.75
502.739	93.75
502.956	104.75
503.172	86.75
503.389	92.75
503.606	95.75
503.823	95.75
504.04	92.75
504.256	90.75
504.473	95.75
504.69	99.75
504.907	82.75
505.123	88.75
505.34	88.75
505.557	94.75
505.773	88.75
505.99	83.75
506.207	89.75
506.423	89.75
506.64	97.75
506.856	94.75
507.073	83.75
507.289	95.75
507.506	82.75
507.722	92.75
507.939	85.75
508.155	97.75
508.372	89.75
508.588	83.75
508.805	80.75
509.021	86.75
509.238	75.75
509.454	89.75
509.67	85.75
509.887	77.75
510.103	80.75
510.319	92.75
510.536	97.75
510.752	83.75
510.968	84.75
511.184	74.75
511.401	78.75
511.617	86.75
511.833	89.75
512.049	79.75
512.265	96.75
512.481	83.75
512.698	92.75
512.914	79.75
513.13	94.75
513.346	79.75
513.562	70.75
513.778	89.75
513.994	81.75
514.21	84.75
514.426	82.75
514.642	88.75
514.858	84.75
515.074	74.75
515.29	95.75
515.506	79.75
515.721	73.75
515.937	80.75
516.153	81.75
516.369	85.75
516.585	89.75
516.801	81.75
517.016	89.75
517.232	88.75
517.448	84.75
517.664	80.75
517.879	89.75
518.095	73.75
518.311	73.75
518.527	91.75
518.742	62.75
518.958	85.75
519.173	84.75
519.389	80.75
519.605	96.75
519.82	77.75
520.036	78.75
520.251	90.75
520.467	83.75
520.682	95.75
520.898	97.75
521.113	77.75
521.329	84.75
521.544	75.75
521.76	65.75
521.975	81.75
522.19	75.75
522.406	94.75
522.621	103.75
522.836	78.75
523.052	92.75
523.267	72.75
523.482	87.75
523.698	90.75
523.913	87.75
524.128	101.75
524.343	94.75
524.559	101.75
524.774	100.75
524.989	105.75
525.204	85.75
525.419	89.75
525.634	82.75
525.849	83.75
526.064	94.75
526.28	85.75
526.495	77.75
526.71	96.75
526.925	80.75
527.14	87.75
527.355	86.75
527.57	86.75
527.785	73.75
527.999	72.75
528.214	73.75
528.429	95.75
528.644	93.75
528.859	100.75
529.074	94.75
529.289	100.75
529.503	102.75
529.718	97.75
529.933	100.75
530.148	88.75
530.363	83.75
530.577	86.75
530.792	93.75
531.007	76.75
531.221	78.75
531.436	79.75
531.651	75.75
531.865	68.75
532.08	84.75
532.295	93.75
532.509	73.75
532.724	93.75
532.938	97.75
533.153	88.75
533.367	105.75
533.582	85.75
533.796	88.75
534.011	79.75
534.225	81.75
534.44	82.75
534.654	80.75
534.868	85.75
535.083	86.75
535.297	93.75
535.511	92.75
535.726	81.75
535.94	79.75
536.154	79.75
536.369	87.75
536.583	77.75
536.797	65.75
537.011	78.75
537.225	76.75
537.44	88.75
537.654	95.75
537.868	77.75
538.082	83.75
538.296	91.75
538.51	76.75
538.724	85.75
538.938	91.75
539.153	94.75
539.367	88.75
539.581	79.75
539.795	90.75
540.009	89.75
540.222	84.75
540.436	87.75
540.65	103.75
540.864	92.75
541.078	97.75
541.292	108.75
541.506	103.75
541.72	107.75
541.934	95.75
542.147	126.75
542.361	123.75
542.575	118.75
542.789	104.75
543.002	97.75
543.216	104.75
543.43	89.75
543.644	92.75
543.857	88.75
544.071	112.75
544.285	108.75
544.498	96.75
544.712	92.75
544.925	95.75
545.139	113.75
545.352	93.75
545.566	126.75
545.779	98.75
545.993	95.75
546.206	109.75
546.42	100.75
546.633	106.75
546.847	113.75
547.06	98.75
547.274	93.75
547.487	108.75
547.7	118.75
547.914	107.75
548.127	100.75
548.34	100.75
548.554	93.75
548.767	101.75
548.98	92.75
549.193	108.75
549.407	102.75
549.62	104.75
549.833	98.75
550.046	102.75
550.259	113.75
550.473	97.75
550.686	110.75
550.899	108.75
551.112	102.75
551.325	92.75
551.538	69.75
551.751	93.75
551.964	86.75
552.177	98.75
552.39	108.75
552.603	104.75
552.816	99.75
553.029	103.75
553.242	102.75
553.455	105.75
553.667	97.75
553.88	102.75
554.093	108.75
554.306	101.75
554.519	114.75
554.732	103.75
554.944	99.75
555.157	94.75
555.37	115.75
555.583	112.75
555.795	92.75
556.008	91.75
556.221	82.75
556.433	95.75
556.646	100.75
556.859	93.75
557.071	100.75
557.284	114.75
557.496	98.75
557.709	93.75
557.921	96.75
558.134	100.75
558.346	105.75
558.559	102.75
558.771	81.75
558.984	90.75
559.196	89.75
559.409	94.75
559.621	97.75
559.833	100.75
560.046	91.75
560.258	99.75
560.47	94.75
560.683	89.75
560.895	91.75
561.107	105.75
561.32	97.75
561.532	94.75
561.744	90.75
561.956	103.75
562.168	110.75
562.381	94.75
562.593	102.75
562.805	93.75
563.017	98.75
563.229	108.75
563.441	104.75
563.653	105.75
563.865	97.75
564.077	101.75
564.289	95.75
564.501	97.75
564.713	85.75
564.925	83.75
565.137	97.75
565.349	77.75
565.561	93.75
565.773	100.75
565.985	93.75
566.197	96.75
566.408	89.75
566.62	92.75
566.832	84.75
567.044	107.75
567.255	94.75
567.467	84.75
567.679	88.75
567.891	101.75
568.102	82.75
568.314	92.75
568.526	76.75
568.737	73.75
568.949	74.75
569.161	77.75
569.372	73.75
569.584	68.75
569.795	77.75
570.007	92.75
570.218	69.75
570.43	75.75
570.641	94.75
570.853	76.75
571.064	90.75
571.276	85.75
571.487	95.75
571.698	85.75
571.91	89.75
572.121	80.75
572.333	88.75
572.544	82.75
572.755	74.75
572.966	73.75
573.178	76.75
573.389	103.75
573.6	71.75
573.811	87.75
574.023	90.75
574.234	84.75
574.445	75.75
574.656	71.75
574.867	87.75
575.078	92.75
575.289	92.75
575.501	94.75
575.712	88.75
575.923	77.75
576.134	82.75
576.345	85.75
576.556	77.75
576.767	95.75
576.978	88.75
577.188	76.75
577.399	81.75
577.61	81.75
577.821	91.75
578.032	87.75
578.243	75.75
578.454	91.75
578.665	96.75
578.875	78.75
579.086	100.75
579.297	89.75
579.508	84.75
579.718	74.75
579.929	80.75
580.14	88.75
580.35	87.75
580.561	97.75
580.772	80.75
580.982	82.75
581.193	79.75
581.403	88.75
581.614	92.75
581.825	82.75
582.035	80.75
582.246	89.75
582.456	91.75
582.667	96.75
582.877	83.75
583.087	84.75
583.298	90.75
583.508	86.75
583.719	79.75
583.929	86.75
584.139	83.75
584.35	77.75
584.56	90.75
584.77	70.75
584.981	77.75
585.191	78.75
585.401	85.75
585.611	68.75
585.821	77.75
586.032	79.75
586.242	78.75
586.452	78.75
586.662	82.75
586.872	93.75
587.082	70.75
587.292	93.75
587.502	80.75
587.713	93.75
587.923	81.75
588.133	83.75
588.343	82.75
588.553	72.75
588.762	74.75
588.972	94.75
589.182	92.75
589.392	87.75
589.602	104.75
589.812	85.75
590.022	98.75
590.232	79.75
590.441	90.75
590.651	90.75
590.861	92.75
591.071	88.75
591.281	77.75
591.49	62.75
591.7	77.75
591.91	80.75
592.119	91.75
592.329	89.75
592.539	74.75
592.748	68.75
592.958	72.75
593.167	78.75
593.377	68.75
593.587	82.75
593.796	87.75
594.006	75.75
594.215	72.75
594.424	80.75
594.634	79.75
594.843	87.75
595.053	75.75
595.262	73.75
595.472	84.75
595.681	96.75
595.89	80.75
596.1	75.75
596.309	95.75
596.518	78.75
596.727	86.75
596.937	79.75
597.146	88.75
597.355	90.75
597.564	77.75
597.774	99.75
597.983	91.75
598.192	77.75
598.401	75.75
598.61	95.75
598.819	80.75
599.028	92.75
599.237	83.75
599.446	90.75
599.655	97.75
599.864	86.75
600.073	78.75
600.282	104.75
600.491	89.75
600.7	92.75
600.909	88.75
601.118	87.75
601.327	97.75
601.536	87.75
601.745	87.75
601.953	82.75
602.162	99.75
602.371	84.75
602.58	81.75
602.789	89.75
602.997	93.75
603.206	91.75
603.415	90.75
603.623	87.75
603.832	88.75
604.041	77.75
604.249	95.75
604.458	87.75
604.666	82.75
604.875	81.75
605.084	77.75
605.292	92.75
605.501	88.75
605.709	80.75
605.918	91.75
606.126	96.75
606.334	89.75
606.543	80.75
606.751	85.75
606.96	104.75
607.168	97.75
607.376	80.75
607.585	86.75
607.793	97.75
608.001	107.75
608.21	95.75
608.418	94.75
608.626	85.75
608.834	100.75
609.043	85.75
609.251	74.75
609.459	82.75
609.667	89.75
609.875	101.75
610.083	96.75
610.291	108.75
610.499	92.75
610.707	96.75
610.916	100.75
611.124	82.75
611.332	99.75
611.54	87.75
611.748	96.75
611.955	95.75
612.163	84.75
612.371	91.75
612.579	101.75
612.787	93.75
612.995	101.75
613.203	92.75
613.411	89.75
613.618	90.75
613.826	81.75
614.034	86.75
614.242	94.75
614.449	80.75
614.657	105.75
614.865	98.75
615.072	87.75
615.28	81.75
615.488	97.75
615.695	85.75
615.903	85.75
616.111	72.75
616.318	88.75
616.526	87.75
616.733	98.75
616.941	93.75
617.148	94.75
617.356	98.75
617.563	89.75
617.771	101.75
617.978	69.75
618.185	81.75
618.393	74.75
618.6	105.75
618.807	104.75
619.015	95.75
619.222	89.75
619.429	95.75
619.637	88.75
619.844	98.75
620.051	95.75
620.258	76.75
620.466	102.75
620.673	94.75
620.88	93.75
621.087	85.75
621.294	89.75
621.501	88.75
621.708	81.75
621.915	70.75
622.122	86.75
622.329	84.75
622.536	98.75
622.743	93.75
622.95	83.75
623.157	100.75
623.364	110.75
623.571	95.75
623.778	94.75
623.985	91.75
624.192	86.75
624.399	85.75
624.606	92.75
624.812	95.75
625.019	99.75
625.226	93.75
625.433	103.75
625.639	80.75
625.846	84.75
626.053	84.75
626.259	85.75
626.466	80.75
626.673	69.75
626.879	81.75
627.086	87.75
627.293	92.75
627.499	104.75
627.706	77.75
627.912	84.75
628.119	64.75
628.325	87.75
628.532	86.75
628.738	74.75
628.945	86.75
629.151	89.75
629.357	95.75
629.564	97.75
629.77	87.75
629.976	77.75
630.183	71.75
630.389	98.75
630.595	84.75
630.802	85.75
631.008	90.75
631.214	89.75
631.42	96.75
631.627	85.75
631.833	90.75
632.039	82.75
632.245	69.75
632.451	83.75
632.657	88.75
632.863	94.75
633.069	77.75
633.275	99.75
633.481	85.75
633.688	80.75
633.893	97.75
634.099	82.75
634.305	95.75
634.511	97.75
634.717	81.75
634.923	81.75
635.129	74.75
635.335	90.75
635.541	85.75
635.747	87.75
635.952	81.75
636.158	85.75
636.364	79.75
636.57	86.75
636.775	88.75
636.981	85.75
637.187	85.75
637.392	74.75
637.598	71.75
637.804	77.75
638.009	89.75
638.215	80.75
638.421	73.75
638.626	72.75
638.832	88.75
639.037	85.75
639.243	92.75
639.448	80.75
639.654	86.75
639.859	91.75
640.065	87.75
640.27	79.75
640.475	90.75
640.681	79.75
640.886	72.75
641.091	78.75
641.297	91.75
641.502	86.75
641.707	69.75
641.913	85.75
642.118	84.75
642.323	84.75
642.528	77.75
642.733	80.75
642.939	93.75
643.144	88.75
643.349	92.75
643.554	83.75
643.759	88.75
643.964	78.75
644.169	80.75
644.374	75.75
644.579	85.75
644.784	84.75
644.989	63.75
645.194	80.75
645.399	87.75
645.604	81.75
645.809	94.75
646.014	81.75
646.219	94.75
646.423	63.75
646.628	92.75
646.833	85.75
647.038	91.75
647.243	89.75
647.447	77.75
647.652	81.75
647.857	89.75
648.062	89.75
648.266	86.75
648.471	84.75
648.676	68.75
648.88	87.75
649.085	91.75
649.289	88.75
649.494	95.75
649.698	92.75
649.903	85.75
650.107	91.75
650.312	74.75
650.516	90.75
650.721	83.75
650.925	81.75
651.13	78.75
651.334	88.75
651.539	78.75
651.743	87.75
651.947	93.75
652.152	82.75
652.356	94.75
652.56	89.75
652.764	86.75
652.969	87.75
653.173	89.75
653.377	89.75
653.581	77.75
653.785	88.75
653.99	76.75
654.194	78.75
654.398	93.75
654.602	71.75
654.806	69.75
655.01	84.75
655.214	87.75
655.418	84.75
655.622	86.75
655.826	73.75
656.03	88.75
656.234	87.75
656.438	101.75
656.642	91.75
656.846	80.75
657.049	75.75
657.253	83.75
657.457	80.75
657.661	77.75
657.865	72.75
658.068	77.75
658.272	70.75
658.476	84.75
658.68	76.75
658.883	85.75
659.087	70.75
659.291	79.75
659.494	84.75
659.698	92.75
659.901	97.75
660.105	89.75
660.309	100.75
660.512	74.75
660.716	73.75
660.919	71.75
661.123	74.75
661.326	61.75
661.53	81.75
661.733	75.75
661.936	83.75
662.14	89.75
662.343	70.75
662.546	74.75
662.75	75.75
662.953	79.75
663.156	74.75
663.36	82.75
663.563	87.75
663.766	83.75
663.969	65.75
664.173	80.75
664.376	88.75
664.579	76.75
664.782	81.75
664.985	81.75
665.188	71.75
665.391	73.75
665.594	86.75
665.797	92.75
666	72.75
666.203	88.75
666.406	80.75
666.609	89.75
666.812	72.75
667.015	82.75
667.218	88.75
667.421	77.75
667.624	83.75
667.827	90.75
668.03	86.75
668.232	91.75
668.435	84.75
668.638	85.75
668.841	82.75
669.043	85.75
669.246	85.75
669.449	80.75
669.651	101.75
669.854	71.75
670.057	69.75
670.259	82.75
670.462	81.75
670.665	89.75
670.867	81.75
671.07	83.75
671.272	92.75
671.475	82.75
671.677	88.75
671.88	88.75
672.082	88.75
672.284	79.75
672.487	82.75
672.689	81.75
672.892	78.75
