Data from Location4.07152019.Energy5.Lamp.07192019.3%Agarose_HRD10591_15-25-52-578.txt Node
Date: Fri Jul 19 15:25:52 EDT 2019
User: cochatt
Spectrometer: HR+D1059
Trigger mode: 1
Integration Time (sec): 1.000000E-1
Scans to average: 1
Electric dark correction enabled: true
Nonlinearity correction enabled: false
Boxcar width: 0
XAxis mode: Wavelengths
Number of Pixels in Spectrum: 2048
>>>>>Begin Spectral Data<<<<<
223.165	-20.12
223.4	-20.12
223.635	-20.12
223.869	-17.12
224.104	-18.12
224.338	-13.12
224.573	-9.12
224.808	-10.12
225.042	-14.12
225.277	-7.12
225.511	-14.12
225.746	0.88
225.98	6.88
226.215	6.88
226.449	23.88
226.683	26.88
226.918	28.88
227.152	28.88
227.387	24.88
227.621	42.88
227.856	49.88
228.09	54.88
228.324	48.88
228.559	48.88
228.793	55.88
229.027	65.88
229.262	53.88
229.496	62.88
229.73	71.88
229.964	86.88
230.199	71.88
230.433	91.88
230.667	80.88
230.901	72.88
231.136	76.88
231.37	93.88
231.604	84.88
231.838	69.88
232.072	78.88
232.306	76.88
232.541	82.88
232.775	73.88
233.009	79.88
233.243	69.88
233.477	70.88
233.711	80.88
233.945	73.88
234.179	76.88
234.413	71.88
234.647	73.88
234.881	79.88
235.115	81.88
235.349	85.88
235.583	79.88
235.817	89.88
236.051	80.88
236.285	99.88
236.519	70.88
236.753	91.88
236.987	71.88
237.221	81.88
237.455	76.88
237.689	80.88
237.922	76.88
238.156	77.88
238.39	76.88
238.624	76.88
238.858	68.88
239.091	68.88
239.325	68.88
239.559	69.88
239.793	84.88
240.027	72.88
240.26	75.88
240.494	68.88
240.728	72.88
240.961	87.88
241.195	82.88
241.429	86.88
241.662	79.88
241.896	74.88
242.13	73.88
242.363	71.88
242.597	76.88
242.83	66.88
243.064	67.88
243.298	75.88
243.531	85.88
243.765	72.88
243.998	73.88
244.232	63.88
244.465	72.88
244.699	70.88
244.932	73.88
245.166	74.88
245.399	65.88
245.633	72.88
245.866	78.88
246.099	83.88
246.333	87.88
246.566	87.88
246.8	80.88
247.033	68.88
247.266	85.88
247.5	81.88
247.733	96.88
247.966	87.88
248.2	87.88
248.433	93.88
248.666	74.88
248.899	83.88
249.133	74.88
249.366	78.88
249.599	83.88
249.832	73.88
250.066	80.88
250.299	70.88
250.532	70.88
250.765	72.88
250.998	82.88
251.231	87.88
251.465	87.88
251.698	87.88
251.931	92.88
252.164	72.88
252.397	85.88
252.63	66.88
252.863	76.88
253.096	77.88
253.329	76.88
253.562	85.88
253.795	80.88
254.028	86.88
254.261	88.88
254.494	75.88
254.727	75.88
254.96	86.88
255.193	79.88
255.426	86.88
255.659	80.88
255.892	66.88
256.124	67.88
256.357	80.88
256.59	82.88
256.823	72.88
257.056	71.88
257.289	71.88
257.521	82.88
257.754	88.88
257.987	80.88
258.22	82.88
258.452	64.88
258.685	69.88
258.918	83.88
259.151	80.88
259.383	86.88
259.616	66.88
259.849	78.88
260.081	75.88
260.314	73.88
260.547	62.88
260.779	87.88
261.012	92.88
261.244	79.88
261.477	80.88
261.71	82.88
261.942	82.88
262.175	95.88
262.407	94.88
262.64	91.88
262.872	72.88
263.105	75.88
263.337	80.88
263.57	65.88
263.802	70.88
264.035	72.88
264.267	76.88
264.499	86.88
264.732	82.88
264.964	74.88
265.197	89.88
265.429	74.88
265.661	90.88
265.894	84.88
266.126	88.88
266.358	80.88
266.591	70.88
266.823	71.88
267.055	76.88
267.287	85.88
267.52	87.88
267.752	76.88
267.984	80.88
268.216	95.88
268.448	87.88
268.681	85.88
268.913	89.88
269.145	75.88
269.377	79.88
269.609	71.88
269.841	83.88
270.073	75.88
270.306	82.88
270.538	91.88
270.77	80.88
271.002	84.88
271.234	73.88
271.466	87.88
271.698	75.88
271.93	80.88
272.162	79.88
272.394	82.88
272.626	73.88
272.858	82.88
273.09	101.88
273.322	85.88
273.553	73.88
273.785	86.88
274.017	70.88
274.249	80.88
274.481	75.88
274.713	85.88
274.945	83.88
275.176	80.88
275.408	75.88
275.64	85.88
275.872	72.88
276.104	94.88
276.335	93.88
276.567	86.88
276.799	75.88
277.031	87.88
277.262	86.88
277.494	89.88
277.726	76.88
277.957	77.88
278.189	88.88
278.421	84.88
278.652	85.88
278.884	75.88
279.115	87.88
279.347	82.88
279.579	95.88
279.81	82.88
280.042	87.88
280.273	83.88
280.505	75.88
280.736	65.88
280.968	86.88
281.199	97.88
281.431	71.88
281.662	93.88
281.894	80.88
282.125	74.88
282.356	81.88
282.588	74.88
282.819	91.88
283.051	73.88
283.282	85.88
283.513	87.88
283.745	95.88
283.976	98.88
284.207	82.88
284.439	87.88
284.67	85.88
284.901	79.88
285.132	82.88
285.364	86.88
285.595	84.88
285.826	70.88
286.057	89.88
286.288	73.88
286.52	77.88
286.751	82.88
286.982	63.88
287.213	84.88
287.444	83.88
287.675	85.88
287.906	94.88
288.138	99.88
288.369	77.88
288.6	79.88
288.831	80.88
289.062	90.88
289.293	89.88
289.524	86.88
289.755	87.88
289.986	87.88
290.217	87.88
290.448	82.88
290.679	96.88
290.91	89.88
291.141	88.88
291.371	74.88
291.602	81.88
291.833	84.88
292.064	76.88
292.295	76.88
292.526	90.88
292.757	82.88
292.987	90.88
293.218	86.88
293.449	90.88
293.68	98.88
293.91	82.88
294.141	84.88
294.372	84.88
294.603	80.88
294.833	90.88
295.064	89.88
295.295	85.88
295.525	72.88
295.756	81.88
295.987	76.88
296.217	80.88
296.448	93.88
296.679	75.88
296.909	92.88
297.14	84.88
297.37	82.88
297.601	78.88
297.831	90.88
298.062	81.88
298.292	73.88
298.523	81.88
298.753	104.88
298.984	97.88
299.214	81.88
299.445	86.88
299.675	104.88
299.905	93.88
300.136	79.88
300.366	88.88
300.597	77.88
300.827	84.88
301.057	85.88
301.288	85.88
301.518	85.88
301.748	90.88
301.979	83.88
302.209	85.88
302.439	85.88
302.669	84.88
302.9	81.88
303.13	88.88
303.36	76.88
303.59	99.88
303.82	90.88
304.051	64.88
304.281	89.88
304.511	85.88
304.741	90.88
304.971	89.88
305.201	96.88
305.431	68.88
305.661	88.88
305.891	83.88
306.121	82.88
306.352	91.88
306.582	68.88
306.812	102.88
307.042	65.88
307.272	88.88
307.502	83.88
307.731	88.88
307.961	68.88
308.191	79.88
308.421	83.88
308.651	81.88
308.881	85.88
309.111	89.88
309.341	78.88
309.571	79.88
309.8	80.88
310.03	89.88
310.26	88.88
310.49	80.88
310.72	91.88
310.949	86.88
311.179	76.88
311.409	97.88
311.639	86.88
311.868	79.88
312.098	83.88
312.328	99.88
312.557	97.88
312.787	75.88
313.017	80.88
313.246	82.88
313.476	77.88
313.706	78.88
313.935	88.88
314.165	80.88
314.394	76.88
314.624	90.88
314.853	91.88
315.083	95.88
315.312	90.88
315.542	98.88
315.771	76.88
316.001	96.88
316.23	84.88
316.46	87.88
316.689	82.88
316.919	94.88
317.148	82.88
317.377	79.88
317.607	74.88
317.836	100.88
318.065	91.88
318.295	86.88
318.524	90.88
318.753	88.88
318.983	102.88
319.212	92.88
319.441	77.88
319.67	77.88
319.9	80.88
320.129	84.88
320.358	81.88
320.587	76.88
320.816	88.88
321.046	82.88
321.275	83.88
321.504	83.88
321.733	73.88
321.962	82.88
322.191	94.88
322.42	71.88
322.649	79.88
322.878	84.88
323.108	85.88
323.337	95.88
323.566	89.88
323.795	79.88
324.024	86.88
324.253	73.88
324.482	73.88
324.71	89.88
324.939	76.88
325.168	78.88
325.397	82.88
325.626	79.88
325.855	78.88
326.084	70.88
326.313	82.88
326.542	78.88
326.77	83.88
326.999	84.88
327.228	72.88
327.457	82.88
327.686	99.88
327.914	76.88
328.143	79.88
328.372	83.88
328.6	73.88
328.829	93.88
329.058	75.88
329.287	65.88
329.515	89.88
329.744	76.88
329.972	75.88
330.201	76.88
330.43	89.88
330.658	92.88
330.887	97.88
331.115	80.88
331.344	91.88
331.572	84.88
331.801	82.88
332.03	82.88
332.258	101.88
332.486	91.88
332.715	89.88
332.943	79.88
333.172	79.88
333.4	82.88
333.629	82.88
333.857	82.88
334.085	78.88
334.314	81.88
334.542	88.88
334.771	69.88
334.999	78.88
335.227	81.88
335.455	79.88
335.684	97.88
335.912	82.88
336.14	85.88
336.369	93.88
336.597	76.88
336.825	97.88
337.053	84.88
337.281	96.88
337.51	94.88
337.738	82.88
337.966	97.88
338.194	77.88
338.422	89.88
338.65	83.88
338.878	89.88
339.106	81.88
339.334	85.88
339.562	85.88
339.79	91.88
340.018	82.88
340.246	70.88
340.474	79.88
340.702	100.88
340.93	99.88
341.158	95.88
341.386	82.88
341.614	75.88
341.842	82.88
342.07	82.88
342.298	81.88
342.526	101.88
342.754	82.88
342.981	92.88
343.209	89.88
343.437	87.88
343.665	87.88
343.893	90.88
344.12	83.88
344.348	74.88
344.576	75.88
344.804	83.88
345.031	92.88
345.259	84.88
345.487	88.88
345.714	86.88
345.942	90.88
346.17	81.88
346.397	92.88
346.625	86.88
346.853	71.88
347.08	86.88
347.308	86.88
347.535	79.88
347.763	86.88
347.99	78.88
348.218	66.88
348.445	77.88
348.673	81.88
348.9	74.88
349.128	100.88
349.355	69.88
349.583	87.88
349.81	77.88
350.037	78.88
350.265	83.88
350.492	80.88
350.72	76.88
350.947	80.88
351.174	77.88
351.402	85.88
351.629	82.88
351.856	88.88
352.083	90.88
352.311	90.88
352.538	87.88
352.765	93.88
352.992	83.88
353.22	80.88
353.447	71.88
353.674	87.88
353.901	86.88
354.128	91.88
354.355	77.88
354.583	74.88
354.81	80.88
355.037	90.88
355.264	88.88
355.491	82.88
355.718	85.88
355.945	86.88
356.172	80.88
356.399	68.88
356.626	80.88
356.853	91.88
357.08	71.88
357.307	82.88
357.534	83.88
357.761	85.88
357.988	88.88
358.215	82.88
358.441	83.88
358.668	81.88
358.895	75.88
359.122	77.88
359.349	73.88
359.576	97.88
359.802	78.88
360.029	87.88
360.256	92.88
360.483	73.88
360.709	78.88
360.936	72.88
361.163	82.88
361.39	82.88
361.616	90.88
361.843	89.88
362.07	78.88
362.296	77.88
362.523	90.88
362.749	83.88
362.976	85.88
363.203	96.88
363.429	69.88
363.656	80.88
363.882	81.88
364.109	85.88
364.335	70.88
364.562	89.88
364.788	75.88
365.015	75.88
365.241	80.88
365.468	100.88
365.694	98.88
365.92	90.88
366.147	73.88
366.373	79.88
366.599	74.88
366.826	80.88
367.052	70.88
367.278	70.88
367.505	91.88
367.731	80.88
367.957	82.88
368.184	88.88
368.41	75.88
368.636	89.88
368.862	90.88
369.089	83.88
369.315	97.88
369.541	90.88
369.767	71.88
369.993	78.88
370.219	82.88
370.445	85.88
370.672	86.88
370.898	77.88
371.124	82.88
371.35	91.88
371.576	99.88
371.802	82.88
372.028	82.88
372.254	72.88
372.48	106.88
372.706	88.88
372.932	83.88
373.158	90.88
373.384	82.88
373.61	97.88
373.835	76.88
374.061	82.88
374.287	62.88
374.513	80.88
374.739	77.88
374.965	80.88
375.191	81.88
375.416	83.88
375.642	90.88
375.868	97.88
376.094	67.88
376.319	76.88
376.545	74.88
376.771	94.88
376.997	90.88
377.222	75.88
377.448	87.88
377.674	80.88
377.899	92.88
378.125	78.88
378.35	88.88
378.576	79.88
378.802	91.88
379.027	79.88
379.253	87.88
379.478	92.88
379.704	83.88
379.929	83.88
380.155	86.88
380.38	88.88
380.606	74.88
380.831	85.88
381.057	78.88
381.282	87.88
381.507	87.88
381.733	90.88
381.958	90.88
382.184	82.88
382.409	75.88
382.634	81.88
382.86	93.88
383.085	85.88
383.31	93.88
383.535	88.88
383.761	83.88
383.986	94.88
384.211	89.88
384.436	85.88
384.662	77.88
384.887	78.88
385.112	83.88
385.337	83.88
385.562	92.88
385.787	79.88
386.013	90.88
386.238	84.88
386.463	87.88
386.688	102.88
386.913	88.88
387.138	81.88
387.363	82.88
387.588	85.88
387.813	83.88
388.038	88.88
388.263	95.88
388.488	96.88
388.713	82.88
388.938	83.88
389.163	81.88
389.387	85.88
389.612	83.88
389.837	82.88
390.062	81.88
390.287	89.88
390.512	85.88
390.736	83.88
390.961	84.88
391.186	80.88
391.411	80.88
391.636	60.88
391.86	90.88
392.085	95.88
392.31	82.88
392.534	80.88
392.759	76.88
392.984	94.88
393.208	87.88
393.433	73.88
393.658	88.88
393.882	89.88
394.107	85.88
394.331	87.88
394.556	87.88
394.78	95.88
395.005	86.88
395.229	94.88
395.454	87.88
395.678	81.88
395.903	80.88
396.127	89.88
396.352	98.88
396.576	97.88
396.801	81.88
397.025	94.88
397.249	88.88
397.474	76.88
397.698	96.88
397.922	84.88
398.147	79.88
398.371	76.88
398.595	97.88
398.82	83.88
399.044	81.88
399.268	80.88
399.492	86.88
399.717	97.88
399.941	92.88
400.165	83.88
400.389	98.88
400.613	84.88
400.837	91.88
401.062	90.88
401.286	87.88
401.51	78.88
401.734	90.88
401.958	92.88
402.182	81.88
402.406	89.88
402.63	86.88
402.854	75.88
403.078	82.88
403.302	77.88
403.526	83.88
403.75	99.88
403.974	91.88
404.198	96.88
404.422	91.88
404.645	79.88
404.869	88.88
405.093	82.88
405.317	86.88
405.541	95.88
405.765	82.88
405.988	86.88
406.212	85.88
406.436	84.88
406.66	89.88
406.883	94.88
407.107	83.88
407.331	80.88
407.555	82.88
407.778	83.88
408.002	79.88
408.226	83.88
408.449	88.88
408.673	89.88
408.896	95.88
409.12	96.88
409.344	66.88
409.567	95.88
409.791	87.88
410.014	87.88
410.238	83.88
410.461	95.88
410.685	92.88
410.908	85.88
411.132	92.88
411.355	90.88
411.578	93.88
411.802	86.88
412.025	94.88
412.249	84.88
412.472	93.88
412.695	90.88
412.919	74.88
413.142	80.88
413.365	88.88
413.589	89.88
413.812	89.88
414.035	79.88
414.258	98.88
414.482	101.88
414.705	97.88
414.928	87.88
415.151	83.88
415.374	85.88
415.597	88.88
415.821	81.88
416.044	87.88
416.267	102.88
416.49	89.88
416.713	97.88
416.936	95.88
417.159	84.88
417.382	88.88
417.605	90.88
417.828	83.88
418.051	83.88
418.274	96.88
418.497	77.88
418.72	84.88
418.943	96.88
419.166	94.88
419.389	94.88
419.611	98.88
419.834	89.88
420.057	94.88
420.28	86.88
420.503	99.88
420.726	100.88
420.948	95.88
421.171	104.88
421.394	87.88
421.617	96.88
421.839	104.88
422.062	114.88
422.285	94.88
422.507	93.88
422.73	86.88
422.953	81.88
423.175	102.88
423.398	87.88
423.621	99.88
423.843	95.88
424.066	85.88
424.288	98.88
424.511	94.88
424.733	96.88
424.956	90.88
425.178	91.88
425.401	106.88
425.623	98.88
425.846	83.88
426.068	92.88
426.291	86.88
426.513	92.88
426.735	94.88
426.958	82.88
427.18	97.88
427.402	90.88
427.625	102.88
427.847	96.88
428.069	83.88
428.292	85.88
428.514	102.88
428.736	89.88
428.958	92.88
429.181	88.88
429.403	100.88
429.625	98.88
429.847	86.88
430.069	93.88
430.292	87.88
430.514	94.88
430.736	97.88
430.958	94.88
431.18	95.88
431.402	89.88
431.624	95.88
431.846	85.88
432.068	81.88
432.29	89.88
432.512	87.88
432.734	96.88
432.956	91.88
433.178	94.88
433.4	93.88
433.622	97.88
433.844	105.88
434.066	105.88
434.287	96.88
434.509	83.88
434.731	88.88
434.953	82.88
435.175	93.88
435.397	93.88
435.618	80.88
435.84	79.88
436.062	88.88
436.284	108.88
436.505	98.88
436.727	87.88
436.949	94.88
437.17	95.88
437.392	97.88
437.614	83.88
437.835	90.88
438.057	76.88
438.278	90.88
438.5	99.88
438.721	87.88
438.943	107.88
439.165	99.88
439.386	95.88
439.608	94.88
439.829	92.88
440.05	98.88
440.272	90.88
440.493	97.88
440.715	107.88
440.936	99.88
441.158	98.88
441.379	82.88
441.6	93.88
441.822	82.88
442.043	99.88
442.264	86.88
442.486	99.88
442.707	88.88
442.928	105.88
443.149	89.88
443.371	111.88
443.592	92.88
443.813	94.88
444.034	98.88
444.255	101.88
444.476	104.88
444.698	101.88
444.919	105.88
445.14	218.88
445.361	156.88
445.582	97.88
445.803	107.88
446.024	118.88
446.245	108.88
446.466	94.88
446.687	76.88
446.908	106.88
447.129	87.88
447.35	92.88
447.571	92.88
447.792	98.88
448.013	86.88
448.234	92.88
448.455	97.88
448.675	91.88
448.896	97.88
449.117	96.88
449.338	97.88
449.559	93.88
449.779	102.88
450	87.88
450.221	98.88
450.442	92.88
450.662	99.88
450.883	95.88
451.104	97.88
451.324	98.88
451.545	90.88
451.766	91.88
451.986	95.88
452.207	104.88
452.428	83.88
452.648	90.88
452.869	97.88
453.089	83.88
453.31	67.88
453.53	82.88
453.751	103.88
453.971	82.88
454.192	89.88
454.412	86.88
454.633	98.88
454.853	91.88
455.073	95.88
455.294	82.88
455.514	94.88
455.734	88.88
455.955	98.88
456.175	89.88
456.395	80.88
456.616	89.88
456.836	89.88
457.056	83.88
457.276	86.88
457.497	82.88
457.717	88.88
457.937	79.88
458.157	89.88
458.377	94.88
458.598	92.88
458.818	78.88
459.038	77.88
459.258	77.88
459.478	75.88
459.698	76.88
459.918	83.88
460.138	98.88
460.358	74.88
460.578	107.88
460.798	79.88
461.018	103.88
461.238	99.88
461.458	91.88
461.678	94.88
461.898	88.88
462.118	80.88
462.338	84.88
462.558	93.88
462.777	86.88
462.997	90.88
463.217	91.88
463.437	96.88
463.657	88.88
463.876	85.88
464.096	94.88
464.316	76.88
464.536	90.88
464.755	89.88
464.975	84.88
465.195	81.88
465.414	75.88
465.634	82.88
465.854	94.88
466.073	84.88
466.293	92.88
466.512	89.88
466.732	92.88
466.951	95.88
467.171	100.88
467.391	85.88
467.61	101.88
467.829	103.88
468.049	95.88
468.268	95.88
468.488	87.88
468.707	99.88
468.927	106.88
469.146	83.88
469.365	96.88
469.585	89.88
469.804	89.88
470.023	72.88
470.243	102.88
470.462	95.88
470.681	88.88
470.901	94.88
471.12	91.88
471.339	92.88
471.558	71.88
471.777	81.88
471.997	97.88
472.216	91.88
472.435	96.88
472.654	80.88
472.873	93.88
473.092	92.88
473.311	88.88
473.53	101.88
473.749	91.88
473.968	99.88
474.187	92.88
474.406	108.88
474.625	98.88
474.844	92.88
475.063	89.88
475.282	105.88
475.501	95.88
475.72	96.88
475.939	91.88
476.158	101.88
476.377	105.88
476.596	84.88
476.814	74.88
477.033	75.88
477.252	97.88
477.471	103.88
477.69	95.88
477.908	105.88
478.127	91.88
478.346	92.88
478.564	100.88
478.783	90.88
479.002	88.88
479.22	95.88
479.439	98.88
479.658	74.88
479.876	92.88
480.095	86.88
480.313	89.88
480.532	91.88
480.751	89.88
480.969	73.88
481.188	73.88
481.406	88.88
481.624	87.88
481.843	83.88
482.061	102.88
482.28	94.88
482.498	95.88
482.717	88.88
482.935	91.88
483.153	75.88
483.372	91.88
483.59	97.88
483.808	100.88
484.027	93.88
484.245	106.88
484.463	101.88
484.681	92.88
484.9	90.88
485.118	97.88
485.336	90.88
485.554	91.88
485.772	70.88
485.99	83.88
486.209	89.88
486.427	83.88
486.645	79.88
486.863	99.88
487.081	99.88
487.299	87.88
487.517	101.88
487.735	105.88
487.953	100.88
488.171	106.88
488.389	112.88
488.607	110.88
488.825	104.88
489.043	98.88
489.261	97.88
489.479	108.88
489.696	91.88
489.914	99.88
490.132	89.88
490.35	90.88
490.568	99.88
490.786	97.88
491.003	120.88
491.221	118.88
491.439	103.88
491.657	118.88
491.874	115.88
492.092	118.88
492.31	118.88
492.527	120.88
492.745	114.88
492.963	123.88
493.18	112.88
493.398	105.88
493.615	123.88
493.833	92.88
494.05	111.88
494.268	104.88
494.485	113.88
494.703	104.88
494.92	110.88
495.138	105.88
495.355	96.88
495.573	106.88
495.79	97.88
496.008	115.88
496.225	112.88
496.442	91.88
496.66	91.88
496.877	99.88
497.094	105.88
497.312	98.88
497.529	97.88
497.746	101.88
497.963	110.88
498.181	104.88
498.398	96.88
498.615	78.88
498.832	98.88
499.049	84.88
499.267	102.88
499.484	84.88
499.701	100.88
499.918	106.88
500.135	104.88
500.352	94.88
500.569	110.88
500.786	100.88
501.003	110.88
501.22	82.88
501.437	107.88
501.654	102.88
501.871	98.88
502.088	94.88
502.305	95.88
502.522	83.88
502.739	94.88
502.956	96.88
503.172	96.88
503.389	98.88
503.606	80.88
503.823	93.88
504.04	80.88
504.256	92.88
504.473	100.88
504.69	83.88
504.907	105.88
505.123	98.88
505.34	94.88
505.557	84.88
505.773	76.88
505.99	100.88
506.207	105.88
506.423	94.88
506.64	99.88
506.856	92.88
507.073	100.88
507.289	96.88
507.506	90.88
507.722	100.88
507.939	82.88
508.155	97.88
508.372	90.88
508.588	99.88
508.805	94.88
509.021	83.88
509.238	100.88
509.454	99.88
509.67	85.88
509.887	90.88
510.103	98.88
510.319	76.88
510.536	87.88
510.752	81.88
510.968	74.88
511.184	80.88
511.401	95.88
511.617	91.88
511.833	80.88
512.049	90.88
512.265	99.88
512.481	87.88
512.698	87.88
512.914	76.88
513.13	82.88
513.346	84.88
513.562	89.88
513.778	84.88
513.994	83.88
514.21	88.88
514.426	89.88
514.642	95.88
514.858	82.88
515.074	74.88
515.29	88.88
515.506	86.88
515.721	74.88
515.937	82.88
516.153	77.88
516.369	88.88
516.585	95.88
516.801	76.88
517.016	69.88
517.232	78.88
517.448	84.88
517.664	99.88
517.879	91.88
518.095	86.88
518.311	71.88
518.527	82.88
518.742	80.88
518.958	94.88
519.173	83.88
519.389	95.88
519.605	92.88
519.82	86.88
520.036	88.88
520.251	88.88
520.467	92.88
520.682	103.88
520.898	78.88
521.113	95.88
521.329	75.88
521.544	90.88
521.76	91.88
521.975	85.88
522.19	87.88
522.406	82.88
522.621	95.88
522.836	77.88
523.052	77.88
523.267	97.88
523.482	89.88
523.698	87.88
523.913	97.88
524.128	94.88
524.343	89.88
524.559	103.88
524.774	92.88
524.989	91.88
525.204	97.88
525.419	97.88
525.634	91.88
525.849	102.88
526.064	80.88
526.28	84.88
526.495	73.88
526.71	88.88
526.925	87.88
527.14	85.88
527.355	96.88
527.57	83.88
527.785	69.88
527.999	80.88
528.214	82.88
528.429	81.88
528.644	96.88
528.859	100.88
529.074	107.88
529.289	106.88
529.503	98.88
529.718	93.88
529.933	96.88
530.148	86.88
530.363	80.88
530.577	84.88
530.792	74.88
531.007	79.88
531.221	80.88
531.436	89.88
531.651	88.88
531.865	71.88
532.08	99.88
532.295	87.88
532.509	76.88
532.724	77.88
532.938	86.88
533.153	97.88
533.367	80.88
533.582	96.88
533.796	84.88
534.011	96.88
534.225	75.88
534.44	76.88
534.654	84.88
534.868	91.88
535.083	97.88
535.297	88.88
535.511	92.88
535.726	95.88
535.94	90.88
536.154	92.88
536.369	81.88
536.583	80.88
536.797	84.88
537.011	92.88
537.225	92.88
537.44	82.88
537.654	89.88
537.868	79.88
538.082	95.88
538.296	84.88
538.51	87.88
538.724	102.88
538.938	92.88
539.153	95.88
539.367	88.88
539.581	100.88
539.795	87.88
540.009	94.88
540.222	96.88
540.436	73.88
540.65	94.88
540.864	85.88
541.078	99.88
541.292	105.88
541.506	112.88
541.72	99.88
541.934	132.88
542.147	126.88
542.361	115.88
542.575	106.88
542.789	100.88
543.002	93.88
543.216	98.88
543.43	96.88
543.644	98.88
543.857	126.88
544.071	108.88
544.285	108.88
544.498	104.88
544.712	105.88
544.925	99.88
545.139	119.88
545.352	91.88
545.566	92.88
545.779	100.88
545.993	104.88
546.206	103.88
546.42	107.88
546.633	93.88
546.847	107.88
547.06	112.88
547.274	101.88
547.487	112.88
547.7	112.88
547.914	107.88
548.127	92.88
548.34	108.88
548.554	106.88
548.767	112.88
548.98	101.88
549.193	115.88
549.407	100.88
549.62	101.88
549.833	110.88
550.046	114.88
550.259	112.88
550.473	116.88
550.686	107.88
550.899	110.88
551.112	107.88
551.325	90.88
551.538	104.88
551.751	91.88
551.964	99.88
552.177	95.88
552.39	105.88
552.603	105.88
552.816	104.88
553.029	111.88
553.242	101.88
553.455	95.88
553.667	111.88
553.88	104.88
554.093	103.88
554.306	105.88
554.519	106.88
554.732	119.88
554.944	100.88
555.157	101.88
555.37	92.88
555.583	95.88
555.795	103.88
556.008	113.88
556.221	80.88
556.433	106.88
556.646	103.88
556.859	99.88
557.071	106.88
557.284	113.88
557.496	95.88
557.709	83.88
557.921	87.88
558.134	101.88
558.346	110.88
558.559	102.88
558.771	106.88
558.984	92.88
559.196	111.88
559.409	103.88
559.621	104.88
559.833	99.88
560.046	96.88
560.258	95.88
560.47	98.88
560.683	111.88
560.895	110.88
561.107	99.88
561.32	105.88
561.532	112.88
561.744	98.88
561.956	103.88
562.168	101.88
562.381	88.88
562.593	105.88
562.805	101.88
563.017	88.88
563.229	97.88
563.441	99.88
563.653	88.88
563.865	104.88
564.077	106.88
564.289	88.88
564.501	113.88
564.713	84.88
564.925	91.88
565.137	100.88
565.349	99.88
565.561	97.88
565.773	90.88
565.985	75.88
566.197	71.88
566.408	95.88
566.62	80.88
566.832	91.88
567.044	86.88
567.255	87.88
567.467	86.88
567.679	90.88
567.891	102.88
568.102	85.88
568.314	86.88
568.526	86.88
568.737	100.88
568.949	75.88
569.161	94.88
569.372	79.88
569.584	95.88
569.795	87.88
570.007	84.88
570.218	90.88
570.43	83.88
570.641	86.88
570.853	89.88
571.064	98.88
571.276	84.88
571.487	89.88
571.698	84.88
571.91	84.88
572.121	81.88
572.333	97.88
572.544	80.88
572.755	100.88
572.966	75.88
573.178	83.88
573.389	85.88
573.6	92.88
573.811	79.88
574.023	69.88
574.234	84.88
574.445	82.88
574.656	73.88
574.867	94.88
575.078	78.88
575.289	97.88
575.501	96.88
575.712	95.88
575.923	80.88
576.134	87.88
576.345	85.88
576.556	101.88
576.767	79.88
576.978	91.88
577.188	88.88
577.399	99.88
577.61	90.88
577.821	76.88
578.032	79.88
578.243	93.88
578.454	91.88
578.665	87.88
578.875	71.88
579.086	95.88
579.297	87.88
579.508	82.88
579.718	79.88
579.929	86.88
580.14	107.88
580.35	80.88
580.561	100.88
580.772	95.88
580.982	81.88
581.193	88.88
581.403	86.88
581.614	96.88
581.825	86.88
582.035	85.88
582.246	98.88
582.456	78.88
582.667	89.88
582.877	80.88
583.087	96.88
583.298	83.88
583.508	81.88
583.719	82.88
583.929	75.88
584.139	82.88
584.35	75.88
584.56	90.88
584.77	80.88
584.981	90.88
585.191	94.88
585.401	82.88
585.611	83.88
585.821	85.88
586.032	87.88
586.242	75.88
586.452	86.88
586.662	88.88
586.872	91.88
587.082	78.88
587.292	75.88
587.502	89.88
587.713	95.88
587.923	76.88
588.133	87.88
588.343	81.88
588.553	89.88
588.762	99.88
588.972	90.88
589.182	79.88
589.392	94.88
589.602	90.88
589.812	94.88
590.022	95.88
590.232	90.88
590.441	88.88
590.651	72.88
590.861	106.88
591.071	83.88
591.281	85.88
591.49	86.88
591.7	95.88
591.91	94.88
592.119	91.88
592.329	78.88
592.539	78.88
592.748	93.88
592.958	74.88
593.167	86.88
593.377	99.88
593.587	93.88
593.796	80.88
594.006	71.88
594.215	86.88
594.424	87.88
594.634	98.88
594.843	83.88
595.053	93.88
595.262	78.88
595.472	83.88
595.681	73.88
595.89	88.88
596.1	90.88
596.309	78.88
596.518	86.88
596.727	96.88
596.937	87.88
597.146	82.88
597.355	99.88
597.564	81.88
597.774	82.88
597.983	83.88
598.192	83.88
598.401	86.88
598.61	88.88
598.819	86.88
599.028	86.88
599.237	87.88
599.446	85.88
599.655	99.88
599.864	87.88
600.073	77.88
600.282	77.88
600.491	87.88
600.7	95.88
600.909	77.88
601.118	94.88
601.327	78.88
601.536	96.88
601.745	107.88
601.953	94.88
602.162	92.88
602.371	95.88
602.58	102.88
602.789	94.88
602.997	87.88
603.206	103.88
603.415	89.88
603.623	86.88
603.832	83.88
604.041	95.88
604.249	72.88
604.458	94.88
604.666	83.88
604.875	85.88
605.084	86.88
605.292	80.88
605.501	81.88
605.709	91.88
605.918	85.88
606.126	107.88
606.334	87.88
606.543	96.88
606.751	96.88
606.96	95.88
607.168	93.88
607.376	100.88
607.585	83.88
607.793	106.88
608.001	89.88
608.21	94.88
608.418	92.88
608.626	110.88
608.834	92.88
609.043	89.88
609.251	81.88
609.459	99.88
609.667	93.88
609.875	95.88
610.083	87.88
610.291	92.88
610.499	90.88
610.707	88.88
610.916	106.88
611.124	101.88
611.332	118.88
611.54	108.88
611.748	90.88
611.955	76.88
612.163	104.88
612.371	92.88
612.579	91.88
612.787	97.88
612.995	78.88
613.203	90.88
613.411	87.88
613.618	89.88
613.826	103.88
614.034	90.88
614.242	83.88
614.449	87.88
614.657	101.88
614.865	103.88
615.072	87.88
615.28	92.88
615.488	94.88
615.695	87.88
615.903	80.88
616.111	94.88
616.318	101.88
616.526	79.88
616.733	87.88
616.941	100.88
617.148	91.88
617.356	96.88
617.563	95.88
617.771	93.88
617.978	96.88
618.185	106.88
618.393	81.88
618.6	94.88
618.807	97.88
619.015	91.88
619.222	82.88
619.429	93.88
619.637	96.88
619.844	77.88
620.051	82.88
620.258	72.88
620.466	97.88
620.673	84.88
620.88	96.88
621.087	100.88
621.294	100.88
621.501	96.88
621.708	79.88
621.915	87.88
622.122	85.88
622.329	98.88
622.536	76.88
622.743	95.88
622.95	86.88
623.157	77.88
623.364	90.88
623.571	82.88
623.778	81.88
623.985	96.88
624.192	104.88
624.399	82.88
624.606	91.88
624.812	92.88
625.019	92.88
625.226	107.88
625.433	86.88
625.639	83.88
625.846	83.88
626.053	84.88
626.259	81.88
626.466	84.88
626.673	92.88
626.879	75.88
627.086	89.88
627.293	90.88
627.499	76.88
627.706	91.88
627.912	96.88
628.119	86.88
628.325	89.88
628.532	103.88
628.738	91.88
628.945	91.88
629.151	93.88
629.357	80.88
629.564	89.88
629.77	89.88
629.976	89.88
630.183	74.88
630.389	84.88
630.595	91.88
630.802	76.88
631.008	79.88
631.214	109.88
631.42	101.88
631.627	95.88
631.833	70.88
632.039	94.88
632.245	89.88
632.451	94.88
632.657	92.88
632.863	87.88
633.069	98.88
633.275	88.88
633.481	80.88
633.688	80.88
633.893	79.88
634.099	80.88
634.305	97.88
634.511	77.88
634.717	84.88
634.923	87.88
635.129	82.88
635.335	86.88
635.541	89.88
635.747	83.88
635.952	80.88
636.158	94.88
636.364	74.88
636.57	87.88
636.775	90.88
636.981	89.88
637.187	80.88
637.392	74.88
637.598	100.88
637.804	104.88
638.009	94.88
638.215	80.88
638.421	81.88
638.626	98.88
638.832	97.88
639.037	104.88
639.243	76.88
639.448	72.88
639.654	93.88
639.859	91.88
640.065	92.88
640.27	91.88
640.475	87.88
640.681	87.88
640.886	73.88
641.091	75.88
641.297	96.88
641.502	89.88
641.707	82.88
641.913	89.88
642.118	84.88
642.323	81.88
642.528	84.88
642.733	80.88
642.939	87.88
643.144	81.88
643.349	98.88
643.554	86.88
643.759	81.88
643.964	83.88
644.169	91.88
644.374	92.88
644.579	82.88
644.784	87.88
644.989	89.88
645.194	84.88
645.399	98.88
645.604	105.88
645.809	83.88
646.014	98.88
646.219	76.88
646.423	94.88
646.628	88.88
646.833	78.88
647.038	75.88
647.243	77.88
647.447	86.88
647.652	84.88
647.857	96.88
648.062	86.88
648.266	79.88
648.471	73.88
648.676	76.88
648.88	83.88
649.085	95.88
649.289	86.88
649.494	89.88
649.698	76.88
649.903	85.88
650.107	79.88
650.312	86.88
650.516	80.88
650.721	93.88
650.925	86.88
651.13	80.88
651.334	84.88
651.539	83.88
651.743	91.88
651.947	91.88
652.152	92.88
652.356	79.88
652.56	91.88
652.764	86.88
652.969	75.88
653.173	82.88
653.377	82.88
653.581	90.88
653.785	88.88
653.99	82.88
654.194	80.88
654.398	94.88
654.602	79.88
654.806	62.88
655.01	75.88
655.214	87.88
655.418	82.88
655.622	75.88
655.826	82.88
656.03	77.88
656.234	88.88
656.438	89.88
656.642	101.88
656.846	82.88
657.049	88.88
657.253	87.88
657.457	107.88
657.661	83.88
657.865	86.88
658.068	71.88
658.272	81.88
658.476	84.88
658.68	78.88
658.883	86.88
659.087	76.88
659.291	75.88
659.494	86.88
659.698	79.88
659.901	87.88
660.105	88.88
660.309	75.88
660.512	75.88
660.716	83.88
660.919	80.88
661.123	102.88
661.326	75.88
661.53	74.88
661.733	64.88
661.936	86.88
662.14	69.88
662.343	86.88
662.546	83.88
662.75	97.88
662.953	77.88
663.156	75.88
663.36	78.88
663.563	80.88
663.766	80.88
663.969	98.88
664.173	78.88
664.376	85.88
664.579	87.88
664.782	93.88
664.985	77.88
665.188	77.88
665.391	83.88
665.594	89.88
665.797	83.88
666	71.88
666.203	84.88
666.406	84.88
666.609	79.88
666.812	82.88
667.015	76.88
667.218	87.88
667.421	91.88
667.624	84.88
667.827	86.88
668.03	72.88
668.232	81.88
668.435	78.88
668.638	83.88
668.841	78.88
669.043	84.88
669.246	86.88
669.449	74.88
669.651	73.88
669.854	84.88
670.057	83.88
670.259	81.88
670.462	91.88
670.665	86.88
670.867	74.88
671.07	92.88
671.272	94.88
671.475	80.88
671.677	81.88
671.88	80.88
672.082	68.88
672.284	64.88
672.487	76.88
672.689	73.88
672.892	88.88
