Data from Location4.07152019.Energy5.Lamp.07192019.3%Agarose_HRD10591_15-25-18-577.txt Node
Date: Fri Jul 19 15:25:18 EDT 2019
User: cochatt
Spectrometer: HR+D1059
Trigger mode: 1
Integration Time (sec): 1.000000E-1
Scans to average: 1
Electric dark correction enabled: true
Nonlinearity correction enabled: false
Boxcar width: 0
XAxis mode: Wavelengths
Number of Pixels in Spectrum: 2048
>>>>>Begin Spectral Data<<<<<
223.165	-14.31
223.4	-14.31
223.635	-14.31
223.869	-23.31
224.104	-8.31
224.338	-17.31
224.573	2.69
224.808	-3.31
225.042	-21.31
225.277	-13.31
225.511	-9.31
225.746	-15.31
225.98	0.69
226.215	19.69
226.449	14.69
226.683	18.69
226.918	28.69
227.152	40.69
227.387	40.69
227.621	50.69
227.856	41.69
228.09	51.69
228.324	43.69
228.559	65.69
228.793	62.69
229.027	66.69
229.262	74.69
229.496	73.69
229.73	63.69
229.964	79.69
230.199	62.69
230.433	86.69
230.667	84.69
230.901	80.69
231.136	87.69
231.37	81.69
231.604	79.69
231.838	81.69
232.072	81.69
232.306	86.69
232.541	83.69
232.775	83.69
233.009	88.69
233.243	86.69
233.477	90.69
233.711	79.69
233.945	85.69
234.179	86.69
234.413	79.69
234.647	83.69
234.881	85.69
235.115	88.69
235.349	83.69
235.583	67.69
235.817	84.69
236.051	72.69
236.285	89.69
236.519	68.69
236.753	71.69
236.987	77.69
237.221	76.69
237.455	82.69
237.689	79.69
237.922	75.69
238.156	81.69
238.39	78.69
238.624	82.69
238.858	76.69
239.091	75.69
239.325	85.69
239.559	84.69
239.793	81.69
240.027	84.69
240.26	90.69
240.494	69.69
240.728	86.69
240.961	88.69
241.195	75.69
241.429	85.69
241.662	89.69
241.896	78.69
242.13	84.69
242.363	72.69
242.597	63.69
242.83	66.69
243.064	89.69
243.298	77.69
243.531	70.69
243.765	85.69
243.998	65.69
244.232	62.69
244.465	80.69
244.699	70.69
244.932	85.69
245.166	88.69
245.399	86.69
245.633	85.69
245.866	67.69
246.099	71.69
246.333	84.69
246.566	76.69
246.8	79.69
247.033	78.69
247.266	75.69
247.5	82.69
247.733	85.69
247.966	68.69
248.2	78.69
248.433	79.69
248.666	89.69
248.899	77.69
249.133	84.69
249.366	96.69
249.599	62.69
249.832	84.69
250.066	81.69
250.299	84.69
250.532	78.69
250.765	80.69
250.998	76.69
251.231	81.69
251.465	76.69
251.698	78.69
251.931	96.69
252.164	82.69
252.397	84.69
252.63	76.69
252.863	73.69
253.096	82.69
253.329	76.69
253.562	92.69
253.795	81.69
254.028	80.69
254.261	81.69
254.494	76.69
254.727	84.69
254.96	87.69
255.193	77.69
255.426	79.69
255.659	74.69
255.892	86.69
256.124	76.69
256.357	82.69
256.59	88.69
256.823	85.69
257.056	84.69
257.289	71.69
257.521	74.69
257.754	89.69
257.987	89.69
258.22	94.69
258.452	71.69
258.685	77.69
258.918	83.69
259.151	90.69
259.383	86.69
259.616	86.69
259.849	71.69
260.081	78.69
260.314	87.69
260.547	92.69
260.779	72.69
261.012	93.69
261.244	79.69
261.477	82.69
261.71	81.69
261.942	75.69
262.175	88.69
262.407	81.69
262.64	92.69
262.872	89.69
263.105	73.69
263.337	74.69
263.57	78.69
263.802	100.69
264.035	82.69
264.267	83.69
264.499	74.69
264.732	90.69
264.964	85.69
265.197	76.69
265.429	76.69
265.661	78.69
265.894	89.69
266.126	89.69
266.358	85.69
266.591	84.69
266.823	77.69
267.055	88.69
267.287	81.69
267.52	89.69
267.752	78.69
267.984	92.69
268.216	86.69
268.448	87.69
268.681	77.69
268.913	87.69
269.145	68.69
269.377	90.69
269.609	80.69
269.841	93.69
270.073	86.69
270.306	81.69
270.538	79.69
270.77	61.69
271.002	83.69
271.234	68.69
271.466	86.69
271.698	107.69
271.93	84.69
272.162	76.69
272.394	97.69
272.626	84.69
272.858	83.69
273.09	91.69
273.322	89.69
273.553	71.69
273.785	78.69
274.017	81.69
274.249	78.69
274.481	90.69
274.713	83.69
274.945	84.69
275.176	88.69
275.408	96.69
275.64	77.69
275.872	88.69
276.104	84.69
276.335	64.69
276.567	89.69
276.799	85.69
277.031	92.69
277.262	77.69
277.494	82.69
277.726	82.69
277.957	92.69
278.189	91.69
278.421	87.69
278.652	92.69
278.884	86.69
279.115	87.69
279.347	90.69
279.579	77.69
279.81	90.69
280.042	74.69
280.273	86.69
280.505	82.69
280.736	94.69
280.968	74.69
281.199	94.69
281.431	91.69
281.662	79.69
281.894	91.69
282.125	78.69
282.356	78.69
282.588	88.69
282.819	90.69
283.051	82.69
283.282	72.69
283.513	82.69
283.745	86.69
283.976	84.69
284.207	84.69
284.439	77.69
284.67	101.69
284.901	87.69
285.132	90.69
285.364	76.69
285.595	96.69
285.826	84.69
286.057	86.69
286.288	82.69
286.52	97.69
286.751	93.69
286.982	83.69
287.213	75.69
287.444	86.69
287.675	83.69
287.906	88.69
288.138	84.69
288.369	85.69
288.6	77.69
288.831	99.69
289.062	96.69
289.293	85.69
289.524	97.69
289.755	76.69
289.986	81.69
290.217	88.69
290.448	70.69
290.679	87.69
290.91	80.69
291.141	83.69
291.371	92.69
291.602	71.69
291.833	94.69
292.064	82.69
292.295	77.69
292.526	82.69
292.757	84.69
292.987	84.69
293.218	69.69
293.449	81.69
293.68	91.69
293.91	87.69
294.141	88.69
294.372	84.69
294.603	70.69
294.833	87.69
295.064	86.69
295.295	89.69
295.525	98.69
295.756	88.69
295.987	94.69
296.217	96.69
296.448	100.69
296.679	73.69
296.909	86.69
297.14	86.69
297.37	92.69
297.601	80.69
297.831	98.69
298.062	83.69
298.292	93.69
298.523	87.69
298.753	81.69
298.984	90.69
299.214	88.69
299.445	85.69
299.675	94.69
299.905	67.69
300.136	76.69
300.366	87.69
300.597	83.69
300.827	84.69
301.057	85.69
301.288	77.69
301.518	92.69
301.748	89.69
301.979	92.69
302.209	93.69
302.439	66.69
302.669	80.69
302.9	98.69
303.13	89.69
303.36	97.69
303.59	92.69
303.82	80.69
304.051	72.69
304.281	91.69
304.511	87.69
304.741	90.69
304.971	110.69
305.201	89.69
305.431	83.69
305.661	84.69
305.891	85.69
306.121	91.69
306.352	87.69
306.582	103.69
306.812	77.69
307.042	94.69
307.272	79.69
307.502	86.69
307.731	91.69
307.961	80.69
308.191	78.69
308.421	93.69
308.651	88.69
308.881	80.69
309.111	88.69
309.341	100.69
309.571	94.69
309.8	78.69
310.03	82.69
310.26	76.69
310.49	77.69
310.72	90.69
310.949	83.69
311.179	78.69
311.409	83.69
311.639	95.69
311.868	94.69
312.098	84.69
312.328	85.69
312.557	86.69
312.787	93.69
313.017	104.69
313.246	88.69
313.476	90.69
313.706	83.69
313.935	98.69
314.165	75.69
314.394	91.69
314.624	84.69
314.853	86.69
315.083	85.69
315.312	97.69
315.542	83.69
315.771	93.69
316.001	93.69
316.23	91.69
316.46	93.69
316.689	73.69
316.919	87.69
317.148	81.69
317.377	87.69
317.607	85.69
317.836	108.69
318.065	86.69
318.295	92.69
318.524	92.69
318.753	81.69
318.983	81.69
319.212	70.69
319.441	86.69
319.67	75.69
319.9	75.69
320.129	82.69
320.358	72.69
320.587	69.69
320.816	94.69
321.046	87.69
321.275	92.69
321.504	85.69
321.733	83.69
321.962	90.69
322.191	94.69
322.42	80.69
322.649	80.69
322.878	89.69
323.108	94.69
323.337	79.69
323.566	75.69
323.795	85.69
324.024	99.69
324.253	88.69
324.482	91.69
324.71	87.69
324.939	93.69
325.168	91.69
325.397	85.69
325.626	89.69
325.855	85.69
326.084	97.69
326.313	99.69
326.542	89.69
326.77	84.69
326.999	98.69
327.228	94.69
327.457	80.69
327.686	93.69
327.914	89.69
328.143	85.69
328.372	87.69
328.6	94.69
328.829	91.69
329.058	69.69
329.287	79.69
329.515	81.69
329.744	98.69
329.972	81.69
330.201	76.69
330.43	94.69
330.658	91.69
330.887	91.69
331.115	92.69
331.344	86.69
331.572	86.69
331.801	87.69
332.03	90.69
332.258	78.69
332.486	75.69
332.715	85.69
332.943	85.69
333.172	91.69
333.4	83.69
333.629	80.69
333.857	77.69
334.085	95.69
334.314	93.69
334.542	88.69
334.771	88.69
334.999	76.69
335.227	81.69
335.455	85.69
335.684	88.69
335.912	79.69
336.14	102.69
336.369	95.69
336.597	89.69
336.825	92.69
337.053	105.69
337.281	89.69
337.51	77.69
337.738	78.69
337.966	87.69
338.194	83.69
338.422	87.69
338.65	92.69
338.878	96.69
339.106	68.69
339.334	79.69
339.562	64.69
339.79	78.69
340.018	71.69
340.246	80.69
340.474	88.69
340.702	84.69
340.93	76.69
341.158	84.69
341.386	90.69
341.614	68.69
341.842	99.69
342.07	82.69
342.298	91.69
342.526	81.69
342.754	88.69
342.981	92.69
343.209	100.69
343.437	83.69
343.665	89.69
343.893	83.69
344.12	80.69
344.348	89.69
344.576	99.69
344.804	84.69
345.031	92.69
345.259	85.69
345.487	107.69
345.714	93.69
345.942	86.69
346.17	80.69
346.397	85.69
346.625	84.69
346.853	99.69
347.08	101.69
347.308	89.69
347.535	83.69
347.763	87.69
347.99	91.69
348.218	86.69
348.445	82.69
348.673	69.69
348.9	81.69
349.128	87.69
349.355	84.69
349.583	88.69
349.81	90.69
350.037	73.69
350.265	85.69
350.492	92.69
350.72	83.69
350.947	82.69
351.174	89.69
351.402	74.69
351.629	101.69
351.856	88.69
352.083	84.69
352.311	87.69
352.538	82.69
352.765	87.69
352.992	88.69
353.22	84.69
353.447	89.69
353.674	90.69
353.901	81.69
354.128	91.69
354.355	85.69
354.583	88.69
354.81	81.69
355.037	74.69
355.264	87.69
355.491	78.69
355.718	82.69
355.945	78.69
356.172	91.69
356.399	77.69
356.626	81.69
356.853	79.69
357.08	84.69
357.307	88.69
357.534	99.69
357.761	72.69
357.988	88.69
358.215	83.69
358.441	85.69
358.668	86.69
358.895	86.69
359.122	73.69
359.349	86.69
359.576	81.69
359.802	82.69
360.029	83.69
360.256	86.69
360.483	84.69
360.709	112.69
360.936	90.69
361.163	99.69
361.39	91.69
361.616	88.69
361.843	108.69
362.07	82.69
362.296	93.69
362.523	84.69
362.749	101.69
362.976	90.69
363.203	106.69
363.429	79.69
363.656	91.69
363.882	85.69
364.109	87.69
364.335	81.69
364.562	91.69
364.788	83.69
365.015	91.69
365.241	90.69
365.468	84.69
365.694	93.69
365.92	82.69
366.147	89.69
366.373	92.69
366.599	79.69
366.826	81.69
367.052	85.69
367.278	89.69
367.505	69.69
367.731	87.69
367.957	93.69
368.184	79.69
368.41	89.69
368.636	81.69
368.862	86.69
369.089	87.69
369.315	76.69
369.541	90.69
369.767	74.69
369.993	89.69
370.219	78.69
370.445	87.69
370.672	92.69
370.898	87.69
371.124	88.69
371.35	77.69
371.576	98.69
371.802	95.69
372.028	85.69
372.254	84.69
372.48	86.69
372.706	89.69
372.932	86.69
373.158	82.69
373.384	82.69
373.61	84.69
373.835	86.69
374.061	94.69
374.287	85.69
374.513	88.69
374.739	97.69
374.965	79.69
375.191	94.69
375.416	93.69
375.642	93.69
375.868	85.69
376.094	74.69
376.319	93.69
376.545	89.69
376.771	86.69
376.997	82.69
377.222	89.69
377.448	93.69
377.674	94.69
377.899	89.69
378.125	84.69
378.35	90.69
378.576	84.69
378.802	86.69
379.027	81.69
379.253	84.69
379.478	82.69
379.704	95.69
379.929	90.69
380.155	76.69
380.38	86.69
380.606	97.69
380.831	96.69
381.057	89.69
381.282	83.69
381.507	85.69
381.733	78.69
381.958	78.69
382.184	88.69
382.409	80.69
382.634	93.69
382.86	106.69
383.085	90.69
383.31	79.69
383.535	88.69
383.761	94.69
383.986	81.69
384.211	81.69
384.436	82.69
384.662	85.69
384.887	86.69
385.112	97.69
385.337	83.69
385.562	99.69
385.787	92.69
386.013	99.69
386.238	77.69
386.463	81.69
386.688	89.69
386.913	88.69
387.138	90.69
387.363	86.69
387.588	101.69
387.813	82.69
388.038	89.69
388.263	85.69
388.488	84.69
388.713	77.69
388.938	92.69
389.163	88.69
389.387	86.69
389.612	104.69
389.837	95.69
390.062	96.69
390.287	89.69
390.512	77.69
390.736	86.69
390.961	96.69
391.186	91.69
391.411	93.69
391.636	84.69
391.86	99.69
392.085	80.69
392.31	109.69
392.534	96.69
392.759	86.69
392.984	83.69
393.208	85.69
393.433	82.69
393.658	100.69
393.882	81.69
394.107	90.69
394.331	91.69
394.556	88.69
394.78	80.69
395.005	81.69
395.229	96.69
395.454	91.69
395.678	84.69
395.903	98.69
396.127	94.69
396.352	105.69
396.576	101.69
396.801	78.69
397.025	91.69
397.249	89.69
397.474	81.69
397.698	90.69
397.922	98.69
398.147	88.69
398.371	107.69
398.595	99.69
398.82	83.69
399.044	91.69
399.268	85.69
399.492	93.69
399.717	92.69
399.941	87.69
400.165	96.69
400.389	88.69
400.613	99.69
400.837	92.69
401.062	82.69
401.286	93.69
401.51	92.69
401.734	91.69
401.958	84.69
402.182	83.69
402.406	88.69
402.63	92.69
402.854	93.69
403.078	83.69
403.302	80.69
403.526	108.69
403.75	92.69
403.974	100.69
404.198	91.69
404.422	82.69
404.645	97.69
404.869	85.69
405.093	105.69
405.317	93.69
405.541	90.69
405.765	77.69
405.988	97.69
406.212	93.69
406.436	82.69
406.66	84.69
406.883	101.69
407.107	99.69
407.331	92.69
407.555	89.69
407.778	91.69
408.002	95.69
408.226	89.69
408.449	94.69
408.673	92.69
408.896	82.69
409.12	91.69
409.344	96.69
409.567	96.69
409.791	96.69
410.014	105.69
410.238	86.69
410.461	95.69
410.685	105.69
410.908	92.69
411.132	84.69
411.355	88.69
411.578	99.69
411.802	83.69
412.025	80.69
412.249	73.69
412.472	70.69
412.695	85.69
412.919	89.69
413.142	94.69
413.365	100.69
413.589	86.69
413.812	101.69
414.035	97.69
414.258	99.69
414.482	96.69
414.705	102.69
414.928	94.69
415.151	93.69
415.374	102.69
415.597	98.69
415.821	93.69
416.044	92.69
416.267	86.69
416.49	96.69
416.713	89.69
416.936	83.69
417.159	88.69
417.382	94.69
417.605	95.69
417.828	89.69
418.051	98.69
418.274	97.69
418.497	105.69
418.72	96.69
418.943	107.69
419.166	103.69
419.389	97.69
419.611	88.69
419.834	102.69
420.057	100.69
420.28	99.69
420.503	102.69
420.726	105.69
420.948	97.69
421.171	117.69
421.394	95.69
421.617	92.69
421.839	99.69
422.062	98.69
422.285	85.69
422.507	106.69
422.73	104.69
422.953	91.69
423.175	91.69
423.398	100.69
423.621	100.69
423.843	95.69
424.066	89.69
424.288	115.69
424.511	88.69
424.733	99.69
424.956	90.69
425.178	100.69
425.401	91.69
425.623	76.69
425.846	105.69
426.068	101.69
426.291	88.69
426.513	94.69
426.735	96.69
426.958	97.69
427.18	86.69
427.402	89.69
427.625	99.69
427.847	85.69
428.069	103.69
428.292	97.69
428.514	96.69
428.736	99.69
428.958	96.69
429.181	86.69
429.403	87.69
429.625	99.69
429.847	88.69
430.069	87.69
430.292	87.69
430.514	88.69
430.736	91.69
430.958	88.69
431.18	98.69
431.402	94.69
431.624	91.69
431.846	86.69
432.068	94.69
432.29	84.69
432.512	90.69
432.734	78.69
432.956	96.69
433.178	100.69
433.4	85.69
433.622	93.69
433.844	103.69
434.066	82.69
434.287	88.69
434.509	90.69
434.731	86.69
434.953	92.69
435.175	92.69
435.397	96.69
435.618	90.69
435.84	98.69
436.062	93.69
436.284	107.69
436.505	92.69
436.727	90.69
436.949	95.69
437.17	93.69
437.392	101.69
437.614	98.69
437.835	83.69
438.057	90.69
438.278	87.69
438.5	100.69
438.721	95.69
438.943	115.69
439.165	103.69
439.386	90.69
439.608	110.69
439.829	106.69
440.05	105.69
440.272	110.69
440.493	96.69
440.715	113.69
440.936	100.69
441.158	93.69
441.379	104.69
441.6	82.69
441.822	106.69
442.043	85.69
442.264	105.69
442.486	99.69
442.707	98.69
442.928	94.69
443.149	99.69
443.371	104.69
443.592	101.69
443.813	89.69
444.034	102.69
444.255	100.69
444.476	89.69
444.698	106.69
444.919	81.69
445.14	233.69
445.361	157.69
445.582	108.69
445.803	108.69
446.024	100.69
446.245	106.69
446.466	98.69
446.687	98.69
446.908	96.69
447.129	104.69
447.35	102.69
447.571	97.69
447.792	105.69
448.013	83.69
448.234	88.69
448.455	94.69
448.675	101.69
448.896	98.69
449.117	108.69
449.338	97.69
449.559	95.69
449.779	100.69
450	105.69
450.221	102.69
450.442	85.69
450.662	91.69
450.883	109.69
451.104	90.69
451.324	90.69
451.545	98.69
451.766	100.69
451.986	102.69
452.207	97.69
452.428	107.69
452.648	93.69
452.869	95.69
453.089	83.69
453.31	90.69
453.53	86.69
453.751	88.69
453.971	98.69
454.192	79.69
454.412	85.69
454.633	89.69
454.853	89.69
455.073	87.69
455.294	101.69
455.514	98.69
455.734	104.69
455.955	75.69
456.175	91.69
456.395	84.69
456.616	94.69
456.836	86.69
457.056	96.69
457.276	79.69
457.497	101.69
457.717	86.69
457.937	101.69
458.157	99.69
458.377	94.69
458.598	95.69
458.818	81.69
459.038	78.69
459.258	74.69
459.478	94.69
459.698	81.69
459.918	72.69
460.138	84.69
460.358	96.69
460.578	98.69
460.798	97.69
461.018	86.69
461.238	89.69
461.458	103.69
461.678	82.69
461.898	82.69
462.118	105.69
462.338	104.69
462.558	83.69
462.777	90.69
462.997	78.69
463.217	94.69
463.437	87.69
463.657	85.69
463.876	90.69
464.096	98.69
464.316	87.69
464.536	90.69
464.755	98.69
464.975	92.69
465.195	89.69
465.414	78.69
465.634	73.69
465.854	85.69
466.073	86.69
466.293	102.69
466.512	104.69
466.732	82.69
466.951	100.69
467.171	120.69
467.391	98.69
467.61	100.69
467.829	104.69
468.049	102.69
468.268	94.69
468.488	108.69
468.707	94.69
468.927	97.69
469.146	108.69
469.365	89.69
469.585	93.69
469.804	105.69
470.023	100.69
470.243	97.69
470.462	108.69
470.681	98.69
470.901	104.69
471.12	95.69
471.339	98.69
471.558	114.69
471.777	98.69
471.997	94.69
472.216	112.69
472.435	97.69
472.654	86.69
472.873	100.69
473.092	97.69
473.311	75.69
473.53	106.69
473.749	100.69
473.968	98.69
474.187	91.69
474.406	99.69
474.625	83.69
474.844	105.69
475.063	95.69
475.282	83.69
475.501	91.69
475.72	96.69
475.939	80.69
476.158	99.69
476.377	86.69
476.596	105.69
476.814	94.69
477.033	103.69
477.252	89.69
477.471	83.69
477.69	92.69
477.908	92.69
478.127	100.69
478.346	90.69
478.564	98.69
478.783	93.69
479.002	108.69
479.22	87.69
479.439	89.69
479.658	96.69
479.876	101.69
480.095	91.69
480.313	86.69
480.532	84.69
480.751	102.69
480.969	90.69
481.188	69.69
481.406	71.69
481.624	89.69
481.843	99.69
482.061	78.69
482.28	109.69
482.498	89.69
482.717	98.69
482.935	85.69
483.153	103.69
483.372	95.69
483.59	104.69
483.808	100.69
484.027	85.69
484.245	85.69
484.463	96.69
484.681	107.69
484.9	103.69
485.118	100.69
485.336	106.69
485.554	81.69
485.772	97.69
485.99	81.69
486.209	88.69
486.427	105.69
486.645	102.69
486.863	112.69
487.081	84.69
487.299	104.69
487.517	102.69
487.735	101.69
487.953	107.69
488.171	117.69
488.389	112.69
488.607	103.69
488.825	109.69
489.043	98.69
489.261	89.69
489.479	97.69
489.696	97.69
489.914	94.69
490.132	96.69
490.35	115.69
490.568	112.69
490.786	111.69
491.003	110.69
491.221	122.69
491.439	118.69
491.657	101.69
491.874	115.69
492.092	137.69
492.31	141.69
492.527	112.69
492.745	106.69
492.963	114.69
493.18	115.69
493.398	118.69
493.615	108.69
493.833	116.69
494.05	108.69
494.268	101.69
494.485	117.69
494.703	109.69
494.92	113.69
495.138	97.69
495.355	94.69
495.573	101.69
495.79	86.69
496.008	116.69
496.225	96.69
496.442	101.69
496.66	100.69
496.877	101.69
497.094	112.69
497.312	104.69
497.529	101.69
497.746	104.69
497.963	97.69
498.181	92.69
498.398	83.69
498.615	99.69
498.832	107.69
499.049	106.69
499.267	98.69
499.484	87.69
499.701	96.69
499.918	81.69
500.135	97.69
500.352	87.69
500.569	93.69
500.786	92.69
501.003	108.69
501.22	114.69
501.437	90.69
501.654	88.69
501.871	100.69
502.088	96.69
502.305	100.69
502.522	93.69
502.739	84.69
502.956	96.69
503.172	89.69
503.389	95.69
503.606	96.69
503.823	108.69
504.04	96.69
504.256	84.69
504.473	88.69
504.69	103.69
504.907	91.69
505.123	97.69
505.34	102.69
505.557	114.69
505.773	88.69
505.99	87.69
506.207	85.69
506.423	75.69
506.64	102.69
506.856	95.69
507.073	80.69
507.289	102.69
507.506	94.69
507.722	96.69
507.939	106.69
508.155	93.69
508.372	82.69
508.588	100.69
508.805	87.69
509.021	90.69
509.238	96.69
509.454	93.69
509.67	71.69
509.887	68.69
510.103	93.69
510.319	96.69
510.536	95.69
510.752	83.69
510.968	74.69
511.184	77.69
511.401	77.69
511.617	78.69
511.833	83.69
512.049	78.69
512.265	93.69
512.481	85.69
512.698	88.69
512.914	94.69
513.13	99.69
513.346	92.69
513.562	72.69
513.778	91.69
513.994	91.69
514.21	80.69
514.426	79.69
514.642	87.69
514.858	81.69
515.074	95.69
515.29	102.69
515.506	85.69
515.721	83.69
515.937	79.69
516.153	83.69
516.369	87.69
516.585	81.69
516.801	90.69
517.016	73.69
517.232	66.69
517.448	87.69
517.664	87.69
517.879	91.69
518.095	95.69
518.311	90.69
518.527	97.69
518.742	89.69
518.958	97.69
519.173	93.69
519.389	83.69
519.605	84.69
519.82	82.69
520.036	82.69
520.251	83.69
520.467	94.69
520.682	90.69
520.898	92.69
521.113	85.69
521.329	91.69
521.544	62.69
521.76	84.69
521.975	88.69
522.19	84.69
522.406	90.69
522.621	86.69
522.836	89.69
523.052	93.69
523.267	86.69
523.482	93.69
523.698	76.69
523.913	96.69
524.128	107.69
524.343	94.69
524.559	89.69
524.774	82.69
524.989	88.69
525.204	98.69
525.419	101.69
525.634	83.69
525.849	96.69
526.064	84.69
526.28	85.69
526.495	92.69
526.71	84.69
526.925	84.69
527.14	93.69
527.355	73.69
527.57	83.69
527.785	89.69
527.999	84.69
528.214	83.69
528.429	94.69
528.644	90.69
528.859	93.69
529.074	93.69
529.289	108.69
529.503	113.69
529.718	94.69
529.933	107.69
530.148	100.69
530.363	85.69
530.577	71.69
530.792	99.69
531.007	88.69
531.221	93.69
531.436	86.69
531.651	73.69
531.865	95.69
532.08	94.69
532.295	88.69
532.509	89.69
532.724	89.69
532.938	97.69
533.153	89.69
533.367	97.69
533.582	95.69
533.796	100.69
534.011	87.69
534.225	75.69
534.44	78.69
534.654	104.69
534.868	90.69
535.083	75.69
535.297	77.69
535.511	92.69
535.726	90.69
535.94	74.69
536.154	89.69
536.369	96.69
536.583	93.69
536.797	99.69
537.011	94.69
537.225	81.69
537.44	91.69
537.654	85.69
537.868	93.69
538.082	100.69
538.296	97.69
538.51	92.69
538.724	97.69
538.938	101.69
539.153	109.69
539.367	88.69
539.581	87.69
539.795	100.69
540.009	96.69
540.222	87.69
540.436	68.69
540.65	88.69
540.864	89.69
541.078	99.69
541.292	109.69
541.506	109.69
541.72	102.69
541.934	110.69
542.147	116.69
542.361	100.69
542.575	121.69
542.789	124.69
543.002	101.69
543.216	98.69
543.43	92.69
543.644	116.69
543.857	113.69
544.071	104.69
544.285	102.69
544.498	105.69
544.712	108.69
544.925	103.69
545.139	103.69
545.352	113.69
545.566	104.69
545.779	124.69
545.993	101.69
546.206	116.69
546.42	114.69
546.633	116.69
546.847	116.69
547.06	108.69
547.274	106.69
547.487	119.69
547.7	125.69
547.914	106.69
548.127	126.69
548.34	104.69
548.554	109.69
548.767	122.69
548.98	107.69
549.193	107.69
549.407	101.69
549.62	111.69
549.833	114.69
550.046	104.69
550.259	94.69
550.473	112.69
550.686	113.69
550.899	115.69
551.112	102.69
551.325	102.69
551.538	113.69
551.751	102.69
551.964	105.69
552.177	112.69
552.39	114.69
552.603	100.69
552.816	104.69
553.029	93.69
553.242	112.69
553.455	104.69
553.667	110.69
553.88	106.69
554.093	104.69
554.306	93.69
554.519	92.69
554.732	113.69
554.944	94.69
555.157	91.69
555.37	107.69
555.583	107.69
555.795	90.69
556.008	93.69
556.221	100.69
556.433	101.69
556.646	115.69
556.859	100.69
557.071	109.69
557.284	99.69
557.496	104.69
557.709	102.69
557.921	100.69
558.134	95.69
558.346	106.69
558.559	112.69
558.771	94.69
558.984	99.69
559.196	112.69
559.409	98.69
559.621	104.69
559.833	97.69
560.046	100.69
560.258	105.69
560.47	96.69
560.683	98.69
560.895	99.69
561.107	101.69
561.32	92.69
561.532	112.69
561.744	107.69
561.956	105.69
562.168	95.69
562.381	91.69
562.593	96.69
562.805	111.69
563.017	99.69
563.229	80.69
563.441	98.69
563.653	100.69
563.865	107.69
564.077	87.69
564.289	95.69
564.501	98.69
564.713	106.69
564.925	92.69
565.137	90.69
565.349	98.69
565.561	89.69
565.773	89.69
565.985	100.69
566.197	93.69
566.408	90.69
566.62	100.69
566.832	94.69
567.044	95.69
567.255	97.69
567.467	93.69
567.679	102.69
567.891	89.69
568.102	87.69
568.314	91.69
568.526	85.69
568.737	83.69
568.949	96.69
569.161	100.69
569.372	95.69
569.584	76.69
569.795	74.69
570.007	79.69
570.218	100.69
570.43	80.69
570.641	98.69
570.853	77.69
571.064	93.69
571.276	107.69
571.487	114.69
571.698	94.69
571.91	92.69
572.121	86.69
572.333	96.69
572.544	87.69
572.755	100.69
572.966	90.69
573.178	90.69
573.389	93.69
573.6	82.69
573.811	94.69
574.023	74.69
574.234	84.69
574.445	82.69
574.656	83.69
574.867	78.69
575.078	86.69
575.289	96.69
575.501	87.69
575.712	84.69
575.923	84.69
576.134	84.69
576.345	84.69
576.556	86.69
576.767	89.69
576.978	97.69
577.188	90.69
577.399	103.69
577.61	93.69
577.821	102.69
578.032	88.69
578.243	78.69
578.454	92.69
578.665	93.69
578.875	93.69
579.086	85.69
579.297	99.69
579.508	93.69
579.718	80.69
579.929	93.69
580.14	93.69
580.35	91.69
580.561	90.69
580.772	83.69
580.982	92.69
581.193	96.69
581.403	88.69
581.614	97.69
581.825	73.69
582.035	86.69
582.246	91.69
582.456	90.69
582.667	100.69
582.877	109.69
583.087	96.69
583.298	85.69
583.508	99.69
583.719	87.69
583.929	86.69
584.139	78.69
584.35	94.69
584.56	84.69
584.77	95.69
584.981	97.69
585.191	95.69
585.401	99.69
585.611	81.69
585.821	93.69
586.032	81.69
586.242	93.69
586.452	99.69
586.662	87.69
586.872	85.69
587.082	81.69
587.292	83.69
587.502	86.69
587.713	111.69
587.923	89.69
588.133	88.69
588.343	84.69
588.553	82.69
588.762	105.69
588.972	99.69
589.182	78.69
589.392	93.69
589.602	69.69
589.812	90.69
590.022	85.69
590.232	79.69
590.441	67.69
590.651	87.69
590.861	88.69
591.071	92.69
591.281	80.69
591.49	90.69
591.7	84.69
591.91	94.69
592.119	84.69
592.329	82.69
592.539	81.69
592.748	85.69
592.958	81.69
593.167	86.69
593.377	80.69
593.587	88.69
593.796	90.69
594.006	85.69
594.215	88.69
594.424	86.69
594.634	84.69
594.843	77.69
595.053	80.69
595.262	81.69
595.472	76.69
595.681	81.69
595.89	98.69
596.1	82.69
596.309	70.69
596.518	85.69
596.727	96.69
596.937	82.69
597.146	94.69
597.355	99.69
597.564	84.69
597.774	97.69
597.983	103.69
598.192	90.69
598.401	75.69
598.61	89.69
598.819	99.69
599.028	71.69
599.237	82.69
599.446	82.69
599.655	80.69
599.864	91.69
600.073	93.69
600.282	90.69
600.491	91.69
600.7	78.69
600.909	99.69
601.118	89.69
601.327	78.69
601.536	103.69
601.745	102.69
601.953	95.69
602.162	96.69
602.371	97.69
602.58	104.69
602.789	81.69
602.997	104.69
603.206	84.69
603.415	97.69
603.623	96.69
603.832	89.69
604.041	94.69
604.249	84.69
604.458	88.69
604.666	91.69
604.875	91.69
605.084	104.69
605.292	100.69
605.501	89.69
605.709	89.69
605.918	94.69
606.126	85.69
606.334	96.69
606.543	106.69
606.751	93.69
606.96	103.69
607.168	86.69
607.376	86.69
607.585	96.69
607.793	93.69
608.001	104.69
608.21	100.69
608.418	80.69
608.626	103.69
608.834	92.69
609.043	105.69
609.251	104.69
609.459	84.69
609.667	93.69
609.875	90.69
610.083	99.69
610.291	101.69
610.499	102.69
610.707	94.69
610.916	110.69
611.124	106.69
611.332	78.69
611.54	98.69
611.748	94.69
611.955	103.69
612.163	102.69
612.371	89.69
612.579	100.69
612.787	98.69
612.995	100.69
613.203	94.69
613.411	81.69
613.618	105.69
613.826	89.69
614.034	90.69
614.242	104.69
614.449	112.69
614.657	91.69
614.865	90.69
615.072	92.69
615.28	101.69
615.488	93.69
615.695	100.69
615.903	98.69
616.111	86.69
616.318	89.69
616.526	98.69
616.733	95.69
616.941	84.69
617.148	94.69
617.356	92.69
617.563	92.69
617.771	91.69
617.978	82.69
618.185	104.69
618.393	89.69
618.6	90.69
618.807	95.69
619.015	103.69
619.222	99.69
619.429	104.69
619.637	93.69
619.844	93.69
620.051	90.69
620.258	103.69
620.466	82.69
620.673	104.69
620.88	90.69
621.087	81.69
621.294	92.69
621.501	70.69
621.708	87.69
621.915	104.69
622.122	100.69
622.329	111.69
622.536	106.69
622.743	92.69
622.95	84.69
623.157	93.69
623.364	97.69
623.571	88.69
623.778	73.69
623.985	104.69
624.192	93.69
624.399	80.69
624.606	97.69
624.812	112.69
625.019	97.69
625.226	85.69
625.433	105.69
625.639	88.69
625.846	92.69
626.053	85.69
626.259	95.69
626.466	105.69
626.673	104.69
626.879	98.69
627.086	93.69
627.293	94.69
627.499	97.69
627.706	100.69
627.912	90.69
628.119	93.69
628.325	89.69
628.532	94.69
628.738	88.69
628.945	83.69
629.151	94.69
629.357	98.69
629.564	84.69
629.77	88.69
629.976	87.69
630.183	79.69
630.389	99.69
630.595	99.69
630.802	95.69
631.008	87.69
631.214	83.69
631.42	97.69
631.627	92.69
631.833	95.69
632.039	92.69
632.245	86.69
632.451	100.69
632.657	78.69
632.863	97.69
633.069	83.69
633.275	92.69
633.481	68.69
633.688	88.69
633.893	97.69
634.099	95.69
634.305	84.69
634.511	89.69
634.717	91.69
634.923	75.69
635.129	104.69
635.335	94.69
635.541	92.69
635.747	84.69
635.952	78.69
636.158	88.69
636.364	82.69
636.57	82.69
636.775	98.69
636.981	84.69
637.187	105.69
637.392	99.69
637.598	88.69
637.804	84.69
638.009	76.69
638.215	85.69
638.421	90.69
638.626	90.69
638.832	96.69
639.037	92.69
639.243	89.69
639.448	87.69
639.654	93.69
639.859	90.69
640.065	97.69
640.27	104.69
640.475	89.69
640.681	98.69
640.886	98.69
641.091	78.69
641.297	108.69
641.502	89.69
641.707	85.69
641.913	89.69
642.118	96.69
642.323	89.69
642.528	87.69
642.733	102.69
642.939	94.69
643.144	88.69
643.349	99.69
643.554	81.69
643.759	68.69
643.964	104.69
644.169	102.69
644.374	89.69
644.579	103.69
644.784	79.69
644.989	101.69
645.194	84.69
645.399	98.69
645.604	91.69
645.809	102.69
646.014	96.69
646.219	98.69
646.423	85.69
646.628	90.69
646.833	93.69
647.038	89.69
647.243	86.69
647.447	89.69
647.652	82.69
647.857	91.69
648.062	97.69
648.266	80.69
648.471	86.69
648.676	76.69
648.88	95.69
649.085	83.69
649.289	93.69
649.494	90.69
649.698	91.69
649.903	91.69
650.107	95.69
650.312	97.69
650.516	92.69
650.721	78.69
650.925	90.69
651.13	85.69
651.334	100.69
651.539	91.69
651.743	86.69
651.947	82.69
652.152	100.69
652.356	88.69
652.56	80.69
652.764	104.69
652.969	89.69
653.173	90.69
653.377	80.69
653.581	94.69
653.785	86.69
653.99	100.69
654.194	75.69
654.398	89.69
654.602	99.69
654.806	73.69
655.01	86.69
655.214	91.69
655.418	96.69
655.622	93.69
655.826	84.69
656.03	81.69
656.234	89.69
656.438	83.69
656.642	88.69
656.846	91.69
657.049	93.69
657.253	90.69
657.457	70.69
657.661	78.69
657.865	100.69
658.068	100.69
658.272	86.69
658.476	75.69
658.68	99.69
658.883	64.69
659.087	90.69
659.291	85.69
659.494	78.69
659.698	81.69
659.901	81.69
660.105	94.69
660.309	88.69
660.512	89.69
660.716	90.69
660.919	79.69
661.123	72.69
661.326	100.69
661.53	87.69
661.733	91.69
661.936	88.69
662.14	85.69
662.343	75.69
662.546	99.69
662.75	75.69
662.953	75.69
663.156	84.69
663.36	97.69
663.563	83.69
663.766	83.69
663.969	67.69
664.173	86.69
664.376	81.69
664.579	90.69
664.782	93.69
664.985	84.69
665.188	86.69
665.391	92.69
665.594	94.69
665.797	90.69
666	75.69
666.203	73.69
666.406	74.69
666.609	87.69
666.812	82.69
667.015	77.69
667.218	97.69
667.421	75.69
667.624	86.69
667.827	82.69
668.03	77.69
668.232	82.69
668.435	85.69
668.638	86.69
668.841	80.69
669.043	86.69
669.246	91.69
669.449	82.69
669.651	80.69
669.854	77.69
670.057	78.69
670.259	85.69
670.462	68.69
670.665	85.69
670.867	98.69
671.07	88.69
671.272	88.69
671.475	83.69
671.677	105.69
671.88	85.69
672.082	77.69
672.284	80.69
672.487	75.69
672.689	74.69
672.892	88.69
