Data from Location4.07152019.Energy5.Lamp.07192019.3%Agarose_HRD10591_15-26-23-578.txt Node
Date: Fri Jul 19 15:26:23 EDT 2019
User: cochatt
Spectrometer: HR+D1059
Trigger mode: 1
Integration Time (sec): 1.000000E-1
Scans to average: 1
Electric dark correction enabled: true
Nonlinearity correction enabled: false
Boxcar width: 0
XAxis mode: Wavelengths
Number of Pixels in Spectrum: 2048
>>>>>Begin Spectral Data<<<<<
223.165	-3.31
223.4	-3.31
223.635	-3.31
223.869	-32.31
224.104	-15.31
224.338	-21.31
224.573	-17.31
224.808	-9.31
225.042	-20.31
225.277	-5.31
225.511	11.69
225.746	8.69
225.98	4.69
226.215	15.69
226.449	21.69
226.683	27.69
226.918	12.69
227.152	21.69
227.387	34.69
227.621	47.69
227.856	33.69
228.09	37.69
228.324	45.69
228.559	46.69
228.793	51.69
229.027	46.69
229.262	53.69
229.496	66.69
229.73	67.69
229.964	75.69
230.199	85.69
230.433	69.69
230.667	78.69
230.901	82.69
231.136	68.69
231.37	91.69
231.604	85.69
231.838	81.69
232.072	75.69
232.306	72.69
232.541	81.69
232.775	85.69
233.009	90.69
233.243	70.69
233.477	79.69
233.711	79.69
233.945	83.69
234.179	80.69
234.413	75.69
234.647	101.69
234.881	80.69
235.115	69.69
235.349	64.69
235.583	76.69
235.817	70.69
236.051	72.69
236.285	72.69
236.519	90.69
236.753	73.69
236.987	73.69
237.221	77.69
237.455	70.69
237.689	72.69
237.922	76.69
238.156	79.69
238.39	74.69
238.624	73.69
238.858	67.69
239.091	71.69
239.325	68.69
239.559	75.69
239.793	69.69
240.027	74.69
240.26	67.69
240.494	79.69
240.728	72.69
240.961	64.69
241.195	68.69
241.429	80.69
241.662	74.69
241.896	55.69
242.13	78.69
242.363	77.69
242.597	68.69
242.83	76.69
243.064	74.69
243.298	87.69
243.531	79.69
243.765	75.69
243.998	75.69
244.232	73.69
244.465	81.69
244.699	74.69
244.932	77.69
245.166	71.69
245.399	79.69
245.633	80.69
245.866	72.69
246.099	71.69
246.333	71.69
246.566	76.69
246.8	72.69
247.033	80.69
247.266	67.69
247.5	73.69
247.733	66.69
247.966	64.69
248.2	73.69
248.433	80.69
248.666	84.69
248.899	91.69
249.133	87.69
249.366	74.69
249.599	75.69
249.832	80.69
250.066	75.69
250.299	77.69
250.532	75.69
250.765	77.69
250.998	75.69
251.231	74.69
251.465	82.69
251.698	90.69
251.931	83.69
252.164	79.69
252.397	80.69
252.63	84.69
252.863	65.69
253.096	65.69
253.329	72.69
253.562	70.69
253.795	74.69
254.028	84.69
254.261	74.69
254.494	73.69
254.727	71.69
254.96	64.69
255.193	71.69
255.426	68.69
255.659	77.69
255.892	80.69
256.124	58.69
256.357	88.69
256.59	81.69
256.823	82.69
257.056	84.69
257.289	74.69
257.521	72.69
257.754	61.69
257.987	63.69
258.22	85.69
258.452	82.69
258.685	72.69
258.918	63.69
259.151	77.69
259.383	72.69
259.616	80.69
259.849	79.69
260.081	90.69
260.314	82.69
260.547	85.69
260.779	83.69
261.012	81.69
261.244	82.69
261.477	55.69
261.71	77.69
261.942	73.69
262.175	80.69
262.407	79.69
262.64	58.69
262.872	77.69
263.105	72.69
263.337	87.69
263.57	92.69
263.802	84.69
264.035	70.69
264.267	68.69
264.499	69.69
264.732	82.69
264.964	75.69
265.197	84.69
265.429	85.69
265.661	71.69
265.894	82.69
266.126	85.69
266.358	67.69
266.591	71.69
266.823	78.69
267.055	95.69
267.287	81.69
267.52	70.69
267.752	85.69
267.984	86.69
268.216	82.69
268.448	96.69
268.681	84.69
268.913	83.69
269.145	71.69
269.377	76.69
269.609	86.69
269.841	79.69
270.073	79.69
270.306	76.69
270.538	80.69
270.77	89.69
271.002	71.69
271.234	81.69
271.466	79.69
271.698	72.69
271.93	70.69
272.162	77.69
272.394	102.69
272.626	73.69
272.858	81.69
273.09	85.69
273.322	82.69
273.553	87.69
273.785	84.69
274.017	81.69
274.249	83.69
274.481	80.69
274.713	82.69
274.945	81.69
275.176	72.69
275.408	74.69
275.64	69.69
275.872	73.69
276.104	86.69
276.335	97.69
276.567	69.69
276.799	93.69
277.031	78.69
277.262	74.69
277.494	79.69
277.726	81.69
277.957	94.69
278.189	77.69
278.421	81.69
278.652	88.69
278.884	90.69
279.115	86.69
279.347	82.69
279.579	63.69
279.81	83.69
280.042	61.69
280.273	81.69
280.505	91.69
280.736	87.69
280.968	82.69
281.199	94.69
281.431	79.69
281.662	83.69
281.894	86.69
282.125	94.69
282.356	86.69
282.588	90.69
282.819	69.69
283.051	81.69
283.282	79.69
283.513	87.69
283.745	85.69
283.976	73.69
284.207	76.69
284.439	85.69
284.67	73.69
284.901	76.69
285.132	86.69
285.364	78.69
285.595	85.69
285.826	80.69
286.057	82.69
286.288	68.69
286.52	89.69
286.751	74.69
286.982	71.69
287.213	80.69
287.444	89.69
287.675	78.69
287.906	89.69
288.138	85.69
288.369	84.69
288.6	85.69
288.831	73.69
289.062	65.69
289.293	84.69
289.524	72.69
289.755	79.69
289.986	86.69
290.217	79.69
290.448	83.69
290.679	78.69
290.91	73.69
291.141	73.69
291.371	73.69
291.602	80.69
291.833	78.69
292.064	87.69
292.295	78.69
292.526	90.69
292.757	87.69
292.987	79.69
293.218	81.69
293.449	71.69
293.68	71.69
293.91	91.69
294.141	82.69
294.372	76.69
294.603	78.69
294.833	77.69
295.064	70.69
295.295	78.69
295.525	83.69
295.756	89.69
295.987	72.69
296.217	95.69
296.448	100.69
296.679	86.69
296.909	77.69
297.14	74.69
297.37	74.69
297.601	68.69
297.831	83.69
298.062	80.69
298.292	73.69
298.523	83.69
298.753	74.69
298.984	81.69
299.214	78.69
299.445	79.69
299.675	89.69
299.905	82.69
300.136	86.69
300.366	72.69
300.597	88.69
300.827	67.69
301.057	70.69
301.288	96.69
301.518	75.69
301.748	76.69
301.979	88.69
302.209	94.69
302.439	74.69
302.669	78.69
302.9	76.69
303.13	81.69
303.36	72.69
303.59	89.69
303.82	95.69
304.051	73.69
304.281	81.69
304.511	72.69
304.741	75.69
304.971	79.69
305.201	84.69
305.431	87.69
305.661	98.69
305.891	70.69
306.121	92.69
306.352	83.69
306.582	84.69
306.812	75.69
307.042	87.69
307.272	83.69
307.502	82.69
307.731	83.69
307.961	88.69
308.191	70.69
308.421	90.69
308.651	66.69
308.881	74.69
309.111	83.69
309.341	84.69
309.571	83.69
309.8	93.69
310.03	82.69
310.26	84.69
310.49	74.69
310.72	82.69
310.949	80.69
311.179	73.69
311.409	69.69
311.639	83.69
311.868	81.69
312.098	80.69
312.328	78.69
312.557	87.69
312.787	92.69
313.017	78.69
313.246	75.69
313.476	89.69
313.706	85.69
313.935	91.69
314.165	87.69
314.394	83.69
314.624	79.69
314.853	79.69
315.083	89.69
315.312	73.69
315.542	69.69
315.771	73.69
316.001	75.69
316.23	69.69
316.46	85.69
316.689	80.69
316.919	89.69
317.148	89.69
317.377	93.69
317.607	91.69
317.836	80.69
318.065	73.69
318.295	86.69
318.524	58.69
318.753	85.69
318.983	73.69
319.212	79.69
319.441	91.69
319.67	80.69
319.9	87.69
320.129	90.69
320.358	91.69
320.587	84.69
320.816	81.69
321.046	86.69
321.275	81.69
321.504	83.69
321.733	83.69
321.962	78.69
322.191	82.69
322.42	84.69
322.649	78.69
322.878	79.69
323.108	81.69
323.337	82.69
323.566	85.69
323.795	82.69
324.024	89.69
324.253	78.69
324.482	80.69
324.71	77.69
324.939	85.69
325.168	76.69
325.397	68.69
325.626	72.69
325.855	79.69
326.084	97.69
326.313	85.69
326.542	73.69
326.77	86.69
326.999	77.69
327.228	79.69
327.457	78.69
327.686	94.69
327.914	74.69
328.143	93.69
328.372	96.69
328.6	86.69
328.829	95.69
329.058	86.69
329.287	83.69
329.515	80.69
329.744	78.69
329.972	106.69
330.201	76.69
330.43	78.69
330.658	86.69
330.887	95.69
331.115	95.69
331.344	81.69
331.572	73.69
331.801	80.69
332.03	91.69
332.258	81.69
332.486	88.69
332.715	91.69
332.943	66.69
333.172	81.69
333.4	80.69
333.629	72.69
333.857	91.69
334.085	68.69
334.314	69.69
334.542	82.69
334.771	81.69
334.999	85.69
335.227	74.69
335.455	81.69
335.684	77.69
335.912	84.69
336.14	74.69
336.369	76.69
336.597	78.69
336.825	70.69
337.053	107.69
337.281	89.69
337.51	95.69
337.738	79.69
337.966	94.69
338.194	84.69
338.422	81.69
338.65	82.69
338.878	81.69
339.106	83.69
339.334	97.69
339.562	64.69
339.79	63.69
340.018	100.69
340.246	90.69
340.474	82.69
340.702	86.69
340.93	66.69
341.158	87.69
341.386	62.69
341.614	79.69
341.842	67.69
342.07	69.69
342.298	70.69
342.526	82.69
342.754	87.69
342.981	65.69
343.209	67.69
343.437	82.69
343.665	78.69
343.893	90.69
344.12	81.69
344.348	79.69
344.576	82.69
344.804	76.69
345.031	84.69
345.259	85.69
345.487	69.69
345.714	93.69
345.942	93.69
346.17	79.69
346.397	90.69
346.625	83.69
346.853	78.69
347.08	83.69
347.308	85.69
347.535	96.69
347.763	79.69
347.99	86.69
348.218	89.69
348.445	90.69
348.673	84.69
348.9	98.69
349.128	74.69
349.355	89.69
349.583	81.69
349.81	71.69
350.037	81.69
350.265	94.69
350.492	83.69
350.72	86.69
350.947	77.69
351.174	74.69
351.402	68.69
351.629	79.69
351.856	81.69
352.083	70.69
352.311	86.69
352.538	76.69
352.765	61.69
352.992	85.69
353.22	73.69
353.447	87.69
353.674	86.69
353.901	72.69
354.128	83.69
354.355	88.69
354.583	71.69
354.81	93.69
355.037	85.69
355.264	83.69
355.491	78.69
355.718	75.69
355.945	92.69
356.172	82.69
356.399	89.69
356.626	74.69
356.853	79.69
357.08	67.69
357.307	68.69
357.534	80.69
357.761	85.69
357.988	87.69
358.215	85.69
358.441	79.69
358.668	79.69
358.895	79.69
359.122	78.69
359.349	72.69
359.576	68.69
359.802	76.69
360.029	95.69
360.256	84.69
360.483	81.69
360.709	92.69
360.936	89.69
361.163	79.69
361.39	84.69
361.616	88.69
361.843	74.69
362.07	77.69
362.296	77.69
362.523	75.69
362.749	93.69
362.976	81.69
363.203	76.69
363.429	75.69
363.656	89.69
363.882	73.69
364.109	88.69
364.335	93.69
364.562	82.69
364.788	74.69
365.015	82.69
365.241	71.69
365.468	88.69
365.694	70.69
365.92	75.69
366.147	68.69
366.373	74.69
366.599	78.69
366.826	83.69
367.052	88.69
367.278	83.69
367.505	73.69
367.731	77.69
367.957	72.69
368.184	79.69
368.41	83.69
368.636	79.69
368.862	94.69
369.089	97.69
369.315	84.69
369.541	75.69
369.767	84.69
369.993	72.69
370.219	67.69
370.445	89.69
370.672	81.69
370.898	79.69
371.124	78.69
371.35	96.69
371.576	81.69
371.802	76.69
372.028	93.69
372.254	81.69
372.48	86.69
372.706	87.69
372.932	73.69
373.158	79.69
373.384	95.69
373.61	89.69
373.835	71.69
374.061	77.69
374.287	78.69
374.513	90.69
374.739	90.69
374.965	76.69
375.191	79.69
375.416	97.69
375.642	82.69
375.868	83.69
376.094	77.69
376.319	87.69
376.545	84.69
376.771	77.69
376.997	92.69
377.222	87.69
377.448	81.69
377.674	67.69
377.899	79.69
378.125	84.69
378.35	90.69
378.576	84.69
378.802	91.69
379.027	84.69
379.253	82.69
379.478	88.69
379.704	85.69
379.929	70.69
380.155	82.69
380.38	81.69
380.606	86.69
380.831	82.69
381.057	82.69
381.282	75.69
381.507	78.69
381.733	87.69
381.958	81.69
382.184	85.69
382.409	88.69
382.634	96.69
382.86	80.69
383.085	89.69
383.31	86.69
383.535	93.69
383.761	83.69
383.986	72.69
384.211	83.69
384.436	91.69
384.662	85.69
384.887	76.69
385.112	63.69
385.337	79.69
385.562	82.69
385.787	93.69
386.013	91.69
386.238	82.69
386.463	79.69
386.688	96.69
386.913	77.69
387.138	94.69
387.363	83.69
387.588	91.69
387.813	88.69
388.038	78.69
388.263	84.69
388.488	80.69
388.713	74.69
388.938	79.69
389.163	93.69
389.387	87.69
389.612	78.69
389.837	86.69
390.062	88.69
390.287	77.69
390.512	83.69
390.736	75.69
390.961	81.69
391.186	88.69
391.411	76.69
391.636	86.69
391.86	93.69
392.085	91.69
392.31	86.69
392.534	81.69
392.759	84.69
392.984	92.69
393.208	78.69
393.433	74.69
393.658	79.69
393.882	89.69
394.107	82.69
394.331	80.69
394.556	82.69
394.78	71.69
395.005	77.69
395.229	87.69
395.454	89.69
395.678	87.69
395.903	95.69
396.127	87.69
396.352	82.69
396.576	83.69
396.801	84.69
397.025	86.69
397.249	79.69
397.474	80.69
397.698	90.69
397.922	90.69
398.147	88.69
398.371	82.69
398.595	80.69
398.82	75.69
399.044	85.69
399.268	70.69
399.492	82.69
399.717	82.69
399.941	93.69
400.165	88.69
400.389	97.69
400.613	79.69
400.837	83.69
401.062	91.69
401.286	92.69
401.51	78.69
401.734	95.69
401.958	90.69
402.182	93.69
402.406	76.69
402.63	79.69
402.854	88.69
403.078	81.69
403.302	85.69
403.526	86.69
403.75	79.69
403.974	81.69
404.198	92.69
404.422	89.69
404.645	85.69
404.869	89.69
405.093	89.69
405.317	82.69
405.541	91.69
405.765	57.69
405.988	80.69
406.212	91.69
406.436	89.69
406.66	88.69
406.883	85.69
407.107	79.69
407.331	70.69
407.555	81.69
407.778	86.69
408.002	94.69
408.226	86.69
408.449	75.69
408.673	78.69
408.896	91.69
409.12	89.69
409.344	99.69
409.567	95.69
409.791	95.69
410.014	75.69
410.238	71.69
410.461	85.69
410.685	96.69
410.908	81.69
411.132	80.69
411.355	104.69
411.578	92.69
411.802	86.69
412.025	94.69
412.249	91.69
412.472	82.69
412.695	83.69
412.919	88.69
413.142	85.69
413.365	89.69
413.589	65.69
413.812	99.69
414.035	82.69
414.258	85.69
414.482	93.69
414.705	99.69
414.928	89.69
415.151	87.69
415.374	102.69
415.597	101.69
415.821	86.69
416.044	99.69
416.267	96.69
416.49	83.69
416.713	95.69
416.936	103.69
417.159	94.69
417.382	98.69
417.605	93.69
417.828	97.69
418.051	101.69
418.274	104.69
418.497	89.69
418.72	94.69
418.943	93.69
419.166	88.69
419.389	100.69
419.611	85.69
419.834	95.69
420.057	90.69
420.28	93.69
420.503	100.69
420.726	85.69
420.948	98.69
421.171	80.69
421.394	91.69
421.617	92.69
421.839	88.69
422.062	85.69
422.285	99.69
422.507	97.69
422.73	86.69
422.953	95.69
423.175	84.69
423.398	89.69
423.621	79.69
423.843	88.69
424.066	82.69
424.288	102.69
424.511	88.69
424.733	96.69
424.956	95.69
425.178	113.69
425.401	95.69
425.623	86.69
425.846	88.69
426.068	85.69
426.291	92.69
426.513	89.69
426.735	102.69
426.958	110.69
427.18	95.69
427.402	82.69
427.625	87.69
427.847	82.69
428.069	89.69
428.292	88.69
428.514	96.69
428.736	97.69
428.958	90.69
429.181	96.69
429.403	86.69
429.625	79.69
429.847	82.69
430.069	70.69
430.292	84.69
430.514	95.69
430.736	89.69
430.958	91.69
431.18	75.69
431.402	102.69
431.624	96.69
431.846	79.69
432.068	91.69
432.29	78.69
432.512	69.69
432.734	74.69
432.956	93.69
433.178	102.69
433.4	99.69
433.622	95.69
433.844	99.69
434.066	97.69
434.287	86.69
434.509	81.69
434.731	76.69
434.953	109.69
435.175	86.69
435.397	85.69
435.618	93.69
435.84	93.69
436.062	86.69
436.284	86.69
436.505	75.69
436.727	80.69
436.949	86.69
437.17	93.69
437.392	91.69
437.614	89.69
437.835	82.69
438.057	88.69
438.278	97.69
438.5	75.69
438.721	95.69
438.943	90.69
439.165	88.69
439.386	102.69
439.608	99.69
439.829	94.69
440.05	92.69
440.272	83.69
440.493	96.69
440.715	91.69
440.936	86.69
441.158	73.69
441.379	84.69
441.6	109.69
441.822	99.69
442.043	97.69
442.264	82.69
442.486	94.69
442.707	94.69
442.928	91.69
443.149	84.69
443.371	90.69
443.592	87.69
443.813	93.69
444.034	81.69
444.255	92.69
444.476	106.69
444.698	103.69
444.919	94.69
445.14	216.69
445.361	139.69
445.582	94.69
445.803	79.69
446.024	88.69
446.245	87.69
446.466	107.69
446.687	80.69
446.908	83.69
447.129	98.69
447.35	94.69
447.571	101.69
447.792	79.69
448.013	99.69
448.234	89.69
448.455	83.69
448.675	102.69
448.896	94.69
449.117	104.69
449.338	97.69
449.559	90.69
449.779	81.69
450	98.69
450.221	102.69
450.442	88.69
450.662	91.69
450.883	96.69
451.104	89.69
451.324	99.69
451.545	95.69
451.766	90.69
451.986	72.69
452.207	86.69
452.428	75.69
452.648	88.69
452.869	87.69
453.089	84.69
453.31	90.69
453.53	84.69
453.751	85.69
453.971	79.69
454.192	81.69
454.412	74.69
454.633	91.69
454.853	75.69
455.073	80.69
455.294	92.69
455.514	86.69
455.734	100.69
455.955	87.69
456.175	95.69
456.395	81.69
456.616	89.69
456.836	82.69
457.056	91.69
457.276	74.69
457.497	84.69
457.717	91.69
457.937	94.69
458.157	88.69
458.377	79.69
458.598	77.69
458.818	87.69
459.038	84.69
459.258	79.69
459.478	75.69
459.698	77.69
459.918	79.69
460.138	95.69
460.358	81.69
460.578	82.69
460.798	95.69
461.018	82.69
461.238	86.69
461.458	101.69
461.678	91.69
461.898	86.69
462.118	96.69
462.338	74.69
462.558	84.69
462.777	89.69
462.997	83.69
463.217	86.69
463.437	73.69
463.657	93.69
463.876	81.69
464.096	75.69
464.316	84.69
464.536	97.69
464.755	99.69
464.975	82.69
465.195	76.69
465.414	85.69
465.634	93.69
465.854	74.69
466.073	93.69
466.293	90.69
466.512	100.69
466.732	86.69
466.951	95.69
467.171	92.69
467.391	83.69
467.61	82.69
467.829	80.69
468.049	99.69
468.268	85.69
468.488	93.69
468.707	82.69
468.927	84.69
469.146	85.69
469.365	87.69
469.585	88.69
469.804	85.69
470.023	91.69
470.243	80.69
470.462	91.69
470.681	90.69
470.901	107.69
471.12	100.69
471.339	88.69
471.558	100.69
471.777	101.69
471.997	78.69
472.216	107.69
472.435	91.69
472.654	88.69
472.873	87.69
473.092	99.69
473.311	99.69
473.53	90.69
473.749	101.69
473.968	90.69
474.187	86.69
474.406	106.69
474.625	93.69
474.844	106.69
475.063	81.69
475.282	91.69
475.501	87.69
475.72	80.69
475.939	90.69
476.158	103.69
476.377	104.69
476.596	105.69
476.814	94.69
477.033	85.69
477.252	82.69
477.471	96.69
477.69	109.69
477.908	112.69
478.127	90.69
478.346	93.69
478.564	77.69
478.783	90.69
479.002	111.69
479.22	90.69
479.439	86.69
479.658	80.69
479.876	81.69
480.095	87.69
480.313	99.69
480.532	89.69
480.751	78.69
480.969	77.69
481.188	93.69
481.406	89.69
481.624	88.69
481.843	79.69
482.061	89.69
482.28	101.69
482.498	75.69
482.717	89.69
482.935	85.69
483.153	100.69
483.372	107.69
483.59	100.69
483.808	103.69
484.027	94.69
484.245	92.69
484.463	94.69
484.681	93.69
484.9	87.69
485.118	86.69
485.336	102.69
485.554	81.69
485.772	68.69
485.99	92.69
486.209	85.69
486.427	78.69
486.645	89.69
486.863	94.69
487.081	91.69
487.299	89.69
487.517	106.69
487.735	98.69
487.953	127.69
488.171	105.69
488.389	109.69
488.607	106.69
488.825	100.69
489.043	97.69
489.261	104.69
489.479	80.69
489.696	87.69
489.914	94.69
490.132	97.69
490.35	96.69
490.568	97.69
490.786	78.69
491.003	83.69
491.221	117.69
491.439	98.69
491.657	109.69
491.874	115.69
492.092	105.69
492.31	120.69
492.527	114.69
492.745	119.69
492.963	120.69
493.18	99.69
493.398	102.69
493.615	113.69
493.833	115.69
494.05	115.69
494.268	121.69
494.485	110.69
494.703	105.69
494.92	109.69
495.138	111.69
495.355	106.69
495.573	121.69
495.79	102.69
496.008	111.69
496.225	108.69
496.442	115.69
496.66	105.69
496.877	109.69
497.094	109.69
497.312	105.69
497.529	91.69
497.746	94.69
497.963	105.69
498.181	81.69
498.398	80.69
498.615	75.69
498.832	79.69
499.049	91.69
499.267	93.69
499.484	73.69
499.701	89.69
499.918	85.69
500.135	98.69
500.352	104.69
500.569	111.69
500.786	97.69
501.003	103.69
501.22	98.69
501.437	99.69
501.654	88.69
501.871	82.69
502.088	84.69
502.305	95.69
502.522	86.69
502.739	88.69
502.956	96.69
503.172	90.69
503.389	91.69
503.606	80.69
503.823	87.69
504.04	103.69
504.256	93.69
504.473	96.69
504.69	82.69
504.907	93.69
505.123	81.69
505.34	111.69
505.557	85.69
505.773	86.69
505.99	100.69
506.207	94.69
506.423	84.69
506.64	106.69
506.856	89.69
507.073	88.69
507.289	101.69
507.506	97.69
507.722	88.69
507.939	98.69
508.155	85.69
508.372	93.69
508.588	86.69
508.805	81.69
509.021	79.69
509.238	82.69
509.454	84.69
509.67	79.69
509.887	84.69
510.103	84.69
510.319	89.69
510.536	85.69
510.752	77.69
510.968	83.69
511.184	66.69
511.401	83.69
511.617	79.69
511.833	84.69
512.049	79.69
512.265	89.69
512.481	74.69
512.698	82.69
512.914	86.69
513.13	78.69
513.346	75.69
513.562	91.69
513.778	83.69
513.994	84.69
514.21	81.69
514.426	68.69
514.642	76.69
514.858	81.69
515.074	81.69
515.29	98.69
515.506	90.69
515.721	72.69
515.937	78.69
516.153	93.69
516.369	96.69
516.585	70.69
516.801	82.69
517.016	73.69
517.232	101.69
517.448	81.69
517.664	83.69
517.879	86.69
518.095	107.69
518.311	68.69
518.527	79.69
518.742	83.69
518.958	88.69
519.173	98.69
519.389	83.69
519.605	73.69
519.82	95.69
520.036	103.69
520.251	95.69
520.467	86.69
520.682	81.69
520.898	91.69
521.113	87.69
521.329	88.69
521.544	80.69
521.76	81.69
521.975	79.69
522.19	80.69
522.406	86.69
522.621	79.69
522.836	100.69
523.052	88.69
523.267	74.69
523.482	83.69
523.698	84.69
523.913	98.69
524.128	82.69
524.343	88.69
524.559	86.69
524.774	85.69
524.989	89.69
525.204	91.69
525.419	85.69
525.634	73.69
525.849	85.69
526.064	82.69
526.28	94.69
526.495	89.69
526.71	84.69
526.925	82.69
527.14	89.69
527.355	75.69
527.57	82.69
527.785	80.69
527.999	79.69
528.214	73.69
528.429	97.69
528.644	98.69
528.859	88.69
529.074	103.69
529.289	96.69
529.503	97.69
529.718	96.69
529.933	83.69
530.148	77.69
530.363	82.69
530.577	77.69
530.792	90.69
531.007	73.69
531.221	74.69
531.436	80.69
531.651	83.69
531.865	88.69
532.08	79.69
532.295	86.69
532.509	81.69
532.724	76.69
532.938	81.69
533.153	85.69
533.367	70.69
533.582	102.69
533.796	105.69
534.011	81.69
534.225	78.69
534.44	79.69
534.654	91.69
534.868	89.69
535.083	96.69
535.297	79.69
535.511	73.69
535.726	84.69
535.94	87.69
536.154	90.69
536.369	89.69
536.583	93.69
536.797	80.69
537.011	75.69
537.225	87.69
537.44	93.69
537.654	85.69
537.868	75.69
538.082	81.69
538.296	89.69
538.51	87.69
538.724	86.69
538.938	89.69
539.153	78.69
539.367	96.69
539.581	95.69
539.795	90.69
540.009	97.69
540.222	81.69
540.436	86.69
540.65	104.69
540.864	86.69
541.078	95.69
541.292	90.69
541.506	90.69
541.72	104.69
541.934	113.69
542.147	106.69
542.361	95.69
542.575	108.69
542.789	99.69
543.002	90.69
543.216	84.69
543.43	98.69
543.644	89.69
543.857	95.69
544.071	94.69
544.285	90.69
544.498	98.69
544.712	111.69
544.925	100.69
545.139	110.69
545.352	99.69
545.566	116.69
545.779	119.69
545.993	115.69
546.206	97.69
546.42	115.69
546.633	101.69
546.847	114.69
547.06	109.69
547.274	111.69
547.487	109.69
547.7	101.69
547.914	89.69
548.127	96.69
548.34	102.69
548.554	104.69
548.767	104.69
548.98	98.69
549.193	102.69
549.407	112.69
549.62	110.69
549.833	97.69
550.046	111.69
550.259	93.69
550.473	98.69
550.686	94.69
550.899	105.69
551.112	96.69
551.325	101.69
551.538	99.69
551.751	90.69
551.964	103.69
552.177	102.69
552.39	102.69
552.603	89.69
552.816	95.69
553.029	104.69
553.242	103.69
553.455	98.69
553.667	113.69
553.88	93.69
554.093	85.69
554.306	102.69
554.519	108.69
554.732	98.69
554.944	91.69
555.157	111.69
555.37	100.69
555.583	93.69
555.795	95.69
556.008	96.69
556.221	94.69
556.433	89.69
556.646	109.69
556.859	95.69
557.071	113.69
557.284	97.69
557.496	98.69
557.709	113.69
557.921	109.69
558.134	99.69
558.346	103.69
558.559	99.69
558.771	88.69
558.984	80.69
559.196	101.69
559.409	104.69
559.621	93.69
559.833	98.69
560.046	92.69
560.258	89.69
560.47	98.69
560.683	94.69
560.895	94.69
561.107	104.69
561.32	93.69
561.532	93.69
561.744	93.69
561.956	103.69
562.168	95.69
562.381	111.69
562.593	95.69
562.805	99.69
563.017	105.69
563.229	90.69
563.441	99.69
563.653	97.69
563.865	94.69
564.077	102.69
564.289	95.69
564.501	87.69
564.713	93.69
564.925	80.69
565.137	84.69
565.349	95.69
565.561	87.69
565.773	88.69
565.985	92.69
566.197	95.69
566.408	94.69
566.62	104.69
566.832	86.69
567.044	87.69
567.255	95.69
567.467	95.69
567.679	82.69
567.891	83.69
568.102	91.69
568.314	91.69
568.526	91.69
568.737	78.69
568.949	74.69
569.161	78.69
569.372	86.69
569.584	89.69
569.795	79.69
570.007	84.69
570.218	67.69
570.43	83.69
570.641	89.69
570.853	86.69
571.064	80.69
571.276	85.69
571.487	93.69
571.698	82.69
571.91	89.69
572.121	100.69
572.333	93.69
572.544	96.69
572.755	91.69
572.966	90.69
573.178	90.69
573.389	73.69
573.6	81.69
573.811	88.69
574.023	75.69
574.234	87.69
574.445	77.69
574.656	81.69
574.867	86.69
575.078	89.69
575.289	87.69
575.501	98.69
575.712	94.69
575.923	82.69
576.134	88.69
576.345	96.69
576.556	90.69
576.767	79.69
576.978	83.69
577.188	83.69
577.399	93.69
577.61	93.69
577.821	90.69
578.032	101.69
578.243	83.69
578.454	83.69
578.665	78.69
578.875	85.69
579.086	88.69
579.297	83.69
579.508	100.69
579.718	78.69
579.929	88.69
580.14	90.69
580.35	95.69
580.561	59.69
580.772	69.69
580.982	82.69
581.193	82.69
581.403	86.69
581.614	78.69
581.825	73.69
582.035	81.69
582.246	101.69
582.456	91.69
582.667	79.69
582.877	97.69
583.087	81.69
583.298	83.69
583.508	81.69
583.719	71.69
583.929	79.69
584.139	85.69
584.35	77.69
584.56	85.69
584.77	83.69
584.981	89.69
585.191	88.69
585.401	83.69
585.611	76.69
585.821	72.69
586.032	84.69
586.242	82.69
586.452	80.69
586.662	72.69
586.872	73.69
587.082	81.69
587.292	85.69
587.502	84.69
587.713	88.69
587.923	70.69
588.133	87.69
588.343	91.69
588.553	88.69
588.762	75.69
588.972	79.69
589.182	84.69
589.392	94.69
589.602	86.69
589.812	87.69
590.022	79.69
590.232	93.69
590.441	81.69
590.651	82.69
590.861	82.69
591.071	84.69
591.281	99.69
591.49	79.69
591.7	82.69
591.91	81.69
592.119	92.69
592.329	91.69
592.539	89.69
592.748	82.69
592.958	79.69
593.167	93.69
593.377	74.69
593.587	91.69
593.796	67.69
594.006	79.69
594.215	89.69
594.424	74.69
594.634	86.69
594.843	87.69
595.053	91.69
595.262	82.69
595.472	88.69
595.681	89.69
595.89	72.69
596.1	72.69
596.309	84.69
596.518	81.69
596.727	87.69
596.937	83.69
597.146	85.69
597.355	89.69
597.564	76.69
597.774	93.69
597.983	72.69
598.192	92.69
598.401	92.69
598.61	83.69
598.819	87.69
599.028	88.69
599.237	93.69
599.446	99.69
599.655	80.69
599.864	75.69
600.073	87.69
600.282	96.69
600.491	92.69
600.7	72.69
600.909	92.69
601.118	89.69
601.327	85.69
601.536	85.69
601.745	90.69
601.953	99.69
602.162	93.69
602.371	80.69
602.58	77.69
602.789	77.69
602.997	86.69
603.206	95.69
603.415	73.69
603.623	84.69
603.832	94.69
604.041	81.69
604.249	87.69
604.458	89.69
604.666	86.69
604.875	73.69
605.084	81.69
605.292	96.69
605.501	95.69
605.709	94.69
605.918	83.69
606.126	98.69
606.334	80.69
606.543	84.69
606.751	92.69
606.96	91.69
607.168	94.69
607.376	87.69
607.585	78.69
607.793	103.69
608.001	93.69
608.21	85.69
608.418	89.69
608.626	82.69
608.834	93.69
609.043	89.69
609.251	86.69
609.459	97.69
609.667	92.69
609.875	87.69
610.083	80.69
610.291	90.69
610.499	91.69
610.707	87.69
610.916	81.69
611.124	87.69
611.332	91.69
611.54	92.69
611.748	88.69
611.955	86.69
612.163	94.69
612.371	84.69
612.579	81.69
612.787	102.69
612.995	103.69
613.203	93.69
613.411	86.69
613.618	93.69
613.826	82.69
614.034	99.69
614.242	86.69
614.449	89.69
614.657	104.69
614.865	88.69
615.072	89.69
615.28	97.69
615.488	89.69
615.695	81.69
615.903	79.69
616.111	87.69
616.318	90.69
616.526	81.69
616.733	94.69
616.941	95.69
617.148	98.69
617.356	90.69
617.563	85.69
617.771	107.69
617.978	92.69
618.185	100.69
618.393	84.69
618.6	104.69
618.807	100.69
619.015	94.69
619.222	94.69
619.429	93.69
619.637	82.69
619.844	75.69
620.051	102.69
620.258	105.69
620.466	88.69
620.673	94.69
620.88	76.69
621.087	90.69
621.294	85.69
621.501	90.69
621.708	86.69
621.915	83.69
622.122	88.69
622.329	94.69
622.536	80.69
622.743	81.69
622.95	84.69
623.157	94.69
623.364	91.69
623.571	88.69
623.778	95.69
623.985	92.69
624.192	90.69
624.399	92.69
624.606	76.69
624.812	96.69
625.019	87.69
625.226	79.69
625.433	90.69
625.639	88.69
625.846	87.69
626.053	83.69
626.259	95.69
626.466	96.69
626.673	83.69
626.879	71.69
627.086	93.69
627.293	76.69
627.499	85.69
627.706	77.69
627.912	81.69
628.119	89.69
628.325	102.69
628.532	83.69
628.738	89.69
628.945	83.69
629.151	89.69
629.357	83.69
629.564	86.69
629.77	80.69
629.976	85.69
630.183	77.69
630.389	84.69
630.595	96.69
630.802	87.69
631.008	94.69
631.214	84.69
631.42	74.69
631.627	89.69
631.833	93.69
632.039	82.69
632.245	78.69
632.451	103.69
632.657	80.69
632.863	80.69
633.069	86.69
633.275	78.69
633.481	79.69
633.688	90.69
633.893	102.69
634.099	86.69
634.305	82.69
634.511	79.69
634.717	98.69
634.923	85.69
635.129	92.69
635.335	78.69
635.541	88.69
635.747	91.69
635.952	95.69
636.158	80.69
636.364	83.69
636.57	80.69
636.775	73.69
636.981	86.69
637.187	85.69
637.392	83.69
637.598	78.69
637.804	71.69
638.009	77.69
638.215	83.69
638.421	101.69
638.626	79.69
638.832	98.69
639.037	69.69
639.243	88.69
639.448	74.69
639.654	86.69
639.859	78.69
640.065	98.69
640.27	92.69
640.475	91.69
640.681	60.69
640.886	81.69
641.091	92.69
641.297	94.69
641.502	89.69
641.707	87.69
641.913	71.69
642.118	82.69
642.323	91.69
642.528	83.69
642.733	81.69
642.939	84.69
643.144	82.69
643.349	73.69
643.554	84.69
643.759	89.69
643.964	79.69
644.169	93.69
644.374	81.69
644.579	93.69
644.784	82.69
644.989	86.69
645.194	90.69
645.399	89.69
645.604	93.69
645.809	76.69
646.014	94.69
646.219	95.69
646.423	80.69
646.628	81.69
646.833	80.69
647.038	83.69
647.243	85.69
647.447	73.69
647.652	97.69
647.857	87.69
648.062	93.69
648.266	73.69
648.471	94.69
648.676	75.69
648.88	75.69
649.085	86.69
649.289	76.69
649.494	87.69
649.698	70.69
649.903	90.69
650.107	83.69
650.312	86.69
650.516	96.69
650.721	87.69
650.925	84.69
651.13	74.69
651.334	87.69
651.539	83.69
651.743	86.69
651.947	95.69
652.152	73.69
652.356	78.69
652.56	85.69
652.764	93.69
652.969	93.69
653.173	73.69
653.377	68.69
653.581	83.69
653.785	95.69
653.99	81.69
654.194	78.69
654.398	81.69
654.602	94.69
654.806	71.69
655.01	94.69
655.214	85.69
655.418	84.69
655.622	76.69
655.826	90.69
656.03	75.69
656.234	81.69
656.438	75.69
656.642	77.69
656.846	84.69
657.049	77.69
657.253	74.69
657.457	79.69
657.661	77.69
657.865	86.69
658.068	81.69
658.272	99.69
658.476	84.69
658.68	84.69
658.883	88.69
659.087	90.69
659.291	88.69
659.494	89.69
659.698	78.69
659.901	78.69
660.105	86.69
660.309	79.69
660.512	83.69
660.716	84.69
660.919	77.69
661.123	71.69
661.326	78.69
661.53	77.69
661.733	74.69
661.936	88.69
662.14	82.69
662.343	93.69
662.546	78.69
662.75	77.69
662.953	91.69
663.156	76.69
663.36	81.69
663.563	74.69
663.766	93.69
663.969	88.69
664.173	74.69
664.376	83.69
664.579	83.69
664.782	73.69
664.985	77.69
665.188	75.69
665.391	66.69
665.594	79.69
665.797	74.69
666	73.69
666.203	71.69
666.406	84.69
666.609	75.69
666.812	77.69
667.015	83.69
667.218	81.69
667.421	80.69
667.624	81.69
667.827	78.69
668.03	72.69
668.232	78.69
668.435	88.69
668.638	73.69
668.841	91.69
669.043	87.69
669.246	75.69
669.449	98.69
669.651	77.69
669.854	86.69
670.057	87.69
670.259	78.69
670.462	82.69
670.665	80.69
670.867	77.69
671.07	82.69
671.272	95.69
671.475	85.69
671.677	82.69
671.88	73.69
672.082	73.69
672.284	72.69
672.487	69.69
672.689	87.69
672.892	73.69
