Data from Location4.07152019.Energy5.Lamp.07192019.3%Agarose_HRD10591_15-23-48-577.txt Node
Date: Fri Jul 19 15:23:48 EDT 2019
User: cochatt
Spectrometer: HR+D1059
Trigger mode: 1
Integration Time (sec): 1.000000E-1
Scans to average: 1
Electric dark correction enabled: true
Nonlinearity correction enabled: false
Boxcar width: 0
XAxis mode: Wavelengths
Number of Pixels in Spectrum: 2048
>>>>>Begin Spectral Data<<<<<
223.165	-23.31
223.4	-23.31
223.635	-23.31
223.869	-14.31
224.104	0.69
224.338	-24.31
224.573	-10.31
224.808	-2.31
225.042	2.69
225.277	0.69
225.511	-16.31
225.746	-11.31
225.98	11.69
226.215	8.69
226.449	10.69
226.683	18.69
226.918	23.69
227.152	24.69
227.387	17.69
227.621	23.69
227.856	35.69
228.09	43.69
228.324	55.69
228.559	31.69
228.793	60.69
229.027	44.69
229.262	67.69
229.496	56.69
229.73	63.69
229.964	73.69
230.199	55.69
230.433	67.69
230.667	72.69
230.901	73.69
231.136	85.69
231.37	95.69
231.604	70.69
231.838	83.69
232.072	79.69
232.306	68.69
232.541	85.69
232.775	81.69
233.009	78.69
233.243	76.69
233.477	77.69
233.711	84.69
233.945	67.69
234.179	81.69
234.413	87.69
234.647	84.69
234.881	86.69
235.115	70.69
235.349	78.69
235.583	79.69
235.817	80.69
236.051	73.69
236.285	70.69
236.519	81.69
236.753	81.69
236.987	68.69
237.221	91.69
237.455	69.69
237.689	73.69
237.922	77.69
238.156	69.69
238.39	50.69
238.624	70.69
238.858	76.69
239.091	81.69
239.325	68.69
239.559	63.69
239.793	78.69
240.027	76.69
240.26	77.69
240.494	68.69
240.728	71.69
240.961	67.69
241.195	73.69
241.429	66.69
241.662	91.69
241.896	62.69
242.13	56.69
242.363	79.69
242.597	69.69
242.83	61.69
243.064	76.69
243.298	81.69
243.531	82.69
243.765	63.69
243.998	74.69
244.232	82.69
244.465	75.69
244.699	85.69
244.932	78.69
245.166	73.69
245.399	62.69
245.633	75.69
245.866	78.69
246.099	72.69
246.333	73.69
246.566	73.69
246.8	76.69
247.033	84.69
247.266	73.69
247.5	62.69
247.733	79.69
247.966	76.69
248.2	79.69
248.433	72.69
248.666	70.69
248.899	69.69
249.133	66.69
249.366	61.69
249.599	84.69
249.832	71.69
250.066	77.69
250.299	78.69
250.532	72.69
250.765	100.69
250.998	79.69
251.231	72.69
251.465	81.69
251.698	70.69
251.931	67.69
252.164	78.69
252.397	95.69
252.63	82.69
252.863	70.69
253.096	65.69
253.329	77.69
253.562	80.69
253.795	86.69
254.028	75.69
254.261	57.69
254.494	75.69
254.727	76.69
254.96	77.69
255.193	79.69
255.426	78.69
255.659	73.69
255.892	72.69
256.124	75.69
256.357	78.69
256.59	76.69
256.823	77.69
257.056	86.69
257.289	62.69
257.521	71.69
257.754	91.69
257.987	63.69
258.22	83.69
258.452	90.69
258.685	71.69
258.918	83.69
259.151	81.69
259.383	73.69
259.616	80.69
259.849	69.69
260.081	80.69
260.314	89.69
260.547	81.69
260.779	85.69
261.012	73.69
261.244	75.69
261.477	59.69
261.71	89.69
261.942	69.69
262.175	83.69
262.407	77.69
262.64	75.69
262.872	78.69
263.105	76.69
263.337	76.69
263.57	80.69
263.802	88.69
264.035	77.69
264.267	62.69
264.499	75.69
264.732	79.69
264.964	71.69
265.197	72.69
265.429	82.69
265.661	84.69
265.894	61.69
266.126	96.69
266.358	70.69
266.591	79.69
266.823	77.69
267.055	81.69
267.287	83.69
267.52	70.69
267.752	71.69
267.984	82.69
268.216	80.69
268.448	80.69
268.681	82.69
268.913	87.69
269.145	70.69
269.377	85.69
269.609	68.69
269.841	86.69
270.073	74.69
270.306	84.69
270.538	82.69
270.77	94.69
271.002	100.69
271.234	83.69
271.466	79.69
271.698	76.69
271.93	87.69
272.162	82.69
272.394	90.69
272.626	77.69
272.858	76.69
273.09	73.69
273.322	80.69
273.553	74.69
273.785	81.69
274.017	76.69
274.249	85.69
274.481	72.69
274.713	84.69
274.945	75.69
275.176	62.69
275.408	63.69
275.64	74.69
275.872	77.69
276.104	93.69
276.335	97.69
276.567	63.69
276.799	78.69
277.031	85.69
277.262	76.69
277.494	84.69
277.726	77.69
277.957	83.69
278.189	80.69
278.421	76.69
278.652	82.69
278.884	83.69
279.115	74.69
279.347	77.69
279.579	74.69
279.81	72.69
280.042	79.69
280.273	91.69
280.505	90.69
280.736	67.69
280.968	75.69
281.199	83.69
281.431	91.69
281.662	96.69
281.894	74.69
282.125	85.69
282.356	80.69
282.588	77.69
282.819	83.69
283.051	68.69
283.282	82.69
283.513	80.69
283.745	86.69
283.976	81.69
284.207	79.69
284.439	88.69
284.67	88.69
284.901	74.69
285.132	81.69
285.364	68.69
285.595	82.69
285.826	67.69
286.057	85.69
286.288	80.69
286.52	83.69
286.751	75.69
286.982	71.69
287.213	72.69
287.444	87.69
287.675	64.69
287.906	84.69
288.138	87.69
288.369	63.69
288.6	77.69
288.831	75.69
289.062	69.69
289.293	76.69
289.524	94.69
289.755	63.69
289.986	70.69
290.217	83.69
290.448	81.69
290.679	84.69
290.91	71.69
291.141	90.69
291.371	80.69
291.602	69.69
291.833	89.69
292.064	73.69
292.295	81.69
292.526	79.69
292.757	76.69
292.987	80.69
293.218	76.69
293.449	70.69
293.68	73.69
293.91	85.69
294.141	80.69
294.372	82.69
294.603	74.69
294.833	103.69
295.064	81.69
295.295	80.69
295.525	81.69
295.756	86.69
295.987	79.69
296.217	77.69
296.448	80.69
296.679	65.69
296.909	76.69
297.14	89.69
297.37	81.69
297.601	54.69
297.831	78.69
298.062	77.69
298.292	92.69
298.523	80.69
298.753	72.69
298.984	77.69
299.214	82.69
299.445	88.69
299.675	95.69
299.905	67.69
300.136	73.69
300.366	82.69
300.597	77.69
300.827	73.69
301.057	89.69
301.288	81.69
301.518	90.69
301.748	82.69
301.979	84.69
302.209	85.69
302.439	94.69
302.669	88.69
302.9	87.69
303.13	73.69
303.36	83.69
303.59	84.69
303.82	86.69
304.051	74.69
304.281	74.69
304.511	65.69
304.741	80.69
304.971	68.69
305.201	74.69
305.431	78.69
305.661	79.69
305.891	82.69
306.121	78.69
306.352	86.69
306.582	64.69
306.812	75.69
307.042	80.69
307.272	90.69
307.502	70.69
307.731	70.69
307.961	79.69
308.191	87.69
308.421	73.69
308.651	83.69
308.881	90.69
309.111	78.69
309.341	81.69
309.571	82.69
309.8	79.69
310.03	75.69
310.26	72.69
310.49	94.69
310.72	83.69
310.949	80.69
311.179	78.69
311.409	77.69
311.639	74.69
311.868	92.69
312.098	73.69
312.328	71.69
312.557	86.69
312.787	70.69
313.017	80.69
313.246	87.69
313.476	68.69
313.706	76.69
313.935	86.69
314.165	72.69
314.394	89.69
314.624	79.69
314.853	89.69
315.083	80.69
315.312	80.69
315.542	80.69
315.771	78.69
316.001	77.69
316.23	79.69
316.46	75.69
316.689	83.69
316.919	89.69
317.148	96.69
317.377	83.69
317.607	81.69
317.836	87.69
318.065	76.69
318.295	89.69
318.524	72.69
318.753	78.69
318.983	76.69
319.212	72.69
319.441	80.69
319.67	87.69
319.9	89.69
320.129	83.69
320.358	72.69
320.587	81.69
320.816	85.69
321.046	90.69
321.275	86.69
321.504	91.69
321.733	69.69
321.962	86.69
322.191	78.69
322.42	80.69
322.649	74.69
322.878	74.69
323.108	81.69
323.337	67.69
323.566	66.69
323.795	77.69
324.024	73.69
324.253	78.69
324.482	70.69
324.71	85.69
324.939	84.69
325.168	78.69
325.397	73.69
325.626	68.69
325.855	91.69
326.084	68.69
326.313	83.69
326.542	68.69
326.77	85.69
326.999	70.69
327.228	78.69
327.457	90.69
327.686	84.69
327.914	80.69
328.143	71.69
328.372	76.69
328.6	76.69
328.829	75.69
329.058	83.69
329.287	78.69
329.515	80.69
329.744	80.69
329.972	87.69
330.201	80.69
330.43	85.69
330.658	87.69
330.887	80.69
331.115	87.69
331.344	72.69
331.572	81.69
331.801	86.69
332.03	82.69
332.258	59.69
332.486	80.69
332.715	85.69
332.943	72.69
333.172	91.69
333.4	81.69
333.629	82.69
333.857	85.69
334.085	78.69
334.314	79.69
334.542	83.69
334.771	76.69
334.999	81.69
335.227	74.69
335.455	88.69
335.684	97.69
335.912	81.69
336.14	89.69
336.369	85.69
336.597	80.69
336.825	77.69
337.053	73.69
337.281	77.69
337.51	85.69
337.738	83.69
337.966	81.69
338.194	83.69
338.422	101.69
338.65	94.69
338.878	77.69
339.106	89.69
339.334	87.69
339.562	72.69
339.79	72.69
340.018	77.69
340.246	70.69
340.474	63.69
340.702	83.69
340.93	81.69
341.158	80.69
341.386	74.69
341.614	80.69
341.842	74.69
342.07	69.69
342.298	77.69
342.526	84.69
342.754	83.69
342.981	83.69
343.209	72.69
343.437	89.69
343.665	79.69
343.893	88.69
344.12	73.69
344.348	81.69
344.576	95.69
344.804	72.69
345.031	71.69
345.259	80.69
345.487	78.69
345.714	76.69
345.942	81.69
346.17	89.69
346.397	80.69
346.625	90.69
346.853	71.69
347.08	77.69
347.308	76.69
347.535	74.69
347.763	70.69
347.99	74.69
348.218	75.69
348.445	87.69
348.673	71.69
348.9	75.69
349.128	87.69
349.355	73.69
349.583	79.69
349.81	103.69
350.037	84.69
350.265	84.69
350.492	77.69
350.72	79.69
350.947	91.69
351.174	87.69
351.402	67.69
351.629	73.69
351.856	77.69
352.083	92.69
352.311	81.69
352.538	77.69
352.765	80.69
352.992	86.69
353.22	80.69
353.447	81.69
353.674	77.69
353.901	89.69
354.128	98.69
354.355	82.69
354.583	78.69
354.81	70.69
355.037	78.69
355.264	80.69
355.491	82.69
355.718	73.69
355.945	79.69
356.172	75.69
356.399	92.69
356.626	75.69
356.853	81.69
357.08	72.69
357.307	74.69
357.534	87.69
357.761	79.69
357.988	82.69
358.215	73.69
358.441	95.69
358.668	77.69
358.895	83.69
359.122	73.69
359.349	77.69
359.576	74.69
359.802	80.69
360.029	76.69
360.256	70.69
360.483	93.69
360.709	92.69
360.936	91.69
361.163	88.69
361.39	81.69
361.616	90.69
361.843	91.69
362.07	80.69
362.296	71.69
362.523	81.69
362.749	78.69
362.976	86.69
363.203	78.69
363.429	74.69
363.656	89.69
363.882	71.69
364.109	80.69
364.335	78.69
364.562	72.69
364.788	74.69
365.015	72.69
365.241	88.69
365.468	80.69
365.694	81.69
365.92	80.69
366.147	79.69
366.373	82.69
366.599	82.69
366.826	79.69
367.052	81.69
367.278	72.69
367.505	80.69
367.731	82.69
367.957	76.69
368.184	78.69
368.41	87.69
368.636	74.69
368.862	73.69
369.089	81.69
369.315	77.69
369.541	79.69
369.767	85.69
369.993	73.69
370.219	76.69
370.445	73.69
370.672	72.69
370.898	80.69
371.124	72.69
371.35	88.69
371.576	79.69
371.802	76.69
372.028	79.69
372.254	78.69
372.48	88.69
372.706	89.69
372.932	97.69
373.158	79.69
373.384	80.69
373.61	77.69
373.835	90.69
374.061	81.69
374.287	77.69
374.513	91.69
374.739	64.69
374.965	87.69
375.191	67.69
375.416	80.69
375.642	87.69
375.868	89.69
376.094	87.69
376.319	88.69
376.545	78.69
376.771	84.69
376.997	83.69
377.222	88.69
377.448	85.69
377.674	81.69
377.899	72.69
378.125	81.69
378.35	85.69
378.576	93.69
378.802	80.69
379.027	71.69
379.253	88.69
379.478	80.69
379.704	79.69
379.929	73.69
380.155	78.69
380.38	82.69
380.606	86.69
380.831	92.69
381.057	90.69
381.282	84.69
381.507	72.69
381.733	84.69
381.958	76.69
382.184	68.69
382.409	89.69
382.634	71.69
382.86	75.69
383.085	76.69
383.31	76.69
383.535	84.69
383.761	74.69
383.986	78.69
384.211	88.69
384.436	88.69
384.662	80.69
384.887	89.69
385.112	76.69
385.337	80.69
385.562	60.69
385.787	75.69
386.013	83.69
386.238	87.69
386.463	94.69
386.688	67.69
386.913	79.69
387.138	83.69
387.363	84.69
387.588	80.69
387.813	83.69
388.038	87.69
388.263	63.69
388.488	101.69
388.713	84.69
388.938	78.69
389.163	84.69
389.387	84.69
389.612	78.69
389.837	82.69
390.062	77.69
390.287	71.69
390.512	76.69
390.736	94.69
390.961	94.69
391.186	89.69
391.411	72.69
391.636	72.69
391.86	76.69
392.085	79.69
392.31	88.69
392.534	93.69
392.759	89.69
392.984	91.69
393.208	89.69
393.433	80.69
393.658	91.69
393.882	87.69
394.107	83.69
394.331	101.69
394.556	85.69
394.78	81.69
395.005	80.69
395.229	77.69
395.454	85.69
395.678	82.69
395.903	68.69
396.127	79.69
396.352	77.69
396.576	87.69
396.801	77.69
397.025	91.69
397.249	83.69
397.474	89.69
397.698	90.69
397.922	86.69
398.147	70.69
398.371	73.69
398.595	76.69
398.82	80.69
399.044	83.69
399.268	71.69
399.492	72.69
399.717	83.69
399.941	82.69
400.165	91.69
400.389	74.69
400.613	86.69
400.837	85.69
401.062	69.69
401.286	85.69
401.51	100.69
401.734	85.69
401.958	77.69
402.182	95.69
402.406	84.69
402.63	79.69
402.854	72.69
403.078	73.69
403.302	80.69
403.526	89.69
403.75	74.69
403.974	93.69
404.198	88.69
404.422	95.69
404.645	78.69
404.869	81.69
405.093	90.69
405.317	80.69
405.541	90.69
405.765	83.69
405.988	94.69
406.212	75.69
406.436	74.69
406.66	97.69
406.883	95.69
407.107	84.69
407.331	87.69
407.555	100.69
407.778	78.69
408.002	90.69
408.226	71.69
408.449	79.69
408.673	102.69
408.896	87.69
409.12	94.69
409.344	92.69
409.567	89.69
409.791	82.69
410.014	98.69
410.238	88.69
410.461	79.69
410.685	86.69
410.908	93.69
411.132	83.69
411.355	88.69
411.578	88.69
411.802	97.69
412.025	77.69
412.249	81.69
412.472	87.69
412.695	94.69
412.919	86.69
413.142	101.69
413.365	89.69
413.589	100.69
413.812	90.69
414.035	99.69
414.258	85.69
414.482	90.69
414.705	80.69
414.928	106.69
415.151	88.69
415.374	81.69
415.597	98.69
415.821	91.69
416.044	105.69
416.267	92.69
416.49	84.69
416.713	94.69
416.936	87.69
417.159	84.69
417.382	81.69
417.605	95.69
417.828	89.69
418.051	77.69
418.274	85.69
418.497	111.69
418.72	84.69
418.943	94.69
419.166	83.69
419.389	85.69
419.611	92.69
419.834	83.69
420.057	98.69
420.28	86.69
420.503	103.69
420.726	91.69
420.948	88.69
421.171	94.69
421.394	82.69
421.617	99.69
421.839	99.69
422.062	88.69
422.285	97.69
422.507	103.69
422.73	89.69
422.953	79.69
423.175	91.69
423.398	93.69
423.621	99.69
423.843	97.69
424.066	85.69
424.288	99.69
424.511	100.69
424.733	97.69
424.956	95.69
425.178	87.69
425.401	80.69
425.623	91.69
425.846	88.69
426.068	91.69
426.291	80.69
426.513	82.69
426.735	91.69
426.958	90.69
427.18	93.69
427.402	81.69
427.625	94.69
427.847	89.69
428.069	92.69
428.292	105.69
428.514	81.69
428.736	95.69
428.958	94.69
429.181	90.69
429.403	83.69
429.625	82.69
429.847	89.69
430.069	79.69
430.292	95.69
430.514	93.69
430.736	86.69
430.958	83.69
431.18	77.69
431.402	89.69
431.624	94.69
431.846	73.69
432.068	86.69
432.29	73.69
432.512	86.69
432.734	96.69
432.956	92.69
433.178	82.69
433.4	101.69
433.622	107.69
433.844	90.69
434.066	84.69
434.287	79.69
434.509	86.69
434.731	78.69
434.953	88.69
435.175	90.69
435.397	101.69
435.618	107.69
435.84	85.69
436.062	87.69
436.284	86.69
436.505	97.69
436.727	99.69
436.949	100.69
437.17	87.69
437.392	89.69
437.614	95.69
437.835	94.69
438.057	91.69
438.278	80.69
438.5	100.69
438.721	77.69
438.943	99.69
439.165	104.69
439.386	91.69
439.608	81.69
439.829	102.69
440.05	88.69
440.272	86.69
440.493	88.69
440.715	96.69
440.936	98.69
441.158	99.69
441.379	96.69
441.6	98.69
441.822	93.69
442.043	104.69
442.264	88.69
442.486	86.69
442.707	95.69
442.928	97.69
443.149	83.69
443.371	110.69
443.592	91.69
443.813	84.69
444.034	96.69
444.255	96.69
444.476	93.69
444.698	99.69
444.919	85.69
445.14	183.69
445.361	121.69
445.582	117.69
445.803	103.69
446.024	93.69
446.245	90.69
446.466	99.69
446.687	110.69
446.908	109.69
447.129	103.69
447.35	92.69
447.571	107.69
447.792	100.69
448.013	105.69
448.234	103.69
448.455	99.69
448.675	91.69
448.896	90.69
449.117	100.69
449.338	80.69
449.559	87.69
449.779	80.69
450	88.69
450.221	104.69
450.442	94.69
450.662	97.69
450.883	86.69
451.104	89.69
451.324	101.69
451.545	88.69
451.766	82.69
451.986	79.69
452.207	88.69
452.428	84.69
452.648	88.69
452.869	100.69
453.089	76.69
453.31	73.69
453.53	83.69
453.751	88.69
453.971	83.69
454.192	89.69
454.412	91.69
454.633	88.69
454.853	86.69
455.073	87.69
455.294	96.69
455.514	97.69
455.734	83.69
455.955	74.69
456.175	83.69
456.395	87.69
456.616	84.69
456.836	89.69
457.056	88.69
457.276	71.69
457.497	88.69
457.717	88.69
457.937	78.69
458.157	85.69
458.377	85.69
458.598	87.69
458.818	88.69
459.038	88.69
459.258	57.69
459.478	82.69
459.698	85.69
459.918	79.69
460.138	86.69
460.358	100.69
460.578	100.69
460.798	91.69
461.018	78.69
461.238	85.69
461.458	87.69
461.678	98.69
461.898	98.69
462.118	87.69
462.338	91.69
462.558	90.69
462.777	104.69
462.997	84.69
463.217	89.69
463.437	98.69
463.657	92.69
463.876	89.69
464.096	82.69
464.316	82.69
464.536	80.69
464.755	90.69
464.975	82.69
465.195	83.69
465.414	82.69
465.634	81.69
465.854	94.69
466.073	85.69
466.293	91.69
466.512	83.69
466.732	92.69
466.951	96.69
467.171	88.69
467.391	86.69
467.61	97.69
467.829	93.69
468.049	99.69
468.268	93.69
468.488	93.69
468.707	97.69
468.927	102.69
469.146	100.69
469.365	93.69
469.585	96.69
469.804	87.69
470.023	88.69
470.243	95.69
470.462	93.69
470.681	118.69
470.901	101.69
471.12	79.69
471.339	96.69
471.558	89.69
471.777	80.69
471.997	90.69
472.216	88.69
472.435	81.69
472.654	70.69
472.873	82.69
473.092	88.69
473.311	93.69
473.53	102.69
473.749	89.69
473.968	91.69
474.187	97.69
474.406	96.69
474.625	81.69
474.844	75.69
475.063	96.69
475.282	100.69
475.501	95.69
475.72	91.69
475.939	88.69
476.158	96.69
476.377	91.69
476.596	89.69
476.814	75.69
477.033	88.69
477.252	78.69
477.471	72.69
477.69	87.69
477.908	100.69
478.127	99.69
478.346	96.69
478.564	96.69
478.783	110.69
479.002	90.69
479.22	89.69
479.439	97.69
479.658	93.69
479.876	88.69
480.095	99.69
480.313	94.69
480.532	86.69
480.751	93.69
480.969	80.69
481.188	69.69
481.406	91.69
481.624	77.69
481.843	76.69
482.061	107.69
482.28	91.69
482.498	85.69
482.717	96.69
482.935	92.69
483.153	90.69
483.372	112.69
483.59	87.69
483.808	87.69
484.027	83.69
484.245	87.69
484.463	88.69
484.681	110.69
484.9	99.69
485.118	91.69
485.336	91.69
485.554	97.69
485.772	89.69
485.99	91.69
486.209	75.69
486.427	75.69
486.645	85.69
486.863	94.69
487.081	96.69
487.299	102.69
487.517	84.69
487.735	93.69
487.953	110.69
488.171	100.69
488.389	104.69
488.607	100.69
488.825	91.69
489.043	87.69
489.261	81.69
489.479	109.69
489.696	91.69
489.914	93.69
490.132	92.69
490.35	104.69
490.568	98.69
490.786	94.69
491.003	104.69
491.221	109.69
491.439	101.69
491.657	106.69
491.874	117.69
492.092	123.69
492.31	135.69
492.527	112.69
492.745	123.69
492.963	107.69
493.18	110.69
493.398	85.69
493.615	100.69
493.833	105.69
494.05	98.69
494.268	116.69
494.485	100.69
494.703	103.69
494.92	113.69
495.138	102.69
495.355	94.69
495.573	104.69
495.79	97.69
496.008	102.69
496.225	90.69
496.442	100.69
496.66	103.69
496.877	99.69
497.094	98.69
497.312	107.69
497.529	99.69
497.746	99.69
497.963	91.69
498.181	99.69
498.398	89.69
498.615	79.69
498.832	83.69
499.049	94.69
499.267	86.69
499.484	82.69
499.701	103.69
499.918	92.69
500.135	99.69
500.352	95.69
500.569	95.69
500.786	99.69
501.003	80.69
501.22	98.69
501.437	89.69
501.654	94.69
501.871	93.69
502.088	98.69
502.305	103.69
502.522	93.69
502.739	89.69
502.956	102.69
503.172	103.69
503.389	79.69
503.606	84.69
503.823	89.69
504.04	81.69
504.256	85.69
504.473	99.69
504.69	89.69
504.907	91.69
505.123	87.69
505.34	95.69
505.557	88.69
505.773	88.69
505.99	87.69
506.207	85.69
506.423	88.69
506.64	81.69
506.856	87.69
507.073	87.69
507.289	85.69
507.506	99.69
507.722	77.69
507.939	94.69
508.155	86.69
508.372	78.69
508.588	91.69
508.805	93.69
509.021	92.69
509.238	91.69
509.454	68.69
509.67	78.69
509.887	66.69
510.103	81.69
510.319	83.69
510.536	80.69
510.752	72.69
510.968	85.69
511.184	72.69
511.401	87.69
511.617	82.69
511.833	91.69
512.049	90.69
512.265	92.69
512.481	87.69
512.698	94.69
512.914	91.69
513.13	85.69
513.346	98.69
513.562	91.69
513.778	85.69
513.994	82.69
514.21	98.69
514.426	90.69
514.642	90.69
514.858	83.69
515.074	87.69
515.29	75.69
515.506	81.69
515.721	84.69
515.937	90.69
516.153	74.69
516.369	80.69
516.585	81.69
516.801	92.69
517.016	92.69
517.232	94.69
517.448	87.69
517.664	81.69
517.879	87.69
518.095	74.69
518.311	79.69
518.527	92.69
518.742	85.69
518.958	85.69
519.173	89.69
519.389	99.69
519.605	96.69
519.82	94.69
520.036	83.69
520.251	87.69
520.467	88.69
520.682	92.69
520.898	87.69
521.113	77.69
521.329	68.69
521.544	85.69
521.76	75.69
521.975	86.69
522.19	73.69
522.406	84.69
522.621	85.69
522.836	87.69
523.052	102.69
523.267	84.69
523.482	83.69
523.698	84.69
523.913	73.69
524.128	100.69
524.343	92.69
524.559	85.69
524.774	89.69
524.989	85.69
525.204	85.69
525.419	82.69
525.634	100.69
525.849	89.69
526.064	85.69
526.28	110.69
526.495	81.69
526.71	83.69
526.925	73.69
527.14	66.69
527.355	76.69
527.57	85.69
527.785	75.69
527.999	77.69
528.214	82.69
528.429	86.69
528.644	98.69
528.859	102.69
529.074	92.69
529.289	100.69
529.503	93.69
529.718	83.69
529.933	98.69
530.148	80.69
530.363	82.69
530.577	72.69
530.792	92.69
531.007	69.69
531.221	85.69
531.436	56.69
531.651	75.69
531.865	73.69
532.08	80.69
532.295	82.69
532.509	79.69
532.724	81.69
532.938	88.69
533.153	71.69
533.367	81.69
533.582	93.69
533.796	93.69
534.011	83.69
534.225	70.69
534.44	81.69
534.654	97.69
534.868	76.69
535.083	87.69
535.297	88.69
535.511	84.69
535.726	103.69
535.94	85.69
536.154	89.69
536.369	84.69
536.583	86.69
536.797	84.69
537.011	74.69
537.225	68.69
537.44	80.69
537.654	81.69
537.868	82.69
538.082	77.69
538.296	68.69
538.51	85.69
538.724	93.69
538.938	91.69
539.153	95.69
539.367	91.69
539.581	77.69
539.795	98.69
540.009	95.69
540.222	90.69
540.436	80.69
540.65	77.69
540.864	69.69
541.078	95.69
541.292	106.69
541.506	120.69
541.72	120.69
541.934	111.69
542.147	105.69
542.361	120.69
542.575	111.69
542.789	107.69
543.002	79.69
543.216	86.69
543.43	92.69
543.644	94.69
543.857	78.69
544.071	110.69
544.285	119.69
544.498	98.69
544.712	112.69
544.925	109.69
545.139	119.69
545.352	110.69
545.566	100.69
545.779	107.69
545.993	97.69
546.206	95.69
546.42	100.69
546.633	102.69
546.847	103.69
547.06	110.69
547.274	113.69
547.487	101.69
547.7	116.69
547.914	107.69
548.127	77.69
548.34	100.69
548.554	86.69
548.767	103.69
548.98	100.69
549.193	103.69
549.407	96.69
549.62	94.69
549.833	107.69
550.046	84.69
550.259	79.69
550.473	105.69
550.686	97.69
550.899	94.69
551.112	92.69
551.325	87.69
551.538	95.69
551.751	76.69
551.964	86.69
552.177	102.69
552.39	84.69
552.603	105.69
552.816	98.69
553.029	98.69
553.242	107.69
553.455	104.69
553.667	107.69
553.88	111.69
554.093	102.69
554.306	99.69
554.519	104.69
554.732	104.69
554.944	96.69
555.157	105.69
555.37	83.69
555.583	81.69
555.795	99.69
556.008	84.69
556.221	90.69
556.433	109.69
556.646	91.69
556.859	98.69
557.071	99.69
557.284	100.69
557.496	82.69
557.709	92.69
557.921	92.69
558.134	85.69
558.346	91.69
558.559	88.69
558.771	85.69
558.984	99.69
559.196	91.69
559.409	96.69
559.621	109.69
559.833	97.69
560.046	102.69
560.258	94.69
560.47	88.69
560.683	104.69
560.895	92.69
561.107	93.69
561.32	93.69
561.532	86.69
561.744	88.69
561.956	95.69
562.168	98.69
562.381	91.69
562.593	92.69
562.805	83.69
563.017	88.69
563.229	99.69
563.441	98.69
563.653	113.69
563.865	112.69
564.077	94.69
564.289	93.69
564.501	83.69
564.713	91.69
564.925	78.69
565.137	88.69
565.349	92.69
565.561	81.69
565.773	96.69
565.985	99.69
566.197	87.69
566.408	89.69
566.62	91.69
566.832	85.69
567.044	100.69
567.255	89.69
567.467	96.69
567.679	80.69
567.891	73.69
568.102	92.69
568.314	93.69
568.526	91.69
568.737	83.69
568.949	73.69
569.161	89.69
569.372	86.69
569.584	77.69
569.795	89.69
570.007	87.69
570.218	85.69
570.43	80.69
570.641	68.69
570.853	84.69
571.064	89.69
571.276	97.69
571.487	76.69
571.698	85.69
571.91	82.69
572.121	80.69
572.333	88.69
572.544	82.69
572.755	85.69
572.966	90.69
573.178	86.69
573.389	89.69
573.6	90.69
573.811	75.69
574.023	74.69
574.234	84.69
574.445	72.69
574.656	91.69
574.867	78.69
575.078	77.69
575.289	89.69
575.501	85.69
575.712	78.69
575.923	76.69
576.134	76.69
576.345	80.69
576.556	93.69
576.767	76.69
576.978	88.69
577.188	86.69
577.399	74.69
577.61	80.69
577.821	95.69
578.032	95.69
578.243	70.69
578.454	100.69
578.665	74.69
578.875	86.69
579.086	77.69
579.297	72.69
579.508	66.69
579.718	79.69
579.929	73.69
580.14	89.69
580.35	90.69
580.561	73.69
580.772	102.69
580.982	73.69
581.193	83.69
581.403	85.69
581.614	87.69
581.825	91.69
582.035	86.69
582.246	89.69
582.456	80.69
582.667	78.69
582.877	91.69
583.087	94.69
583.298	98.69
583.508	84.69
583.719	85.69
583.929	88.69
584.139	82.69
584.35	75.69
584.56	83.69
584.77	76.69
584.981	78.69
585.191	79.69
585.401	76.69
585.611	71.69
585.821	76.69
586.032	89.69
586.242	74.69
586.452	93.69
586.662	76.69
586.872	79.69
587.082	91.69
587.292	86.69
587.502	76.69
587.713	77.69
587.923	100.69
588.133	71.69
588.343	64.69
588.553	76.69
588.762	85.69
588.972	85.69
589.182	90.69
589.392	75.69
589.602	81.69
589.812	84.69
590.022	81.69
590.232	82.69
590.441	79.69
590.651	73.69
590.861	78.69
591.071	74.69
591.281	73.69
591.49	75.69
591.7	84.69
591.91	82.69
592.119	80.69
592.329	88.69
592.539	80.69
592.748	96.69
592.958	80.69
593.167	86.69
593.377	81.69
593.587	89.69
593.796	78.69
594.006	81.69
594.215	87.69
594.424	67.69
594.634	74.69
594.843	94.69
595.053	73.69
595.262	74.69
595.472	74.69
595.681	93.69
595.89	89.69
596.1	87.69
596.309	92.69
596.518	84.69
596.727	79.69
596.937	83.69
597.146	79.69
597.355	87.69
597.564	72.69
597.774	83.69
597.983	92.69
598.192	84.69
598.401	74.69
598.61	75.69
598.819	79.69
599.028	79.69
599.237	90.69
599.446	97.69
599.655	78.69
599.864	86.69
600.073	82.69
600.282	72.69
600.491	90.69
600.7	75.69
600.909	95.69
601.118	90.69
601.327	88.69
601.536	90.69
601.745	86.69
601.953	95.69
602.162	87.69
602.371	86.69
602.58	85.69
602.789	77.69
602.997	87.69
603.206	84.69
603.415	77.69
603.623	98.69
603.832	86.69
604.041	92.69
604.249	96.69
604.458	73.69
604.666	72.69
604.875	76.69
605.084	85.69
605.292	109.69
605.501	85.69
605.709	90.69
605.918	87.69
606.126	65.69
606.334	84.69
606.543	86.69
606.751	73.69
606.96	100.69
607.168	85.69
607.376	100.69
607.585	73.69
607.793	77.69
608.001	66.69
608.21	73.69
608.418	78.69
608.626	86.69
608.834	77.69
609.043	96.69
609.251	96.69
609.459	79.69
609.667	94.69
609.875	95.69
610.083	94.69
610.291	89.69
610.499	90.69
610.707	89.69
610.916	93.69
611.124	93.69
611.332	91.69
611.54	85.69
611.748	97.69
611.955	90.69
612.163	91.69
612.371	92.69
612.579	96.69
612.787	90.69
612.995	84.69
613.203	88.69
613.411	94.69
613.618	78.69
613.826	73.69
614.034	84.69
614.242	91.69
614.449	89.69
614.657	83.69
614.865	83.69
615.072	85.69
615.28	84.69
615.488	81.69
615.695	81.69
615.903	80.69
616.111	85.69
616.318	102.69
616.526	86.69
616.733	99.69
616.941	89.69
617.148	96.69
617.356	84.69
617.563	86.69
617.771	85.69
617.978	76.69
618.185	83.69
618.393	93.69
618.6	88.69
618.807	90.69
619.015	79.69
619.222	78.69
619.429	84.69
619.637	90.69
619.844	75.69
620.051	83.69
620.258	94.69
620.466	78.69
620.673	89.69
620.88	88.69
621.087	85.69
621.294	99.69
621.501	96.69
621.708	81.69
621.915	62.69
622.122	63.69
622.329	88.69
622.536	89.69
622.743	96.69
622.95	71.69
623.157	90.69
623.364	73.69
623.571	88.69
623.778	84.69
623.985	92.69
624.192	85.69
624.399	78.69
624.606	82.69
624.812	89.69
625.019	85.69
625.226	77.69
625.433	78.69
625.639	91.69
625.846	81.69
626.053	88.69
626.259	85.69
626.466	79.69
626.673	80.69
626.879	84.69
627.086	78.69
627.293	79.69
627.499	85.69
627.706	80.69
627.912	82.69
628.119	93.69
628.325	95.69
628.532	84.69
628.738	89.69
628.945	96.69
629.151	92.69
629.357	75.69
629.564	86.69
629.77	93.69
629.976	84.69
630.183	71.69
630.389	84.69
630.595	79.69
630.802	82.69
631.008	79.69
631.214	88.69
631.42	91.69
631.627	96.69
631.833	93.69
632.039	96.69
632.245	86.69
632.451	64.69
632.657	103.69
632.863	75.69
633.069	87.69
633.275	85.69
633.481	87.69
633.688	80.69
633.893	89.69
634.099	86.69
634.305	87.69
634.511	94.69
634.717	100.69
634.923	79.69
635.129	67.69
635.335	83.69
635.541	81.69
635.747	88.69
635.952	88.69
636.158	76.69
636.364	74.69
636.57	98.69
636.775	80.69
636.981	87.69
637.187	77.69
637.392	77.69
637.598	85.69
637.804	91.69
638.009	79.69
638.215	95.69
638.421	75.69
638.626	91.69
638.832	79.69
639.037	85.69
639.243	93.69
639.448	88.69
639.654	82.69
639.859	75.69
640.065	77.69
640.27	96.69
640.475	89.69
640.681	81.69
640.886	83.69
641.091	93.69
641.297	83.69
641.502	86.69
641.707	82.69
641.913	80.69
642.118	69.69
642.323	88.69
642.528	96.69
642.733	72.69
642.939	79.69
643.144	91.69
643.349	89.69
643.554	88.69
643.759	78.69
643.964	85.69
644.169	79.69
644.374	81.69
644.579	91.69
644.784	78.69
644.989	73.69
645.194	76.69
645.399	89.69
645.604	82.69
645.809	98.69
646.014	91.69
646.219	88.69
646.423	75.69
646.628	86.69
646.833	84.69
647.038	85.69
647.243	83.69
647.447	76.69
647.652	81.69
647.857	88.69
648.062	93.69
648.266	96.69
648.471	78.69
648.676	76.69
648.88	81.69
649.085	72.69
649.289	89.69
649.494	93.69
649.698	100.69
649.903	70.69
650.107	97.69
650.312	82.69
650.516	93.69
650.721	84.69
650.925	96.69
651.13	91.69
651.334	80.69
651.539	84.69
651.743	73.69
651.947	94.69
652.152	86.69
652.356	86.69
652.56	91.69
652.764	92.69
652.969	79.69
653.173	67.69
653.377	79.69
653.581	76.69
653.785	87.69
653.99	79.69
654.194	77.69
654.398	82.69
654.602	83.69
654.806	88.69
655.01	82.69
655.214	79.69
655.418	73.69
655.622	80.69
655.826	85.69
656.03	85.69
656.234	92.69
656.438	89.69
656.642	76.69
656.846	87.69
657.049	97.69
657.253	61.69
657.457	90.69
657.661	79.69
657.865	79.69
658.068	75.69
658.272	92.69
658.476	84.69
658.68	76.69
658.883	65.69
659.087	74.69
659.291	76.69
659.494	84.69
659.698	72.69
659.901	75.69
660.105	81.69
660.309	67.69
660.512	77.69
660.716	80.69
660.919	80.69
661.123	85.69
661.326	76.69
661.53	79.69
661.733	81.69
661.936	76.69
662.14	89.69
662.343	94.69
662.546	95.69
662.75	79.69
662.953	93.69
663.156	80.69
663.36	87.69
663.563	77.69
663.766	79.69
663.969	81.69
664.173	75.69
664.376	80.69
664.579	86.69
664.782	61.69
664.985	63.69
665.188	85.69
665.391	65.69
665.594	79.69
665.797	80.69
666	96.69
666.203	80.69
666.406	72.69
666.609	73.69
666.812	87.69
667.015	79.69
667.218	83.69
667.421	88.69
667.624	81.69
667.827	71.69
668.03	66.69
668.232	80.69
668.435	88.69
668.638	71.69
668.841	63.69
669.043	69.69
669.246	70.69
669.449	83.69
669.651	73.69
669.854	74.69
670.057	77.69
670.259	76.69
670.462	66.69
670.665	74.69
670.867	74.69
671.07	68.69
671.272	76.69
671.475	91.69
671.677	56.69
671.88	62.69
672.082	70.69
672.284	68.69
672.487	75.69
672.689	80.69
672.892	78.69
