Data from Location4.07152019.Energy5.Lamp.07192019.3%Agarose_HRD10591_15-25-22-578.txt Node
Date: Fri Jul 19 15:25:22 EDT 2019
User: cochatt
Spectrometer: HR+D1059
Trigger mode: 1
Integration Time (sec): 1.000000E-1
Scans to average: 1
Electric dark correction enabled: true
Nonlinearity correction enabled: false
Boxcar width: 0
XAxis mode: Wavelengths
Number of Pixels in Spectrum: 2048
>>>>>Begin Spectral Data<<<<<
223.165	-4.94
223.4	-4.94
223.635	-4.94
223.869	-21.94
224.104	-8.94
224.338	-17.94
224.573	-8.94
224.808	-25.94
225.042	-9.94
225.277	-3.94
225.511	-22.94
225.746	17.06
225.98	21.06
226.215	5.06
226.449	11.06
226.683	25.06
226.918	19.06
227.152	27.06
227.387	30.06
227.621	17.06
227.856	43.06
228.09	53.06
228.324	65.06
228.559	52.06
228.793	54.06
229.027	56.06
229.262	66.06
229.496	73.06
229.73	71.06
229.964	62.06
230.199	56.06
230.433	90.06
230.667	65.06
230.901	77.06
231.136	83.06
231.37	83.06
231.604	76.06
231.838	80.06
232.072	90.06
232.306	85.06
232.541	90.06
232.775	85.06
233.009	79.06
233.243	87.06
233.477	88.06
233.711	87.06
233.945	86.06
234.179	69.06
234.413	61.06
234.647	87.06
234.881	86.06
235.115	75.06
235.349	75.06
235.583	78.06
235.817	88.06
236.051	88.06
236.285	88.06
236.519	76.06
236.753	87.06
236.987	92.06
237.221	79.06
237.455	89.06
237.689	73.06
237.922	81.06
238.156	93.06
238.39	69.06
238.624	77.06
238.858	79.06
239.091	69.06
239.325	87.06
239.559	73.06
239.793	78.06
240.027	80.06
240.26	81.06
240.494	78.06
240.728	73.06
240.961	75.06
241.195	81.06
241.429	82.06
241.662	74.06
241.896	83.06
242.13	94.06
242.363	66.06
242.597	77.06
242.83	86.06
243.064	65.06
243.298	75.06
243.531	83.06
243.765	75.06
243.998	75.06
244.232	80.06
244.465	84.06
244.699	82.06
244.932	89.06
245.166	85.06
245.399	87.06
245.633	78.06
245.866	94.06
246.099	71.06
246.333	84.06
246.566	77.06
246.8	68.06
247.033	73.06
247.266	62.06
247.5	78.06
247.733	57.06
247.966	83.06
248.2	83.06
248.433	76.06
248.666	73.06
248.899	91.06
249.133	76.06
249.366	71.06
249.599	91.06
249.832	78.06
250.066	91.06
250.299	84.06
250.532	81.06
250.765	73.06
250.998	72.06
251.231	73.06
251.465	94.06
251.698	79.06
251.931	86.06
252.164	92.06
252.397	82.06
252.63	90.06
252.863	76.06
253.096	57.06
253.329	84.06
253.562	83.06
253.795	85.06
254.028	87.06
254.261	82.06
254.494	81.06
254.727	87.06
254.96	83.06
255.193	77.06
255.426	98.06
255.659	78.06
255.892	78.06
256.124	77.06
256.357	89.06
256.59	94.06
256.823	78.06
257.056	87.06
257.289	89.06
257.521	98.06
257.754	92.06
257.987	74.06
258.22	90.06
258.452	67.06
258.685	92.06
258.918	85.06
259.151	94.06
259.383	89.06
259.616	95.06
259.849	76.06
260.081	92.06
260.314	88.06
260.547	84.06
260.779	73.06
261.012	81.06
261.244	78.06
261.477	81.06
261.71	79.06
261.942	75.06
262.175	74.06
262.407	73.06
262.64	92.06
262.872	99.06
263.105	90.06
263.337	91.06
263.57	92.06
263.802	90.06
264.035	93.06
264.267	91.06
264.499	69.06
264.732	85.06
264.964	99.06
265.197	82.06
265.429	82.06
265.661	81.06
265.894	89.06
266.126	80.06
266.358	79.06
266.591	90.06
266.823	68.06
267.055	87.06
267.287	89.06
267.52	82.06
267.752	86.06
267.984	92.06
268.216	88.06
268.448	71.06
268.681	80.06
268.913	75.06
269.145	81.06
269.377	105.06
269.609	98.06
269.841	87.06
270.073	101.06
270.306	79.06
270.538	92.06
270.77	71.06
271.002	82.06
271.234	88.06
271.466	99.06
271.698	89.06
271.93	93.06
272.162	77.06
272.394	84.06
272.626	86.06
272.858	79.06
273.09	82.06
273.322	76.06
273.553	86.06
273.785	80.06
274.017	79.06
274.249	80.06
274.481	86.06
274.713	79.06
274.945	80.06
275.176	79.06
275.408	82.06
275.64	87.06
275.872	75.06
276.104	86.06
276.335	91.06
276.567	78.06
276.799	83.06
277.031	62.06
277.262	88.06
277.494	86.06
277.726	92.06
277.957	77.06
278.189	99.06
278.421	69.06
278.652	86.06
278.884	90.06
279.115	84.06
279.347	76.06
279.579	93.06
279.81	95.06
280.042	87.06
280.273	93.06
280.505	98.06
280.736	84.06
280.968	90.06
281.199	90.06
281.431	76.06
281.662	94.06
281.894	91.06
282.125	92.06
282.356	81.06
282.588	86.06
282.819	110.06
283.051	80.06
283.282	79.06
283.513	98.06
283.745	86.06
283.976	78.06
284.207	85.06
284.439	86.06
284.67	95.06
284.901	87.06
285.132	80.06
285.364	97.06
285.595	84.06
285.826	103.06
286.057	85.06
286.288	88.06
286.52	85.06
286.751	90.06
286.982	72.06
287.213	84.06
287.444	89.06
287.675	102.06
287.906	83.06
288.138	100.06
288.369	84.06
288.6	79.06
288.831	91.06
289.062	80.06
289.293	89.06
289.524	84.06
289.755	85.06
289.986	88.06
290.217	77.06
290.448	73.06
290.679	82.06
290.91	92.06
291.141	91.06
291.371	99.06
291.602	74.06
291.833	77.06
292.064	77.06
292.295	83.06
292.526	85.06
292.757	91.06
292.987	86.06
293.218	87.06
293.449	84.06
293.68	72.06
293.91	79.06
294.141	94.06
294.372	82.06
294.603	89.06
294.833	85.06
295.064	82.06
295.295	73.06
295.525	87.06
295.756	77.06
295.987	90.06
296.217	84.06
296.448	91.06
296.679	99.06
296.909	86.06
297.14	66.06
297.37	79.06
297.601	97.06
297.831	85.06
298.062	103.06
298.292	93.06
298.523	89.06
298.753	92.06
298.984	81.06
299.214	76.06
299.445	75.06
299.675	82.06
299.905	89.06
300.136	93.06
300.366	95.06
300.597	92.06
300.827	87.06
301.057	89.06
301.288	87.06
301.518	92.06
301.748	86.06
301.979	94.06
302.209	84.06
302.439	76.06
302.669	80.06
302.9	86.06
303.13	91.06
303.36	100.06
303.59	86.06
303.82	75.06
304.051	87.06
304.281	93.06
304.511	94.06
304.741	99.06
304.971	83.06
305.201	97.06
305.431	78.06
305.661	85.06
305.891	76.06
306.121	107.06
306.352	92.06
306.582	84.06
306.812	97.06
307.042	103.06
307.272	97.06
307.502	93.06
307.731	87.06
307.961	89.06
308.191	83.06
308.421	87.06
308.651	83.06
308.881	99.06
309.111	87.06
309.341	86.06
309.571	78.06
309.8	98.06
310.03	99.06
310.26	92.06
310.49	89.06
310.72	78.06
310.949	85.06
311.179	91.06
311.409	76.06
311.639	97.06
311.868	104.06
312.098	86.06
312.328	83.06
312.557	87.06
312.787	84.06
313.017	79.06
313.246	89.06
313.476	90.06
313.706	86.06
313.935	87.06
314.165	105.06
314.394	93.06
314.624	87.06
314.853	92.06
315.083	96.06
315.312	87.06
315.542	72.06
315.771	85.06
316.001	88.06
316.23	94.06
316.46	94.06
316.689	86.06
316.919	82.06
317.148	93.06
317.377	76.06
317.607	90.06
317.836	75.06
318.065	94.06
318.295	91.06
318.524	85.06
318.753	80.06
318.983	92.06
319.212	98.06
319.441	80.06
319.67	92.06
319.9	89.06
320.129	78.06
320.358	81.06
320.587	92.06
320.816	84.06
321.046	73.06
321.275	87.06
321.504	89.06
321.733	95.06
321.962	82.06
322.191	82.06
322.42	93.06
322.649	94.06
322.878	88.06
323.108	90.06
323.337	92.06
323.566	78.06
323.795	85.06
324.024	91.06
324.253	86.06
324.482	81.06
324.71	71.06
324.939	90.06
325.168	80.06
325.397	85.06
325.626	90.06
325.855	69.06
326.084	94.06
326.313	93.06
326.542	75.06
326.77	88.06
326.999	76.06
327.228	83.06
327.457	73.06
327.686	80.06
327.914	99.06
328.143	91.06
328.372	91.06
328.6	79.06
328.829	92.06
329.058	89.06
329.287	89.06
329.515	91.06
329.744	103.06
329.972	78.06
330.201	87.06
330.43	82.06
330.658	83.06
330.887	98.06
331.115	86.06
331.344	81.06
331.572	71.06
331.801	86.06
332.03	87.06
332.258	114.06
332.486	89.06
332.715	81.06
332.943	91.06
333.172	74.06
333.4	99.06
333.629	74.06
333.857	83.06
334.085	78.06
334.314	79.06
334.542	78.06
334.771	93.06
334.999	102.06
335.227	82.06
335.455	82.06
335.684	89.06
335.912	86.06
336.14	80.06
336.369	79.06
336.597	92.06
336.825	117.06
337.053	94.06
337.281	70.06
337.51	77.06
337.738	86.06
337.966	82.06
338.194	79.06
338.422	87.06
338.65	80.06
338.878	87.06
339.106	94.06
339.334	85.06
339.562	95.06
339.79	93.06
340.018	82.06
340.246	74.06
340.474	81.06
340.702	89.06
340.93	87.06
341.158	72.06
341.386	82.06
341.614	76.06
341.842	82.06
342.07	75.06
342.298	84.06
342.526	94.06
342.754	90.06
342.981	90.06
343.209	100.06
343.437	83.06
343.665	85.06
343.893	90.06
344.12	79.06
344.348	85.06
344.576	97.06
344.804	83.06
345.031	99.06
345.259	86.06
345.487	106.06
345.714	84.06
345.942	93.06
346.17	91.06
346.397	77.06
346.625	103.06
346.853	86.06
347.08	85.06
347.308	100.06
347.535	81.06
347.763	81.06
347.99	97.06
348.218	89.06
348.445	89.06
348.673	79.06
348.9	93.06
349.128	71.06
349.355	81.06
349.583	87.06
349.81	98.06
350.037	86.06
350.265	85.06
350.492	110.06
350.72	91.06
350.947	90.06
351.174	79.06
351.402	77.06
351.629	82.06
351.856	81.06
352.083	87.06
352.311	86.06
352.538	77.06
352.765	79.06
352.992	85.06
353.22	83.06
353.447	69.06
353.674	77.06
353.901	83.06
354.128	79.06
354.355	94.06
354.583	91.06
354.81	82.06
355.037	72.06
355.264	81.06
355.491	85.06
355.718	77.06
355.945	79.06
356.172	76.06
356.399	85.06
356.626	81.06
356.853	78.06
357.08	89.06
357.307	85.06
357.534	88.06
357.761	83.06
357.988	98.06
358.215	78.06
358.441	92.06
358.668	73.06
358.895	78.06
359.122	85.06
359.349	88.06
359.576	91.06
359.802	86.06
360.029	85.06
360.256	78.06
360.483	94.06
360.709	86.06
360.936	91.06
361.163	87.06
361.39	80.06
361.616	77.06
361.843	75.06
362.07	87.06
362.296	92.06
362.523	75.06
362.749	97.06
362.976	86.06
363.203	87.06
363.429	92.06
363.656	76.06
363.882	88.06
364.109	91.06
364.335	97.06
364.562	72.06
364.788	83.06
365.015	91.06
365.241	83.06
365.468	66.06
365.694	83.06
365.92	90.06
366.147	80.06
366.373	95.06
366.599	78.06
366.826	92.06
367.052	83.06
367.278	97.06
367.505	102.06
367.731	85.06
367.957	92.06
368.184	86.06
368.41	74.06
368.636	86.06
368.862	103.06
369.089	94.06
369.315	87.06
369.541	89.06
369.767	79.06
369.993	83.06
370.219	85.06
370.445	75.06
370.672	94.06
370.898	86.06
371.124	85.06
371.35	86.06
371.576	89.06
371.802	67.06
372.028	89.06
372.254	85.06
372.48	80.06
372.706	74.06
372.932	78.06
373.158	74.06
373.384	82.06
373.61	80.06
373.835	84.06
374.061	94.06
374.287	84.06
374.513	74.06
374.739	100.06
374.965	90.06
375.191	85.06
375.416	78.06
375.642	82.06
375.868	82.06
376.094	85.06
376.319	92.06
376.545	89.06
376.771	79.06
376.997	79.06
377.222	83.06
377.448	90.06
377.674	82.06
377.899	82.06
378.125	76.06
378.35	92.06
378.576	100.06
378.802	78.06
379.027	87.06
379.253	94.06
379.478	89.06
379.704	89.06
379.929	78.06
380.155	85.06
380.38	75.06
380.606	85.06
380.831	71.06
381.057	92.06
381.282	82.06
381.507	90.06
381.733	72.06
381.958	87.06
382.184	76.06
382.409	82.06
382.634	90.06
382.86	87.06
383.085	80.06
383.31	87.06
383.535	97.06
383.761	104.06
383.986	82.06
384.211	86.06
384.436	88.06
384.662	101.06
384.887	85.06
385.112	80.06
385.337	86.06
385.562	79.06
385.787	88.06
386.013	94.06
386.238	98.06
386.463	79.06
386.688	70.06
386.913	82.06
387.138	88.06
387.363	73.06
387.588	86.06
387.813	87.06
388.038	88.06
388.263	92.06
388.488	93.06
388.713	95.06
388.938	88.06
389.163	91.06
389.387	90.06
389.612	82.06
389.837	83.06
390.062	101.06
390.287	95.06
390.512	91.06
390.736	93.06
390.961	89.06
391.186	79.06
391.411	102.06
391.636	95.06
391.86	83.06
392.085	100.06
392.31	83.06
392.534	91.06
392.759	86.06
392.984	90.06
393.208	90.06
393.433	95.06
393.658	107.06
393.882	84.06
394.107	87.06
394.331	95.06
394.556	79.06
394.78	88.06
395.005	84.06
395.229	94.06
395.454	95.06
395.678	82.06
395.903	94.06
396.127	71.06
396.352	78.06
396.576	104.06
396.801	86.06
397.025	91.06
397.249	101.06
397.474	89.06
397.698	93.06
397.922	100.06
398.147	79.06
398.371	83.06
398.595	86.06
398.82	96.06
399.044	97.06
399.268	99.06
399.492	93.06
399.717	87.06
399.941	91.06
400.165	90.06
400.389	99.06
400.613	81.06
400.837	87.06
401.062	93.06
401.286	108.06
401.51	97.06
401.734	83.06
401.958	94.06
402.182	95.06
402.406	93.06
402.63	83.06
402.854	80.06
403.078	83.06
403.302	83.06
403.526	110.06
403.75	95.06
403.974	106.06
404.198	93.06
404.422	93.06
404.645	95.06
404.869	101.06
405.093	83.06
405.317	97.06
405.541	93.06
405.765	100.06
405.988	79.06
406.212	101.06
406.436	84.06
406.66	87.06
406.883	81.06
407.107	94.06
407.331	85.06
407.555	77.06
407.778	78.06
408.002	79.06
408.226	96.06
408.449	86.06
408.673	75.06
408.896	88.06
409.12	98.06
409.344	87.06
409.567	93.06
409.791	76.06
410.014	91.06
410.238	102.06
410.461	95.06
410.685	101.06
410.908	105.06
411.132	93.06
411.355	96.06
411.578	86.06
411.802	77.06
412.025	89.06
412.249	84.06
412.472	94.06
412.695	89.06
412.919	106.06
413.142	101.06
413.365	84.06
413.589	80.06
413.812	79.06
414.035	94.06
414.258	82.06
414.482	76.06
414.705	92.06
414.928	97.06
415.151	101.06
415.374	102.06
415.597	103.06
415.821	102.06
416.044	72.06
416.267	87.06
416.49	93.06
416.713	101.06
416.936	87.06
417.159	99.06
417.382	101.06
417.605	103.06
417.828	112.06
418.051	94.06
418.274	87.06
418.497	94.06
418.72	75.06
418.943	88.06
419.166	108.06
419.389	94.06
419.611	99.06
419.834	94.06
420.057	90.06
420.28	97.06
420.503	101.06
420.726	95.06
420.948	94.06
421.171	94.06
421.394	85.06
421.617	101.06
421.839	119.06
422.062	109.06
422.285	85.06
422.507	96.06
422.73	87.06
422.953	95.06
423.175	81.06
423.398	87.06
423.621	106.06
423.843	94.06
424.066	101.06
424.288	108.06
424.511	94.06
424.733	105.06
424.956	99.06
425.178	98.06
425.401	102.06
425.623	96.06
425.846	110.06
426.068	104.06
426.291	101.06
426.513	99.06
426.735	102.06
426.958	94.06
427.18	102.06
427.402	84.06
427.625	92.06
427.847	78.06
428.069	96.06
428.292	93.06
428.514	95.06
428.736	89.06
428.958	85.06
429.181	82.06
429.403	98.06
429.625	93.06
429.847	88.06
430.069	99.06
430.292	95.06
430.514	103.06
430.736	91.06
430.958	93.06
431.18	79.06
431.402	101.06
431.624	92.06
431.846	93.06
432.068	92.06
432.29	90.06
432.512	84.06
432.734	94.06
432.956	99.06
433.178	113.06
433.4	97.06
433.622	87.06
433.844	94.06
434.066	89.06
434.287	99.06
434.509	102.06
434.731	80.06
434.953	76.06
435.175	92.06
435.397	101.06
435.618	92.06
435.84	91.06
436.062	78.06
436.284	98.06
436.505	109.06
436.727	84.06
436.949	97.06
437.17	91.06
437.392	94.06
437.614	96.06
437.835	91.06
438.057	85.06
438.278	75.06
438.5	87.06
438.721	102.06
438.943	110.06
439.165	86.06
439.386	95.06
439.608	103.06
439.829	97.06
440.05	92.06
440.272	100.06
440.493	104.06
440.715	97.06
440.936	98.06
441.158	109.06
441.379	93.06
441.6	101.06
441.822	99.06
442.043	84.06
442.264	85.06
442.486	86.06
442.707	91.06
442.928	84.06
443.149	91.06
443.371	107.06
443.592	100.06
443.813	106.06
444.034	117.06
444.255	109.06
444.476	97.06
444.698	101.06
444.919	108.06
445.14	231.06
445.361	151.06
445.582	93.06
445.803	102.06
446.024	102.06
446.245	88.06
446.466	109.06
446.687	93.06
446.908	89.06
447.129	99.06
447.35	105.06
447.571	100.06
447.792	91.06
448.013	98.06
448.234	99.06
448.455	79.06
448.675	95.06
448.896	97.06
449.117	115.06
449.338	92.06
449.559	101.06
449.779	101.06
450	93.06
450.221	93.06
450.442	99.06
450.662	95.06
450.883	90.06
451.104	102.06
451.324	90.06
451.545	94.06
451.766	82.06
451.986	97.06
452.207	104.06
452.428	103.06
452.648	99.06
452.869	101.06
453.089	100.06
453.31	93.06
453.53	95.06
453.751	88.06
453.971	95.06
454.192	84.06
454.412	99.06
454.633	85.06
454.853	93.06
455.073	93.06
455.294	85.06
455.514	85.06
455.734	100.06
455.955	85.06
456.175	94.06
456.395	95.06
456.616	86.06
456.836	86.06
457.056	86.06
457.276	90.06
457.497	79.06
457.717	74.06
457.937	89.06
458.157	104.06
458.377	85.06
458.598	82.06
458.818	89.06
459.038	76.06
459.258	77.06
459.478	78.06
459.698	85.06
459.918	87.06
460.138	95.06
460.358	92.06
460.578	83.06
460.798	86.06
461.018	92.06
461.238	87.06
461.458	99.06
461.678	98.06
461.898	96.06
462.118	86.06
462.338	93.06
462.558	85.06
462.777	93.06
462.997	99.06
463.217	95.06
463.437	109.06
463.657	94.06
463.876	89.06
464.096	80.06
464.316	90.06
464.536	95.06
464.755	105.06
464.975	77.06
465.195	106.06
465.414	95.06
465.634	83.06
465.854	87.06
466.073	97.06
466.293	105.06
466.512	95.06
466.732	97.06
466.951	91.06
467.171	87.06
467.391	97.06
467.61	94.06
467.829	92.06
468.049	98.06
468.268	109.06
468.488	93.06
468.707	96.06
468.927	106.06
469.146	94.06
469.365	94.06
469.585	104.06
469.804	105.06
470.023	93.06
470.243	100.06
470.462	90.06
470.681	95.06
470.901	102.06
471.12	104.06
471.339	98.06
471.558	99.06
471.777	101.06
471.997	98.06
472.216	102.06
472.435	101.06
472.654	90.06
472.873	76.06
473.092	90.06
473.311	89.06
473.53	94.06
473.749	101.06
473.968	101.06
474.187	98.06
474.406	114.06
474.625	95.06
474.844	93.06
475.063	76.06
475.282	98.06
475.501	95.06
475.72	94.06
475.939	93.06
476.158	108.06
476.377	101.06
476.596	105.06
476.814	90.06
477.033	94.06
477.252	85.06
477.471	91.06
477.69	97.06
477.908	79.06
478.127	119.06
478.346	100.06
478.564	99.06
478.783	91.06
479.002	103.06
479.22	102.06
479.439	90.06
479.658	117.06
479.876	81.06
480.095	94.06
480.313	90.06
480.532	81.06
480.751	103.06
480.969	77.06
481.188	94.06
481.406	89.06
481.624	74.06
481.843	93.06
482.061	92.06
482.28	107.06
482.498	94.06
482.717	79.06
482.935	92.06
483.153	112.06
483.372	105.06
483.59	98.06
483.808	108.06
484.027	98.06
484.245	94.06
484.463	111.06
484.681	107.06
484.9	101.06
485.118	107.06
485.336	95.06
485.554	91.06
485.772	91.06
485.99	94.06
486.209	100.06
486.427	89.06
486.645	108.06
486.863	110.06
487.081	103.06
487.299	106.06
487.517	100.06
487.735	107.06
487.953	117.06
488.171	113.06
488.389	108.06
488.607	113.06
488.825	95.06
489.043	105.06
489.261	93.06
489.479	87.06
489.696	91.06
489.914	104.06
490.132	108.06
490.35	107.06
490.568	104.06
490.786	109.06
491.003	101.06
491.221	120.06
491.439	117.06
491.657	118.06
491.874	131.06
492.092	133.06
492.31	143.06
492.527	119.06
492.745	116.06
492.963	128.06
493.18	120.06
493.398	114.06
493.615	120.06
493.833	124.06
494.05	106.06
494.268	108.06
494.485	119.06
494.703	115.06
494.92	120.06
495.138	125.06
495.355	109.06
495.573	115.06
495.79	99.06
496.008	105.06
496.225	121.06
496.442	111.06
496.66	92.06
496.877	113.06
497.094	110.06
497.312	111.06
497.529	119.06
497.746	115.06
497.963	95.06
498.181	108.06
498.398	90.06
498.615	80.06
498.832	78.06
499.049	88.06
499.267	89.06
499.484	102.06
499.701	108.06
499.918	104.06
500.135	98.06
500.352	90.06
500.569	97.06
500.786	114.06
501.003	91.06
501.22	100.06
501.437	88.06
501.654	95.06
501.871	110.06
502.088	96.06
502.305	97.06
502.522	100.06
502.739	86.06
502.956	104.06
503.172	97.06
503.389	106.06
503.606	96.06
503.823	101.06
504.04	90.06
504.256	97.06
504.473	113.06
504.69	117.06
504.907	115.06
505.123	92.06
505.34	89.06
505.557	85.06
505.773	91.06
505.99	95.06
506.207	103.06
506.423	93.06
506.64	76.06
506.856	107.06
507.073	93.06
507.289	110.06
507.506	104.06
507.722	101.06
507.939	79.06
508.155	99.06
508.372	88.06
508.588	86.06
508.805	82.06
509.021	106.06
509.238	87.06
509.454	74.06
509.67	92.06
509.887	88.06
510.103	85.06
510.319	97.06
510.536	85.06
510.752	100.06
510.968	91.06
511.184	90.06
511.401	93.06
511.617	82.06
511.833	90.06
512.049	91.06
512.265	90.06
512.481	86.06
512.698	87.06
512.914	94.06
513.13	85.06
513.346	80.06
513.562	89.06
513.778	92.06
513.994	88.06
514.21	79.06
514.426	95.06
514.642	76.06
514.858	85.06
515.074	90.06
515.29	87.06
515.506	85.06
515.721	98.06
515.937	76.06
516.153	92.06
516.369	89.06
516.585	83.06
516.801	98.06
517.016	86.06
517.232	70.06
517.448	97.06
517.664	97.06
517.879	84.06
518.095	85.06
518.311	88.06
518.527	97.06
518.742	97.06
518.958	88.06
519.173	85.06
519.389	88.06
519.605	103.06
519.82	98.06
520.036	84.06
520.251	87.06
520.467	87.06
520.682	104.06
520.898	95.06
521.113	96.06
521.329	91.06
521.544	89.06
521.76	87.06
521.975	101.06
522.19	80.06
522.406	82.06
522.621	85.06
522.836	91.06
523.052	91.06
523.267	90.06
523.482	74.06
523.698	103.06
523.913	108.06
524.128	99.06
524.343	97.06
524.559	99.06
524.774	105.06
524.989	102.06
525.204	99.06
525.419	93.06
525.634	93.06
525.849	108.06
526.064	85.06
526.28	95.06
526.495	86.06
526.71	85.06
526.925	88.06
527.14	92.06
527.355	90.06
527.57	85.06
527.785	97.06
527.999	85.06
528.214	93.06
528.429	98.06
528.644	103.06
528.859	101.06
529.074	109.06
529.289	103.06
529.503	106.06
529.718	111.06
529.933	93.06
530.148	104.06
530.363	75.06
530.577	91.06
530.792	96.06
531.007	86.06
531.221	89.06
531.436	90.06
531.651	94.06
531.865	91.06
532.08	74.06
532.295	95.06
532.509	86.06
532.724	80.06
532.938	91.06
533.153	73.06
533.367	95.06
533.582	94.06
533.796	106.06
534.011	88.06
534.225	97.06
534.44	93.06
534.654	95.06
534.868	92.06
535.083	83.06
535.297	80.06
535.511	85.06
535.726	87.06
535.94	88.06
536.154	86.06
536.369	97.06
536.583	85.06
536.797	83.06
537.011	96.06
537.225	93.06
537.44	110.06
537.654	86.06
537.868	98.06
538.082	99.06
538.296	82.06
538.51	95.06
538.724	88.06
538.938	93.06
539.153	92.06
539.367	102.06
539.581	94.06
539.795	82.06
540.009	92.06
540.222	81.06
540.436	89.06
540.65	100.06
540.864	101.06
541.078	107.06
541.292	102.06
541.506	122.06
541.72	113.06
541.934	129.06
542.147	126.06
542.361	108.06
542.575	110.06
542.789	95.06
543.002	101.06
543.216	99.06
543.43	86.06
543.644	104.06
543.857	114.06
544.071	106.06
544.285	111.06
544.498	123.06
544.712	125.06
544.925	115.06
545.139	102.06
545.352	113.06
545.566	106.06
545.779	111.06
545.993	115.06
546.206	129.06
546.42	134.06
546.633	119.06
546.847	102.06
547.06	123.06
547.274	121.06
547.487	115.06
547.7	121.06
547.914	121.06
548.127	127.06
548.34	121.06
548.554	109.06
548.767	102.06
548.98	103.06
549.193	104.06
549.407	113.06
549.62	110.06
549.833	94.06
550.046	105.06
550.259	126.06
550.473	111.06
550.686	111.06
550.899	98.06
551.112	113.06
551.325	107.06
551.538	105.06
551.751	94.06
551.964	105.06
552.177	111.06
552.39	100.06
552.603	101.06
552.816	107.06
553.029	117.06
553.242	95.06
553.455	105.06
553.667	113.06
553.88	109.06
554.093	101.06
554.306	114.06
554.519	113.06
554.732	92.06
554.944	103.06
555.157	110.06
555.37	100.06
555.583	118.06
555.795	109.06
556.008	108.06
556.221	97.06
556.433	104.06
556.646	97.06
556.859	104.06
557.071	104.06
557.284	109.06
557.496	113.06
557.709	102.06
557.921	107.06
558.134	113.06
558.346	99.06
558.559	97.06
558.771	114.06
558.984	96.06
559.196	95.06
559.409	99.06
559.621	98.06
559.833	89.06
560.046	90.06
560.258	100.06
560.47	111.06
560.683	99.06
560.895	107.06
561.107	104.06
561.32	102.06
561.532	97.06
561.744	94.06
561.956	98.06
562.168	87.06
562.381	127.06
562.593	111.06
562.805	103.06
563.017	98.06
563.229	106.06
563.441	90.06
563.653	102.06
563.865	86.06
564.077	107.06
564.289	105.06
564.501	78.06
564.713	93.06
564.925	99.06
565.137	102.06
565.349	99.06
565.561	115.06
565.773	107.06
565.985	100.06
566.197	103.06
566.408	100.06
566.62	104.06
566.832	99.06
567.044	96.06
567.255	84.06
567.467	105.06
567.679	94.06
567.891	87.06
568.102	102.06
568.314	87.06
568.526	85.06
568.737	86.06
568.949	94.06
569.161	74.06
569.372	89.06
569.584	73.06
569.795	105.06
570.007	81.06
570.218	96.06
570.43	96.06
570.641	79.06
570.853	97.06
571.064	89.06
571.276	86.06
571.487	101.06
571.698	106.06
571.91	85.06
572.121	99.06
572.333	98.06
572.544	88.06
572.755	90.06
572.966	79.06
573.178	86.06
573.389	77.06
573.6	80.06
573.811	88.06
574.023	81.06
574.234	95.06
574.445	83.06
574.656	95.06
574.867	85.06
575.078	88.06
575.289	85.06
575.501	82.06
575.712	100.06
575.923	91.06
576.134	95.06
576.345	98.06
576.556	82.06
576.767	81.06
576.978	92.06
577.188	76.06
577.399	85.06
577.61	91.06
577.821	82.06
578.032	77.06
578.243	101.06
578.454	86.06
578.665	87.06
578.875	85.06
579.086	77.06
579.297	85.06
579.508	106.06
579.718	86.06
579.929	84.06
580.14	104.06
580.35	87.06
580.561	92.06
580.772	90.06
580.982	99.06
581.193	81.06
581.403	79.06
581.614	89.06
581.825	104.06
582.035	90.06
582.246	89.06
582.456	88.06
582.667	90.06
582.877	90.06
583.087	87.06
583.298	92.06
583.508	87.06
583.719	95.06
583.929	91.06
584.139	89.06
584.35	85.06
584.56	99.06
584.77	76.06
584.981	88.06
585.191	81.06
585.401	85.06
585.611	93.06
585.821	95.06
586.032	85.06
586.242	76.06
586.452	82.06
586.662	79.06
586.872	81.06
587.082	82.06
587.292	85.06
587.502	77.06
587.713	80.06
587.923	94.06
588.133	89.06
588.343	81.06
588.553	91.06
588.762	97.06
588.972	90.06
589.182	88.06
589.392	91.06
589.602	105.06
589.812	89.06
590.022	82.06
590.232	88.06
590.441	87.06
590.651	83.06
590.861	75.06
591.071	96.06
591.281	89.06
591.49	78.06
591.7	92.06
591.91	92.06
592.119	91.06
592.329	92.06
592.539	91.06
592.748	87.06
592.958	77.06
593.167	100.06
593.377	99.06
593.587	80.06
593.796	82.06
594.006	85.06
594.215	85.06
594.424	78.06
594.634	89.06
594.843	85.06
595.053	98.06
595.262	81.06
595.472	101.06
595.681	90.06
595.89	87.06
596.1	84.06
596.309	99.06
596.518	92.06
596.727	87.06
596.937	75.06
597.146	85.06
597.355	95.06
597.564	88.06
597.774	82.06
597.983	88.06
598.192	87.06
598.401	92.06
598.61	101.06
598.819	90.06
599.028	89.06
599.237	76.06
599.446	87.06
599.655	90.06
599.864	79.06
600.073	81.06
600.282	89.06
600.491	93.06
600.7	90.06
600.909	89.06
601.118	102.06
601.327	96.06
601.536	101.06
601.745	86.06
601.953	88.06
602.162	85.06
602.371	109.06
602.58	103.06
602.789	103.06
602.997	103.06
603.206	88.06
603.415	92.06
603.623	93.06
603.832	90.06
604.041	98.06
604.249	90.06
604.458	88.06
604.666	84.06
604.875	86.06
605.084	92.06
605.292	93.06
605.501	83.06
605.709	95.06
605.918	91.06
606.126	104.06
606.334	90.06
606.543	107.06
606.751	80.06
606.96	88.06
607.168	95.06
607.376	100.06
607.585	86.06
607.793	89.06
608.001	80.06
608.21	92.06
608.418	87.06
608.626	85.06
608.834	99.06
609.043	93.06
609.251	84.06
609.459	96.06
609.667	101.06
609.875	93.06
610.083	79.06
610.291	115.06
610.499	92.06
610.707	99.06
610.916	94.06
611.124	102.06
611.332	92.06
611.54	84.06
611.748	91.06
611.955	101.06
612.163	94.06
612.371	90.06
612.579	91.06
612.787	81.06
612.995	99.06
613.203	91.06
613.411	100.06
613.618	105.06
613.826	84.06
614.034	87.06
614.242	90.06
614.449	98.06
614.657	113.06
614.865	101.06
615.072	77.06
615.28	81.06
615.488	90.06
615.695	91.06
615.903	88.06
616.111	91.06
616.318	80.06
616.526	89.06
616.733	97.06
616.941	119.06
617.148	101.06
617.356	84.06
617.563	89.06
617.771	102.06
617.978	105.06
618.185	107.06
618.393	108.06
618.6	98.06
618.807	87.06
619.015	92.06
619.222	83.06
619.429	94.06
619.637	95.06
619.844	84.06
620.051	78.06
620.258	97.06
620.466	92.06
620.673	85.06
620.88	92.06
621.087	88.06
621.294	86.06
621.501	79.06
621.708	90.06
621.915	95.06
622.122	100.06
622.329	84.06
622.536	88.06
622.743	85.06
622.95	98.06
623.157	91.06
623.364	96.06
623.571	95.06
623.778	91.06
623.985	90.06
624.192	90.06
624.399	91.06
624.606	86.06
624.812	91.06
625.019	89.06
625.226	92.06
625.433	94.06
625.639	92.06
625.846	77.06
626.053	91.06
626.259	85.06
626.466	92.06
626.673	81.06
626.879	81.06
627.086	84.06
627.293	97.06
627.499	82.06
627.706	97.06
627.912	111.06
628.119	92.06
628.325	95.06
628.532	86.06
628.738	99.06
628.945	101.06
629.151	97.06
629.357	93.06
629.564	80.06
629.77	87.06
629.976	94.06
630.183	88.06
630.389	81.06
630.595	95.06
630.802	86.06
631.008	97.06
631.214	106.06
631.42	99.06
631.627	97.06
631.833	104.06
632.039	95.06
632.245	84.06
632.451	90.06
632.657	89.06
632.863	74.06
633.069	85.06
633.275	99.06
633.481	86.06
633.688	110.06
633.893	88.06
634.099	76.06
634.305	94.06
634.511	88.06
634.717	97.06
634.923	92.06
635.129	76.06
635.335	92.06
635.541	76.06
635.747	90.06
635.952	99.06
636.158	98.06
636.364	86.06
636.57	93.06
636.775	87.06
636.981	85.06
637.187	100.06
637.392	86.06
637.598	78.06
637.804	103.06
638.009	104.06
638.215	96.06
638.421	103.06
638.626	94.06
638.832	82.06
639.037	89.06
639.243	89.06
639.448	84.06
639.654	86.06
639.859	92.06
640.065	84.06
640.27	85.06
640.475	107.06
640.681	95.06
640.886	104.06
641.091	93.06
641.297	91.06
641.502	109.06
641.707	93.06
641.913	91.06
642.118	97.06
642.323	85.06
642.528	83.06
642.733	83.06
642.939	79.06
643.144	84.06
643.349	95.06
643.554	94.06
643.759	97.06
643.964	100.06
644.169	90.06
644.374	99.06
644.579	92.06
644.784	71.06
644.989	98.06
645.194	92.06
645.399	95.06
645.604	94.06
645.809	105.06
646.014	95.06
646.219	89.06
646.423	97.06
646.628	76.06
646.833	87.06
647.038	89.06
647.243	95.06
647.447	81.06
647.652	97.06
647.857	88.06
648.062	77.06
648.266	75.06
648.471	90.06
648.676	92.06
648.88	80.06
649.085	88.06
649.289	90.06
649.494	80.06
649.698	92.06
649.903	88.06
650.107	94.06
650.312	99.06
650.516	91.06
650.721	82.06
650.925	77.06
651.13	88.06
651.334	87.06
651.539	95.06
651.743	86.06
651.947	98.06
652.152	94.06
652.356	88.06
652.56	80.06
652.764	87.06
652.969	77.06
653.173	84.06
653.377	93.06
653.581	95.06
653.785	95.06
653.99	79.06
654.194	85.06
654.398	96.06
654.602	87.06
654.806	75.06
655.01	77.06
655.214	84.06
655.418	92.06
655.622	90.06
655.826	90.06
656.03	80.06
656.234	106.06
656.438	77.06
656.642	94.06
656.846	85.06
657.049	93.06
657.253	84.06
657.457	85.06
657.661	92.06
657.865	70.06
658.068	77.06
658.272	86.06
658.476	91.06
658.68	77.06
658.883	76.06
659.087	99.06
659.291	85.06
659.494	87.06
659.698	83.06
659.901	85.06
660.105	89.06
660.309	81.06
660.512	90.06
660.716	81.06
660.919	84.06
661.123	88.06
661.326	69.06
661.53	82.06
661.733	89.06
661.936	92.06
662.14	94.06
662.343	75.06
662.546	98.06
662.75	74.06
662.953	85.06
663.156	87.06
663.36	79.06
663.563	66.06
663.766	91.06
663.969	91.06
664.173	71.06
664.376	72.06
664.579	85.06
664.782	98.06
664.985	88.06
665.188	93.06
665.391	81.06
665.594	79.06
665.797	82.06
666	75.06
666.203	77.06
666.406	85.06
666.609	86.06
666.812	73.06
667.015	75.06
667.218	77.06
667.421	77.06
667.624	77.06
667.827	89.06
668.03	70.06
668.232	83.06
668.435	88.06
668.638	83.06
668.841	87.06
669.043	77.06
669.246	83.06
669.449	77.06
669.651	87.06
669.854	75.06
670.057	69.06
670.259	81.06
670.462	81.06
670.665	76.06
670.867	84.06
671.07	76.06
671.272	79.06
671.475	88.06
671.677	93.06
671.88	81.06
672.082	81.06
672.284	97.06
672.487	85.06
672.689	79.06
672.892	81.06
