Data from Location4.07152019.Energy5.Lamp.07192019.3%Agarose_HRD10591_15-24-43-577.txt Node
Date: Fri Jul 19 15:24:43 EDT 2019
User: cochatt
Spectrometer: HR+D1059
Trigger mode: 1
Integration Time (sec): 1.000000E-1
Scans to average: 1
Electric dark correction enabled: true
Nonlinearity correction enabled: false
Boxcar width: 0
XAxis mode: Wavelengths
Number of Pixels in Spectrum: 2048
>>>>>Begin Spectral Data<<<<<
223.165	-5.12
223.4	-5.12
223.635	-5.12
223.869	-11.12
224.104	-19.12
224.338	-9.12
224.573	-22.12
224.808	-24.12
225.042	1.88
225.277	-9.12
225.511	-10.12
225.746	6.88
225.98	-0.12
226.215	12.88
226.449	6.88
226.683	29.88
226.918	24.88
227.152	26.88
227.387	34.88
227.621	35.88
227.856	39.88
228.09	46.88
228.324	41.88
228.559	57.88
228.793	52.88
229.027	64.88
229.262	48.88
229.496	67.88
229.73	57.88
229.964	58.88
230.199	66.88
230.433	72.88
230.667	77.88
230.901	72.88
231.136	65.88
231.37	68.88
231.604	80.88
231.838	94.88
232.072	80.88
232.306	75.88
232.541	74.88
232.775	74.88
233.009	84.88
233.243	76.88
233.477	65.88
233.711	76.88
233.945	81.88
234.179	86.88
234.413	81.88
234.647	72.88
234.881	72.88
235.115	79.88
235.349	84.88
235.583	68.88
235.817	92.88
236.051	93.88
236.285	73.88
236.519	68.88
236.753	74.88
236.987	69.88
237.221	68.88
237.455	72.88
237.689	85.88
237.922	73.88
238.156	70.88
238.39	82.88
238.624	84.88
238.858	47.88
239.091	91.88
239.325	74.88
239.559	71.88
239.793	53.88
240.027	66.88
240.26	76.88
240.494	80.88
240.728	69.88
240.961	71.88
241.195	88.88
241.429	69.88
241.662	64.88
241.896	75.88
242.13	74.88
242.363	70.88
242.597	65.88
242.83	86.88
243.064	73.88
243.298	62.88
243.531	85.88
243.765	60.88
243.998	86.88
244.232	66.88
244.465	81.88
244.699	84.88
244.932	58.88
245.166	75.88
245.399	83.88
245.633	80.88
245.866	72.88
246.099	75.88
246.333	65.88
246.566	66.88
246.8	75.88
247.033	77.88
247.266	73.88
247.5	86.88
247.733	70.88
247.966	66.88
248.2	80.88
248.433	80.88
248.666	72.88
248.899	67.88
249.133	58.88
249.366	71.88
249.599	81.88
249.832	72.88
250.066	75.88
250.299	62.88
250.532	76.88
250.765	82.88
250.998	66.88
251.231	73.88
251.465	78.88
251.698	76.88
251.931	79.88
252.164	88.88
252.397	81.88
252.63	81.88
252.863	70.88
253.096	67.88
253.329	81.88
253.562	79.88
253.795	78.88
254.028	78.88
254.261	83.88
254.494	71.88
254.727	76.88
254.96	88.88
255.193	80.88
255.426	64.88
255.659	79.88
255.892	81.88
256.124	94.88
256.357	90.88
256.59	82.88
256.823	70.88
257.056	54.88
257.289	86.88
257.521	84.88
257.754	74.88
257.987	80.88
258.22	87.88
258.452	73.88
258.685	84.88
258.918	86.88
259.151	69.88
259.383	71.88
259.616	80.88
259.849	66.88
260.081	73.88
260.314	79.88
260.547	80.88
260.779	74.88
261.012	69.88
261.244	82.88
261.477	73.88
261.71	66.88
261.942	73.88
262.175	77.88
262.407	80.88
262.64	98.88
262.872	86.88
263.105	78.88
263.337	72.88
263.57	66.88
263.802	82.88
264.035	61.88
264.267	90.88
264.499	87.88
264.732	96.88
264.964	77.88
265.197	80.88
265.429	85.88
265.661	73.88
265.894	65.88
266.126	82.88
266.358	86.88
266.591	70.88
266.823	75.88
267.055	69.88
267.287	69.88
267.52	88.88
267.752	89.88
267.984	73.88
268.216	83.88
268.448	85.88
268.681	69.88
268.913	79.88
269.145	69.88
269.377	60.88
269.609	69.88
269.841	64.88
270.073	80.88
270.306	75.88
270.538	74.88
270.77	78.88
271.002	72.88
271.234	74.88
271.466	79.88
271.698	69.88
271.93	78.88
272.162	86.88
272.394	80.88
272.626	82.88
272.858	86.88
273.09	89.88
273.322	63.88
273.553	80.88
273.785	80.88
274.017	74.88
274.249	74.88
274.481	77.88
274.713	89.88
274.945	84.88
275.176	81.88
275.408	82.88
275.64	74.88
275.872	94.88
276.104	69.88
276.335	77.88
276.567	90.88
276.799	74.88
277.031	89.88
277.262	76.88
277.494	86.88
277.726	80.88
277.957	81.88
278.189	89.88
278.421	87.88
278.652	81.88
278.884	86.88
279.115	74.88
279.347	92.88
279.579	84.88
279.81	78.88
280.042	87.88
280.273	82.88
280.505	84.88
280.736	87.88
280.968	72.88
281.199	87.88
281.431	84.88
281.662	84.88
281.894	87.88
282.125	95.88
282.356	69.88
282.588	71.88
282.819	85.88
283.051	73.88
283.282	81.88
283.513	88.88
283.745	71.88
283.976	80.88
284.207	90.88
284.439	66.88
284.67	93.88
284.901	84.88
285.132	93.88
285.364	80.88
285.595	96.88
285.826	85.88
286.057	83.88
286.288	75.88
286.52	85.88
286.751	71.88
286.982	85.88
287.213	78.88
287.444	97.88
287.675	77.88
287.906	77.88
288.138	86.88
288.369	71.88
288.6	90.88
288.831	86.88
289.062	75.88
289.293	87.88
289.524	94.88
289.755	70.88
289.986	79.88
290.217	84.88
290.448	74.88
290.679	80.88
290.91	99.88
291.141	96.88
291.371	87.88
291.602	72.88
291.833	73.88
292.064	88.88
292.295	89.88
292.526	97.88
292.757	87.88
292.987	89.88
293.218	78.88
293.449	85.88
293.68	92.88
293.91	75.88
294.141	76.88
294.372	87.88
294.603	94.88
294.833	89.88
295.064	86.88
295.295	77.88
295.525	68.88
295.756	80.88
295.987	85.88
296.217	82.88
296.448	64.88
296.679	82.88
296.909	80.88
297.14	69.88
297.37	90.88
297.601	93.88
297.831	87.88
298.062	95.88
298.292	70.88
298.523	70.88
298.753	78.88
298.984	89.88
299.214	81.88
299.445	66.88
299.675	79.88
299.905	85.88
300.136	91.88
300.366	72.88
300.597	89.88
300.827	89.88
301.057	77.88
301.288	82.88
301.518	78.88
301.748	100.88
301.979	74.88
302.209	71.88
302.439	71.88
302.669	81.88
302.9	84.88
303.13	81.88
303.36	84.88
303.59	78.88
303.82	91.88
304.051	88.88
304.281	79.88
304.511	94.88
304.741	85.88
304.971	82.88
305.201	67.88
305.431	85.88
305.661	85.88
305.891	78.88
306.121	77.88
306.352	84.88
306.582	86.88
306.812	94.88
307.042	83.88
307.272	89.88
307.502	76.88
307.731	89.88
307.961	82.88
308.191	77.88
308.421	90.88
308.651	72.88
308.881	65.88
309.111	88.88
309.341	71.88
309.571	77.88
309.8	75.88
310.03	73.88
310.26	84.88
310.49	80.88
310.72	77.88
310.949	90.88
311.179	81.88
311.409	68.88
311.639	86.88
311.868	95.88
312.098	78.88
312.328	94.88
312.557	97.88
312.787	79.88
313.017	85.88
313.246	94.88
313.476	83.88
313.706	85.88
313.935	88.88
314.165	81.88
314.394	95.88
314.624	73.88
314.853	91.88
315.083	78.88
315.312	89.88
315.542	84.88
315.771	84.88
316.001	99.88
316.23	71.88
316.46	71.88
316.689	90.88
316.919	84.88
317.148	84.88
317.377	92.88
317.607	86.88
317.836	83.88
318.065	71.88
318.295	71.88
318.524	85.88
318.753	86.88
318.983	68.88
319.212	72.88
319.441	75.88
319.67	83.88
319.9	77.88
320.129	76.88
320.358	84.88
320.587	87.88
320.816	83.88
321.046	73.88
321.275	81.88
321.504	84.88
321.733	96.88
321.962	68.88
322.191	78.88
322.42	92.88
322.649	88.88
322.878	91.88
323.108	74.88
323.337	80.88
323.566	79.88
323.795	89.88
324.024	84.88
324.253	81.88
324.482	85.88
324.71	81.88
324.939	78.88
325.168	83.88
325.397	68.88
325.626	79.88
325.855	83.88
326.084	90.88
326.313	89.88
326.542	93.88
326.77	77.88
326.999	74.88
327.228	89.88
327.457	73.88
327.686	88.88
327.914	80.88
328.143	80.88
328.372	93.88
328.6	87.88
328.829	86.88
329.058	91.88
329.287	98.88
329.515	89.88
329.744	90.88
329.972	88.88
330.201	95.88
330.43	86.88
330.658	73.88
330.887	99.88
331.115	93.88
331.344	85.88
331.572	90.88
331.801	80.88
332.03	73.88
332.258	80.88
332.486	80.88
332.715	85.88
332.943	92.88
333.172	63.88
333.4	77.88
333.629	94.88
333.857	71.88
334.085	79.88
334.314	91.88
334.542	84.88
334.771	84.88
334.999	92.88
335.227	87.88
335.455	80.88
335.684	86.88
335.912	88.88
336.14	77.88
336.369	85.88
336.597	83.88
336.825	73.88
337.053	85.88
337.281	74.88
337.51	89.88
337.738	86.88
337.966	80.88
338.194	100.88
338.422	92.88
338.65	88.88
338.878	86.88
339.106	72.88
339.334	93.88
339.562	78.88
339.79	67.88
340.018	89.88
340.246	83.88
340.474	92.88
340.702	88.88
340.93	92.88
341.158	64.88
341.386	86.88
341.614	71.88
341.842	87.88
342.07	80.88
342.298	80.88
342.526	79.88
342.754	70.88
342.981	85.88
343.209	73.88
343.437	73.88
343.665	67.88
343.893	79.88
344.12	69.88
344.348	73.88
344.576	69.88
344.804	85.88
345.031	95.88
345.259	85.88
345.487	75.88
345.714	71.88
345.942	84.88
346.17	75.88
346.397	94.88
346.625	77.88
346.853	85.88
347.08	84.88
347.308	102.88
347.535	87.88
347.763	63.88
347.99	85.88
348.218	90.88
348.445	88.88
348.673	86.88
348.9	81.88
349.128	93.88
349.355	80.88
349.583	92.88
349.81	94.88
350.037	85.88
350.265	76.88
350.492	69.88
350.72	78.88
350.947	82.88
351.174	94.88
351.402	92.88
351.629	94.88
351.856	86.88
352.083	70.88
352.311	65.88
352.538	76.88
352.765	76.88
352.992	90.88
353.22	87.88
353.447	69.88
353.674	72.88
353.901	91.88
354.128	88.88
354.355	90.88
354.583	79.88
354.81	76.88
355.037	80.88
355.264	74.88
355.491	92.88
355.718	78.88
355.945	85.88
356.172	71.88
356.399	78.88
356.626	88.88
356.853	85.88
357.08	99.88
357.307	75.88
357.534	83.88
357.761	87.88
357.988	75.88
358.215	76.88
358.441	88.88
358.668	67.88
358.895	63.88
359.122	79.88
359.349	82.88
359.576	76.88
359.802	84.88
360.029	84.88
360.256	78.88
360.483	81.88
360.709	92.88
360.936	87.88
361.163	103.88
361.39	65.88
361.616	77.88
361.843	87.88
362.07	76.88
362.296	82.88
362.523	82.88
362.749	72.88
362.976	78.88
363.203	89.88
363.429	98.88
363.656	74.88
363.882	81.88
364.109	77.88
364.335	77.88
364.562	92.88
364.788	86.88
365.015	95.88
365.241	73.88
365.468	74.88
365.694	75.88
365.92	84.88
366.147	74.88
366.373	70.88
366.599	89.88
366.826	74.88
367.052	85.88
367.278	85.88
367.505	94.88
367.731	92.88
367.957	73.88
368.184	73.88
368.41	85.88
368.636	97.88
368.862	80.88
369.089	92.88
369.315	80.88
369.541	95.88
369.767	87.88
369.993	88.88
370.219	89.88
370.445	78.88
370.672	82.88
370.898	81.88
371.124	86.88
371.35	78.88
371.576	89.88
371.802	74.88
372.028	80.88
372.254	88.88
372.48	79.88
372.706	85.88
372.932	93.88
373.158	78.88
373.384	82.88
373.61	92.88
373.835	79.88
374.061	72.88
374.287	78.88
374.513	77.88
374.739	87.88
374.965	80.88
375.191	86.88
375.416	92.88
375.642	79.88
375.868	84.88
376.094	66.88
376.319	97.88
376.545	82.88
376.771	75.88
376.997	82.88
377.222	74.88
377.448	82.88
377.674	86.88
377.899	88.88
378.125	90.88
378.35	89.88
378.576	81.88
378.802	76.88
379.027	93.88
379.253	90.88
379.478	71.88
379.704	71.88
379.929	96.88
380.155	69.88
380.38	83.88
380.606	87.88
380.831	92.88
381.057	78.88
381.282	80.88
381.507	86.88
381.733	79.88
381.958	83.88
382.184	72.88
382.409	93.88
382.634	88.88
382.86	92.88
383.085	76.88
383.31	68.88
383.535	86.88
383.761	80.88
383.986	79.88
384.211	65.88
384.436	76.88
384.662	80.88
384.887	89.88
385.112	82.88
385.337	80.88
385.562	83.88
385.787	76.88
386.013	67.88
386.238	91.88
386.463	79.88
386.688	79.88
386.913	82.88
387.138	83.88
387.363	95.88
387.588	86.88
387.813	77.88
388.038	76.88
388.263	93.88
388.488	75.88
388.713	93.88
388.938	86.88
389.163	89.88
389.387	95.88
389.612	77.88
389.837	76.88
390.062	90.88
390.287	90.88
390.512	75.88
390.736	86.88
390.961	81.88
391.186	83.88
391.411	80.88
391.636	86.88
391.86	95.88
392.085	82.88
392.31	55.88
392.534	90.88
392.759	85.88
392.984	94.88
393.208	80.88
393.433	81.88
393.658	81.88
393.882	77.88
394.107	88.88
394.331	80.88
394.556	93.88
394.78	71.88
395.005	77.88
395.229	73.88
395.454	79.88
395.678	89.88
395.903	90.88
396.127	87.88
396.352	90.88
396.576	86.88
396.801	89.88
397.025	84.88
397.249	77.88
397.474	97.88
397.698	81.88
397.922	93.88
398.147	78.88
398.371	85.88
398.595	95.88
398.82	74.88
399.044	88.88
399.268	75.88
399.492	77.88
399.717	82.88
399.941	93.88
400.165	68.88
400.389	97.88
400.613	81.88
400.837	71.88
401.062	93.88
401.286	89.88
401.51	87.88
401.734	94.88
401.958	72.88
402.182	69.88
402.406	96.88
402.63	81.88
402.854	77.88
403.078	85.88
403.302	82.88
403.526	87.88
403.75	79.88
403.974	86.88
404.198	77.88
404.422	86.88
404.645	74.88
404.869	88.88
405.093	93.88
405.317	84.88
405.541	84.88
405.765	84.88
405.988	94.88
406.212	88.88
406.436	87.88
406.66	80.88
406.883	102.88
407.107	93.88
407.331	75.88
407.555	84.88
407.778	82.88
408.002	92.88
408.226	95.88
408.449	92.88
408.673	90.88
408.896	74.88
409.12	72.88
409.344	78.88
409.567	97.88
409.791	82.88
410.014	86.88
410.238	90.88
410.461	88.88
410.685	98.88
410.908	111.88
411.132	97.88
411.355	97.88
411.578	91.88
411.802	80.88
412.025	82.88
412.249	85.88
412.472	76.88
412.695	80.88
412.919	92.88
413.142	87.88
413.365	84.88
413.589	81.88
413.812	96.88
414.035	109.88
414.258	92.88
414.482	94.88
414.705	84.88
414.928	91.88
415.151	85.88
415.374	88.88
415.597	93.88
415.821	78.88
416.044	95.88
416.267	81.88
416.49	92.88
416.713	80.88
416.936	79.88
417.159	89.88
417.382	97.88
417.605	93.88
417.828	97.88
418.051	109.88
418.274	94.88
418.497	86.88
418.72	88.88
418.943	85.88
419.166	82.88
419.389	93.88
419.611	81.88
419.834	90.88
420.057	98.88
420.28	89.88
420.503	86.88
420.726	90.88
420.948	78.88
421.171	92.88
421.394	83.88
421.617	89.88
421.839	96.88
422.062	93.88
422.285	91.88
422.507	94.88
422.73	90.88
422.953	76.88
423.175	92.88
423.398	75.88
423.621	90.88
423.843	86.88
424.066	91.88
424.288	88.88
424.511	98.88
424.733	85.88
424.956	108.88
425.178	109.88
425.401	92.88
425.623	95.88
425.846	82.88
426.068	100.88
426.291	86.88
426.513	102.88
426.735	82.88
426.958	81.88
427.18	95.88
427.402	92.88
427.625	76.88
427.847	89.88
428.069	99.88
428.292	92.88
428.514	86.88
428.736	111.88
428.958	92.88
429.181	92.88
429.403	85.88
429.625	94.88
429.847	83.88
430.069	91.88
430.292	77.88
430.514	81.88
430.736	89.88
430.958	89.88
431.18	95.88
431.402	89.88
431.624	84.88
431.846	73.88
432.068	77.88
432.29	81.88
432.512	81.88
432.734	81.88
432.956	78.88
433.178	94.88
433.4	87.88
433.622	88.88
433.844	86.88
434.066	86.88
434.287	93.88
434.509	79.88
434.731	86.88
434.953	89.88
435.175	88.88
435.397	100.88
435.618	119.88
435.84	81.88
436.062	78.88
436.284	89.88
436.505	85.88
436.727	79.88
436.949	68.88
437.17	90.88
437.392	96.88
437.614	104.88
437.835	99.88
438.057	93.88
438.278	102.88
438.5	88.88
438.721	90.88
438.943	101.88
439.165	104.88
439.386	102.88
439.608	95.88
439.829	95.88
440.05	80.88
440.272	110.88
440.493	108.88
440.715	82.88
440.936	100.88
441.158	74.88
441.379	94.88
441.6	101.88
441.822	96.88
442.043	90.88
442.264	97.88
442.486	87.88
442.707	89.88
442.928	80.88
443.149	102.88
443.371	87.88
443.592	97.88
443.813	85.88
444.034	96.88
444.255	94.88
444.476	88.88
444.698	92.88
444.919	104.88
445.14	218.88
445.361	144.88
445.582	88.88
445.803	98.88
446.024	95.88
446.245	99.88
446.466	109.88
446.687	93.88
446.908	96.88
447.129	97.88
447.35	89.88
447.571	87.88
447.792	114.88
448.013	98.88
448.234	88.88
448.455	97.88
448.675	96.88
448.896	87.88
449.117	108.88
449.338	78.88
449.559	90.88
449.779	95.88
450	96.88
450.221	95.88
450.442	89.88
450.662	87.88
450.883	98.88
451.104	110.88
451.324	96.88
451.545	85.88
451.766	90.88
451.986	87.88
452.207	88.88
452.428	95.88
452.648	86.88
452.869	92.88
453.089	99.88
453.31	84.88
453.53	85.88
453.751	78.88
453.971	80.88
454.192	74.88
454.412	84.88
454.633	87.88
454.853	94.88
455.073	88.88
455.294	79.88
455.514	79.88
455.734	74.88
455.955	80.88
456.175	77.88
456.395	73.88
456.616	88.88
456.836	71.88
457.056	82.88
457.276	95.88
457.497	59.88
457.717	80.88
457.937	98.88
458.157	89.88
458.377	76.88
458.598	87.88
458.818	84.88
459.038	83.88
459.258	77.88
459.478	81.88
459.698	87.88
459.918	76.88
460.138	72.88
460.358	93.88
460.578	104.88
460.798	83.88
461.018	90.88
461.238	79.88
461.458	93.88
461.678	80.88
461.898	72.88
462.118	90.88
462.338	74.88
462.558	102.88
462.777	79.88
462.997	82.88
463.217	94.88
463.437	84.88
463.657	94.88
463.876	80.88
464.096	94.88
464.316	84.88
464.536	81.88
464.755	85.88
464.975	77.88
465.195	89.88
465.414	82.88
465.634	87.88
465.854	82.88
466.073	84.88
466.293	80.88
466.512	83.88
466.732	96.88
466.951	109.88
467.171	89.88
467.391	92.88
467.61	82.88
467.829	84.88
468.049	101.88
468.268	82.88
468.488	85.88
468.707	94.88
468.927	79.88
469.146	88.88
469.365	100.88
469.585	87.88
469.804	97.88
470.023	89.88
470.243	96.88
470.462	95.88
470.681	96.88
470.901	97.88
471.12	99.88
471.339	98.88
471.558	90.88
471.777	88.88
471.997	94.88
472.216	81.88
472.435	83.88
472.654	81.88
472.873	93.88
473.092	89.88
473.311	103.88
473.53	80.88
473.749	80.88
473.968	102.88
474.187	82.88
474.406	80.88
474.625	88.88
474.844	91.88
475.063	97.88
475.282	80.88
475.501	93.88
475.72	82.88
475.939	84.88
476.158	87.88
476.377	88.88
476.596	79.88
476.814	79.88
477.033	94.88
477.252	101.88
477.471	96.88
477.69	90.88
477.908	87.88
478.127	101.88
478.346	87.88
478.564	90.88
478.783	81.88
479.002	87.88
479.22	95.88
479.439	108.88
479.658	92.88
479.876	90.88
480.095	99.88
480.313	92.88
480.532	95.88
480.751	95.88
480.969	83.88
481.188	69.88
481.406	77.88
481.624	73.88
481.843	94.88
482.061	86.88
482.28	74.88
482.498	82.88
482.717	90.88
482.935	85.88
483.153	90.88
483.372	93.88
483.59	92.88
483.808	92.88
484.027	90.88
484.245	94.88
484.463	90.88
484.681	96.88
484.9	85.88
485.118	103.88
485.336	99.88
485.554	88.88
485.772	102.88
485.99	85.88
486.209	90.88
486.427	92.88
486.645	76.88
486.863	93.88
487.081	94.88
487.299	73.88
487.517	102.88
487.735	98.88
487.953	89.88
488.171	103.88
488.389	103.88
488.607	87.88
488.825	90.88
489.043	95.88
489.261	90.88
489.479	93.88
489.696	86.88
489.914	89.88
490.132	79.88
490.35	89.88
490.568	97.88
490.786	105.88
491.003	110.88
491.221	114.88
491.439	102.88
491.657	109.88
491.874	113.88
492.092	125.88
492.31	113.88
492.527	120.88
492.745	120.88
492.963	102.88
493.18	100.88
493.398	108.88
493.615	119.88
493.833	101.88
494.05	104.88
494.268	110.88
494.485	117.88
494.703	106.88
494.92	110.88
495.138	98.88
495.355	95.88
495.573	91.88
495.79	103.88
496.008	105.88
496.225	107.88
496.442	97.88
496.66	108.88
496.877	104.88
497.094	96.88
497.312	96.88
497.529	91.88
497.746	94.88
497.963	85.88
498.181	99.88
498.398	94.88
498.615	89.88
498.832	100.88
499.049	84.88
499.267	86.88
499.484	90.88
499.701	93.88
499.918	97.88
500.135	94.88
500.352	94.88
500.569	93.88
500.786	109.88
501.003	96.88
501.22	93.88
501.437	90.88
501.654	90.88
501.871	92.88
502.088	79.88
502.305	100.88
502.522	93.88
502.739	88.88
502.956	86.88
503.172	82.88
503.389	92.88
503.606	98.88
503.823	96.88
504.04	85.88
504.256	78.88
504.473	89.88
504.69	96.88
504.907	92.88
505.123	91.88
505.34	80.88
505.557	98.88
505.773	90.88
505.99	93.88
506.207	89.88
506.423	74.88
506.64	87.88
506.856	76.88
507.073	88.88
507.289	97.88
507.506	86.88
507.722	74.88
507.939	86.88
508.155	87.88
508.372	94.88
508.588	110.88
508.805	102.88
509.021	77.88
509.238	87.88
509.454	79.88
509.67	83.88
509.887	83.88
510.103	88.88
510.319	72.88
510.536	86.88
510.752	64.88
510.968	74.88
511.184	74.88
511.401	96.88
511.617	78.88
511.833	80.88
512.049	84.88
512.265	88.88
512.481	90.88
512.698	68.88
512.914	88.88
513.13	78.88
513.346	75.88
513.562	90.88
513.778	89.88
513.994	86.88
514.21	81.88
514.426	82.88
514.642	89.88
514.858	88.88
515.074	69.88
515.29	87.88
515.506	96.88
515.721	94.88
515.937	87.88
516.153	75.88
516.369	85.88
516.585	84.88
516.801	80.88
517.016	80.88
517.232	84.88
517.448	84.88
517.664	77.88
517.879	90.88
518.095	71.88
518.311	81.88
518.527	64.88
518.742	80.88
518.958	90.88
519.173	89.88
519.389	82.88
519.605	72.88
519.82	80.88
520.036	101.88
520.251	91.88
520.467	85.88
520.682	96.88
520.898	79.88
521.113	82.88
521.329	65.88
521.544	82.88
521.76	88.88
521.975	86.88
522.19	86.88
522.406	101.88
522.621	73.88
522.836	73.88
523.052	96.88
523.267	79.88
523.482	87.88
523.698	93.88
523.913	102.88
524.128	63.88
524.343	84.88
524.559	76.88
524.774	94.88
524.989	94.88
525.204	83.88
525.419	92.88
525.634	96.88
525.849	91.88
526.064	86.88
526.28	78.88
526.495	75.88
526.71	93.88
526.925	78.88
527.14	68.88
527.355	76.88
527.57	84.88
527.785	91.88
527.999	81.88
528.214	73.88
528.429	89.88
528.644	82.88
528.859	102.88
529.074	91.88
529.289	100.88
529.503	98.88
529.718	92.88
529.933	95.88
530.148	73.88
530.363	76.88
530.577	84.88
530.792	92.88
531.007	81.88
531.221	84.88
531.436	75.88
531.651	87.88
531.865	75.88
532.08	79.88
532.295	84.88
532.509	77.88
532.724	78.88
532.938	87.88
533.153	90.88
533.367	85.88
533.582	87.88
533.796	91.88
534.011	86.88
534.225	71.88
534.44	96.88
534.654	77.88
534.868	97.88
535.083	90.88
535.297	82.88
535.511	88.88
535.726	87.88
535.94	88.88
536.154	81.88
536.369	84.88
536.583	103.88
536.797	94.88
537.011	76.88
537.225	81.88
537.44	77.88
537.654	78.88
537.868	83.88
538.082	72.88
538.296	77.88
538.51	87.88
538.724	99.88
538.938	91.88
539.153	96.88
539.367	92.88
539.581	80.88
539.795	97.88
540.009	87.88
540.222	74.88
540.436	100.88
540.65	89.88
540.864	79.88
541.078	102.88
541.292	102.88
541.506	98.88
541.72	99.88
541.934	109.88
542.147	116.88
542.361	109.88
542.575	100.88
542.789	99.88
543.002	101.88
543.216	93.88
543.43	90.88
543.644	86.88
543.857	103.88
544.071	95.88
544.285	104.88
544.498	93.88
544.712	99.88
544.925	110.88
545.139	94.88
545.352	104.88
545.566	97.88
545.779	109.88
545.993	94.88
546.206	105.88
546.42	89.88
546.633	99.88
546.847	106.88
547.06	98.88
547.274	106.88
547.487	98.88
547.7	110.88
547.914	119.88
548.127	111.88
548.34	114.88
548.554	87.88
548.767	99.88
548.98	88.88
549.193	115.88
549.407	109.88
549.62	112.88
549.833	104.88
550.046	104.88
550.259	110.88
550.473	108.88
550.686	106.88
550.899	90.88
551.112	107.88
551.325	105.88
551.538	88.88
551.751	86.88
551.964	88.88
552.177	79.88
552.39	88.88
552.603	101.88
552.816	100.88
553.029	97.88
553.242	116.88
553.455	90.88
553.667	102.88
553.88	97.88
554.093	115.88
554.306	99.88
554.519	81.88
554.732	91.88
554.944	93.88
555.157	82.88
555.37	96.88
555.583	96.88
555.795	99.88
556.008	92.88
556.221	107.88
556.433	108.88
556.646	104.88
556.859	95.88
557.071	91.88
557.284	112.88
557.496	102.88
557.709	96.88
557.921	85.88
558.134	92.88
558.346	88.88
558.559	87.88
558.771	100.88
558.984	99.88
559.196	105.88
559.409	87.88
559.621	102.88
559.833	99.88
560.046	92.88
560.258	95.88
560.47	113.88
560.683	96.88
560.895	89.88
561.107	106.88
561.32	95.88
561.532	84.88
561.744	84.88
561.956	94.88
562.168	89.88
562.381	96.88
562.593	102.88
562.805	91.88
563.017	98.88
563.229	102.88
563.441	93.88
563.653	89.88
563.865	95.88
564.077	99.88
564.289	110.88
564.501	95.88
564.713	89.88
564.925	72.88
565.137	86.88
565.349	84.88
565.561	105.88
565.773	87.88
565.985	95.88
566.197	91.88
566.408	104.88
566.62	89.88
566.832	92.88
567.044	85.88
567.255	89.88
567.467	85.88
567.679	92.88
567.891	90.88
568.102	76.88
568.314	85.88
568.526	87.88
568.737	92.88
568.949	68.88
569.161	80.88
569.372	69.88
569.584	57.88
569.795	84.88
570.007	72.88
570.218	85.88
570.43	92.88
570.641	87.88
570.853	92.88
571.064	93.88
571.276	82.88
571.487	74.88
571.698	86.88
571.91	83.88
572.121	84.88
572.333	90.88
572.544	89.88
572.755	100.88
572.966	74.88
573.178	75.88
573.389	77.88
573.6	86.88
573.811	91.88
574.023	80.88
574.234	82.88
574.445	82.88
574.656	95.88
574.867	86.88
575.078	92.88
575.289	84.88
575.501	90.88
575.712	83.88
575.923	78.88
576.134	79.88
576.345	74.88
576.556	88.88
576.767	86.88
576.978	87.88
577.188	80.88
577.399	84.88
577.61	86.88
577.821	78.88
578.032	84.88
578.243	84.88
578.454	100.88
578.665	86.88
578.875	94.88
579.086	86.88
579.297	78.88
579.508	98.88
579.718	81.88
579.929	80.88
580.14	89.88
580.35	82.88
580.561	81.88
580.772	78.88
580.982	88.88
581.193	85.88
581.403	83.88
581.614	86.88
581.825	93.88
582.035	81.88
582.246	85.88
582.456	79.88
582.667	76.88
582.877	95.88
583.087	77.88
583.298	75.88
583.508	82.88
583.719	85.88
583.929	70.88
584.139	80.88
584.35	82.88
584.56	101.88
584.77	97.88
584.981	61.88
585.191	69.88
585.401	90.88
585.611	92.88
585.821	84.88
586.032	84.88
586.242	81.88
586.452	84.88
586.662	91.88
586.872	84.88
587.082	87.88
587.292	81.88
587.502	83.88
587.713	76.88
587.923	86.88
588.133	85.88
588.343	78.88
588.553	87.88
588.762	82.88
588.972	93.88
589.182	92.88
589.392	89.88
589.602	84.88
589.812	69.88
590.022	75.88
590.232	81.88
590.441	77.88
590.651	92.88
590.861	80.88
591.071	77.88
591.281	91.88
591.49	79.88
591.7	78.88
591.91	77.88
592.119	90.88
592.329	88.88
592.539	82.88
592.748	82.88
592.958	78.88
593.167	65.88
593.377	84.88
593.587	70.88
593.796	80.88
594.006	79.88
594.215	66.88
594.424	71.88
594.634	74.88
594.843	93.88
595.053	76.88
595.262	90.88
595.472	89.88
595.681	87.88
595.89	76.88
596.1	78.88
596.309	73.88
596.518	92.88
596.727	96.88
596.937	83.88
597.146	85.88
597.355	87.88
597.564	101.88
597.774	78.88
597.983	83.88
598.192	87.88
598.401	69.88
598.61	79.88
598.819	76.88
599.028	89.88
599.237	79.88
599.446	87.88
599.655	102.88
599.864	78.88
600.073	87.88
600.282	100.88
600.491	79.88
600.7	67.88
600.909	87.88
601.118	90.88
601.327	94.88
601.536	84.88
601.745	78.88
601.953	84.88
602.162	89.88
602.371	85.88
602.58	100.88
602.789	91.88
602.997	92.88
603.206	98.88
603.415	95.88
603.623	94.88
603.832	81.88
604.041	89.88
604.249	84.88
604.458	99.88
604.666	86.88
604.875	102.88
605.084	92.88
605.292	81.88
605.501	86.88
605.709	83.88
605.918	85.88
606.126	87.88
606.334	87.88
606.543	95.88
606.751	94.88
606.96	84.88
607.168	85.88
607.376	85.88
607.585	88.88
607.793	87.88
608.001	88.88
608.21	82.88
608.418	97.88
608.626	84.88
608.834	96.88
609.043	94.88
609.251	86.88
609.459	92.88
609.667	92.88
609.875	92.88
610.083	81.88
610.291	101.88
610.499	94.88
610.707	115.88
610.916	77.88
611.124	83.88
611.332	87.88
611.54	85.88
611.748	94.88
611.955	93.88
612.163	94.88
612.371	82.88
612.579	92.88
612.787	92.88
612.995	101.88
613.203	74.88
613.411	88.88
613.618	92.88
613.826	85.88
614.034	76.88
614.242	104.88
614.449	97.88
614.657	87.88
614.865	96.88
615.072	75.88
615.28	79.88
615.488	85.88
615.695	83.88
615.903	88.88
616.111	84.88
616.318	95.88
616.526	91.88
616.733	86.88
616.941	92.88
617.148	91.88
617.356	108.88
617.563	106.88
617.771	96.88
617.978	93.88
618.185	95.88
618.393	93.88
618.6	89.88
618.807	80.88
619.015	84.88
619.222	91.88
619.429	83.88
619.637	98.88
619.844	87.88
620.051	81.88
620.258	80.88
620.466	92.88
620.673	100.88
620.88	80.88
621.087	80.88
621.294	66.88
621.501	95.88
621.708	93.88
621.915	95.88
622.122	82.88
622.329	98.88
622.536	95.88
622.743	113.88
622.95	82.88
623.157	85.88
623.364	96.88
623.571	85.88
623.778	95.88
623.985	96.88
624.192	88.88
624.399	98.88
624.606	99.88
624.812	96.88
625.019	92.88
625.226	89.88
625.433	100.88
625.639	89.88
625.846	88.88
626.053	79.88
626.259	83.88
626.466	86.88
626.673	94.88
626.879	77.88
627.086	79.88
627.293	79.88
627.499	81.88
627.706	88.88
627.912	88.88
628.119	79.88
628.325	84.88
628.532	99.88
628.738	90.88
628.945	85.88
629.151	93.88
629.357	76.88
629.564	81.88
629.77	92.88
629.976	92.88
630.183	79.88
630.389	79.88
630.595	86.88
630.802	83.88
631.008	94.88
631.214	88.88
631.42	87.88
631.627	92.88
631.833	85.88
632.039	84.88
632.245	84.88
632.451	97.88
632.657	89.88
632.863	83.88
633.069	94.88
633.275	97.88
633.481	81.88
633.688	97.88
633.893	95.88
634.099	80.88
634.305	79.88
634.511	97.88
634.717	87.88
634.923	86.88
635.129	88.88
635.335	67.88
635.541	82.88
635.747	90.88
635.952	78.88
636.158	93.88
636.364	86.88
636.57	74.88
636.775	89.88
636.981	88.88
637.187	80.88
637.392	93.88
637.598	93.88
637.804	83.88
638.009	81.88
638.215	87.88
638.421	84.88
638.626	89.88
638.832	88.88
639.037	75.88
639.243	77.88
639.448	73.88
639.654	78.88
639.859	85.88
640.065	68.88
640.27	95.88
640.475	76.88
640.681	89.88
640.886	78.88
641.091	90.88
641.297	81.88
641.502	75.88
641.707	86.88
641.913	75.88
642.118	87.88
642.323	77.88
642.528	99.88
642.733	86.88
642.939	83.88
643.144	91.88
643.349	79.88
643.554	78.88
643.759	88.88
643.964	84.88
644.169	102.88
644.374	101.88
644.579	95.88
644.784	72.88
644.989	93.88
645.194	80.88
645.399	85.88
645.604	91.88
645.809	97.88
646.014	78.88
646.219	80.88
646.423	88.88
646.628	101.88
646.833	82.88
647.038	85.88
647.243	83.88
647.447	92.88
647.652	68.88
647.857	80.88
648.062	79.88
648.266	101.88
648.471	81.88
648.676	80.88
648.88	92.88
649.085	80.88
649.289	92.88
649.494	75.88
649.698	89.88
649.903	86.88
650.107	85.88
650.312	95.88
650.516	83.88
650.721	82.88
650.925	82.88
651.13	79.88
651.334	87.88
651.539	80.88
651.743	85.88
651.947	90.88
652.152	88.88
652.356	72.88
652.56	81.88
652.764	92.88
652.969	92.88
653.173	88.88
653.377	88.88
653.581	73.88
653.785	78.88
653.99	79.88
654.194	85.88
654.398	75.88
654.602	77.88
654.806	86.88
655.01	84.88
655.214	82.88
655.418	79.88
655.622	88.88
655.826	70.88
656.03	79.88
656.234	82.88
656.438	64.88
656.642	80.88
656.846	89.88
657.049	98.88
657.253	100.88
657.457	77.88
657.661	69.88
657.865	74.88
658.068	89.88
658.272	82.88
658.476	80.88
658.68	79.88
658.883	82.88
659.087	82.88
659.291	80.88
659.494	77.88
659.698	85.88
659.901	71.88
660.105	81.88
660.309	80.88
660.512	77.88
660.716	85.88
660.919	77.88
661.123	88.88
661.326	78.88
661.53	78.88
661.733	82.88
661.936	83.88
662.14	72.88
662.343	76.88
662.546	69.88
662.75	83.88
662.953	84.88
663.156	91.88
663.36	96.88
663.563	79.88
663.766	87.88
663.969	74.88
664.173	68.88
664.376	81.88
664.579	92.88
664.782	83.88
664.985	80.88
665.188	80.88
665.391	86.88
665.594	82.88
665.797	87.88
666	80.88
666.203	82.88
666.406	74.88
666.609	82.88
666.812	84.88
667.015	74.88
667.218	68.88
667.421	73.88
667.624	84.88
667.827	84.88
668.03	82.88
668.232	72.88
668.435	93.88
668.638	80.88
668.841	80.88
669.043	94.88
669.246	72.88
669.449	71.88
669.651	66.88
669.854	83.88
670.057	73.88
670.259	72.88
670.462	97.88
670.665	76.88
670.867	70.88
671.07	84.88
671.272	92.88
671.475	78.88
671.677	66.88
671.88	71.88
672.082	70.88
672.284	81.88
672.487	82.88
672.689	84.88
672.892	78.88
