Data from Location4.07152019.Energy5.Lamp.07192019.3%Agarose_HRD10591_15-25-51-578.txt Node
Date: Fri Jul 19 15:25:51 EDT 2019
User: cochatt
Spectrometer: HR+D1059
Trigger mode: 1
Integration Time (sec): 1.000000E-1
Scans to average: 1
Electric dark correction enabled: true
Nonlinearity correction enabled: false
Boxcar width: 0
XAxis mode: Wavelengths
Number of Pixels in Spectrum: 2048
>>>>>Begin Spectral Data<<<<<
223.165	-17.25
223.4	-17.25
223.635	-17.25
223.869	-19.25
224.104	-8.25
224.338	-26.25
224.573	-9.25
224.808	-9.25
225.042	-7.25
225.277	-14.25
225.511	2.75
225.746	-5.25
225.98	22.75
226.215	7.75
226.449	17.75
226.683	10.75
226.918	25.75
227.152	28.75
227.387	30.75
227.621	42.75
227.856	34.75
228.09	49.75
228.324	52.75
228.559	50.75
228.793	60.75
229.027	63.75
229.262	66.75
229.496	68.75
229.73	63.75
229.964	68.75
230.199	75.75
230.433	81.75
230.667	88.75
230.901	67.75
231.136	81.75
231.37	75.75
231.604	81.75
231.838	82.75
232.072	82.75
232.306	75.75
232.541	88.75
232.775	89.75
233.009	89.75
233.243	97.75
233.477	79.75
233.711	82.75
233.945	89.75
234.179	78.75
234.413	75.75
234.647	82.75
234.881	89.75
235.115	63.75
235.349	70.75
235.583	79.75
235.817	88.75
236.051	84.75
236.285	70.75
236.519	84.75
236.753	82.75
236.987	66.75
237.221	83.75
237.455	68.75
237.689	86.75
237.922	95.75
238.156	80.75
238.39	85.75
238.624	86.75
238.858	84.75
239.091	73.75
239.325	79.75
239.559	69.75
239.793	78.75
240.027	79.75
240.26	77.75
240.494	78.75
240.728	78.75
240.961	77.75
241.195	70.75
241.429	67.75
241.662	65.75
241.896	73.75
242.13	75.75
242.363	82.75
242.597	78.75
242.83	78.75
243.064	79.75
243.298	67.75
243.531	78.75
243.765	76.75
243.998	78.75
244.232	92.75
244.465	75.75
244.699	82.75
244.932	79.75
245.166	86.75
245.399	68.75
245.633	76.75
245.866	67.75
246.099	74.75
246.333	90.75
246.566	88.75
246.8	79.75
247.033	82.75
247.266	73.75
247.5	82.75
247.733	87.75
247.966	74.75
248.2	93.75
248.433	66.75
248.666	72.75
248.899	64.75
249.133	64.75
249.366	95.75
249.599	88.75
249.832	82.75
250.066	72.75
250.299	80.75
250.532	80.75
250.765	84.75
250.998	76.75
251.231	69.75
251.465	81.75
251.698	71.75
251.931	86.75
252.164	80.75
252.397	80.75
252.63	75.75
252.863	76.75
253.096	80.75
253.329	77.75
253.562	86.75
253.795	68.75
254.028	87.75
254.261	90.75
254.494	77.75
254.727	100.75
254.96	64.75
255.193	77.75
255.426	84.75
255.659	88.75
255.892	87.75
256.124	101.75
256.357	79.75
256.59	83.75
256.823	83.75
257.056	87.75
257.289	86.75
257.521	72.75
257.754	84.75
257.987	75.75
258.22	71.75
258.452	76.75
258.685	87.75
258.918	86.75
259.151	76.75
259.383	89.75
259.616	80.75
259.849	71.75
260.081	87.75
260.314	88.75
260.547	67.75
260.779	70.75
261.012	92.75
261.244	68.75
261.477	82.75
261.71	75.75
261.942	91.75
262.175	80.75
262.407	83.75
262.64	86.75
262.872	80.75
263.105	80.75
263.337	87.75
263.57	92.75
263.802	87.75
264.035	80.75
264.267	76.75
264.499	65.75
264.732	80.75
264.964	87.75
265.197	86.75
265.429	82.75
265.661	84.75
265.894	84.75
266.126	83.75
266.358	70.75
266.591	67.75
266.823	73.75
267.055	98.75
267.287	86.75
267.52	82.75
267.752	95.75
267.984	82.75
268.216	67.75
268.448	88.75
268.681	79.75
268.913	87.75
269.145	75.75
269.377	88.75
269.609	89.75
269.841	90.75
270.073	68.75
270.306	83.75
270.538	85.75
270.77	72.75
271.002	82.75
271.234	66.75
271.466	83.75
271.698	67.75
271.93	72.75
272.162	80.75
272.394	77.75
272.626	81.75
272.858	81.75
273.09	83.75
273.322	95.75
273.553	72.75
273.785	81.75
274.017	94.75
274.249	73.75
274.481	65.75
274.713	83.75
274.945	95.75
275.176	88.75
275.408	92.75
275.64	85.75
275.872	84.75
276.104	91.75
276.335	85.75
276.567	85.75
276.799	91.75
277.031	86.75
277.262	87.75
277.494	91.75
277.726	84.75
277.957	77.75
278.189	103.75
278.421	69.75
278.652	78.75
278.884	76.75
279.115	81.75
279.347	92.75
279.579	84.75
279.81	74.75
280.042	80.75
280.273	86.75
280.505	88.75
280.736	82.75
280.968	73.75
281.199	93.75
281.431	81.75
281.662	80.75
281.894	78.75
282.125	100.75
282.356	85.75
282.588	99.75
282.819	87.75
283.051	95.75
283.282	87.75
283.513	82.75
283.745	80.75
283.976	93.75
284.207	95.75
284.439	84.75
284.67	85.75
284.901	75.75
285.132	80.75
285.364	77.75
285.595	80.75
285.826	74.75
286.057	96.75
286.288	74.75
286.52	89.75
286.751	96.75
286.982	82.75
287.213	74.75
287.444	73.75
287.675	80.75
287.906	87.75
288.138	88.75
288.369	75.75
288.6	89.75
288.831	100.75
289.062	74.75
289.293	92.75
289.524	73.75
289.755	70.75
289.986	72.75
290.217	72.75
290.448	85.75
290.679	69.75
290.91	70.75
291.141	93.75
291.371	85.75
291.602	95.75
291.833	89.75
292.064	87.75
292.295	84.75
292.526	74.75
292.757	74.75
292.987	82.75
293.218	86.75
293.449	68.75
293.68	90.75
293.91	81.75
294.141	94.75
294.372	86.75
294.603	87.75
294.833	87.75
295.064	85.75
295.295	80.75
295.525	88.75
295.756	96.75
295.987	91.75
296.217	93.75
296.448	83.75
296.679	78.75
296.909	80.75
297.14	82.75
297.37	85.75
297.601	75.75
297.831	82.75
298.062	90.75
298.292	67.75
298.523	87.75
298.753	79.75
298.984	66.75
299.214	86.75
299.445	95.75
299.675	80.75
299.905	93.75
300.136	84.75
300.366	83.75
300.597	91.75
300.827	83.75
301.057	66.75
301.288	89.75
301.518	75.75
301.748	82.75
301.979	94.75
302.209	78.75
302.439	102.75
302.669	87.75
302.9	67.75
303.13	87.75
303.36	82.75
303.59	79.75
303.82	78.75
304.051	95.75
304.281	82.75
304.511	79.75
304.741	83.75
304.971	72.75
305.201	82.75
305.431	84.75
305.661	90.75
305.891	80.75
306.121	82.75
306.352	74.75
306.582	77.75
306.812	89.75
307.042	93.75
307.272	90.75
307.502	81.75
307.731	69.75
307.961	81.75
308.191	86.75
308.421	94.75
308.651	93.75
308.881	91.75
309.111	67.75
309.341	88.75
309.571	94.75
309.8	80.75
310.03	77.75
310.26	92.75
310.49	88.75
310.72	83.75
310.949	95.75
311.179	91.75
311.409	77.75
311.639	81.75
311.868	96.75
312.098	76.75
312.328	77.75
312.557	75.75
312.787	84.75
313.017	89.75
313.246	79.75
313.476	82.75
313.706	82.75
313.935	87.75
314.165	95.75
314.394	83.75
314.624	90.75
314.853	76.75
315.083	75.75
315.312	83.75
315.542	87.75
315.771	77.75
316.001	76.75
316.23	91.75
316.46	88.75
316.689	95.75
316.919	76.75
317.148	77.75
317.377	63.75
317.607	88.75
317.836	78.75
318.065	83.75
318.295	89.75
318.524	94.75
318.753	87.75
318.983	82.75
319.212	84.75
319.441	77.75
319.67	88.75
319.9	79.75
320.129	71.75
320.358	91.75
320.587	68.75
320.816	73.75
321.046	72.75
321.275	93.75
321.504	76.75
321.733	92.75
321.962	90.75
322.191	86.75
322.42	77.75
322.649	89.75
322.878	80.75
323.108	83.75
323.337	85.75
323.566	92.75
323.795	89.75
324.024	74.75
324.253	97.75
324.482	83.75
324.71	82.75
324.939	105.75
325.168	85.75
325.397	74.75
325.626	96.75
325.855	87.75
326.084	82.75
326.313	86.75
326.542	78.75
326.77	91.75
326.999	83.75
327.228	87.75
327.457	83.75
327.686	77.75
327.914	74.75
328.143	67.75
328.372	75.75
328.6	77.75
328.829	94.75
329.058	104.75
329.287	74.75
329.515	83.75
329.744	101.75
329.972	83.75
330.201	82.75
330.43	91.75
330.658	82.75
330.887	76.75
331.115	89.75
331.344	100.75
331.572	81.75
331.801	67.75
332.03	97.75
332.258	80.75
332.486	95.75
332.715	75.75
332.943	81.75
333.172	83.75
333.4	81.75
333.629	91.75
333.857	81.75
334.085	82.75
334.314	86.75
334.542	83.75
334.771	87.75
334.999	99.75
335.227	63.75
335.455	87.75
335.684	98.75
335.912	79.75
336.14	85.75
336.369	81.75
336.597	78.75
336.825	85.75
337.053	90.75
337.281	75.75
337.51	87.75
337.738	67.75
337.966	91.75
338.194	82.75
338.422	83.75
338.65	82.75
338.878	84.75
339.106	92.75
339.334	91.75
339.562	88.75
339.79	85.75
340.018	84.75
340.246	83.75
340.474	83.75
340.702	74.75
340.93	81.75
341.158	73.75
341.386	93.75
341.614	86.75
341.842	85.75
342.07	85.75
342.298	71.75
342.526	75.75
342.754	76.75
342.981	84.75
343.209	70.75
343.437	81.75
343.665	87.75
343.893	81.75
344.12	89.75
344.348	81.75
344.576	85.75
344.804	82.75
345.031	71.75
345.259	71.75
345.487	93.75
345.714	86.75
345.942	84.75
346.17	97.75
346.397	77.75
346.625	86.75
346.853	83.75
347.08	64.75
347.308	70.75
347.535	82.75
347.763	75.75
347.99	83.75
348.218	85.75
348.445	75.75
348.673	84.75
348.9	91.75
349.128	89.75
349.355	96.75
349.583	86.75
349.81	94.75
350.037	86.75
350.265	69.75
350.492	96.75
350.72	75.75
350.947	82.75
351.174	82.75
351.402	81.75
351.629	83.75
351.856	89.75
352.083	75.75
352.311	80.75
352.538	78.75
352.765	82.75
352.992	74.75
353.22	78.75
353.447	82.75
353.674	72.75
353.901	86.75
354.128	76.75
354.355	69.75
354.583	89.75
354.81	83.75
355.037	89.75
355.264	89.75
355.491	76.75
355.718	85.75
355.945	83.75
356.172	89.75
356.399	75.75
356.626	79.75
356.853	76.75
357.08	88.75
357.307	75.75
357.534	83.75
357.761	94.75
357.988	87.75
358.215	76.75
358.441	92.75
358.668	76.75
358.895	81.75
359.122	82.75
359.349	81.75
359.576	57.75
359.802	85.75
360.029	86.75
360.256	72.75
360.483	80.75
360.709	86.75
360.936	89.75
361.163	86.75
361.39	83.75
361.616	96.75
361.843	75.75
362.07	74.75
362.296	77.75
362.523	77.75
362.749	78.75
362.976	93.75
363.203	94.75
363.429	80.75
363.656	76.75
363.882	82.75
364.109	77.75
364.335	91.75
364.562	85.75
364.788	79.75
365.015	78.75
365.241	84.75
365.468	101.75
365.694	83.75
365.92	83.75
366.147	91.75
366.373	74.75
366.599	75.75
366.826	88.75
367.052	85.75
367.278	83.75
367.505	83.75
367.731	98.75
367.957	90.75
368.184	73.75
368.41	76.75
368.636	99.75
368.862	82.75
369.089	67.75
369.315	92.75
369.541	98.75
369.767	79.75
369.993	80.75
370.219	74.75
370.445	83.75
370.672	92.75
370.898	87.75
371.124	87.75
371.35	84.75
371.576	84.75
371.802	84.75
372.028	94.75
372.254	87.75
372.48	89.75
372.706	106.75
372.932	71.75
373.158	70.75
373.384	100.75
373.61	93.75
373.835	71.75
374.061	99.75
374.287	83.75
374.513	77.75
374.739	79.75
374.965	95.75
375.191	71.75
375.416	79.75
375.642	90.75
375.868	86.75
376.094	93.75
376.319	84.75
376.545	65.75
376.771	81.75
376.997	78.75
377.222	89.75
377.448	90.75
377.674	84.75
377.899	77.75
378.125	81.75
378.35	80.75
378.576	89.75
378.802	85.75
379.027	94.75
379.253	91.75
379.478	84.75
379.704	93.75
379.929	96.75
380.155	90.75
380.38	83.75
380.606	82.75
380.831	84.75
381.057	88.75
381.282	82.75
381.507	82.75
381.733	74.75
381.958	73.75
382.184	70.75
382.409	83.75
382.634	73.75
382.86	91.75
383.085	87.75
383.31	67.75
383.535	88.75
383.761	84.75
383.986	94.75
384.211	78.75
384.436	86.75
384.662	80.75
384.887	95.75
385.112	81.75
385.337	75.75
385.562	85.75
385.787	83.75
386.013	96.75
386.238	74.75
386.463	74.75
386.688	68.75
386.913	83.75
387.138	69.75
387.363	88.75
387.588	71.75
387.813	90.75
388.038	91.75
388.263	92.75
388.488	85.75
388.713	75.75
388.938	79.75
389.163	86.75
389.387	81.75
389.612	92.75
389.837	85.75
390.062	85.75
390.287	83.75
390.512	82.75
390.736	87.75
390.961	91.75
391.186	90.75
391.411	87.75
391.636	98.75
391.86	94.75
392.085	82.75
392.31	99.75
392.534	87.75
392.759	88.75
392.984	95.75
393.208	81.75
393.433	69.75
393.658	79.75
393.882	87.75
394.107	86.75
394.331	98.75
394.556	101.75
394.78	91.75
395.005	88.75
395.229	77.75
395.454	94.75
395.678	89.75
395.903	91.75
396.127	95.75
396.352	95.75
396.576	91.75
396.801	90.75
397.025	92.75
397.249	88.75
397.474	87.75
397.698	97.75
397.922	99.75
398.147	76.75
398.371	78.75
398.595	102.75
398.82	101.75
399.044	100.75
399.268	90.75
399.492	100.75
399.717	79.75
399.941	95.75
400.165	80.75
400.389	99.75
400.613	79.75
400.837	100.75
401.062	83.75
401.286	91.75
401.51	80.75
401.734	88.75
401.958	103.75
402.182	86.75
402.406	85.75
402.63	93.75
402.854	86.75
403.078	97.75
403.302	97.75
403.526	84.75
403.75	92.75
403.974	88.75
404.198	92.75
404.422	90.75
404.645	73.75
404.869	95.75
405.093	79.75
405.317	88.75
405.541	73.75
405.765	83.75
405.988	89.75
406.212	89.75
406.436	92.75
406.66	95.75
406.883	98.75
407.107	97.75
407.331	92.75
407.555	82.75
407.778	92.75
408.002	90.75
408.226	94.75
408.449	84.75
408.673	67.75
408.896	111.75
409.12	97.75
409.344	72.75
409.567	90.75
409.791	88.75
410.014	81.75
410.238	85.75
410.461	89.75
410.685	79.75
410.908	93.75
411.132	104.75
411.355	88.75
411.578	84.75
411.802	96.75
412.025	96.75
412.249	84.75
412.472	83.75
412.695	84.75
412.919	77.75
413.142	95.75
413.365	86.75
413.589	83.75
413.812	103.75
414.035	93.75
414.258	87.75
414.482	98.75
414.705	82.75
414.928	92.75
415.151	97.75
415.374	86.75
415.597	101.75
415.821	104.75
416.044	92.75
416.267	89.75
416.49	85.75
416.713	99.75
416.936	97.75
417.159	82.75
417.382	88.75
417.605	84.75
417.828	98.75
418.051	101.75
418.274	94.75
418.497	81.75
418.72	96.75
418.943	89.75
419.166	91.75
419.389	90.75
419.611	88.75
419.834	82.75
420.057	97.75
420.28	84.75
420.503	95.75
420.726	95.75
420.948	104.75
421.171	102.75
421.394	106.75
421.617	98.75
421.839	99.75
422.062	106.75
422.285	91.75
422.507	90.75
422.73	96.75
422.953	77.75
423.175	93.75
423.398	107.75
423.621	98.75
423.843	92.75
424.066	88.75
424.288	110.75
424.511	89.75
424.733	101.75
424.956	99.75
425.178	91.75
425.401	100.75
425.623	106.75
425.846	105.75
426.068	95.75
426.291	94.75
426.513	84.75
426.735	86.75
426.958	91.75
427.18	88.75
427.402	103.75
427.625	90.75
427.847	81.75
428.069	86.75
428.292	100.75
428.514	91.75
428.736	97.75
428.958	96.75
429.181	103.75
429.403	99.75
429.625	88.75
429.847	86.75
430.069	97.75
430.292	86.75
430.514	97.75
430.736	96.75
430.958	88.75
431.18	104.75
431.402	89.75
431.624	99.75
431.846	85.75
432.068	105.75
432.29	91.75
432.512	85.75
432.734	86.75
432.956	86.75
433.178	89.75
433.4	104.75
433.622	103.75
433.844	98.75
434.066	96.75
434.287	86.75
434.509	74.75
434.731	86.75
434.953	97.75
435.175	92.75
435.397	91.75
435.618	77.75
435.84	89.75
436.062	87.75
436.284	106.75
436.505	93.75
436.727	92.75
436.949	95.75
437.17	92.75
437.392	88.75
437.614	92.75
437.835	80.75
438.057	75.75
438.278	82.75
438.5	80.75
438.721	94.75
438.943	95.75
439.165	96.75
439.386	94.75
439.608	95.75
439.829	93.75
440.05	98.75
440.272	90.75
440.493	83.75
440.715	83.75
440.936	89.75
441.158	91.75
441.379	105.75
441.6	107.75
441.822	87.75
442.043	84.75
442.264	99.75
442.486	91.75
442.707	91.75
442.928	86.75
443.149	100.75
443.371	108.75
443.592	90.75
443.813	103.75
444.034	104.75
444.255	100.75
444.476	100.75
444.698	119.75
444.919	101.75
445.14	246.75
445.361	161.75
445.582	113.75
445.803	92.75
446.024	103.75
446.245	93.75
446.466	92.75
446.687	94.75
446.908	106.75
447.129	101.75
447.35	100.75
447.571	91.75
447.792	96.75
448.013	92.75
448.234	101.75
448.455	107.75
448.675	98.75
448.896	106.75
449.117	97.75
449.338	104.75
449.559	91.75
449.779	94.75
450	111.75
450.221	101.75
450.442	95.75
450.662	93.75
450.883	102.75
451.104	96.75
451.324	96.75
451.545	112.75
451.766	110.75
451.986	96.75
452.207	96.75
452.428	90.75
452.648	98.75
452.869	95.75
453.089	88.75
453.31	80.75
453.53	92.75
453.751	96.75
453.971	69.75
454.192	91.75
454.412	96.75
454.633	97.75
454.853	99.75
455.073	91.75
455.294	99.75
455.514	95.75
455.734	95.75
455.955	73.75
456.175	90.75
456.395	85.75
456.616	91.75
456.836	80.75
457.056	91.75
457.276	72.75
457.497	88.75
457.717	94.75
457.937	93.75
458.157	88.75
458.377	86.75
458.598	80.75
458.818	78.75
459.038	83.75
459.258	84.75
459.478	69.75
459.698	86.75
459.918	111.75
460.138	84.75
460.358	92.75
460.578	94.75
460.798	86.75
461.018	84.75
461.238	81.75
461.458	86.75
461.678	106.75
461.898	94.75
462.118	89.75
462.338	84.75
462.558	99.75
462.777	89.75
462.997	89.75
463.217	84.75
463.437	106.75
463.657	94.75
463.876	78.75
464.096	90.75
464.316	95.75
464.536	91.75
464.755	88.75
464.975	96.75
465.195	84.75
465.414	99.75
465.634	94.75
465.854	84.75
466.073	86.75
466.293	98.75
466.512	94.75
466.732	106.75
466.951	116.75
467.171	91.75
467.391	99.75
467.61	102.75
467.829	103.75
468.049	91.75
468.268	96.75
468.488	89.75
468.707	90.75
468.927	106.75
469.146	80.75
469.365	94.75
469.585	90.75
469.804	105.75
470.023	93.75
470.243	98.75
470.462	113.75
470.681	98.75
470.901	99.75
471.12	110.75
471.339	110.75
471.558	111.75
471.777	98.75
471.997	102.75
472.216	91.75
472.435	97.75
472.654	83.75
472.873	98.75
473.092	83.75
473.311	96.75
473.53	88.75
473.749	87.75
473.968	98.75
474.187	79.75
474.406	89.75
474.625	83.75
474.844	87.75
475.063	90.75
475.282	98.75
475.501	86.75
475.72	92.75
475.939	89.75
476.158	86.75
476.377	110.75
476.596	90.75
476.814	91.75
477.033	103.75
477.252	85.75
477.471	98.75
477.69	101.75
477.908	102.75
478.127	108.75
478.346	96.75
478.564	107.75
478.783	94.75
479.002	100.75
479.22	89.75
479.439	100.75
479.658	99.75
479.876	100.75
480.095	97.75
480.313	88.75
480.532	86.75
480.751	88.75
480.969	85.75
481.188	74.75
481.406	84.75
481.624	90.75
481.843	96.75
482.061	96.75
482.28	80.75
482.498	92.75
482.717	75.75
482.935	98.75
483.153	88.75
483.372	104.75
483.59	98.75
483.808	88.75
484.027	105.75
484.245	106.75
484.463	103.75
484.681	107.75
484.9	105.75
485.118	91.75
485.336	105.75
485.554	80.75
485.772	82.75
485.99	87.75
486.209	81.75
486.427	97.75
486.645	90.75
486.863	88.75
487.081	87.75
487.299	81.75
487.517	98.75
487.735	105.75
487.953	112.75
488.171	107.75
488.389	103.75
488.607	100.75
488.825	101.75
489.043	98.75
489.261	99.75
489.479	91.75
489.696	99.75
489.914	89.75
490.132	107.75
490.35	97.75
490.568	107.75
490.786	106.75
491.003	110.75
491.221	102.75
491.439	112.75
491.657	106.75
491.874	121.75
492.092	122.75
492.31	131.75
492.527	128.75
492.745	117.75
492.963	116.75
493.18	111.75
493.398	107.75
493.615	107.75
493.833	113.75
494.05	109.75
494.268	114.75
494.485	113.75
494.703	107.75
494.92	90.75
495.138	91.75
495.355	114.75
495.573	116.75
495.79	100.75
496.008	95.75
496.225	94.75
496.442	96.75
496.66	107.75
496.877	107.75
497.094	113.75
497.312	103.75
497.529	100.75
497.746	98.75
497.963	96.75
498.181	109.75
498.398	98.75
498.615	102.75
498.832	95.75
499.049	89.75
499.267	111.75
499.484	84.75
499.701	86.75
499.918	90.75
500.135	87.75
500.352	90.75
500.569	105.75
500.786	113.75
501.003	90.75
501.22	84.75
501.437	104.75
501.654	95.75
501.871	89.75
502.088	98.75
502.305	91.75
502.522	84.75
502.739	96.75
502.956	96.75
503.172	90.75
503.389	96.75
503.606	90.75
503.823	83.75
504.04	99.75
504.256	86.75
504.473	98.75
504.69	92.75
504.907	97.75
505.123	92.75
505.34	101.75
505.557	95.75
505.773	103.75
505.99	87.75
506.207	105.75
506.423	78.75
506.64	85.75
506.856	103.75
507.073	105.75
507.289	95.75
507.506	86.75
507.722	96.75
507.939	103.75
508.155	111.75
508.372	92.75
508.588	76.75
508.805	86.75
509.021	76.75
509.238	94.75
509.454	89.75
509.67	95.75
509.887	94.75
510.103	92.75
510.319	86.75
510.536	85.75
510.752	81.75
510.968	68.75
511.184	87.75
511.401	73.75
511.617	77.75
511.833	89.75
512.049	88.75
512.265	87.75
512.481	83.75
512.698	79.75
512.914	87.75
513.13	68.75
513.346	76.75
513.562	82.75
513.778	94.75
513.994	88.75
514.21	85.75
514.426	81.75
514.642	101.75
514.858	88.75
515.074	92.75
515.29	101.75
515.506	91.75
515.721	91.75
515.937	80.75
516.153	75.75
516.369	77.75
516.585	74.75
516.801	85.75
517.016	88.75
517.232	75.75
517.448	88.75
517.664	86.75
517.879	82.75
518.095	81.75
518.311	92.75
518.527	85.75
518.742	79.75
518.958	78.75
519.173	84.75
519.389	97.75
519.605	84.75
519.82	93.75
520.036	92.75
520.251	84.75
520.467	86.75
520.682	83.75
520.898	81.75
521.113	78.75
521.329	86.75
521.544	74.75
521.76	75.75
521.975	71.75
522.19	81.75
522.406	92.75
522.621	96.75
522.836	86.75
523.052	88.75
523.267	97.75
523.482	80.75
523.698	94.75
523.913	91.75
524.128	93.75
524.343	86.75
524.559	86.75
524.774	99.75
524.989	99.75
525.204	94.75
525.419	107.75
525.634	94.75
525.849	73.75
526.064	102.75
526.28	86.75
526.495	91.75
526.71	74.75
526.925	92.75
527.14	73.75
527.355	88.75
527.57	86.75
527.785	87.75
527.999	80.75
528.214	100.75
528.429	83.75
528.644	99.75
528.859	88.75
529.074	103.75
529.289	107.75
529.503	101.75
529.718	86.75
529.933	109.75
530.148	94.75
530.363	80.75
530.577	87.75
530.792	83.75
531.007	79.75
531.221	91.75
531.436	79.75
531.651	89.75
531.865	84.75
532.08	78.75
532.295	94.75
532.509	85.75
532.724	92.75
532.938	86.75
533.153	78.75
533.367	87.75
533.582	96.75
533.796	101.75
534.011	98.75
534.225	87.75
534.44	83.75
534.654	84.75
534.868	82.75
535.083	80.75
535.297	99.75
535.511	92.75
535.726	90.75
535.94	85.75
536.154	98.75
536.369	84.75
536.583	88.75
536.797	86.75
537.011	71.75
537.225	80.75
537.44	71.75
537.654	85.75
537.868	83.75
538.082	84.75
538.296	82.75
538.51	72.75
538.724	105.75
538.938	95.75
539.153	92.75
539.367	107.75
539.581	95.75
539.795	77.75
540.009	73.75
540.222	77.75
540.436	94.75
540.65	96.75
540.864	99.75
541.078	99.75
541.292	116.75
541.506	120.75
541.72	108.75
541.934	130.75
542.147	121.75
542.361	121.75
542.575	111.75
542.789	95.75
543.002	92.75
543.216	102.75
543.43	102.75
543.644	107.75
543.857	112.75
544.071	115.75
544.285	105.75
544.498	111.75
544.712	108.75
544.925	100.75
545.139	116.75
545.352	98.75
545.566	102.75
545.779	105.75
545.993	107.75
546.206	121.75
546.42	115.75
546.633	103.75
546.847	102.75
547.06	114.75
547.274	121.75
547.487	119.75
547.7	95.75
547.914	119.75
548.127	120.75
548.34	104.75
548.554	104.75
548.767	107.75
548.98	95.75
549.193	92.75
549.407	111.75
549.62	110.75
549.833	104.75
550.046	102.75
550.259	114.75
550.473	106.75
550.686	106.75
550.899	99.75
551.112	99.75
551.325	118.75
551.538	102.75
551.751	105.75
551.964	79.75
552.177	99.75
552.39	94.75
552.603	107.75
552.816	105.75
553.029	98.75
553.242	116.75
553.455	97.75
553.667	106.75
553.88	112.75
554.093	109.75
554.306	102.75
554.519	99.75
554.732	101.75
554.944	120.75
555.157	100.75
555.37	91.75
555.583	91.75
555.795	112.75
556.008	97.75
556.221	98.75
556.433	105.75
556.646	99.75
556.859	95.75
557.071	91.75
557.284	102.75
557.496	98.75
557.709	91.75
557.921	106.75
558.134	96.75
558.346	103.75
558.559	105.75
558.771	106.75
558.984	102.75
559.196	102.75
559.409	105.75
559.621	111.75
559.833	97.75
560.046	98.75
560.258	109.75
560.47	98.75
560.683	86.75
560.895	103.75
561.107	103.75
561.32	100.75
561.532	92.75
561.744	95.75
561.956	90.75
562.168	94.75
562.381	97.75
562.593	93.75
562.805	111.75
563.017	100.75
563.229	99.75
563.441	98.75
563.653	80.75
563.865	96.75
564.077	92.75
564.289	95.75
564.501	90.75
564.713	86.75
564.925	95.75
565.137	94.75
565.349	99.75
565.561	102.75
565.773	95.75
565.985	89.75
566.197	89.75
566.408	111.75
566.62	89.75
566.832	91.75
567.044	84.75
567.255	100.75
567.467	86.75
567.679	89.75
567.891	92.75
568.102	98.75
568.314	92.75
568.526	75.75
568.737	91.75
568.949	90.75
569.161	84.75
569.372	99.75
569.584	89.75
569.795	91.75
570.007	82.75
570.218	91.75
570.43	83.75
570.641	87.75
570.853	84.75
571.064	85.75
571.276	91.75
571.487	93.75
571.698	76.75
571.91	104.75
572.121	94.75
572.333	95.75
572.544	88.75
572.755	81.75
572.966	85.75
573.178	98.75
573.389	101.75
573.6	94.75
573.811	67.75
574.023	84.75
574.234	76.75
574.445	91.75
574.656	80.75
574.867	95.75
575.078	75.75
575.289	93.75
575.501	101.75
575.712	69.75
575.923	85.75
576.134	75.75
576.345	91.75
576.556	100.75
576.767	89.75
576.978	96.75
577.188	96.75
577.399	87.75
577.61	100.75
577.821	98.75
578.032	91.75
578.243	96.75
578.454	82.75
578.665	76.75
578.875	69.75
579.086	74.75
579.297	86.75
579.508	76.75
579.718	74.75
579.929	75.75
580.14	83.75
580.35	85.75
580.561	79.75
580.772	76.75
580.982	77.75
581.193	83.75
581.403	78.75
581.614	92.75
581.825	97.75
582.035	87.75
582.246	82.75
582.456	84.75
582.667	58.75
582.877	88.75
583.087	84.75
583.298	77.75
583.508	81.75
583.719	76.75
583.929	91.75
584.139	90.75
584.35	82.75
584.56	73.75
584.77	86.75
584.981	82.75
585.191	77.75
585.401	81.75
585.611	86.75
585.821	92.75
586.032	98.75
586.242	77.75
586.452	87.75
586.662	82.75
586.872	79.75
587.082	88.75
587.292	99.75
587.502	76.75
587.713	82.75
587.923	80.75
588.133	80.75
588.343	71.75
588.553	79.75
588.762	96.75
588.972	97.75
589.182	81.75
589.392	80.75
589.602	74.75
589.812	95.75
590.022	98.75
590.232	86.75
590.441	85.75
590.651	74.75
590.861	89.75
591.071	94.75
591.281	83.75
591.49	72.75
591.7	82.75
591.91	85.75
592.119	80.75
592.329	88.75
592.539	91.75
592.748	92.75
592.958	81.75
593.167	92.75
593.377	88.75
593.587	86.75
593.796	86.75
594.006	77.75
594.215	89.75
594.424	86.75
594.634	86.75
594.843	84.75
595.053	80.75
595.262	94.75
595.472	85.75
595.681	95.75
595.89	87.75
596.1	102.75
596.309	89.75
596.518	97.75
596.727	105.75
596.937	97.75
597.146	91.75
597.355	103.75
597.564	83.75
597.774	88.75
597.983	85.75
598.192	80.75
598.401	88.75
598.61	91.75
598.819	95.75
599.028	98.75
599.237	85.75
599.446	89.75
599.655	85.75
599.864	97.75
600.073	80.75
600.282	97.75
600.491	78.75
600.7	96.75
600.909	79.75
601.118	97.75
601.327	99.75
601.536	85.75
601.745	103.75
601.953	92.75
602.162	86.75
602.371	80.75
602.58	88.75
602.789	92.75
602.997	100.75
603.206	88.75
603.415	91.75
603.623	100.75
603.832	94.75
604.041	79.75
604.249	77.75
604.458	83.75
604.666	97.75
604.875	79.75
605.084	76.75
605.292	98.75
605.501	107.75
605.709	103.75
605.918	96.75
606.126	90.75
606.334	88.75
606.543	90.75
606.751	96.75
606.96	95.75
607.168	96.75
607.376	89.75
607.585	100.75
607.793	91.75
608.001	85.75
608.21	90.75
608.418	106.75
608.626	96.75
608.834	87.75
609.043	95.75
609.251	99.75
609.459	85.75
609.667	84.75
609.875	90.75
610.083	91.75
610.291	85.75
610.499	97.75
610.707	112.75
610.916	86.75
611.124	97.75
611.332	103.75
611.54	98.75
611.748	101.75
611.955	95.75
612.163	89.75
612.371	90.75
612.579	88.75
612.787	99.75
612.995	105.75
613.203	96.75
613.411	99.75
613.618	98.75
613.826	81.75
614.034	85.75
614.242	100.75
614.449	89.75
614.657	95.75
614.865	91.75
615.072	112.75
615.28	104.75
615.488	77.75
615.695	94.75
615.903	89.75
616.111	96.75
616.318	104.75
616.526	82.75
616.733	83.75
616.941	97.75
617.148	94.75
617.356	97.75
617.563	85.75
617.771	95.75
617.978	104.75
618.185	84.75
618.393	98.75
618.6	96.75
618.807	119.75
619.015	103.75
619.222	90.75
619.429	80.75
619.637	89.75
619.844	83.75
620.051	96.75
620.258	96.75
620.466	96.75
620.673	97.75
620.88	99.75
621.087	91.75
621.294	104.75
621.501	96.75
621.708	90.75
621.915	96.75
622.122	99.75
622.329	94.75
622.536	87.75
622.743	89.75
622.95	78.75
623.157	84.75
623.364	110.75
623.571	89.75
623.778	82.75
623.985	101.75
624.192	88.75
624.399	88.75
624.606	101.75
624.812	87.75
625.019	74.75
625.226	80.75
625.433	70.75
625.639	72.75
625.846	89.75
626.053	95.75
626.259	95.75
626.466	98.75
626.673	75.75
626.879	84.75
627.086	88.75
627.293	93.75
627.499	72.75
627.706	87.75
627.912	85.75
628.119	95.75
628.325	105.75
628.532	81.75
628.738	99.75
628.945	99.75
629.151	95.75
629.357	96.75
629.564	96.75
629.77	99.75
629.976	90.75
630.183	85.75
630.389	89.75
630.595	89.75
630.802	79.75
631.008	95.75
631.214	81.75
631.42	84.75
631.627	99.75
631.833	91.75
632.039	103.75
632.245	87.75
632.451	89.75
632.657	84.75
632.863	99.75
633.069	84.75
633.275	107.75
633.481	89.75
633.688	77.75
633.893	88.75
634.099	81.75
634.305	80.75
634.511	82.75
634.717	82.75
634.923	82.75
635.129	70.75
635.335	80.75
635.541	90.75
635.747	80.75
635.952	71.75
636.158	95.75
636.364	98.75
636.57	90.75
636.775	84.75
636.981	97.75
637.187	92.75
637.392	91.75
637.598	95.75
637.804	84.75
638.009	92.75
638.215	99.75
638.421	94.75
638.626	107.75
638.832	81.75
639.037	79.75
639.243	88.75
639.448	77.75
639.654	97.75
639.859	86.75
640.065	96.75
640.27	98.75
640.475	106.75
640.681	91.75
640.886	88.75
641.091	92.75
641.297	83.75
641.502	85.75
641.707	76.75
641.913	86.75
642.118	87.75
642.323	91.75
642.528	88.75
642.733	81.75
642.939	82.75
643.144	92.75
643.349	91.75
643.554	91.75
643.759	89.75
643.964	105.75
644.169	91.75
644.374	88.75
644.579	86.75
644.784	85.75
644.989	82.75
645.194	82.75
645.399	73.75
645.604	87.75
645.809	92.75
646.014	89.75
646.219	83.75
646.423	91.75
646.628	79.75
646.833	82.75
647.038	98.75
647.243	93.75
647.447	85.75
647.652	78.75
647.857	86.75
648.062	74.75
648.266	88.75
648.471	87.75
648.676	106.75
648.88	89.75
649.085	82.75
649.289	94.75
649.494	87.75
649.698	101.75
649.903	93.75
650.107	79.75
650.312	95.75
650.516	87.75
650.721	76.75
650.925	90.75
651.13	86.75
651.334	82.75
651.539	94.75
651.743	83.75
651.947	69.75
652.152	79.75
652.356	89.75
652.56	90.75
652.764	85.75
652.969	74.75
653.173	87.75
653.377	80.75
653.581	79.75
653.785	87.75
653.99	81.75
654.194	74.75
654.398	95.75
654.602	84.75
654.806	78.75
655.01	81.75
655.214	81.75
655.418	87.75
655.622	87.75
655.826	90.75
656.03	79.75
656.234	75.75
656.438	78.75
656.642	95.75
656.846	93.75
657.049	87.75
657.253	82.75
657.457	80.75
657.661	72.75
657.865	89.75
658.068	75.75
658.272	88.75
658.476	95.75
658.68	90.75
658.883	80.75
659.087	85.75
659.291	95.75
659.494	81.75
659.698	77.75
659.901	84.75
660.105	88.75
660.309	73.75
660.512	79.75
660.716	80.75
660.919	89.75
661.123	79.75
661.326	90.75
661.53	77.75
661.733	89.75
661.936	76.75
662.14	84.75
662.343	95.75
662.546	91.75
662.75	94.75
662.953	90.75
663.156	85.75
663.36	86.75
663.563	76.75
663.766	86.75
663.969	83.75
664.173	78.75
664.376	80.75
664.579	70.75
664.782	77.75
664.985	88.75
665.188	84.75
665.391	77.75
665.594	85.75
665.797	84.75
666	86.75
666.203	85.75
666.406	77.75
666.609	92.75
666.812	93.75
667.015	82.75
667.218	88.75
667.421	90.75
667.624	86.75
667.827	87.75
668.03	86.75
668.232	79.75
668.435	75.75
668.638	88.75
668.841	83.75
669.043	76.75
669.246	81.75
669.449	88.75
669.651	73.75
669.854	76.75
670.057	71.75
670.259	84.75
670.462	85.75
670.665	87.75
670.867	78.75
671.07	87.75
671.272	77.75
671.475	85.75
671.677	85.75
671.88	84.75
672.082	69.75
672.284	93.75
672.487	89.75
672.689	92.75
672.892	89.75
