Data from Location4.07152019.Energy5.Lamp.07192019.3%Agarose_HRD10591_15-23-08-576.txt Node
Date: Fri Jul 19 15:23:08 EDT 2019
User: cochatt
Spectrometer: HR+D1059
Trigger mode: 1
Integration Time (sec): 1.000000E-1
Scans to average: 1
Electric dark correction enabled: true
Nonlinearity correction enabled: false
Boxcar width: 0
XAxis mode: Wavelengths
Number of Pixels in Spectrum: 2048
>>>>>Begin Spectral Data<<<<<
223.165	-14.94
223.4	-14.94
223.635	-14.94
223.869	-13.94
224.104	-13.94
224.338	-10.94
224.573	-25.94
224.808	-23.94
225.042	-17.94
225.277	2.06
225.511	1.06
225.746	2.06
225.98	9.06
226.215	12.06
226.449	14.06
226.683	19.06
226.918	23.06
227.152	39.06
227.387	38.06
227.621	30.06
227.856	43.06
228.09	49.06
228.324	57.06
228.559	54.06
228.793	49.06
229.027	77.06
229.262	55.06
229.496	74.06
229.73	75.06
229.964	61.06
230.199	75.06
230.433	75.06
230.667	82.06
230.901	78.06
231.136	82.06
231.37	86.06
231.604	88.06
231.838	86.06
232.072	87.06
232.306	86.06
232.541	73.06
232.775	73.06
233.009	82.06
233.243	92.06
233.477	81.06
233.711	70.06
233.945	78.06
234.179	85.06
234.413	84.06
234.647	87.06
234.881	64.06
235.115	73.06
235.349	74.06
235.583	74.06
235.817	84.06
236.051	83.06
236.285	75.06
236.519	85.06
236.753	92.06
236.987	74.06
237.221	77.06
237.455	90.06
237.689	78.06
237.922	89.06
238.156	66.06
238.39	84.06
238.624	90.06
238.858	83.06
239.091	69.06
239.325	81.06
239.559	70.06
239.793	71.06
240.027	69.06
240.26	74.06
240.494	67.06
240.728	74.06
240.961	77.06
241.195	66.06
241.429	81.06
241.662	69.06
241.896	90.06
242.13	76.06
242.363	65.06
242.597	70.06
242.83	76.06
243.064	75.06
243.298	90.06
243.531	76.06
243.765	83.06
243.998	79.06
244.232	80.06
244.465	75.06
244.699	91.06
244.932	74.06
245.166	74.06
245.399	71.06
245.633	75.06
245.866	82.06
246.099	89.06
246.333	65.06
246.566	83.06
246.8	76.06
247.033	65.06
247.266	64.06
247.5	71.06
247.733	61.06
247.966	83.06
248.2	79.06
248.433	86.06
248.666	87.06
248.899	84.06
249.133	75.06
249.366	77.06
249.599	73.06
249.832	78.06
250.066	87.06
250.299	80.06
250.532	90.06
250.765	75.06
250.998	80.06
251.231	77.06
251.465	89.06
251.698	86.06
251.931	84.06
252.164	91.06
252.397	80.06
252.63	77.06
252.863	72.06
253.096	79.06
253.329	81.06
253.562	83.06
253.795	69.06
254.028	86.06
254.261	75.06
254.494	71.06
254.727	86.06
254.96	97.06
255.193	98.06
255.426	82.06
255.659	76.06
255.892	77.06
256.124	93.06
256.357	90.06
256.59	84.06
256.823	87.06
257.056	80.06
257.289	87.06
257.521	77.06
257.754	79.06
257.987	74.06
258.22	93.06
258.452	81.06
258.685	81.06
258.918	73.06
259.151	79.06
259.383	86.06
259.616	91.06
259.849	90.06
260.081	91.06
260.314	83.06
260.547	74.06
260.779	86.06
261.012	69.06
261.244	85.06
261.477	70.06
261.71	86.06
261.942	87.06
262.175	72.06
262.407	82.06
262.64	90.06
262.872	88.06
263.105	80.06
263.337	80.06
263.57	83.06
263.802	76.06
264.035	89.06
264.267	79.06
264.499	89.06
264.732	87.06
264.964	97.06
265.197	77.06
265.429	75.06
265.661	77.06
265.894	74.06
266.126	81.06
266.358	79.06
266.591	82.06
266.823	77.06
267.055	92.06
267.287	81.06
267.52	70.06
267.752	77.06
267.984	85.06
268.216	82.06
268.448	72.06
268.681	88.06
268.913	83.06
269.145	104.06
269.377	84.06
269.609	76.06
269.841	69.06
270.073	66.06
270.306	70.06
270.538	85.06
270.77	79.06
271.002	85.06
271.234	72.06
271.466	72.06
271.698	79.06
271.93	82.06
272.162	79.06
272.394	93.06
272.626	88.06
272.858	77.06
273.09	85.06
273.322	74.06
273.553	75.06
273.785	90.06
274.017	72.06
274.249	93.06
274.481	80.06
274.713	87.06
274.945	85.06
275.176	71.06
275.408	85.06
275.64	83.06
275.872	85.06
276.104	90.06
276.335	91.06
276.567	81.06
276.799	97.06
277.031	79.06
277.262	81.06
277.494	79.06
277.726	84.06
277.957	87.06
278.189	95.06
278.421	70.06
278.652	82.06
278.884	81.06
279.115	71.06
279.347	81.06
279.579	78.06
279.81	84.06
280.042	73.06
280.273	72.06
280.505	83.06
280.736	78.06
280.968	85.06
281.199	78.06
281.431	85.06
281.662	95.06
281.894	78.06
282.125	86.06
282.356	73.06
282.588	97.06
282.819	92.06
283.051	98.06
283.282	83.06
283.513	87.06
283.745	79.06
283.976	84.06
284.207	71.06
284.439	84.06
284.67	93.06
284.901	82.06
285.132	78.06
285.364	93.06
285.595	82.06
285.826	80.06
286.057	91.06
286.288	93.06
286.52	88.06
286.751	103.06
286.982	85.06
287.213	87.06
287.444	73.06
287.675	81.06
287.906	72.06
288.138	91.06
288.369	87.06
288.6	79.06
288.831	88.06
289.062	62.06
289.293	71.06
289.524	84.06
289.755	100.06
289.986	79.06
290.217	76.06
290.448	80.06
290.679	80.06
290.91	98.06
291.141	90.06
291.371	79.06
291.602	90.06
291.833	86.06
292.064	94.06
292.295	83.06
292.526	85.06
292.757	83.06
292.987	94.06
293.218	72.06
293.449	71.06
293.68	78.06
293.91	81.06
294.141	86.06
294.372	70.06
294.603	91.06
294.833	81.06
295.064	74.06
295.295	97.06
295.525	82.06
295.756	92.06
295.987	89.06
296.217	79.06
296.448	79.06
296.679	91.06
296.909	92.06
297.14	78.06
297.37	86.06
297.601	80.06
297.831	83.06
298.062	79.06
298.292	86.06
298.523	78.06
298.753	79.06
298.984	92.06
299.214	89.06
299.445	101.06
299.675	78.06
299.905	83.06
300.136	73.06
300.366	78.06
300.597	91.06
300.827	78.06
301.057	104.06
301.288	86.06
301.518	81.06
301.748	91.06
301.979	90.06
302.209	90.06
302.439	81.06
302.669	86.06
302.9	73.06
303.13	83.06
303.36	87.06
303.59	79.06
303.82	69.06
304.051	89.06
304.281	79.06
304.511	93.06
304.741	85.06
304.971	68.06
305.201	74.06
305.431	86.06
305.661	95.06
305.891	85.06
306.121	73.06
306.352	85.06
306.582	108.06
306.812	84.06
307.042	87.06
307.272	98.06
307.502	89.06
307.731	85.06
307.961	91.06
308.191	74.06
308.421	91.06
308.651	84.06
308.881	83.06
309.111	88.06
309.341	74.06
309.571	88.06
309.8	79.06
310.03	82.06
310.26	81.06
310.49	90.06
310.72	92.06
310.949	86.06
311.179	73.06
311.409	83.06
311.639	75.06
311.868	101.06
312.098	74.06
312.328	82.06
312.557	83.06
312.787	76.06
313.017	88.06
313.246	89.06
313.476	82.06
313.706	85.06
313.935	90.06
314.165	72.06
314.394	98.06
314.624	86.06
314.853	99.06
315.083	89.06
315.312	95.06
315.542	78.06
315.771	91.06
316.001	87.06
316.23	78.06
316.46	104.06
316.689	85.06
316.919	88.06
317.148	83.06
317.377	91.06
317.607	88.06
317.836	86.06
318.065	76.06
318.295	90.06
318.524	79.06
318.753	88.06
318.983	95.06
319.212	86.06
319.441	87.06
319.67	85.06
319.9	87.06
320.129	91.06
320.358	81.06
320.587	93.06
320.816	86.06
321.046	83.06
321.275	86.06
321.504	85.06
321.733	90.06
321.962	77.06
322.191	81.06
322.42	83.06
322.649	93.06
322.878	93.06
323.108	89.06
323.337	95.06
323.566	88.06
323.795	83.06
324.024	81.06
324.253	87.06
324.482	91.06
324.71	80.06
324.939	81.06
325.168	75.06
325.397	93.06
325.626	86.06
325.855	89.06
326.084	90.06
326.313	97.06
326.542	75.06
326.77	85.06
326.999	75.06
327.228	75.06
327.457	86.06
327.686	81.06
327.914	92.06
328.143	85.06
328.372	78.06
328.6	70.06
328.829	90.06
329.058	86.06
329.287	72.06
329.515	91.06
329.744	80.06
329.972	92.06
330.201	89.06
330.43	91.06
330.658	98.06
330.887	84.06
331.115	77.06
331.344	81.06
331.572	80.06
331.801	73.06
332.03	72.06
332.258	93.06
332.486	93.06
332.715	88.06
332.943	82.06
333.172	97.06
333.4	85.06
333.629	87.06
333.857	87.06
334.085	89.06
334.314	83.06
334.542	82.06
334.771	86.06
334.999	98.06
335.227	77.06
335.455	73.06
335.684	86.06
335.912	88.06
336.14	91.06
336.369	83.06
336.597	95.06
336.825	103.06
337.053	86.06
337.281	93.06
337.51	98.06
337.738	74.06
337.966	83.06
338.194	82.06
338.422	78.06
338.65	95.06
338.878	92.06
339.106	85.06
339.334	85.06
339.562	94.06
339.79	78.06
340.018	69.06
340.246	85.06
340.474	87.06
340.702	84.06
340.93	88.06
341.158	84.06
341.386	75.06
341.614	85.06
341.842	87.06
342.07	80.06
342.298	75.06
342.526	93.06
342.754	86.06
342.981	80.06
343.209	81.06
343.437	83.06
343.665	83.06
343.893	88.06
344.12	100.06
344.348	74.06
344.576	80.06
344.804	72.06
345.031	91.06
345.259	78.06
345.487	85.06
345.714	86.06
345.942	80.06
346.17	89.06
346.397	90.06
346.625	77.06
346.853	93.06
347.08	97.06
347.308	85.06
347.535	85.06
347.763	89.06
347.99	89.06
348.218	93.06
348.445	87.06
348.673	82.06
348.9	80.06
349.128	97.06
349.355	91.06
349.583	82.06
349.81	101.06
350.037	85.06
350.265	95.06
350.492	77.06
350.72	78.06
350.947	86.06
351.174	103.06
351.402	88.06
351.629	96.06
351.856	85.06
352.083	85.06
352.311	85.06
352.538	96.06
352.765	67.06
352.992	80.06
353.22	82.06
353.447	83.06
353.674	80.06
353.901	90.06
354.128	82.06
354.355	96.06
354.583	67.06
354.81	83.06
355.037	78.06
355.264	93.06
355.491	85.06
355.718	87.06
355.945	93.06
356.172	79.06
356.399	87.06
356.626	92.06
356.853	80.06
357.08	96.06
357.307	83.06
357.534	84.06
357.761	85.06
357.988	95.06
358.215	68.06
358.441	92.06
358.668	96.06
358.895	82.06
359.122	73.06
359.349	84.06
359.576	94.06
359.802	88.06
360.029	98.06
360.256	77.06
360.483	89.06
360.709	91.06
360.936	82.06
361.163	91.06
361.39	73.06
361.616	69.06
361.843	78.06
362.07	81.06
362.296	86.06
362.523	84.06
362.749	85.06
362.976	88.06
363.203	72.06
363.429	81.06
363.656	78.06
363.882	79.06
364.109	93.06
364.335	81.06
364.562	90.06
364.788	87.06
365.015	89.06
365.241	81.06
365.468	88.06
365.694	89.06
365.92	82.06
366.147	86.06
366.373	85.06
366.599	74.06
366.826	84.06
367.052	75.06
367.278	91.06
367.505	74.06
367.731	73.06
367.957	79.06
368.184	78.06
368.41	87.06
368.636	71.06
368.862	96.06
369.089	89.06
369.315	79.06
369.541	90.06
369.767	84.06
369.993	87.06
370.219	85.06
370.445	89.06
370.672	76.06
370.898	81.06
371.124	77.06
371.35	81.06
371.576	82.06
371.802	86.06
372.028	81.06
372.254	89.06
372.48	83.06
372.706	85.06
372.932	62.06
373.158	77.06
373.384	77.06
373.61	93.06
373.835	102.06
374.061	88.06
374.287	75.06
374.513	85.06
374.739	88.06
374.965	73.06
375.191	86.06
375.416	88.06
375.642	83.06
375.868	93.06
376.094	85.06
376.319	86.06
376.545	82.06
376.771	82.06
376.997	85.06
377.222	86.06
377.448	80.06
377.674	84.06
377.899	74.06
378.125	78.06
378.35	82.06
378.576	62.06
378.802	67.06
379.027	90.06
379.253	90.06
379.478	86.06
379.704	86.06
379.929	84.06
380.155	75.06
380.38	95.06
380.606	84.06
380.831	95.06
381.057	89.06
381.282	85.06
381.507	87.06
381.733	97.06
381.958	71.06
382.184	89.06
382.409	96.06
382.634	95.06
382.86	88.06
383.085	92.06
383.31	91.06
383.535	93.06
383.761	83.06
383.986	88.06
384.211	76.06
384.436	84.06
384.662	98.06
384.887	71.06
385.112	74.06
385.337	76.06
385.562	90.06
385.787	81.06
386.013	81.06
386.238	83.06
386.463	84.06
386.688	83.06
386.913	76.06
387.138	86.06
387.363	85.06
387.588	88.06
387.813	96.06
388.038	98.06
388.263	86.06
388.488	75.06
388.713	91.06
388.938	86.06
389.163	79.06
389.387	77.06
389.612	80.06
389.837	85.06
390.062	91.06
390.287	87.06
390.512	81.06
390.736	83.06
390.961	82.06
391.186	87.06
391.411	91.06
391.636	91.06
391.86	81.06
392.085	79.06
392.31	75.06
392.534	75.06
392.759	85.06
392.984	92.06
393.208	83.06
393.433	98.06
393.658	96.06
393.882	94.06
394.107	87.06
394.331	87.06
394.556	78.06
394.78	80.06
395.005	73.06
395.229	88.06
395.454	84.06
395.678	72.06
395.903	92.06
396.127	90.06
396.352	84.06
396.576	84.06
396.801	86.06
397.025	99.06
397.249	86.06
397.474	92.06
397.698	88.06
397.922	81.06
398.147	82.06
398.371	89.06
398.595	83.06
398.82	88.06
399.044	84.06
399.268	88.06
399.492	87.06
399.717	86.06
399.941	70.06
400.165	86.06
400.389	83.06
400.613	71.06
400.837	95.06
401.062	89.06
401.286	85.06
401.51	88.06
401.734	94.06
401.958	88.06
402.182	90.06
402.406	88.06
402.63	83.06
402.854	90.06
403.078	88.06
403.302	79.06
403.526	74.06
403.75	79.06
403.974	84.06
404.198	87.06
404.422	73.06
404.645	90.06
404.869	91.06
405.093	82.06
405.317	90.06
405.541	72.06
405.765	80.06
405.988	87.06
406.212	88.06
406.436	82.06
406.66	91.06
406.883	93.06
407.107	87.06
407.331	87.06
407.555	82.06
407.778	87.06
408.002	98.06
408.226	85.06
408.449	95.06
408.673	86.06
408.896	84.06
409.12	83.06
409.344	73.06
409.567	96.06
409.791	83.06
410.014	107.06
410.238	89.06
410.461	82.06
410.685	86.06
410.908	90.06
411.132	87.06
411.355	102.06
411.578	100.06
411.802	92.06
412.025	92.06
412.249	98.06
412.472	90.06
412.695	92.06
412.919	83.06
413.142	95.06
413.365	95.06
413.589	91.06
413.812	81.06
414.035	87.06
414.258	88.06
414.482	89.06
414.705	80.06
414.928	94.06
415.151	95.06
415.374	98.06
415.597	73.06
415.821	96.06
416.044	95.06
416.267	97.06
416.49	96.06
416.713	91.06
416.936	78.06
417.159	90.06
417.382	88.06
417.605	86.06
417.828	77.06
418.051	89.06
418.274	89.06
418.497	98.06
418.72	84.06
418.943	91.06
419.166	96.06
419.389	90.06
419.611	74.06
419.834	102.06
420.057	86.06
420.28	103.06
420.503	87.06
420.726	86.06
420.948	93.06
421.171	104.06
421.394	97.06
421.617	104.06
421.839	85.06
422.062	103.06
422.285	96.06
422.507	93.06
422.73	86.06
422.953	89.06
423.175	86.06
423.398	78.06
423.621	92.06
423.843	110.06
424.066	104.06
424.288	107.06
424.511	91.06
424.733	110.06
424.956	94.06
425.178	103.06
425.401	103.06
425.623	89.06
425.846	66.06
426.068	86.06
426.291	102.06
426.513	87.06
426.735	94.06
426.958	84.06
427.18	109.06
427.402	79.06
427.625	82.06
427.847	86.06
428.069	98.06
428.292	85.06
428.514	82.06
428.736	89.06
428.958	84.06
429.181	93.06
429.403	98.06
429.625	87.06
429.847	78.06
430.069	99.06
430.292	92.06
430.514	101.06
430.736	88.06
430.958	90.06
431.18	93.06
431.402	111.06
431.624	91.06
431.846	102.06
432.068	86.06
432.29	93.06
432.512	81.06
432.734	93.06
432.956	86.06
433.178	88.06
433.4	107.06
433.622	87.06
433.844	102.06
434.066	105.06
434.287	88.06
434.509	93.06
434.731	71.06
434.953	95.06
435.175	81.06
435.397	105.06
435.618	82.06
435.84	95.06
436.062	80.06
436.284	85.06
436.505	98.06
436.727	94.06
436.949	86.06
437.17	97.06
437.392	95.06
437.614	82.06
437.835	83.06
438.057	100.06
438.278	91.06
438.5	82.06
438.721	95.06
438.943	99.06
439.165	81.06
439.386	100.06
439.608	97.06
439.829	81.06
440.05	102.06
440.272	96.06
440.493	93.06
440.715	97.06
440.936	93.06
441.158	97.06
441.379	87.06
441.6	95.06
441.822	87.06
442.043	102.06
442.264	99.06
442.486	96.06
442.707	97.06
442.928	101.06
443.149	104.06
443.371	105.06
443.592	80.06
443.813	101.06
444.034	84.06
444.255	96.06
444.476	92.06
444.698	97.06
444.919	85.06
445.14	169.06
445.361	123.06
445.582	97.06
445.803	99.06
446.024	102.06
446.245	98.06
446.466	90.06
446.687	90.06
446.908	113.06
447.129	97.06
447.35	95.06
447.571	96.06
447.792	87.06
448.013	100.06
448.234	82.06
448.455	101.06
448.675	103.06
448.896	105.06
449.117	87.06
449.338	86.06
449.559	83.06
449.779	83.06
450	92.06
450.221	97.06
450.442	98.06
450.662	97.06
450.883	97.06
451.104	86.06
451.324	98.06
451.545	98.06
451.766	85.06
451.986	97.06
452.207	86.06
452.428	86.06
452.648	93.06
452.869	89.06
453.089	81.06
453.31	91.06
453.53	96.06
453.751	91.06
453.971	105.06
454.192	85.06
454.412	91.06
454.633	89.06
454.853	93.06
455.073	102.06
455.294	85.06
455.514	96.06
455.734	107.06
455.955	92.06
456.175	102.06
456.395	90.06
456.616	73.06
456.836	81.06
457.056	90.06
457.276	91.06
457.497	98.06
457.717	88.06
457.937	93.06
458.157	88.06
458.377	94.06
458.598	70.06
458.818	94.06
459.038	78.06
459.258	80.06
459.478	80.06
459.698	85.06
459.918	92.06
460.138	81.06
460.358	88.06
460.578	93.06
460.798	81.06
461.018	85.06
461.238	96.06
461.458	90.06
461.678	97.06
461.898	85.06
462.118	98.06
462.338	98.06
462.558	93.06
462.777	81.06
462.997	100.06
463.217	94.06
463.437	75.06
463.657	76.06
463.876	99.06
464.096	89.06
464.316	87.06
464.536	98.06
464.755	94.06
464.975	86.06
465.195	78.06
465.414	95.06
465.634	96.06
465.854	103.06
466.073	96.06
466.293	85.06
466.512	80.06
466.732	91.06
466.951	84.06
467.171	85.06
467.391	88.06
467.61	83.06
467.829	91.06
468.049	103.06
468.268	104.06
468.488	102.06
468.707	104.06
468.927	97.06
469.146	99.06
469.365	97.06
469.585	89.06
469.804	98.06
470.023	108.06
470.243	88.06
470.462	100.06
470.681	100.06
470.901	97.06
471.12	87.06
471.339	95.06
471.558	90.06
471.777	88.06
471.997	98.06
472.216	93.06
472.435	92.06
472.654	79.06
472.873	88.06
473.092	93.06
473.311	97.06
473.53	96.06
473.749	107.06
473.968	84.06
474.187	99.06
474.406	89.06
474.625	87.06
474.844	105.06
475.063	88.06
475.282	93.06
475.501	97.06
475.72	87.06
475.939	92.06
476.158	87.06
476.377	100.06
476.596	96.06
476.814	98.06
477.033	97.06
477.252	88.06
477.471	103.06
477.69	94.06
477.908	95.06
478.127	83.06
478.346	97.06
478.564	97.06
478.783	89.06
479.002	98.06
479.22	84.06
479.439	99.06
479.658	107.06
479.876	88.06
480.095	82.06
480.313	79.06
480.532	83.06
480.751	92.06
480.969	93.06
481.188	86.06
481.406	95.06
481.624	78.06
481.843	74.06
482.061	101.06
482.28	84.06
482.498	102.06
482.717	84.06
482.935	92.06
483.153	107.06
483.372	101.06
483.59	101.06
483.808	97.06
484.027	88.06
484.245	99.06
484.463	100.06
484.681	111.06
484.9	102.06
485.118	89.06
485.336	92.06
485.554	88.06
485.772	90.06
485.99	89.06
486.209	87.06
486.427	76.06
486.645	82.06
486.863	95.06
487.081	93.06
487.299	95.06
487.517	83.06
487.735	106.06
487.953	118.06
488.171	111.06
488.389	110.06
488.607	106.06
488.825	101.06
489.043	89.06
489.261	93.06
489.479	109.06
489.696	110.06
489.914	94.06
490.132	111.06
490.35	102.06
490.568	105.06
490.786	104.06
491.003	111.06
491.221	113.06
491.439	102.06
491.657	99.06
491.874	115.06
492.092	129.06
492.31	144.06
492.527	117.06
492.745	105.06
492.963	121.06
493.18	103.06
493.398	109.06
493.615	100.06
493.833	104.06
494.05	98.06
494.268	106.06
494.485	112.06
494.703	130.06
494.92	105.06
495.138	91.06
495.355	89.06
495.573	111.06
495.79	96.06
496.008	120.06
496.225	101.06
496.442	108.06
496.66	101.06
496.877	89.06
497.094	112.06
497.312	103.06
497.529	102.06
497.746	103.06
497.963	114.06
498.181	90.06
498.398	82.06
498.615	99.06
498.832	98.06
499.049	89.06
499.267	97.06
499.484	101.06
499.701	81.06
499.918	106.06
500.135	100.06
500.352	108.06
500.569	96.06
500.786	88.06
501.003	98.06
501.22	94.06
501.437	102.06
501.654	94.06
501.871	105.06
502.088	95.06
502.305	93.06
502.522	96.06
502.739	85.06
502.956	97.06
503.172	88.06
503.389	79.06
503.606	104.06
503.823	87.06
504.04	93.06
504.256	94.06
504.473	89.06
504.69	86.06
504.907	103.06
505.123	81.06
505.34	90.06
505.557	84.06
505.773	90.06
505.99	105.06
506.207	96.06
506.423	106.06
506.64	93.06
506.856	101.06
507.073	89.06
507.289	107.06
507.506	104.06
507.722	92.06
507.939	88.06
508.155	86.06
508.372	90.06
508.588	86.06
508.805	105.06
509.021	89.06
509.238	81.06
509.454	97.06
509.67	91.06
509.887	80.06
510.103	87.06
510.319	98.06
510.536	88.06
510.752	80.06
510.968	86.06
511.184	89.06
511.401	87.06
511.617	89.06
511.833	83.06
512.049	89.06
512.265	88.06
512.481	81.06
512.698	83.06
512.914	79.06
513.13	79.06
513.346	85.06
513.562	102.06
513.778	85.06
513.994	76.06
514.21	79.06
514.426	92.06
514.642	89.06
514.858	98.06
515.074	86.06
515.29	82.06
515.506	105.06
515.721	76.06
515.937	84.06
516.153	81.06
516.369	80.06
516.585	80.06
516.801	80.06
517.016	92.06
517.232	81.06
517.448	83.06
517.664	95.06
517.879	82.06
518.095	79.06
518.311	100.06
518.527	82.06
518.742	76.06
518.958	86.06
519.173	94.06
519.389	88.06
519.605	103.06
519.82	86.06
520.036	79.06
520.251	82.06
520.467	93.06
520.682	86.06
520.898	100.06
521.113	74.06
521.329	91.06
521.544	85.06
521.76	89.06
521.975	86.06
522.19	81.06
522.406	79.06
522.621	91.06
522.836	93.06
523.052	82.06
523.267	97.06
523.482	94.06
523.698	87.06
523.913	96.06
524.128	82.06
524.343	85.06
524.559	99.06
524.774	94.06
524.989	82.06
525.204	85.06
525.419	93.06
525.634	91.06
525.849	90.06
526.064	104.06
526.28	93.06
526.495	75.06
526.71	87.06
526.925	71.06
527.14	85.06
527.355	82.06
527.57	90.06
527.785	79.06
527.999	90.06
528.214	101.06
528.429	87.06
528.644	104.06
528.859	104.06
529.074	89.06
529.289	110.06
529.503	100.06
529.718	90.06
529.933	88.06
530.148	79.06
530.363	77.06
530.577	75.06
530.792	85.06
531.007	81.06
531.221	77.06
531.436	77.06
531.651	89.06
531.865	78.06
532.08	88.06
532.295	91.06
532.509	92.06
532.724	93.06
532.938	95.06
533.153	89.06
533.367	88.06
533.582	78.06
533.796	82.06
534.011	90.06
534.225	103.06
534.44	88.06
534.654	93.06
534.868	89.06
535.083	86.06
535.297	109.06
535.511	87.06
535.726	89.06
535.94	103.06
536.154	92.06
536.369	74.06
536.583	83.06
536.797	88.06
537.011	100.06
537.225	84.06
537.44	80.06
537.654	90.06
537.868	100.06
538.082	91.06
538.296	90.06
538.51	68.06
538.724	93.06
538.938	98.06
539.153	96.06
539.367	104.06
539.581	93.06
539.795	90.06
540.009	92.06
540.222	78.06
540.436	83.06
540.65	97.06
540.864	106.06
541.078	100.06
541.292	108.06
541.506	92.06
541.72	117.06
541.934	130.06
542.147	123.06
542.361	113.06
542.575	101.06
542.789	93.06
543.002	106.06
543.216	112.06
543.43	97.06
543.644	96.06
543.857	102.06
544.071	109.06
544.285	107.06
544.498	106.06
544.712	100.06
544.925	119.06
545.139	109.06
545.352	101.06
545.566	94.06
545.779	96.06
545.993	112.06
546.206	121.06
546.42	94.06
546.633	102.06
546.847	104.06
547.06	110.06
547.274	114.06
547.487	116.06
547.7	109.06
547.914	103.06
548.127	97.06
548.34	96.06
548.554	95.06
548.767	90.06
548.98	85.06
549.193	85.06
549.407	105.06
549.62	96.06
549.833	96.06
550.046	101.06
550.259	113.06
550.473	105.06
550.686	97.06
550.899	111.06
551.112	99.06
551.325	101.06
551.538	91.06
551.751	93.06
551.964	99.06
552.177	97.06
552.39	99.06
552.603	111.06
552.816	103.06
553.029	100.06
553.242	102.06
553.455	89.06
553.667	116.06
553.88	110.06
554.093	118.06
554.306	116.06
554.519	114.06
554.732	105.06
554.944	109.06
555.157	113.06
555.37	110.06
555.583	104.06
555.795	95.06
556.008	85.06
556.221	115.06
556.433	99.06
556.646	103.06
556.859	94.06
557.071	101.06
557.284	105.06
557.496	90.06
557.709	111.06
557.921	80.06
558.134	103.06
558.346	100.06
558.559	96.06
558.771	105.06
558.984	107.06
559.196	100.06
559.409	119.06
559.621	106.06
559.833	101.06
560.046	93.06
560.258	87.06
560.47	111.06
560.683	94.06
560.895	99.06
561.107	91.06
561.32	101.06
561.532	85.06
561.744	114.06
561.956	98.06
562.168	96.06
562.381	105.06
562.593	95.06
562.805	103.06
563.017	106.06
563.229	90.06
563.441	96.06
563.653	88.06
563.865	93.06
564.077	97.06
564.289	98.06
564.501	97.06
564.713	103.06
564.925	101.06
565.137	97.06
565.349	82.06
565.561	103.06
565.773	83.06
565.985	87.06
566.197	106.06
566.408	102.06
566.62	107.06
566.832	95.06
567.044	94.06
567.255	98.06
567.467	96.06
567.679	95.06
567.891	85.06
568.102	86.06
568.314	84.06
568.526	79.06
568.737	93.06
568.949	90.06
569.161	89.06
569.372	91.06
569.584	86.06
569.795	84.06
570.007	87.06
570.218	94.06
570.43	93.06
570.641	90.06
570.853	89.06
571.064	89.06
571.276	78.06
571.487	93.06
571.698	91.06
571.91	90.06
572.121	93.06
572.333	100.06
572.544	103.06
572.755	100.06
572.966	85.06
573.178	83.06
573.389	95.06
573.6	73.06
573.811	73.06
574.023	89.06
574.234	85.06
574.445	78.06
574.656	94.06
574.867	85.06
575.078	86.06
575.289	89.06
575.501	85.06
575.712	76.06
575.923	78.06
576.134	78.06
576.345	88.06
576.556	89.06
576.767	75.06
576.978	90.06
577.188	81.06
577.399	89.06
577.61	75.06
577.821	93.06
578.032	103.06
578.243	94.06
578.454	85.06
578.665	77.06
578.875	95.06
579.086	82.06
579.297	74.06
579.508	101.06
579.718	87.06
579.929	98.06
580.14	82.06
580.35	62.06
580.561	93.06
580.772	85.06
580.982	85.06
581.193	68.06
581.403	84.06
581.614	81.06
581.825	82.06
582.035	72.06
582.246	85.06
582.456	97.06
582.667	98.06
582.877	93.06
583.087	82.06
583.298	86.06
583.508	83.06
583.719	91.06
583.929	96.06
584.139	81.06
584.35	94.06
584.56	88.06
584.77	89.06
584.981	80.06
585.191	75.06
585.401	85.06
585.611	82.06
585.821	90.06
586.032	83.06
586.242	86.06
586.452	78.06
586.662	80.06
586.872	82.06
587.082	92.06
587.292	84.06
587.502	80.06
587.713	78.06
587.923	86.06
588.133	81.06
588.343	82.06
588.553	86.06
588.762	87.06
588.972	88.06
589.182	77.06
589.392	82.06
589.602	76.06
589.812	69.06
590.022	91.06
590.232	81.06
590.441	92.06
590.651	91.06
590.861	89.06
591.071	78.06
591.281	80.06
591.49	93.06
591.7	81.06
591.91	81.06
592.119	85.06
592.329	82.06
592.539	92.06
592.748	92.06
592.958	91.06
593.167	93.06
593.377	82.06
593.587	90.06
593.796	84.06
594.006	95.06
594.215	81.06
594.424	74.06
594.634	79.06
594.843	88.06
595.053	95.06
595.262	85.06
595.472	95.06
595.681	90.06
595.89	75.06
596.1	98.06
596.309	99.06
596.518	75.06
596.727	103.06
596.937	84.06
597.146	93.06
597.355	79.06
597.564	86.06
597.774	96.06
597.983	85.06
598.192	70.06
598.401	89.06
598.61	81.06
598.819	96.06
599.028	98.06
599.237	93.06
599.446	89.06
599.655	86.06
599.864	89.06
600.073	99.06
600.282	101.06
600.491	79.06
600.7	71.06
600.909	81.06
601.118	81.06
601.327	77.06
601.536	92.06
601.745	93.06
601.953	95.06
602.162	93.06
602.371	88.06
602.58	96.06
602.789	94.06
602.997	78.06
603.206	83.06
603.415	86.06
603.623	86.06
603.832	94.06
604.041	101.06
604.249	76.06
604.458	79.06
604.666	75.06
604.875	96.06
605.084	81.06
605.292	74.06
605.501	93.06
605.709	85.06
605.918	96.06
606.126	92.06
606.334	86.06
606.543	91.06
606.751	93.06
606.96	93.06
607.168	103.06
607.376	93.06
607.585	93.06
607.793	92.06
608.001	90.06
608.21	79.06
608.418	100.06
608.626	85.06
608.834	89.06
609.043	87.06
609.251	80.06
609.459	97.06
609.667	94.06
609.875	98.06
610.083	82.06
610.291	93.06
610.499	81.06
610.707	85.06
610.916	83.06
611.124	103.06
611.332	92.06
611.54	90.06
611.748	96.06
611.955	103.06
612.163	98.06
612.371	103.06
612.579	86.06
612.787	92.06
612.995	97.06
613.203	101.06
613.411	99.06
613.618	94.06
613.826	97.06
614.034	84.06
614.242	91.06
614.449	83.06
614.657	87.06
614.865	101.06
615.072	96.06
615.28	90.06
615.488	100.06
615.695	95.06
615.903	94.06
616.111	89.06
616.318	93.06
616.526	91.06
616.733	82.06
616.941	98.06
617.148	95.06
617.356	93.06
617.563	74.06
617.771	107.06
617.978	100.06
618.185	85.06
618.393	104.06
618.6	100.06
618.807	102.06
619.015	92.06
619.222	91.06
619.429	95.06
619.637	84.06
619.844	82.06
620.051	82.06
620.258	77.06
620.466	83.06
620.673	103.06
620.88	86.06
621.087	74.06
621.294	81.06
621.501	90.06
621.708	94.06
621.915	104.06
622.122	103.06
622.329	81.06
622.536	86.06
622.743	82.06
622.95	83.06
623.157	90.06
623.364	88.06
623.571	87.06
623.778	95.06
623.985	98.06
624.192	92.06
624.399	81.06
624.606	93.06
624.812	92.06
625.019	86.06
625.226	88.06
625.433	74.06
625.639	83.06
625.846	80.06
626.053	87.06
626.259	86.06
626.466	83.06
626.673	82.06
626.879	80.06
627.086	77.06
627.293	90.06
627.499	89.06
627.706	81.06
627.912	96.06
628.119	101.06
628.325	101.06
628.532	96.06
628.738	93.06
628.945	77.06
629.151	99.06
629.357	91.06
629.564	92.06
629.77	93.06
629.976	88.06
630.183	106.06
630.389	93.06
630.595	89.06
630.802	95.06
631.008	91.06
631.214	87.06
631.42	97.06
631.627	104.06
631.833	75.06
632.039	86.06
632.245	90.06
632.451	93.06
632.657	82.06
632.863	89.06
633.069	67.06
633.275	86.06
633.481	94.06
633.688	103.06
633.893	89.06
634.099	73.06
634.305	94.06
634.511	95.06
634.717	98.06
634.923	83.06
635.129	95.06
635.335	81.06
635.541	82.06
635.747	98.06
635.952	86.06
636.158	102.06
636.364	96.06
636.57	84.06
636.775	81.06
636.981	74.06
637.187	92.06
637.392	93.06
637.598	93.06
637.804	96.06
638.009	86.06
638.215	87.06
638.421	94.06
638.626	88.06
638.832	95.06
639.037	93.06
639.243	74.06
639.448	76.06
639.654	94.06
639.859	85.06
640.065	82.06
640.27	97.06
640.475	98.06
640.681	81.06
640.886	86.06
641.091	87.06
641.297	96.06
641.502	86.06
641.707	85.06
641.913	87.06
642.118	92.06
642.323	86.06
642.528	89.06
642.733	76.06
642.939	83.06
643.144	85.06
643.349	70.06
643.554	71.06
643.759	73.06
643.964	89.06
644.169	87.06
644.374	100.06
644.579	90.06
644.784	91.06
644.989	82.06
645.194	84.06
645.399	87.06
645.604	89.06
645.809	89.06
646.014	79.06
646.219	88.06
646.423	77.06
646.628	97.06
646.833	96.06
647.038	96.06
647.243	88.06
647.447	79.06
647.652	77.06
647.857	89.06
648.062	86.06
648.266	88.06
648.471	84.06
648.676	85.06
648.88	89.06
649.085	85.06
649.289	99.06
649.494	73.06
649.698	82.06
649.903	87.06
650.107	92.06
650.312	89.06
650.516	74.06
650.721	83.06
650.925	88.06
651.13	88.06
651.334	80.06
651.539	82.06
651.743	85.06
651.947	87.06
652.152	81.06
652.356	81.06
652.56	81.06
652.764	83.06
652.969	93.06
653.173	71.06
653.377	89.06
653.581	80.06
653.785	78.06
653.99	89.06
654.194	98.06
654.398	85.06
654.602	84.06
654.806	83.06
655.01	87.06
655.214	87.06
655.418	78.06
655.622	94.06
655.826	82.06
656.03	86.06
656.234	83.06
656.438	93.06
656.642	82.06
656.846	96.06
657.049	85.06
657.253	86.06
657.457	80.06
657.661	75.06
657.865	95.06
658.068	65.06
658.272	93.06
658.476	95.06
658.68	100.06
658.883	84.06
659.087	82.06
659.291	97.06
659.494	77.06
659.698	88.06
659.901	93.06
660.105	83.06
660.309	93.06
660.512	78.06
660.716	89.06
660.919	86.06
661.123	90.06
661.326	70.06
661.53	83.06
661.733	81.06
661.936	82.06
662.14	85.06
662.343	75.06
662.546	96.06
662.75	91.06
662.953	76.06
663.156	69.06
663.36	95.06
663.563	69.06
663.766	85.06
663.969	86.06
664.173	95.06
664.376	98.06
664.579	84.06
664.782	58.06
664.985	85.06
665.188	79.06
665.391	79.06
665.594	86.06
665.797	93.06
666	86.06
666.203	74.06
666.406	78.06
666.609	79.06
666.812	82.06
667.015	81.06
667.218	87.06
667.421	87.06
667.624	76.06
667.827	84.06
668.03	81.06
668.232	75.06
668.435	94.06
668.638	82.06
668.841	95.06
669.043	93.06
669.246	90.06
669.449	84.06
669.651	92.06
669.854	79.06
670.057	91.06
670.259	88.06
670.462	94.06
670.665	97.06
670.867	79.06
671.07	71.06
671.272	88.06
671.475	93.06
671.677	79.06
671.88	83.06
672.082	85.06
672.284	91.06
672.487	93.06
672.689	83.06
672.892	78.06
