Data from Location4.07152019.Energy5.Lamp.07192019.3%Agarose_HRD10591_15-24-06-576.txt Node
Date: Fri Jul 19 15:24:06 EDT 2019
User: cochatt
Spectrometer: HR+D1059
Trigger mode: 1
Integration Time (sec): 1.000000E-1
Scans to average: 1
Electric dark correction enabled: true
Nonlinearity correction enabled: false
Boxcar width: 0
XAxis mode: Wavelengths
Number of Pixels in Spectrum: 2048
>>>>>Begin Spectral Data<<<<<
223.165	-21.94
223.4	-21.94
223.635	-21.94
223.869	2.06
224.104	-16.94
224.338	-16.94
224.573	-13.94
224.808	-10.94
225.042	-10.94
225.277	-4.94
225.511	-5.94
225.746	3.06
225.98	3.06
226.215	18.06
226.449	-2.94
226.683	17.06
226.918	33.06
227.152	29.06
227.387	24.06
227.621	21.06
227.856	38.06
228.09	29.06
228.324	39.06
228.559	64.06
228.793	54.06
229.027	55.06
229.262	56.06
229.496	62.06
229.73	66.06
229.964	77.06
230.199	66.06
230.433	81.06
230.667	75.06
230.901	85.06
231.136	68.06
231.37	80.06
231.604	72.06
231.838	82.06
232.072	75.06
232.306	76.06
232.541	76.06
232.775	81.06
233.009	83.06
233.243	81.06
233.477	73.06
233.711	74.06
233.945	76.06
234.179	86.06
234.413	81.06
234.647	77.06
234.881	66.06
235.115	83.06
235.349	84.06
235.583	81.06
235.817	81.06
236.051	55.06
236.285	71.06
236.519	74.06
236.753	90.06
236.987	75.06
237.221	75.06
237.455	89.06
237.689	63.06
237.922	74.06
238.156	73.06
238.39	83.06
238.624	76.06
238.858	73.06
239.091	83.06
239.325	71.06
239.559	77.06
239.793	72.06
240.027	84.06
240.26	62.06
240.494	85.06
240.728	73.06
240.961	82.06
241.195	73.06
241.429	62.06
241.662	73.06
241.896	67.06
242.13	78.06
242.363	81.06
242.597	67.06
242.83	66.06
243.064	80.06
243.298	75.06
243.531	74.06
243.765	82.06
243.998	74.06
244.232	51.06
244.465	75.06
244.699	74.06
244.932	79.06
245.166	70.06
245.399	79.06
245.633	77.06
245.866	69.06
246.099	67.06
246.333	69.06
246.566	80.06
246.8	61.06
247.033	78.06
247.266	65.06
247.5	79.06
247.733	78.06
247.966	79.06
248.2	71.06
248.433	78.06
248.666	66.06
248.899	88.06
249.133	77.06
249.366	78.06
249.599	73.06
249.832	81.06
250.066	89.06
250.299	75.06
250.532	88.06
250.765	77.06
250.998	73.06
251.231	89.06
251.465	83.06
251.698	72.06
251.931	90.06
252.164	78.06
252.397	70.06
252.63	73.06
252.863	81.06
253.096	82.06
253.329	78.06
253.562	82.06
253.795	84.06
254.028	75.06
254.261	75.06
254.494	79.06
254.727	83.06
254.96	85.06
255.193	77.06
255.426	62.06
255.659	77.06
255.892	90.06
256.124	92.06
256.357	82.06
256.59	81.06
256.823	88.06
257.056	93.06
257.289	86.06
257.521	76.06
257.754	81.06
257.987	69.06
258.22	79.06
258.452	69.06
258.685	91.06
258.918	74.06
259.151	61.06
259.383	81.06
259.616	72.06
259.849	84.06
260.081	85.06
260.314	75.06
260.547	72.06
260.779	90.06
261.012	91.06
261.244	92.06
261.477	82.06
261.71	72.06
261.942	89.06
262.175	88.06
262.407	66.06
262.64	84.06
262.872	77.06
263.105	77.06
263.337	77.06
263.57	74.06
263.802	89.06
264.035	85.06
264.267	74.06
264.499	79.06
264.732	61.06
264.964	76.06
265.197	84.06
265.429	76.06
265.661	67.06
265.894	88.06
266.126	75.06
266.358	83.06
266.591	72.06
266.823	76.06
267.055	88.06
267.287	78.06
267.52	81.06
267.752	89.06
267.984	86.06
268.216	70.06
268.448	81.06
268.681	83.06
268.913	69.06
269.145	83.06
269.377	84.06
269.609	70.06
269.841	81.06
270.073	79.06
270.306	87.06
270.538	92.06
270.77	80.06
271.002	79.06
271.234	86.06
271.466	81.06
271.698	93.06
271.93	82.06
272.162	79.06
272.394	77.06
272.626	89.06
272.858	93.06
273.09	103.06
273.322	75.06
273.553	75.06
273.785	85.06
274.017	77.06
274.249	82.06
274.481	82.06
274.713	81.06
274.945	87.06
275.176	93.06
275.408	89.06
275.64	78.06
275.872	89.06
276.104	74.06
276.335	87.06
276.567	76.06
276.799	82.06
277.031	70.06
277.262	80.06
277.494	82.06
277.726	75.06
277.957	77.06
278.189	78.06
278.421	72.06
278.652	79.06
278.884	85.06
279.115	89.06
279.347	78.06
279.579	79.06
279.81	95.06
280.042	88.06
280.273	92.06
280.505	74.06
280.736	82.06
280.968	83.06
281.199	86.06
281.431	90.06
281.662	87.06
281.894	73.06
282.125	94.06
282.356	72.06
282.588	79.06
282.819	75.06
283.051	75.06
283.282	86.06
283.513	80.06
283.745	70.06
283.976	83.06
284.207	80.06
284.439	89.06
284.67	86.06
284.901	81.06
285.132	89.06
285.364	76.06
285.595	79.06
285.826	86.06
286.057	93.06
286.288	80.06
286.52	85.06
286.751	76.06
286.982	83.06
287.213	76.06
287.444	67.06
287.675	83.06
287.906	88.06
288.138	74.06
288.369	84.06
288.6	76.06
288.831	78.06
289.062	83.06
289.293	71.06
289.524	78.06
289.755	91.06
289.986	94.06
290.217	69.06
290.448	77.06
290.679	77.06
290.91	77.06
291.141	81.06
291.371	84.06
291.602	79.06
291.833	99.06
292.064	77.06
292.295	77.06
292.526	79.06
292.757	89.06
292.987	69.06
293.218	90.06
293.449	81.06
293.68	79.06
293.91	93.06
294.141	87.06
294.372	68.06
294.603	89.06
294.833	73.06
295.064	88.06
295.295	95.06
295.525	83.06
295.756	93.06
295.987	66.06
296.217	84.06
296.448	78.06
296.679	66.06
296.909	86.06
297.14	71.06
297.37	79.06
297.601	88.06
297.831	87.06
298.062	92.06
298.292	74.06
298.523	86.06
298.753	56.06
298.984	81.06
299.214	81.06
299.445	85.06
299.675	93.06
299.905	79.06
300.136	75.06
300.366	81.06
300.597	95.06
300.827	85.06
301.057	82.06
301.288	85.06
301.518	90.06
301.748	72.06
301.979	90.06
302.209	89.06
302.439	73.06
302.669	74.06
302.9	90.06
303.13	85.06
303.36	76.06
303.59	88.06
303.82	82.06
304.051	88.06
304.281	79.06
304.511	83.06
304.741	75.06
304.971	88.06
305.201	83.06
305.431	95.06
305.661	86.06
305.891	75.06
306.121	78.06
306.352	90.06
306.582	85.06
306.812	103.06
307.042	76.06
307.272	71.06
307.502	73.06
307.731	88.06
307.961	88.06
308.191	88.06
308.421	92.06
308.651	86.06
308.881	77.06
309.111	84.06
309.341	70.06
309.571	89.06
309.8	77.06
310.03	69.06
310.26	94.06
310.49	85.06
310.72	75.06
310.949	87.06
311.179	88.06
311.409	92.06
311.639	79.06
311.868	89.06
312.098	68.06
312.328	86.06
312.557	86.06
312.787	78.06
313.017	87.06
313.246	74.06
313.476	68.06
313.706	85.06
313.935	75.06
314.165	74.06
314.394	84.06
314.624	74.06
314.853	82.06
315.083	100.06
315.312	69.06
315.542	82.06
315.771	79.06
316.001	75.06
316.23	87.06
316.46	82.06
316.689	82.06
316.919	80.06
317.148	87.06
317.377	86.06
317.607	83.06
317.836	93.06
318.065	95.06
318.295	72.06
318.524	85.06
318.753	93.06
318.983	91.06
319.212	83.06
319.441	100.06
319.67	91.06
319.9	73.06
320.129	84.06
320.358	94.06
320.587	85.06
320.816	93.06
321.046	82.06
321.275	96.06
321.504	81.06
321.733	67.06
321.962	86.06
322.191	85.06
322.42	80.06
322.649	73.06
322.878	80.06
323.108	87.06
323.337	78.06
323.566	69.06
323.795	72.06
324.024	75.06
324.253	72.06
324.482	82.06
324.71	83.06
324.939	70.06
325.168	87.06
325.397	91.06
325.626	79.06
325.855	83.06
326.084	90.06
326.313	81.06
326.542	78.06
326.77	82.06
326.999	79.06
327.228	81.06
327.457	76.06
327.686	90.06
327.914	88.06
328.143	66.06
328.372	77.06
328.6	74.06
328.829	75.06
329.058	91.06
329.287	79.06
329.515	84.06
329.744	89.06
329.972	81.06
330.201	93.06
330.43	81.06
330.658	74.06
330.887	72.06
331.115	80.06
331.344	85.06
331.572	83.06
331.801	75.06
332.03	95.06
332.258	87.06
332.486	83.06
332.715	79.06
332.943	79.06
333.172	76.06
333.4	67.06
333.629	87.06
333.857	75.06
334.085	86.06
334.314	82.06
334.542	78.06
334.771	90.06
334.999	93.06
335.227	88.06
335.455	102.06
335.684	91.06
335.912	76.06
336.14	83.06
336.369	85.06
336.597	87.06
336.825	73.06
337.053	71.06
337.281	86.06
337.51	73.06
337.738	83.06
337.966	79.06
338.194	84.06
338.422	82.06
338.65	79.06
338.878	95.06
339.106	95.06
339.334	89.06
339.562	81.06
339.79	81.06
340.018	96.06
340.246	83.06
340.474	89.06
340.702	74.06
340.93	74.06
341.158	80.06
341.386	71.06
341.614	77.06
341.842	85.06
342.07	81.06
342.298	71.06
342.526	70.06
342.754	72.06
342.981	83.06
343.209	77.06
343.437	80.06
343.665	82.06
343.893	74.06
344.12	78.06
344.348	78.06
344.576	85.06
344.804	88.06
345.031	76.06
345.259	83.06
345.487	89.06
345.714	74.06
345.942	83.06
346.17	75.06
346.397	82.06
346.625	86.06
346.853	84.06
347.08	93.06
347.308	87.06
347.535	76.06
347.763	66.06
347.99	83.06
348.218	84.06
348.445	79.06
348.673	75.06
348.9	89.06
349.128	87.06
349.355	88.06
349.583	92.06
349.81	82.06
350.037	71.06
350.265	88.06
350.492	85.06
350.72	86.06
350.947	78.06
351.174	84.06
351.402	73.06
351.629	65.06
351.856	81.06
352.083	83.06
352.311	94.06
352.538	96.06
352.765	83.06
352.992	82.06
353.22	86.06
353.447	81.06
353.674	89.06
353.901	86.06
354.128	85.06
354.355	72.06
354.583	72.06
354.81	86.06
355.037	86.06
355.264	66.06
355.491	79.06
355.718	81.06
355.945	88.06
356.172	89.06
356.399	95.06
356.626	85.06
356.853	86.06
357.08	89.06
357.307	82.06
357.534	88.06
357.761	81.06
357.988	87.06
358.215	92.06
358.441	78.06
358.668	81.06
358.895	82.06
359.122	89.06
359.349	74.06
359.576	81.06
359.802	91.06
360.029	80.06
360.256	83.06
360.483	80.06
360.709	84.06
360.936	83.06
361.163	82.06
361.39	82.06
361.616	88.06
361.843	76.06
362.07	84.06
362.296	83.06
362.523	67.06
362.749	88.06
362.976	79.06
363.203	71.06
363.429	78.06
363.656	85.06
363.882	76.06
364.109	94.06
364.335	82.06
364.562	94.06
364.788	83.06
365.015	89.06
365.241	84.06
365.468	91.06
365.694	72.06
365.92	94.06
366.147	68.06
366.373	70.06
366.599	90.06
366.826	80.06
367.052	72.06
367.278	87.06
367.505	76.06
367.731	90.06
367.957	90.06
368.184	89.06
368.41	90.06
368.636	89.06
368.862	78.06
369.089	65.06
369.315	73.06
369.541	77.06
369.767	85.06
369.993	89.06
370.219	73.06
370.445	68.06
370.672	74.06
370.898	92.06
371.124	89.06
371.35	76.06
371.576	80.06
371.802	91.06
372.028	79.06
372.254	89.06
372.48	80.06
372.706	82.06
372.932	71.06
373.158	74.06
373.384	75.06
373.61	65.06
373.835	80.06
374.061	83.06
374.287	80.06
374.513	87.06
374.739	87.06
374.965	75.06
375.191	80.06
375.416	83.06
375.642	81.06
375.868	92.06
376.094	97.06
376.319	83.06
376.545	81.06
376.771	90.06
376.997	84.06
377.222	86.06
377.448	91.06
377.674	86.06
377.899	81.06
378.125	80.06
378.35	86.06
378.576	84.06
378.802	89.06
379.027	86.06
379.253	84.06
379.478	85.06
379.704	78.06
379.929	74.06
380.155	91.06
380.38	85.06
380.606	93.06
380.831	87.06
381.057	81.06
381.282	96.06
381.507	95.06
381.733	95.06
381.958	95.06
382.184	83.06
382.409	91.06
382.634	91.06
382.86	79.06
383.085	96.06
383.31	89.06
383.535	81.06
383.761	71.06
383.986	93.06
384.211	96.06
384.436	80.06
384.662	81.06
384.887	87.06
385.112	88.06
385.337	70.06
385.562	92.06
385.787	81.06
386.013	99.06
386.238	90.06
386.463	68.06
386.688	69.06
386.913	87.06
387.138	80.06
387.363	83.06
387.588	89.06
387.813	84.06
388.038	91.06
388.263	89.06
388.488	83.06
388.713	92.06
388.938	85.06
389.163	84.06
389.387	80.06
389.612	67.06
389.837	81.06
390.062	88.06
390.287	79.06
390.512	93.06
390.736	84.06
390.961	99.06
391.186	88.06
391.411	81.06
391.636	82.06
391.86	97.06
392.085	96.06
392.31	101.06
392.534	89.06
392.759	65.06
392.984	80.06
393.208	87.06
393.433	81.06
393.658	90.06
393.882	80.06
394.107	93.06
394.331	96.06
394.556	87.06
394.78	97.06
395.005	93.06
395.229	84.06
395.454	84.06
395.678	88.06
395.903	85.06
396.127	98.06
396.352	97.06
396.576	74.06
396.801	90.06
397.025	89.06
397.249	88.06
397.474	88.06
397.698	89.06
397.922	87.06
398.147	89.06
398.371	97.06
398.595	74.06
398.82	80.06
399.044	81.06
399.268	89.06
399.492	86.06
399.717	88.06
399.941	91.06
400.165	90.06
400.389	96.06
400.613	87.06
400.837	80.06
401.062	88.06
401.286	91.06
401.51	99.06
401.734	88.06
401.958	88.06
402.182	86.06
402.406	98.06
402.63	99.06
402.854	89.06
403.078	86.06
403.302	97.06
403.526	93.06
403.75	86.06
403.974	95.06
404.198	81.06
404.422	90.06
404.645	99.06
404.869	97.06
405.093	89.06
405.317	84.06
405.541	78.06
405.765	95.06
405.988	90.06
406.212	95.06
406.436	94.06
406.66	97.06
406.883	87.06
407.107	93.06
407.331	118.06
407.555	88.06
407.778	95.06
408.002	98.06
408.226	95.06
408.449	85.06
408.673	100.06
408.896	85.06
409.12	93.06
409.344	87.06
409.567	86.06
409.791	95.06
410.014	94.06
410.238	83.06
410.461	100.06
410.685	95.06
410.908	72.06
411.132	80.06
411.355	89.06
411.578	89.06
411.802	84.06
412.025	90.06
412.249	78.06
412.472	104.06
412.695	93.06
412.919	94.06
413.142	80.06
413.365	99.06
413.589	92.06
413.812	90.06
414.035	110.06
414.258	79.06
414.482	93.06
414.705	96.06
414.928	87.06
415.151	91.06
415.374	104.06
415.597	83.06
415.821	100.06
416.044	89.06
416.267	88.06
416.49	84.06
416.713	100.06
416.936	88.06
417.159	87.06
417.382	96.06
417.605	90.06
417.828	88.06
418.051	109.06
418.274	102.06
418.497	99.06
418.72	98.06
418.943	94.06
419.166	93.06
419.389	106.06
419.611	88.06
419.834	94.06
420.057	92.06
420.28	108.06
420.503	101.06
420.726	96.06
420.948	96.06
421.171	90.06
421.394	89.06
421.617	95.06
421.839	101.06
422.062	90.06
422.285	104.06
422.507	83.06
422.73	104.06
422.953	86.06
423.175	88.06
423.398	91.06
423.621	91.06
423.843	91.06
424.066	92.06
424.288	79.06
424.511	100.06
424.733	100.06
424.956	88.06
425.178	87.06
425.401	94.06
425.623	86.06
425.846	88.06
426.068	94.06
426.291	75.06
426.513	98.06
426.735	98.06
426.958	97.06
427.18	97.06
427.402	88.06
427.625	94.06
427.847	87.06
428.069	92.06
428.292	99.06
428.514	89.06
428.736	89.06
428.958	82.06
429.181	102.06
429.403	98.06
429.625	91.06
429.847	84.06
430.069	83.06
430.292	99.06
430.514	102.06
430.736	90.06
430.958	93.06
431.18	104.06
431.402	85.06
431.624	95.06
431.846	81.06
432.068	89.06
432.29	83.06
432.512	88.06
432.734	94.06
432.956	98.06
433.178	103.06
433.4	100.06
433.622	97.06
433.844	102.06
434.066	95.06
434.287	90.06
434.509	91.06
434.731	71.06
434.953	88.06
435.175	103.06
435.397	79.06
435.618	101.06
435.84	87.06
436.062	89.06
436.284	96.06
436.505	84.06
436.727	98.06
436.949	83.06
437.17	101.06
437.392	89.06
437.614	93.06
437.835	94.06
438.057	94.06
438.278	75.06
438.5	88.06
438.721	99.06
438.943	89.06
439.165	102.06
439.386	103.06
439.608	118.06
439.829	98.06
440.05	96.06
440.272	97.06
440.493	101.06
440.715	110.06
440.936	89.06
441.158	109.06
441.379	97.06
441.6	103.06
441.822	89.06
442.043	95.06
442.264	111.06
442.486	110.06
442.707	107.06
442.928	109.06
443.149	106.06
443.371	115.06
443.592	87.06
443.813	89.06
444.034	85.06
444.255	92.06
444.476	90.06
444.698	112.06
444.919	104.06
445.14	232.06
445.361	176.06
445.582	113.06
445.803	95.06
446.024	106.06
446.245	91.06
446.466	108.06
446.687	101.06
446.908	102.06
447.129	108.06
447.35	93.06
447.571	92.06
447.792	86.06
448.013	111.06
448.234	97.06
448.455	97.06
448.675	77.06
448.896	100.06
449.117	85.06
449.338	87.06
449.559	105.06
449.779	91.06
450	110.06
450.221	82.06
450.442	77.06
450.662	107.06
450.883	98.06
451.104	93.06
451.324	99.06
451.545	99.06
451.766	97.06
451.986	89.06
452.207	98.06
452.428	87.06
452.648	99.06
452.869	98.06
453.089	77.06
453.31	72.06
453.53	71.06
453.751	76.06
453.971	83.06
454.192	84.06
454.412	75.06
454.633	102.06
454.853	93.06
455.073	86.06
455.294	96.06
455.514	101.06
455.734	79.06
455.955	87.06
456.175	81.06
456.395	86.06
456.616	91.06
456.836	88.06
457.056	91.06
457.276	87.06
457.497	83.06
457.717	86.06
457.937	77.06
458.157	89.06
458.377	78.06
458.598	81.06
458.818	74.06
459.038	76.06
459.258	85.06
459.478	84.06
459.698	85.06
459.918	76.06
460.138	93.06
460.358	108.06
460.578	83.06
460.798	96.06
461.018	85.06
461.238	85.06
461.458	89.06
461.678	99.06
461.898	88.06
462.118	93.06
462.338	97.06
462.558	109.06
462.777	105.06
462.997	96.06
463.217	84.06
463.437	79.06
463.657	85.06
463.876	78.06
464.096	91.06
464.316	97.06
464.536	94.06
464.755	86.06
464.975	89.06
465.195	106.06
465.414	85.06
465.634	77.06
465.854	85.06
466.073	83.06
466.293	97.06
466.512	94.06
466.732	96.06
466.951	84.06
467.171	102.06
467.391	80.06
467.61	98.06
467.829	104.06
468.049	95.06
468.268	97.06
468.488	96.06
468.707	111.06
468.927	92.06
469.146	97.06
469.365	104.06
469.585	97.06
469.804	106.06
470.023	93.06
470.243	83.06
470.462	97.06
470.681	97.06
470.901	92.06
471.12	113.06
471.339	95.06
471.558	89.06
471.777	99.06
471.997	86.06
472.216	87.06
472.435	107.06
472.654	85.06
472.873	95.06
473.092	95.06
473.311	81.06
473.53	99.06
473.749	97.06
473.968	97.06
474.187	89.06
474.406	87.06
474.625	90.06
474.844	111.06
475.063	105.06
475.282	92.06
475.501	96.06
475.72	82.06
475.939	94.06
476.158	89.06
476.377	91.06
476.596	74.06
476.814	99.06
477.033	92.06
477.252	82.06
477.471	87.06
477.69	105.06
477.908	98.06
478.127	100.06
478.346	87.06
478.564	89.06
478.783	103.06
479.002	94.06
479.22	98.06
479.439	124.06
479.658	96.06
479.876	88.06
480.095	96.06
480.313	98.06
480.532	91.06
480.751	92.06
480.969	82.06
481.188	86.06
481.406	81.06
481.624	80.06
481.843	78.06
482.061	93.06
482.28	103.06
482.498	91.06
482.717	85.06
482.935	104.06
483.153	99.06
483.372	102.06
483.59	118.06
483.808	93.06
484.027	115.06
484.245	98.06
484.463	92.06
484.681	97.06
484.9	101.06
485.118	99.06
485.336	89.06
485.554	74.06
485.772	81.06
485.99	89.06
486.209	92.06
486.427	91.06
486.645	102.06
486.863	94.06
487.081	95.06
487.299	109.06
487.517	104.06
487.735	99.06
487.953	101.06
488.171	114.06
488.389	105.06
488.607	105.06
488.825	111.06
489.043	98.06
489.261	100.06
489.479	92.06
489.696	105.06
489.914	103.06
490.132	102.06
490.35	99.06
490.568	106.06
490.786	111.06
491.003	109.06
491.221	102.06
491.439	109.06
491.657	105.06
491.874	102.06
492.092	125.06
492.31	134.06
492.527	126.06
492.745	116.06
492.963	115.06
493.18	109.06
493.398	102.06
493.615	104.06
493.833	104.06
494.05	98.06
494.268	105.06
494.485	112.06
494.703	123.06
494.92	121.06
495.138	112.06
495.355	110.06
495.573	109.06
495.79	91.06
496.008	96.06
496.225	104.06
496.442	109.06
496.66	99.06
496.877	102.06
497.094	101.06
497.312	102.06
497.529	110.06
497.746	103.06
497.963	97.06
498.181	87.06
498.398	106.06
498.615	84.06
498.832	91.06
499.049	82.06
499.267	87.06
499.484	94.06
499.701	85.06
499.918	89.06
500.135	89.06
500.352	86.06
500.569	95.06
500.786	94.06
501.003	111.06
501.22	105.06
501.437	95.06
501.654	73.06
501.871	83.06
502.088	85.06
502.305	98.06
502.522	87.06
502.739	98.06
502.956	93.06
503.172	87.06
503.389	77.06
503.606	101.06
503.823	96.06
504.04	81.06
504.256	91.06
504.473	83.06
504.69	101.06
504.907	113.06
505.123	89.06
505.34	89.06
505.557	97.06
505.773	95.06
505.99	95.06
506.207	102.06
506.423	95.06
506.64	89.06
506.856	87.06
507.073	87.06
507.289	94.06
507.506	92.06
507.722	93.06
507.939	94.06
508.155	92.06
508.372	69.06
508.588	98.06
508.805	93.06
509.021	96.06
509.238	97.06
509.454	71.06
509.67	79.06
509.887	77.06
510.103	97.06
510.319	83.06
510.536	74.06
510.752	85.06
510.968	72.06
511.184	88.06
511.401	92.06
511.617	71.06
511.833	88.06
512.049	89.06
512.265	95.06
512.481	91.06
512.698	82.06
512.914	96.06
513.13	83.06
513.346	86.06
513.562	80.06
513.778	98.06
513.994	86.06
514.21	88.06
514.426	69.06
514.642	85.06
514.858	81.06
515.074	65.06
515.29	96.06
515.506	84.06
515.721	66.06
515.937	91.06
516.153	82.06
516.369	85.06
516.585	85.06
516.801	72.06
517.016	82.06
517.232	97.06
517.448	89.06
517.664	74.06
517.879	85.06
518.095	84.06
518.311	80.06
518.527	88.06
518.742	103.06
518.958	91.06
519.173	86.06
519.389	78.06
519.605	79.06
519.82	86.06
520.036	89.06
520.251	95.06
520.467	97.06
520.682	77.06
520.898	92.06
521.113	87.06
521.329	90.06
521.544	86.06
521.76	91.06
521.975	71.06
522.19	95.06
522.406	73.06
522.621	89.06
522.836	80.06
523.052	91.06
523.267	98.06
523.482	79.06
523.698	84.06
523.913	97.06
524.128	71.06
524.343	79.06
524.559	99.06
524.774	95.06
524.989	99.06
525.204	104.06
525.419	94.06
525.634	94.06
525.849	91.06
526.064	78.06
526.28	79.06
526.495	81.06
526.71	94.06
526.925	81.06
527.14	82.06
527.355	87.06
527.57	99.06
527.785	92.06
527.999	76.06
528.214	97.06
528.429	82.06
528.644	94.06
528.859	96.06
529.074	84.06
529.289	99.06
529.503	96.06
529.718	99.06
529.933	91.06
530.148	80.06
530.363	93.06
530.577	74.06
530.792	83.06
531.007	83.06
531.221	78.06
531.436	86.06
531.651	91.06
531.865	90.06
532.08	66.06
532.295	73.06
532.509	81.06
532.724	95.06
532.938	71.06
533.153	74.06
533.367	90.06
533.582	86.06
533.796	94.06
534.011	89.06
534.225	88.06
534.44	81.06
534.654	74.06
534.868	89.06
535.083	88.06
535.297	97.06
535.511	98.06
535.726	83.06
535.94	81.06
536.154	80.06
536.369	86.06
536.583	85.06
536.797	87.06
537.011	88.06
537.225	84.06
537.44	86.06
537.654	86.06
537.868	85.06
538.082	91.06
538.296	78.06
538.51	98.06
538.724	87.06
538.938	95.06
539.153	85.06
539.367	94.06
539.581	85.06
539.795	88.06
540.009	86.06
540.222	89.06
540.436	92.06
540.65	99.06
540.864	97.06
541.078	103.06
541.292	107.06
541.506	102.06
541.72	114.06
541.934	125.06
542.147	117.06
542.361	103.06
542.575	101.06
542.789	108.06
543.002	98.06
543.216	83.06
543.43	97.06
543.644	99.06
543.857	98.06
544.071	94.06
544.285	106.06
544.498	99.06
544.712	116.06
544.925	104.06
545.139	106.06
545.352	101.06
545.566	99.06
545.779	97.06
545.993	107.06
546.206	117.06
546.42	114.06
546.633	104.06
546.847	102.06
547.06	103.06
547.274	118.06
547.487	115.06
547.7	119.06
547.914	114.06
548.127	97.06
548.34	111.06
548.554	116.06
548.767	107.06
548.98	103.06
549.193	101.06
549.407	96.06
549.62	100.06
549.833	112.06
550.046	111.06
550.259	99.06
550.473	114.06
550.686	110.06
550.899	105.06
551.112	102.06
551.325	94.06
551.538	91.06
551.751	106.06
551.964	95.06
552.177	85.06
552.39	99.06
552.603	101.06
552.816	117.06
553.029	91.06
553.242	104.06
553.455	103.06
553.667	108.06
553.88	106.06
554.093	91.06
554.306	103.06
554.519	103.06
554.732	102.06
554.944	88.06
555.157	99.06
555.37	101.06
555.583	91.06
555.795	110.06
556.008	99.06
556.221	90.06
556.433	103.06
556.646	104.06
556.859	98.06
557.071	103.06
557.284	96.06
557.496	97.06
557.709	77.06
557.921	106.06
558.134	95.06
558.346	105.06
558.559	94.06
558.771	98.06
558.984	112.06
559.196	85.06
559.409	99.06
559.621	99.06
559.833	102.06
560.046	96.06
560.258	89.06
560.47	96.06
560.683	97.06
560.895	93.06
561.107	100.06
561.32	86.06
561.532	94.06
561.744	92.06
561.956	101.06
562.168	93.06
562.381	94.06
562.593	98.06
562.805	82.06
563.017	90.06
563.229	98.06
563.441	88.06
563.653	103.06
563.865	84.06
564.077	92.06
564.289	105.06
564.501	103.06
564.713	94.06
564.925	88.06
565.137	105.06
565.349	94.06
565.561	95.06
565.773	85.06
565.985	68.06
566.197	79.06
566.408	92.06
566.62	85.06
566.832	83.06
567.044	96.06
567.255	81.06
567.467	89.06
567.679	84.06
567.891	84.06
568.102	95.06
568.314	86.06
568.526	90.06
568.737	80.06
568.949	76.06
569.161	88.06
569.372	79.06
569.584	66.06
569.795	85.06
570.007	86.06
570.218	83.06
570.43	94.06
570.641	91.06
570.853	79.06
571.064	93.06
571.276	89.06
571.487	98.06
571.698	93.06
571.91	71.06
572.121	103.06
572.333	89.06
572.544	90.06
572.755	70.06
572.966	72.06
573.178	90.06
573.389	90.06
573.6	89.06
573.811	94.06
574.023	62.06
574.234	88.06
574.445	87.06
574.656	72.06
574.867	78.06
575.078	85.06
575.289	74.06
575.501	86.06
575.712	84.06
575.923	74.06
576.134	76.06
576.345	88.06
576.556	83.06
576.767	84.06
576.978	83.06
577.188	83.06
577.399	86.06
577.61	85.06
577.821	74.06
578.032	91.06
578.243	88.06
578.454	102.06
578.665	84.06
578.875	97.06
579.086	89.06
579.297	75.06
579.508	96.06
579.718	88.06
579.929	86.06
580.14	75.06
580.35	85.06
580.561	80.06
580.772	81.06
580.982	94.06
581.193	89.06
581.403	75.06
581.614	82.06
581.825	75.06
582.035	103.06
582.246	81.06
582.456	67.06
582.667	88.06
582.877	96.06
583.087	78.06
583.298	78.06
583.508	80.06
583.719	93.06
583.929	82.06
584.139	77.06
584.35	81.06
584.56	76.06
584.77	89.06
584.981	87.06
585.191	74.06
585.401	84.06
585.611	86.06
585.821	92.06
586.032	83.06
586.242	57.06
586.452	90.06
586.662	89.06
586.872	87.06
587.082	88.06
587.292	83.06
587.502	81.06
587.713	77.06
587.923	88.06
588.133	83.06
588.343	81.06
588.553	91.06
588.762	82.06
588.972	73.06
589.182	92.06
589.392	86.06
589.602	80.06
589.812	90.06
590.022	88.06
590.232	67.06
590.441	85.06
590.651	91.06
590.861	95.06
591.071	98.06
591.281	87.06
591.49	85.06
591.7	88.06
591.91	80.06
592.119	94.06
592.329	101.06
592.539	71.06
592.748	77.06
592.958	76.06
593.167	90.06
593.377	73.06
593.587	82.06
593.796	73.06
594.006	80.06
594.215	92.06
594.424	96.06
594.634	96.06
594.843	97.06
595.053	73.06
595.262	81.06
595.472	89.06
595.681	94.06
595.89	87.06
596.1	89.06
596.309	87.06
596.518	86.06
596.727	98.06
596.937	85.06
597.146	81.06
597.355	89.06
597.564	79.06
597.774	70.06
597.983	90.06
598.192	89.06
598.401	89.06
598.61	71.06
598.819	85.06
599.028	83.06
599.237	74.06
599.446	91.06
599.655	83.06
599.864	77.06
600.073	99.06
600.282	87.06
600.491	80.06
600.7	82.06
600.909	83.06
601.118	82.06
601.327	101.06
601.536	81.06
601.745	95.06
601.953	81.06
602.162	75.06
602.371	83.06
602.58	80.06
602.789	91.06
602.997	88.06
603.206	94.06
603.415	84.06
603.623	87.06
603.832	98.06
604.041	81.06
604.249	81.06
604.458	92.06
604.666	78.06
604.875	95.06
605.084	88.06
605.292	75.06
605.501	86.06
605.709	93.06
605.918	98.06
606.126	93.06
606.334	99.06
606.543	90.06
606.751	100.06
606.96	80.06
607.168	89.06
607.376	74.06
607.585	79.06
607.793	92.06
608.001	94.06
608.21	81.06
608.418	96.06
608.626	85.06
608.834	84.06
609.043	95.06
609.251	84.06
609.459	99.06
609.667	91.06
609.875	90.06
610.083	89.06
610.291	87.06
610.499	99.06
610.707	94.06
610.916	104.06
611.124	95.06
611.332	100.06
611.54	98.06
611.748	86.06
611.955	95.06
612.163	96.06
612.371	96.06
612.579	100.06
612.787	80.06
612.995	88.06
613.203	91.06
613.411	86.06
613.618	84.06
613.826	94.06
614.034	87.06
614.242	85.06
614.449	99.06
614.657	85.06
614.865	96.06
615.072	87.06
615.28	90.06
615.488	84.06
615.695	88.06
615.903	96.06
616.111	94.06
616.318	99.06
616.526	97.06
616.733	72.06
616.941	83.06
617.148	95.06
617.356	89.06
617.563	95.06
617.771	73.06
617.978	82.06
618.185	78.06
618.393	93.06
618.6	99.06
618.807	94.06
619.015	98.06
619.222	89.06
619.429	84.06
619.637	83.06
619.844	80.06
620.051	73.06
620.258	82.06
620.466	83.06
620.673	96.06
620.88	87.06
621.087	93.06
621.294	98.06
621.501	99.06
621.708	93.06
621.915	87.06
622.122	84.06
622.329	97.06
622.536	89.06
622.743	79.06
622.95	98.06
623.157	99.06
623.364	88.06
623.571	95.06
623.778	79.06
623.985	95.06
624.192	88.06
624.399	106.06
624.606	106.06
624.812	85.06
625.019	85.06
625.226	95.06
625.433	89.06
625.639	84.06
625.846	91.06
626.053	91.06
626.259	81.06
626.466	95.06
626.673	95.06
626.879	83.06
627.086	91.06
627.293	87.06
627.499	84.06
627.706	83.06
627.912	79.06
628.119	98.06
628.325	104.06
628.532	87.06
628.738	101.06
628.945	95.06
629.151	85.06
629.357	85.06
629.564	97.06
629.77	88.06
629.976	75.06
630.183	91.06
630.389	106.06
630.595	90.06
630.802	78.06
631.008	96.06
631.214	83.06
631.42	97.06
631.627	87.06
631.833	88.06
632.039	67.06
632.245	74.06
632.451	87.06
632.657	84.06
632.863	83.06
633.069	89.06
633.275	80.06
633.481	87.06
633.688	75.06
633.893	90.06
634.099	87.06
634.305	85.06
634.511	85.06
634.717	84.06
634.923	91.06
635.129	88.06
635.335	84.06
635.541	84.06
635.747	90.06
635.952	85.06
636.158	96.06
636.364	94.06
636.57	97.06
636.775	84.06
636.981	90.06
637.187	97.06
637.392	87.06
637.598	95.06
637.804	88.06
638.009	81.06
638.215	96.06
638.421	80.06
638.626	92.06
638.832	83.06
639.037	95.06
639.243	83.06
639.448	99.06
639.654	91.06
639.859	86.06
640.065	91.06
640.27	85.06
640.475	77.06
640.681	76.06
640.886	83.06
641.091	98.06
641.297	88.06
641.502	96.06
641.707	88.06
641.913	112.06
642.118	83.06
642.323	92.06
642.528	91.06
642.733	73.06
642.939	81.06
643.144	89.06
643.349	88.06
643.554	90.06
643.759	76.06
643.964	77.06
644.169	86.06
644.374	78.06
644.579	81.06
644.784	75.06
644.989	92.06
645.194	68.06
645.399	94.06
645.604	77.06
645.809	84.06
646.014	87.06
646.219	81.06
646.423	84.06
646.628	82.06
646.833	83.06
647.038	90.06
647.243	105.06
647.447	85.06
647.652	84.06
647.857	80.06
648.062	78.06
648.266	84.06
648.471	90.06
648.676	92.06
648.88	86.06
649.085	87.06
649.289	72.06
649.494	82.06
649.698	82.06
649.903	80.06
650.107	73.06
650.312	90.06
650.516	86.06
650.721	101.06
650.925	83.06
651.13	88.06
651.334	98.06
651.539	85.06
651.743	88.06
651.947	90.06
652.152	86.06
652.356	82.06
652.56	82.06
652.764	94.06
652.969	80.06
653.173	79.06
653.377	90.06
653.581	82.06
653.785	88.06
653.99	81.06
654.194	85.06
654.398	77.06
654.602	86.06
654.806	94.06
655.01	76.06
655.214	70.06
655.418	77.06
655.622	85.06
655.826	82.06
656.03	75.06
656.234	77.06
656.438	77.06
656.642	89.06
656.846	87.06
657.049	80.06
657.253	83.06
657.457	94.06
657.661	95.06
657.865	96.06
658.068	86.06
658.272	92.06
658.476	87.06
658.68	87.06
658.883	77.06
659.087	71.06
659.291	90.06
659.494	81.06
659.698	85.06
659.901	73.06
660.105	79.06
660.309	79.06
660.512	70.06
660.716	78.06
660.919	70.06
661.123	86.06
661.326	74.06
661.53	77.06
661.733	84.06
661.936	83.06
662.14	82.06
662.343	86.06
662.546	88.06
662.75	93.06
662.953	70.06
663.156	77.06
663.36	84.06
663.563	88.06
663.766	77.06
663.969	83.06
664.173	84.06
664.376	84.06
664.579	93.06
664.782	71.06
664.985	74.06
665.188	80.06
665.391	68.06
665.594	82.06
665.797	75.06
666	80.06
666.203	99.06
666.406	65.06
666.609	83.06
666.812	90.06
667.015	84.06
667.218	78.06
667.421	76.06
667.624	84.06
667.827	76.06
668.03	83.06
668.232	73.06
668.435	78.06
668.638	71.06
668.841	85.06
669.043	87.06
669.246	81.06
669.449	82.06
669.651	79.06
669.854	89.06
670.057	78.06
670.259	75.06
670.462	91.06
670.665	95.06
670.867	102.06
671.07	92.06
671.272	80.06
671.475	79.06
671.677	99.06
671.88	85.06
672.082	81.06
672.284	81.06
672.487	70.06
672.689	69.06
672.892	63.06
