Data from Location4.07152019.Energy5.Lamp.07192019.3%Agarose_HRD10591_15-23-36-576.txt Node
Date: Fri Jul 19 15:23:36 EDT 2019
User: cochatt
Spectrometer: HR+D1059
Trigger mode: 1
Integration Time (sec): 1.000000E-1
Scans to average: 1
Electric dark correction enabled: true
Nonlinearity correction enabled: false
Boxcar width: 0
XAxis mode: Wavelengths
Number of Pixels in Spectrum: 2048
>>>>>Begin Spectral Data<<<<<
223.165	-12.25
223.4	-12.25
223.635	-12.25
223.869	-17.25
224.104	-20.25
224.338	-3.25
224.573	-13.25
224.808	-14.25
225.042	-18.25
225.277	-10.25
225.511	5.75
225.746	-8.25
225.98	12.75
226.215	12.75
226.449	17.75
226.683	21.75
226.918	26.75
227.152	19.75
227.387	40.75
227.621	33.75
227.856	47.75
228.09	41.75
228.324	49.75
228.559	53.75
228.793	55.75
229.027	58.75
229.262	70.75
229.496	59.75
229.73	60.75
229.964	71.75
230.199	76.75
230.433	69.75
230.667	90.75
230.901	71.75
231.136	82.75
231.37	76.75
231.604	98.75
231.838	90.75
232.072	97.75
232.306	92.75
232.541	95.75
232.775	74.75
233.009	79.75
233.243	77.75
233.477	97.75
233.711	91.75
233.945	69.75
234.179	76.75
234.413	91.75
234.647	85.75
234.881	82.75
235.115	87.75
235.349	80.75
235.583	88.75
235.817	76.75
236.051	86.75
236.285	70.75
236.519	79.75
236.753	79.75
236.987	77.75
237.221	91.75
237.455	85.75
237.689	82.75
237.922	84.75
238.156	81.75
238.39	82.75
238.624	76.75
238.858	72.75
239.091	64.75
239.325	85.75
239.559	80.75
239.793	77.75
240.027	83.75
240.26	85.75
240.494	74.75
240.728	75.75
240.961	78.75
241.195	70.75
241.429	79.75
241.662	83.75
241.896	92.75
242.13	73.75
242.363	74.75
242.597	87.75
242.83	91.75
243.064	87.75
243.298	77.75
243.531	82.75
243.765	72.75
243.998	67.75
244.232	85.75
244.465	82.75
244.699	72.75
244.932	84.75
245.166	86.75
245.399	82.75
245.633	76.75
245.866	87.75
246.099	75.75
246.333	86.75
246.566	81.75
246.8	84.75
247.033	75.75
247.266	68.75
247.5	76.75
247.733	95.75
247.966	71.75
248.2	91.75
248.433	78.75
248.666	84.75
248.899	85.75
249.133	79.75
249.366	92.75
249.599	71.75
249.832	79.75
250.066	77.75
250.299	84.75
250.532	75.75
250.765	67.75
250.998	78.75
251.231	75.75
251.465	72.75
251.698	78.75
251.931	76.75
252.164	74.75
252.397	68.75
252.63	83.75
252.863	75.75
253.096	89.75
253.329	84.75
253.562	86.75
253.795	66.75
254.028	69.75
254.261	90.75
254.494	83.75
254.727	68.75
254.96	81.75
255.193	81.75
255.426	90.75
255.659	84.75
255.892	72.75
256.124	70.75
256.357	86.75
256.59	87.75
256.823	94.75
257.056	76.75
257.289	72.75
257.521	67.75
257.754	77.75
257.987	75.75
258.22	90.75
258.452	82.75
258.685	83.75
258.918	83.75
259.151	80.75
259.383	54.75
259.616	91.75
259.849	76.75
260.081	83.75
260.314	75.75
260.547	80.75
260.779	77.75
261.012	96.75
261.244	67.75
261.477	87.75
261.71	79.75
261.942	78.75
262.175	79.75
262.407	78.75
262.64	73.75
262.872	76.75
263.105	92.75
263.337	83.75
263.57	84.75
263.802	82.75
264.035	79.75
264.267	85.75
264.499	69.75
264.732	96.75
264.964	91.75
265.197	96.75
265.429	71.75
265.661	95.75
265.894	81.75
266.126	78.75
266.358	74.75
266.591	78.75
266.823	79.75
267.055	76.75
267.287	90.75
267.52	75.75
267.752	75.75
267.984	98.75
268.216	71.75
268.448	81.75
268.681	90.75
268.913	75.75
269.145	92.75
269.377	80.75
269.609	86.75
269.841	91.75
270.073	78.75
270.306	89.75
270.538	81.75
270.77	75.75
271.002	74.75
271.234	92.75
271.466	71.75
271.698	83.75
271.93	88.75
272.162	88.75
272.394	81.75
272.626	79.75
272.858	86.75
273.09	90.75
273.322	75.75
273.553	90.75
273.785	91.75
274.017	87.75
274.249	80.75
274.481	86.75
274.713	86.75
274.945	83.75
275.176	82.75
275.408	88.75
275.64	87.75
275.872	75.75
276.104	67.75
276.335	71.75
276.567	75.75
276.799	91.75
277.031	74.75
277.262	72.75
277.494	79.75
277.726	93.75
277.957	93.75
278.189	85.75
278.421	92.75
278.652	99.75
278.884	98.75
279.115	93.75
279.347	75.75
279.579	101.75
279.81	86.75
280.042	82.75
280.273	69.75
280.505	81.75
280.736	82.75
280.968	98.75
281.199	80.75
281.431	91.75
281.662	74.75
281.894	85.75
282.125	77.75
282.356	78.75
282.588	76.75
282.819	83.75
283.051	88.75
283.282	75.75
283.513	80.75
283.745	101.75
283.976	98.75
284.207	74.75
284.439	81.75
284.67	77.75
284.901	81.75
285.132	68.75
285.364	76.75
285.595	66.75
285.826	81.75
286.057	68.75
286.288	85.75
286.52	79.75
286.751	81.75
286.982	96.75
287.213	75.75
287.444	86.75
287.675	86.75
287.906	77.75
288.138	59.75
288.369	100.75
288.6	80.75
288.831	92.75
289.062	73.75
289.293	79.75
289.524	62.75
289.755	92.75
289.986	88.75
290.217	87.75
290.448	99.75
290.679	84.75
290.91	84.75
291.141	84.75
291.371	75.75
291.602	93.75
291.833	86.75
292.064	88.75
292.295	82.75
292.526	93.75
292.757	83.75
292.987	78.75
293.218	80.75
293.449	88.75
293.68	95.75
293.91	73.75
294.141	71.75
294.372	85.75
294.603	80.75
294.833	74.75
295.064	101.75
295.295	94.75
295.525	96.75
295.756	87.75
295.987	75.75
296.217	85.75
296.448	78.75
296.679	84.75
296.909	90.75
297.14	80.75
297.37	86.75
297.601	80.75
297.831	98.75
298.062	83.75
298.292	94.75
298.523	78.75
298.753	82.75
298.984	84.75
299.214	77.75
299.445	79.75
299.675	89.75
299.905	89.75
300.136	76.75
300.366	95.75
300.597	89.75
300.827	85.75
301.057	96.75
301.288	79.75
301.518	101.75
301.748	90.75
301.979	68.75
302.209	85.75
302.439	93.75
302.669	89.75
302.9	99.75
303.13	83.75
303.36	83.75
303.59	90.75
303.82	94.75
304.051	93.75
304.281	70.75
304.511	79.75
304.741	77.75
304.971	92.75
305.201	85.75
305.431	79.75
305.661	81.75
305.891	87.75
306.121	72.75
306.352	84.75
306.582	95.75
306.812	100.75
307.042	88.75
307.272	101.75
307.502	87.75
307.731	92.75
307.961	89.75
308.191	90.75
308.421	66.75
308.651	88.75
308.881	82.75
309.111	81.75
309.341	75.75
309.571	76.75
309.8	75.75
310.03	72.75
310.26	87.75
310.49	80.75
310.72	89.75
310.949	77.75
311.179	87.75
311.409	90.75
311.639	79.75
311.868	95.75
312.098	84.75
312.328	84.75
312.557	76.75
312.787	89.75
313.017	80.75
313.246	93.75
313.476	93.75
313.706	74.75
313.935	86.75
314.165	73.75
314.394	81.75
314.624	95.75
314.853	81.75
315.083	84.75
315.312	89.75
315.542	87.75
315.771	83.75
316.001	92.75
316.23	87.75
316.46	83.75
316.689	88.75
316.919	83.75
317.148	82.75
317.377	99.75
317.607	84.75
317.836	88.75
318.065	85.75
318.295	100.75
318.524	83.75
318.753	91.75
318.983	79.75
319.212	91.75
319.441	96.75
319.67	97.75
319.9	89.75
320.129	84.75
320.358	76.75
320.587	87.75
320.816	89.75
321.046	90.75
321.275	82.75
321.504	85.75
321.733	87.75
321.962	78.75
322.191	97.75
322.42	94.75
322.649	90.75
322.878	92.75
323.108	92.75
323.337	88.75
323.566	80.75
323.795	70.75
324.024	80.75
324.253	86.75
324.482	77.75
324.71	93.75
324.939	90.75
325.168	84.75
325.397	67.75
325.626	65.75
325.855	73.75
326.084	98.75
326.313	92.75
326.542	80.75
326.77	83.75
326.999	83.75
327.228	84.75
327.457	86.75
327.686	98.75
327.914	102.75
328.143	97.75
328.372	72.75
328.6	83.75
328.829	87.75
329.058	88.75
329.287	90.75
329.515	86.75
329.744	88.75
329.972	92.75
330.201	82.75
330.43	90.75
330.658	93.75
330.887	84.75
331.115	78.75
331.344	90.75
331.572	105.75
331.801	77.75
332.03	82.75
332.258	94.75
332.486	92.75
332.715	84.75
332.943	94.75
333.172	87.75
333.4	84.75
333.629	81.75
333.857	88.75
334.085	86.75
334.314	87.75
334.542	83.75
334.771	91.75
334.999	83.75
335.227	85.75
335.455	86.75
335.684	88.75
335.912	87.75
336.14	87.75
336.369	87.75
336.597	73.75
336.825	91.75
337.053	83.75
337.281	92.75
337.51	85.75
337.738	93.75
337.966	92.75
338.194	85.75
338.422	78.75
338.65	74.75
338.878	77.75
339.106	83.75
339.334	90.75
339.562	91.75
339.79	95.75
340.018	91.75
340.246	84.75
340.474	90.75
340.702	90.75
340.93	81.75
341.158	87.75
341.386	80.75
341.614	89.75
341.842	76.75
342.07	76.75
342.298	84.75
342.526	93.75
342.754	94.75
342.981	80.75
343.209	83.75
343.437	95.75
343.665	77.75
343.893	78.75
344.12	94.75
344.348	76.75
344.576	89.75
344.804	88.75
345.031	100.75
345.259	86.75
345.487	81.75
345.714	76.75
345.942	97.75
346.17	91.75
346.397	90.75
346.625	78.75
346.853	74.75
347.08	83.75
347.308	74.75
347.535	92.75
347.763	77.75
347.99	70.75
348.218	75.75
348.445	83.75
348.673	78.75
348.9	78.75
349.128	90.75
349.355	80.75
349.583	82.75
349.81	83.75
350.037	87.75
350.265	83.75
350.492	85.75
350.72	71.75
350.947	76.75
351.174	94.75
351.402	81.75
351.629	84.75
351.856	82.75
352.083	83.75
352.311	92.75
352.538	91.75
352.765	78.75
352.992	90.75
353.22	84.75
353.447	91.75
353.674	84.75
353.901	68.75
354.128	72.75
354.355	74.75
354.583	85.75
354.81	87.75
355.037	89.75
355.264	77.75
355.491	94.75
355.718	94.75
355.945	90.75
356.172	92.75
356.399	84.75
356.626	81.75
356.853	102.75
357.08	71.75
357.307	88.75
357.534	74.75
357.761	85.75
357.988	89.75
358.215	86.75
358.441	88.75
358.668	94.75
358.895	93.75
359.122	68.75
359.349	80.75
359.576	77.75
359.802	90.75
360.029	83.75
360.256	81.75
360.483	89.75
360.709	77.75
360.936	90.75
361.163	97.75
361.39	100.75
361.616	96.75
361.843	80.75
362.07	74.75
362.296	93.75
362.523	80.75
362.749	75.75
362.976	91.75
363.203	85.75
363.429	77.75
363.656	85.75
363.882	92.75
364.109	90.75
364.335	96.75
364.562	75.75
364.788	85.75
365.015	85.75
365.241	87.75
365.468	86.75
365.694	85.75
365.92	87.75
366.147	90.75
366.373	80.75
366.599	87.75
366.826	81.75
367.052	80.75
367.278	78.75
367.505	80.75
367.731	93.75
367.957	84.75
368.184	90.75
368.41	88.75
368.636	94.75
368.862	83.75
369.089	92.75
369.315	75.75
369.541	89.75
369.767	100.75
369.993	88.75
370.219	86.75
370.445	87.75
370.672	87.75
370.898	76.75
371.124	93.75
371.35	90.75
371.576	84.75
371.802	78.75
372.028	77.75
372.254	84.75
372.48	92.75
372.706	98.75
372.932	83.75
373.158	89.75
373.384	81.75
373.61	77.75
373.835	89.75
374.061	93.75
374.287	91.75
374.513	76.75
374.739	79.75
374.965	85.75
375.191	75.75
375.416	79.75
375.642	95.75
375.868	88.75
376.094	98.75
376.319	93.75
376.545	96.75
376.771	85.75
376.997	85.75
377.222	84.75
377.448	84.75
377.674	92.75
377.899	104.75
378.125	73.75
378.35	88.75
378.576	76.75
378.802	98.75
379.027	100.75
379.253	77.75
379.478	71.75
379.704	95.75
379.929	85.75
380.155	81.75
380.38	82.75
380.606	86.75
380.831	96.75
381.057	97.75
381.282	74.75
381.507	90.75
381.733	78.75
381.958	75.75
382.184	81.75
382.409	77.75
382.634	83.75
382.86	87.75
383.085	86.75
383.31	80.75
383.535	95.75
383.761	67.75
383.986	83.75
384.211	105.75
384.436	86.75
384.662	93.75
384.887	75.75
385.112	78.75
385.337	83.75
385.562	82.75
385.787	83.75
386.013	90.75
386.238	74.75
386.463	77.75
386.688	89.75
386.913	91.75
387.138	86.75
387.363	78.75
387.588	83.75
387.813	87.75
388.038	78.75
388.263	84.75
388.488	100.75
388.713	93.75
388.938	95.75
389.163	93.75
389.387	85.75
389.612	74.75
389.837	76.75
390.062	84.75
390.287	80.75
390.512	87.75
390.736	93.75
390.961	88.75
391.186	77.75
391.411	89.75
391.636	88.75
391.86	81.75
392.085	94.75
392.31	106.75
392.534	87.75
392.759	88.75
392.984	87.75
393.208	78.75
393.433	93.75
393.658	92.75
393.882	88.75
394.107	102.75
394.331	90.75
394.556	92.75
394.78	79.75
395.005	80.75
395.229	85.75
395.454	90.75
395.678	99.75
395.903	89.75
396.127	92.75
396.352	79.75
396.576	85.75
396.801	92.75
397.025	99.75
397.249	83.75
397.474	87.75
397.698	92.75
397.922	91.75
398.147	91.75
398.371	90.75
398.595	77.75
398.82	78.75
399.044	83.75
399.268	78.75
399.492	73.75
399.717	100.75
399.941	83.75
400.165	100.75
400.389	90.75
400.613	84.75
400.837	94.75
401.062	89.75
401.286	95.75
401.51	76.75
401.734	88.75
401.958	103.75
402.182	98.75
402.406	91.75
402.63	85.75
402.854	92.75
403.078	99.75
403.302	96.75
403.526	97.75
403.75	86.75
403.974	99.75
404.198	92.75
404.422	102.75
404.645	89.75
404.869	97.75
405.093	81.75
405.317	105.75
405.541	79.75
405.765	80.75
405.988	92.75
406.212	101.75
406.436	87.75
406.66	88.75
406.883	88.75
407.107	98.75
407.331	84.75
407.555	82.75
407.778	101.75
408.002	68.75
408.226	82.75
408.449	90.75
408.673	88.75
408.896	90.75
409.12	89.75
409.344	92.75
409.567	96.75
409.791	92.75
410.014	98.75
410.238	89.75
410.461	82.75
410.685	99.75
410.908	98.75
411.132	86.75
411.355	99.75
411.578	96.75
411.802	89.75
412.025	88.75
412.249	101.75
412.472	94.75
412.695	84.75
412.919	92.75
413.142	91.75
413.365	93.75
413.589	83.75
413.812	93.75
414.035	99.75
414.258	84.75
414.482	102.75
414.705	102.75
414.928	102.75
415.151	89.75
415.374	93.75
415.597	106.75
415.821	87.75
416.044	102.75
416.267	98.75
416.49	95.75
416.713	100.75
416.936	97.75
417.159	84.75
417.382	95.75
417.605	90.75
417.828	99.75
418.051	90.75
418.274	95.75
418.497	101.75
418.72	95.75
418.943	110.75
419.166	90.75
419.389	100.75
419.611	110.75
419.834	98.75
420.057	98.75
420.28	94.75
420.503	105.75
420.726	102.75
420.948	91.75
421.171	101.75
421.394	89.75
421.617	93.75
421.839	99.75
422.062	105.75
422.285	100.75
422.507	94.75
422.73	104.75
422.953	82.75
423.175	95.75
423.398	89.75
423.621	101.75
423.843	107.75
424.066	101.75
424.288	88.75
424.511	92.75
424.733	94.75
424.956	96.75
425.178	94.75
425.401	116.75
425.623	87.75
425.846	93.75
426.068	86.75
426.291	103.75
426.513	91.75
426.735	91.75
426.958	93.75
427.18	98.75
427.402	93.75
427.625	95.75
427.847	96.75
428.069	87.75
428.292	79.75
428.514	96.75
428.736	86.75
428.958	93.75
429.181	101.75
429.403	90.75
429.625	90.75
429.847	90.75
430.069	96.75
430.292	99.75
430.514	89.75
430.736	110.75
430.958	95.75
431.18	84.75
431.402	87.75
431.624	82.75
431.846	95.75
432.068	85.75
432.29	88.75
432.512	83.75
432.734	88.75
432.956	103.75
433.178	98.75
433.4	98.75
433.622	106.75
433.844	106.75
434.066	103.75
434.287	86.75
434.509	97.75
434.731	92.75
434.953	77.75
435.175	99.75
435.397	91.75
435.618	95.75
435.84	80.75
436.062	100.75
436.284	102.75
436.505	100.75
436.727	99.75
436.949	87.75
437.17	91.75
437.392	95.75
437.614	83.75
437.835	87.75
438.057	104.75
438.278	90.75
438.5	86.75
438.721	84.75
438.943	96.75
439.165	84.75
439.386	100.75
439.608	85.75
439.829	104.75
440.05	96.75
440.272	100.75
440.493	103.75
440.715	87.75
440.936	104.75
441.158	107.75
441.379	93.75
441.6	85.75
441.822	95.75
442.043	108.75
442.264	92.75
442.486	113.75
442.707	99.75
442.928	90.75
443.149	101.75
443.371	86.75
443.592	101.75
443.813	93.75
444.034	100.75
444.255	100.75
444.476	112.75
444.698	95.75
444.919	108.75
445.14	173.75
445.361	146.75
445.582	106.75
445.803	89.75
446.024	96.75
446.245	103.75
446.466	94.75
446.687	93.75
446.908	110.75
447.129	98.75
447.35	99.75
447.571	110.75
447.792	92.75
448.013	95.75
448.234	98.75
448.455	98.75
448.675	96.75
448.896	106.75
449.117	101.75
449.338	89.75
449.559	94.75
449.779	88.75
450	108.75
450.221	116.75
450.442	114.75
450.662	87.75
450.883	97.75
451.104	81.75
451.324	96.75
451.545	92.75
451.766	88.75
451.986	101.75
452.207	83.75
452.428	99.75
452.648	92.75
452.869	96.75
453.089	95.75
453.31	87.75
453.53	79.75
453.751	75.75
453.971	85.75
454.192	89.75
454.412	85.75
454.633	81.75
454.853	87.75
455.073	86.75
455.294	93.75
455.514	78.75
455.734	82.75
455.955	79.75
456.175	93.75
456.395	88.75
456.616	91.75
456.836	90.75
457.056	98.75
457.276	99.75
457.497	95.75
457.717	88.75
457.937	92.75
458.157	96.75
458.377	97.75
458.598	78.75
458.818	85.75
459.038	81.75
459.258	99.75
459.478	91.75
459.698	76.75
459.918	95.75
460.138	95.75
460.358	103.75
460.578	97.75
460.798	100.75
461.018	77.75
461.238	90.75
461.458	84.75
461.678	82.75
461.898	84.75
462.118	80.75
462.338	93.75
462.558	89.75
462.777	84.75
462.997	101.75
463.217	81.75
463.437	80.75
463.657	95.75
463.876	81.75
464.096	90.75
464.316	89.75
464.536	92.75
464.755	97.75
464.975	81.75
465.195	84.75
465.414	98.75
465.634	97.75
465.854	99.75
466.073	94.75
466.293	100.75
466.512	89.75
466.732	90.75
466.951	87.75
467.171	95.75
467.391	96.75
467.61	91.75
467.829	101.75
468.049	104.75
468.268	100.75
468.488	118.75
468.707	95.75
468.927	96.75
469.146	100.75
469.365	92.75
469.585	94.75
469.804	103.75
470.023	104.75
470.243	120.75
470.462	99.75
470.681	102.75
470.901	102.75
471.12	98.75
471.339	94.75
471.558	99.75
471.777	101.75
471.997	91.75
472.216	90.75
472.435	91.75
472.654	81.75
472.873	89.75
473.092	93.75
473.311	101.75
473.53	85.75
473.749	89.75
473.968	98.75
474.187	91.75
474.406	94.75
474.625	100.75
474.844	93.75
475.063	100.75
475.282	101.75
475.501	91.75
475.72	95.75
475.939	96.75
476.158	93.75
476.377	95.75
476.596	91.75
476.814	87.75
477.033	87.75
477.252	94.75
477.471	97.75
477.69	97.75
477.908	96.75
478.127	104.75
478.346	104.75
478.564	90.75
478.783	99.75
479.002	108.75
479.22	97.75
479.439	100.75
479.658	108.75
479.876	81.75
480.095	92.75
480.313	99.75
480.532	96.75
480.751	101.75
480.969	91.75
481.188	71.75
481.406	71.75
481.624	89.75
481.843	93.75
482.061	86.75
482.28	83.75
482.498	83.75
482.717	80.75
482.935	112.75
483.153	100.75
483.372	95.75
483.59	102.75
483.808	93.75
484.027	99.75
484.245	106.75
484.463	109.75
484.681	100.75
484.9	101.75
485.118	111.75
485.336	96.75
485.554	92.75
485.772	94.75
485.99	87.75
486.209	91.75
486.427	87.75
486.645	105.75
486.863	105.75
487.081	97.75
487.299	102.75
487.517	99.75
487.735	108.75
487.953	119.75
488.171	121.75
488.389	121.75
488.607	106.75
488.825	97.75
489.043	84.75
489.261	111.75
489.479	106.75
489.696	106.75
489.914	91.75
490.132	84.75
490.35	99.75
490.568	109.75
490.786	98.75
491.003	116.75
491.221	90.75
491.439	97.75
491.657	109.75
491.874	107.75
492.092	123.75
492.31	129.75
492.527	128.75
492.745	108.75
492.963	126.75
493.18	119.75
493.398	101.75
493.615	121.75
493.833	119.75
494.05	118.75
494.268	103.75
494.485	98.75
494.703	103.75
494.92	104.75
495.138	86.75
495.355	105.75
495.573	113.75
495.79	102.75
496.008	113.75
496.225	115.75
496.442	104.75
496.66	105.75
496.877	113.75
497.094	103.75
497.312	115.75
497.529	110.75
497.746	109.75
497.963	102.75
498.181	91.75
498.398	100.75
498.615	111.75
498.832	92.75
499.049	102.75
499.267	90.75
499.484	89.75
499.701	93.75
499.918	93.75
500.135	102.75
500.352	105.75
500.569	107.75
500.786	90.75
501.003	97.75
501.22	104.75
501.437	97.75
501.654	91.75
501.871	100.75
502.088	100.75
502.305	109.75
502.522	103.75
502.739	80.75
502.956	99.75
503.172	97.75
503.389	102.75
503.606	100.75
503.823	89.75
504.04	104.75
504.256	111.75
504.473	90.75
504.69	95.75
504.907	97.75
505.123	84.75
505.34	96.75
505.557	101.75
505.773	87.75
505.99	96.75
506.207	87.75
506.423	97.75
506.64	97.75
506.856	109.75
507.073	93.75
507.289	86.75
507.506	99.75
507.722	95.75
507.939	100.75
508.155	100.75
508.372	95.75
508.588	83.75
508.805	86.75
509.021	97.75
509.238	93.75
509.454	86.75
509.67	86.75
509.887	89.75
510.103	88.75
510.319	93.75
510.536	93.75
510.752	79.75
510.968	93.75
511.184	87.75
511.401	83.75
511.617	74.75
511.833	84.75
512.049	88.75
512.265	91.75
512.481	81.75
512.698	87.75
512.914	87.75
513.13	91.75
513.346	90.75
513.562	80.75
513.778	77.75
513.994	92.75
514.21	90.75
514.426	81.75
514.642	88.75
514.858	78.75
515.074	93.75
515.29	87.75
515.506	90.75
515.721	91.75
515.937	86.75
516.153	90.75
516.369	91.75
516.585	82.75
516.801	90.75
517.016	89.75
517.232	84.75
517.448	89.75
517.664	98.75
517.879	91.75
518.095	96.75
518.311	104.75
518.527	98.75
518.742	88.75
518.958	89.75
519.173	83.75
519.389	88.75
519.605	93.75
519.82	101.75
520.036	89.75
520.251	92.75
520.467	96.75
520.682	93.75
520.898	82.75
521.113	81.75
521.329	82.75
521.544	87.75
521.76	84.75
521.975	89.75
522.19	95.75
522.406	85.75
522.621	93.75
522.836	84.75
523.052	64.75
523.267	89.75
523.482	90.75
523.698	70.75
523.913	86.75
524.128	89.75
524.343	102.75
524.559	117.75
524.774	101.75
524.989	92.75
525.204	99.75
525.419	100.75
525.634	103.75
525.849	100.75
526.064	87.75
526.28	76.75
526.495	85.75
526.71	81.75
526.925	83.75
527.14	85.75
527.355	73.75
527.57	85.75
527.785	76.75
527.999	78.75
528.214	86.75
528.429	75.75
528.644	83.75
528.859	95.75
529.074	111.75
529.289	111.75
529.503	105.75
529.718	103.75
529.933	96.75
530.148	105.75
530.363	104.75
530.577	98.75
530.792	84.75
531.007	88.75
531.221	79.75
531.436	79.75
531.651	84.75
531.865	93.75
532.08	88.75
532.295	73.75
532.509	66.75
532.724	67.75
532.938	76.75
533.153	90.75
533.367	85.75
533.582	113.75
533.796	98.75
534.011	97.75
534.225	84.75
534.44	91.75
534.654	104.75
534.868	89.75
535.083	83.75
535.297	88.75
535.511	95.75
535.726	91.75
535.94	101.75
536.154	88.75
536.369	89.75
536.583	83.75
536.797	91.75
537.011	83.75
537.225	88.75
537.44	90.75
537.654	78.75
537.868	84.75
538.082	88.75
538.296	95.75
538.51	90.75
538.724	102.75
538.938	101.75
539.153	104.75
539.367	107.75
539.581	113.75
539.795	88.75
540.009	75.75
540.222	91.75
540.436	88.75
540.65	111.75
540.864	105.75
541.078	91.75
541.292	100.75
541.506	103.75
541.72	103.75
541.934	119.75
542.147	125.75
542.361	123.75
542.575	92.75
542.789	104.75
543.002	92.75
543.216	94.75
543.43	90.75
543.644	105.75
543.857	91.75
544.071	123.75
544.285	121.75
544.498	104.75
544.712	99.75
544.925	99.75
545.139	121.75
545.352	108.75
545.566	117.75
545.779	99.75
545.993	112.75
546.206	107.75
546.42	101.75
546.633	108.75
546.847	116.75
547.06	111.75
547.274	101.75
547.487	106.75
547.7	115.75
547.914	105.75
548.127	102.75
548.34	112.75
548.554	100.75
548.767	117.75
548.98	109.75
549.193	96.75
549.407	108.75
549.62	101.75
549.833	110.75
550.046	106.75
550.259	106.75
550.473	105.75
550.686	116.75
550.899	113.75
551.112	121.75
551.325	112.75
551.538	107.75
551.751	107.75
551.964	92.75
552.177	100.75
552.39	96.75
552.603	106.75
552.816	105.75
553.029	103.75
553.242	103.75
553.455	113.75
553.667	111.75
553.88	100.75
554.093	103.75
554.306	112.75
554.519	115.75
554.732	99.75
554.944	99.75
555.157	97.75
555.37	115.75
555.583	103.75
555.795	100.75
556.008	88.75
556.221	90.75
556.433	86.75
556.646	99.75
556.859	98.75
557.071	102.75
557.284	99.75
557.496	100.75
557.709	107.75
557.921	88.75
558.134	91.75
558.346	113.75
558.559	107.75
558.771	96.75
558.984	93.75
559.196	96.75
559.409	100.75
559.621	102.75
559.833	105.75
560.046	97.75
560.258	107.75
560.47	89.75
560.683	107.75
560.895	106.75
561.107	99.75
561.32	100.75
561.532	102.75
561.744	104.75
561.956	84.75
562.168	96.75
562.381	90.75
562.593	99.75
562.805	99.75
563.017	93.75
563.229	106.75
563.441	81.75
563.653	113.75
563.865	99.75
564.077	104.75
564.289	93.75
564.501	96.75
564.713	107.75
564.925	105.75
565.137	97.75
565.349	100.75
565.561	113.75
565.773	86.75
565.985	89.75
566.197	92.75
566.408	92.75
566.62	93.75
566.832	95.75
567.044	95.75
567.255	83.75
567.467	100.75
567.679	87.75
567.891	107.75
568.102	94.75
568.314	87.75
568.526	73.75
568.737	88.75
568.949	84.75
569.161	83.75
569.372	95.75
569.584	81.75
569.795	95.75
570.007	91.75
570.218	92.75
570.43	80.75
570.641	86.75
570.853	81.75
571.064	74.75
571.276	83.75
571.487	84.75
571.698	87.75
571.91	99.75
572.121	92.75
572.333	112.75
572.544	89.75
572.755	85.75
572.966	82.75
573.178	90.75
573.389	81.75
573.6	86.75
573.811	73.75
574.023	85.75
574.234	98.75
574.445	85.75
574.656	95.75
574.867	93.75
575.078	78.75
575.289	77.75
575.501	83.75
575.712	87.75
575.923	81.75
576.134	98.75
576.345	88.75
576.556	80.75
576.767	86.75
576.978	89.75
577.188	94.75
577.399	84.75
577.61	80.75
577.821	89.75
578.032	85.75
578.243	86.75
578.454	90.75
578.665	93.75
578.875	81.75
579.086	88.75
579.297	77.75
579.508	81.75
579.718	102.75
579.929	83.75
580.14	78.75
580.35	83.75
580.561	81.75
580.772	82.75
580.982	82.75
581.193	88.75
581.403	97.75
581.614	87.75
581.825	85.75
582.035	92.75
582.246	102.75
582.456	69.75
582.667	91.75
582.877	84.75
583.087	82.75
583.298	84.75
583.508	78.75
583.719	84.75
583.929	83.75
584.139	81.75
584.35	80.75
584.56	96.75
584.77	88.75
584.981	83.75
585.191	95.75
585.401	75.75
585.611	93.75
585.821	83.75
586.032	93.75
586.242	69.75
586.452	89.75
586.662	72.75
586.872	84.75
587.082	84.75
587.292	86.75
587.502	78.75
587.713	81.75
587.923	89.75
588.133	87.75
588.343	105.75
588.553	99.75
588.762	85.75
588.972	86.75
589.182	72.75
589.392	82.75
589.602	81.75
589.812	87.75
590.022	94.75
590.232	79.75
590.441	91.75
590.651	77.75
590.861	79.75
591.071	93.75
591.281	86.75
591.49	90.75
591.7	83.75
591.91	94.75
592.119	85.75
592.329	88.75
592.539	80.75
592.748	98.75
592.958	89.75
593.167	69.75
593.377	76.75
593.587	85.75
593.796	92.75
594.006	74.75
594.215	89.75
594.424	93.75
594.634	93.75
594.843	95.75
595.053	76.75
595.262	95.75
595.472	88.75
595.681	77.75
595.89	98.75
596.1	86.75
596.309	87.75
596.518	104.75
596.727	97.75
596.937	76.75
597.146	79.75
597.355	81.75
597.564	96.75
597.774	101.75
597.983	98.75
598.192	73.75
598.401	90.75
598.61	81.75
598.819	85.75
599.028	89.75
599.237	77.75
599.446	83.75
599.655	88.75
599.864	81.75
600.073	89.75
600.282	91.75
600.491	74.75
600.7	83.75
600.909	84.75
601.118	83.75
601.327	86.75
601.536	96.75
601.745	97.75
601.953	89.75
602.162	89.75
602.371	84.75
602.58	86.75
602.789	90.75
602.997	100.75
603.206	94.75
603.415	92.75
603.623	104.75
603.832	91.75
604.041	98.75
604.249	82.75
604.458	87.75
604.666	88.75
604.875	99.75
605.084	96.75
605.292	92.75
605.501	97.75
605.709	88.75
605.918	108.75
606.126	92.75
606.334	85.75
606.543	82.75
606.751	92.75
606.96	80.75
607.168	89.75
607.376	92.75
607.585	94.75
607.793	89.75
608.001	98.75
608.21	108.75
608.418	97.75
608.626	89.75
608.834	88.75
609.043	88.75
609.251	104.75
609.459	85.75
609.667	95.75
609.875	98.75
610.083	104.75
610.291	92.75
610.499	95.75
610.707	100.75
610.916	88.75
611.124	103.75
611.332	95.75
611.54	93.75
611.748	104.75
611.955	86.75
612.163	92.75
612.371	96.75
612.579	95.75
612.787	95.75
612.995	100.75
613.203	104.75
613.411	99.75
613.618	100.75
613.826	96.75
614.034	90.75
614.242	94.75
614.449	92.75
614.657	83.75
614.865	93.75
615.072	89.75
615.28	84.75
615.488	88.75
615.695	98.75
615.903	94.75
616.111	87.75
616.318	75.75
616.526	81.75
616.733	92.75
616.941	91.75
617.148	106.75
617.356	84.75
617.563	94.75
617.771	95.75
617.978	91.75
618.185	96.75
618.393	86.75
618.6	79.75
618.807	77.75
619.015	111.75
619.222	109.75
619.429	90.75
619.637	95.75
619.844	85.75
620.051	87.75
620.258	102.75
620.466	91.75
620.673	77.75
620.88	75.75
621.087	107.75
621.294	92.75
621.501	87.75
621.708	89.75
621.915	89.75
622.122	86.75
622.329	96.75
622.536	109.75
622.743	103.75
622.95	91.75
623.157	95.75
623.364	84.75
623.571	95.75
623.778	93.75
623.985	94.75
624.192	103.75
624.399	91.75
624.606	88.75
624.812	88.75
625.019	84.75
625.226	96.75
625.433	93.75
625.639	99.75
625.846	90.75
626.053	88.75
626.259	86.75
626.466	94.75
626.673	99.75
626.879	76.75
627.086	86.75
627.293	100.75
627.499	84.75
627.706	92.75
627.912	110.75
628.119	100.75
628.325	94.75
628.532	88.75
628.738	77.75
628.945	84.75
629.151	85.75
629.357	82.75
629.564	75.75
629.77	103.75
629.976	86.75
630.183	81.75
630.389	103.75
630.595	80.75
630.802	87.75
631.008	88.75
631.214	97.75
631.42	89.75
631.627	88.75
631.833	92.75
632.039	88.75
632.245	85.75
632.451	87.75
632.657	100.75
632.863	78.75
633.069	82.75
633.275	98.75
633.481	80.75
633.688	105.75
633.893	91.75
634.099	87.75
634.305	98.75
634.511	88.75
634.717	90.75
634.923	87.75
635.129	93.75
635.335	77.75
635.541	96.75
635.747	85.75
635.952	95.75
636.158	81.75
636.364	96.75
636.57	87.75
636.775	84.75
636.981	95.75
637.187	88.75
637.392	81.75
637.598	88.75
637.804	85.75
638.009	89.75
638.215	85.75
638.421	90.75
638.626	82.75
638.832	95.75
639.037	84.75
639.243	83.75
639.448	105.75
639.654	90.75
639.859	75.75
640.065	88.75
640.27	83.75
640.475	99.75
640.681	114.75
640.886	93.75
641.091	90.75
641.297	97.75
641.502	80.75
641.707	91.75
641.913	76.75
642.118	105.75
642.323	91.75
642.528	89.75
642.733	94.75
642.939	97.75
643.144	98.75
643.349	87.75
643.554	76.75
643.759	95.75
643.964	84.75
644.169	87.75
644.374	87.75
644.579	84.75
644.784	99.75
644.989	74.75
645.194	86.75
645.399	87.75
645.604	87.75
645.809	85.75
646.014	91.75
646.219	93.75
646.423	87.75
646.628	90.75
646.833	87.75
647.038	97.75
647.243	98.75
647.447	89.75
647.652	81.75
647.857	75.75
648.062	86.75
648.266	87.75
648.471	88.75
648.676	85.75
648.88	73.75
649.085	83.75
649.289	90.75
649.494	74.75
649.698	85.75
649.903	93.75
650.107	86.75
650.312	81.75
650.516	87.75
650.721	86.75
650.925	85.75
651.13	77.75
651.334	83.75
651.539	88.75
651.743	75.75
651.947	91.75
652.152	95.75
652.356	103.75
652.56	88.75
652.764	74.75
652.969	86.75
653.173	81.75
653.377	103.75
653.581	69.75
653.785	89.75
653.99	85.75
654.194	83.75
654.398	83.75
654.602	90.75
654.806	85.75
655.01	91.75
655.214	85.75
655.418	95.75
655.622	87.75
655.826	82.75
656.03	88.75
656.234	82.75
656.438	91.75
656.642	77.75
656.846	85.75
657.049	80.75
657.253	98.75
657.457	87.75
657.661	90.75
657.865	83.75
658.068	67.75
658.272	80.75
658.476	90.75
658.68	77.75
658.883	83.75
659.087	85.75
659.291	71.75
659.494	92.75
659.698	81.75
659.901	77.75
660.105	80.75
660.309	77.75
660.512	96.75
660.716	92.75
660.919	95.75
661.123	95.75
661.326	89.75
661.53	72.75
661.733	87.75
661.936	82.75
662.14	88.75
662.343	85.75
662.546	89.75
662.75	95.75
662.953	91.75
663.156	96.75
663.36	77.75
663.563	90.75
663.766	72.75
663.969	67.75
664.173	108.75
664.376	85.75
664.579	75.75
664.782	69.75
664.985	76.75
665.188	79.75
665.391	87.75
665.594	71.75
665.797	75.75
666	82.75
666.203	86.75
666.406	88.75
666.609	85.75
666.812	91.75
667.015	75.75
667.218	77.75
667.421	82.75
667.624	78.75
667.827	77.75
668.03	87.75
668.232	83.75
668.435	82.75
668.638	87.75
668.841	86.75
669.043	78.75
669.246	89.75
669.449	80.75
669.651	80.75
669.854	83.75
670.057	82.75
670.259	81.75
670.462	92.75
670.665	66.75
670.867	70.75
671.07	81.75
671.272	90.75
671.475	88.75
671.677	91.75
671.88	74.75
672.082	63.75
672.284	77.75
672.487	79.75
672.689	96.75
672.892	87.75
