Data from Location4.07152019.Energy5.Lamp.07192019.3%Agarose_HRD10591_15-26-06-578.txt Node
Date: Fri Jul 19 15:26:06 EDT 2019
User: cochatt
Spectrometer: HR+D1059
Trigger mode: 1
Integration Time (sec): 1.000000E-1
Scans to average: 1
Electric dark correction enabled: true
Nonlinearity correction enabled: false
Boxcar width: 0
XAxis mode: Wavelengths
Number of Pixels in Spectrum: 2048
>>>>>Begin Spectral Data<<<<<
223.165	-7.62
223.4	-7.62
223.635	-7.62
223.869	-20.62
224.104	-22.62
224.338	-17.62
224.573	-15.62
224.808	-26.62
225.042	-12.62
225.277	-9.62
225.511	2.38
225.746	2.38
225.98	2.38
226.215	18.38
226.449	24.38
226.683	13.38
226.918	35.38
227.152	34.38
227.387	27.38
227.621	47.38
227.856	58.38
228.09	44.38
228.324	49.38
228.559	63.38
228.793	66.38
229.027	70.38
229.262	50.38
229.496	62.38
229.73	66.38
229.964	59.38
230.199	62.38
230.433	80.38
230.667	87.38
230.901	68.38
231.136	83.38
231.37	85.38
231.604	102.38
231.838	73.38
232.072	87.38
232.306	75.38
232.541	81.38
232.775	87.38
233.009	85.38
233.243	91.38
233.477	91.38
233.711	99.38
233.945	63.38
234.179	80.38
234.413	86.38
234.647	74.38
234.881	97.38
235.115	81.38
235.349	93.38
235.583	84.38
235.817	82.38
236.051	82.38
236.285	66.38
236.519	72.38
236.753	75.38
236.987	80.38
237.221	71.38
237.455	86.38
237.689	95.38
237.922	70.38
238.156	78.38
238.39	82.38
238.624	72.38
238.858	83.38
239.091	74.38
239.325	67.38
239.559	73.38
239.793	81.38
240.027	75.38
240.26	79.38
240.494	83.38
240.728	85.38
240.961	72.38
241.195	86.38
241.429	84.38
241.662	73.38
241.896	71.38
242.13	68.38
242.363	85.38
242.597	85.38
242.83	84.38
243.064	93.38
243.298	80.38
243.531	66.38
243.765	81.38
243.998	75.38
244.232	83.38
244.465	77.38
244.699	69.38
244.932	65.38
245.166	75.38
245.399	71.38
245.633	85.38
245.866	82.38
246.099	79.38
246.333	68.38
246.566	77.38
246.8	71.38
247.033	67.38
247.266	76.38
247.5	82.38
247.733	67.38
247.966	89.38
248.2	81.38
248.433	79.38
248.666	73.38
248.899	77.38
249.133	66.38
249.366	90.38
249.599	66.38
249.832	85.38
250.066	75.38
250.299	71.38
250.532	85.38
250.765	84.38
250.998	89.38
251.231	71.38
251.465	67.38
251.698	80.38
251.931	80.38
252.164	89.38
252.397	90.38
252.63	78.38
252.863	64.38
253.096	73.38
253.329	72.38
253.562	73.38
253.795	96.38
254.028	84.38
254.261	65.38
254.494	72.38
254.727	75.38
254.96	75.38
255.193	79.38
255.426	83.38
255.659	95.38
255.892	95.38
256.124	88.38
256.357	75.38
256.59	93.38
256.823	80.38
257.056	76.38
257.289	77.38
257.521	92.38
257.754	84.38
257.987	79.38
258.22	85.38
258.452	80.38
258.685	89.38
258.918	79.38
259.151	83.38
259.383	78.38
259.616	79.38
259.849	83.38
260.081	63.38
260.314	81.38
260.547	69.38
260.779	85.38
261.012	82.38
261.244	74.38
261.477	96.38
261.71	66.38
261.942	60.38
262.175	87.38
262.407	69.38
262.64	82.38
262.872	91.38
263.105	93.38
263.337	87.38
263.57	79.38
263.802	84.38
264.035	72.38
264.267	88.38
264.499	98.38
264.732	86.38
264.964	89.38
265.197	82.38
265.429	68.38
265.661	94.38
265.894	104.38
266.126	90.38
266.358	73.38
266.591	92.38
266.823	87.38
267.055	69.38
267.287	89.38
267.52	83.38
267.752	81.38
267.984	72.38
268.216	84.38
268.448	87.38
268.681	82.38
268.913	76.38
269.145	87.38
269.377	74.38
269.609	80.38
269.841	90.38
270.073	86.38
270.306	89.38
270.538	76.38
270.77	85.38
271.002	92.38
271.234	77.38
271.466	96.38
271.698	83.38
271.93	73.38
272.162	107.38
272.394	91.38
272.626	82.38
272.858	71.38
273.09	82.38
273.322	75.38
273.553	72.38
273.785	84.38
274.017	86.38
274.249	75.38
274.481	70.38
274.713	86.38
274.945	82.38
275.176	89.38
275.408	82.38
275.64	70.38
275.872	82.38
276.104	82.38
276.335	88.38
276.567	86.38
276.799	88.38
277.031	65.38
277.262	92.38
277.494	95.38
277.726	84.38
277.957	97.38
278.189	90.38
278.421	94.38
278.652	97.38
278.884	84.38
279.115	85.38
279.347	87.38
279.579	76.38
279.81	87.38
280.042	83.38
280.273	68.38
280.505	82.38
280.736	91.38
280.968	78.38
281.199	86.38
281.431	79.38
281.662	80.38
281.894	86.38
282.125	98.38
282.356	91.38
282.588	79.38
282.819	74.38
283.051	80.38
283.282	80.38
283.513	100.38
283.745	90.38
283.976	79.38
284.207	90.38
284.439	83.38
284.67	97.38
284.901	74.38
285.132	80.38
285.364	84.38
285.595	90.38
285.826	97.38
286.057	79.38
286.288	82.38
286.52	101.38
286.751	94.38
286.982	78.38
287.213	81.38
287.444	93.38
287.675	79.38
287.906	91.38
288.138	86.38
288.369	75.38
288.6	85.38
288.831	97.38
289.062	85.38
289.293	78.38
289.524	82.38
289.755	79.38
289.986	88.38
290.217	95.38
290.448	86.38
290.679	86.38
290.91	85.38
291.141	87.38
291.371	84.38
291.602	71.38
291.833	98.38
292.064	88.38
292.295	89.38
292.526	88.38
292.757	81.38
292.987	72.38
293.218	98.38
293.449	81.38
293.68	91.38
293.91	92.38
294.141	72.38
294.372	85.38
294.603	88.38
294.833	72.38
295.064	81.38
295.295	84.38
295.525	75.38
295.756	88.38
295.987	96.38
296.217	93.38
296.448	85.38
296.679	73.38
296.909	85.38
297.14	83.38
297.37	110.38
297.601	92.38
297.831	80.38
298.062	96.38
298.292	95.38
298.523	96.38
298.753	82.38
298.984	92.38
299.214	86.38
299.445	95.38
299.675	83.38
299.905	89.38
300.136	89.38
300.366	74.38
300.597	93.38
300.827	83.38
301.057	75.38
301.288	86.38
301.518	80.38
301.748	79.38
301.979	84.38
302.209	103.38
302.439	77.38
302.669	70.38
302.9	82.38
303.13	80.38
303.36	90.38
303.59	86.38
303.82	89.38
304.051	96.38
304.281	86.38
304.511	99.38
304.741	84.38
304.971	81.38
305.201	87.38
305.431	79.38
305.661	84.38
305.891	82.38
306.121	86.38
306.352	83.38
306.582	89.38
306.812	80.38
307.042	83.38
307.272	77.38
307.502	73.38
307.731	81.38
307.961	81.38
308.191	81.38
308.421	90.38
308.651	84.38
308.881	87.38
309.111	87.38
309.341	86.38
309.571	94.38
309.8	91.38
310.03	92.38
310.26	87.38
310.49	95.38
310.72	90.38
310.949	86.38
311.179	84.38
311.409	89.38
311.639	83.38
311.868	89.38
312.098	89.38
312.328	78.38
312.557	84.38
312.787	82.38
313.017	84.38
313.246	70.38
313.476	80.38
313.706	81.38
313.935	80.38
314.165	82.38
314.394	78.38
314.624	77.38
314.853	74.38
315.083	86.38
315.312	90.38
315.542	72.38
315.771	75.38
316.001	90.38
316.23	70.38
316.46	95.38
316.689	87.38
316.919	89.38
317.148	91.38
317.377	84.38
317.607	86.38
317.836	95.38
318.065	82.38
318.295	82.38
318.524	83.38
318.753	79.38
318.983	75.38
319.212	63.38
319.441	70.38
319.67	78.38
319.9	87.38
320.129	91.38
320.358	96.38
320.587	80.38
320.816	83.38
321.046	87.38
321.275	77.38
321.504	80.38
321.733	95.38
321.962	81.38
322.191	80.38
322.42	90.38
322.649	89.38
322.878	93.38
323.108	92.38
323.337	76.38
323.566	89.38
323.795	74.38
324.024	100.38
324.253	78.38
324.482	90.38
324.71	86.38
324.939	89.38
325.168	80.38
325.397	73.38
325.626	87.38
325.855	83.38
326.084	69.38
326.313	92.38
326.542	81.38
326.77	86.38
326.999	89.38
327.228	74.38
327.457	81.38
327.686	96.38
327.914	81.38
328.143	87.38
328.372	87.38
328.6	84.38
328.829	89.38
329.058	82.38
329.287	89.38
329.515	76.38
329.744	82.38
329.972	80.38
330.201	79.38
330.43	97.38
330.658	81.38
330.887	85.38
331.115	73.38
331.344	76.38
331.572	98.38
331.801	80.38
332.03	87.38
332.258	95.38
332.486	78.38
332.715	86.38
332.943	85.38
333.172	73.38
333.4	85.38
333.629	88.38
333.857	84.38
334.085	96.38
334.314	96.38
334.542	83.38
334.771	95.38
334.999	71.38
335.227	81.38
335.455	80.38
335.684	104.38
335.912	92.38
336.14	87.38
336.369	76.38
336.597	82.38
336.825	87.38
337.053	80.38
337.281	74.38
337.51	82.38
337.738	86.38
337.966	76.38
338.194	90.38
338.422	91.38
338.65	83.38
338.878	89.38
339.106	75.38
339.334	72.38
339.562	81.38
339.79	86.38
340.018	85.38
340.246	66.38
340.474	76.38
340.702	82.38
340.93	88.38
341.158	88.38
341.386	76.38
341.614	81.38
341.842	90.38
342.07	74.38
342.298	85.38
342.526	82.38
342.754	80.38
342.981	81.38
343.209	96.38
343.437	95.38
343.665	85.38
343.893	83.38
344.12	81.38
344.348	80.38
344.576	97.38
344.804	86.38
345.031	80.38
345.259	84.38
345.487	79.38
345.714	82.38
345.942	80.38
346.17	84.38
346.397	78.38
346.625	68.38
346.853	86.38
347.08	86.38
347.308	88.38
347.535	92.38
347.763	94.38
347.99	80.38
348.218	84.38
348.445	94.38
348.673	86.38
348.9	84.38
349.128	88.38
349.355	70.38
349.583	78.38
349.81	93.38
350.037	88.38
350.265	91.38
350.492	85.38
350.72	80.38
350.947	80.38
351.174	81.38
351.402	80.38
351.629	79.38
351.856	83.38
352.083	78.38
352.311	80.38
352.538	87.38
352.765	83.38
352.992	76.38
353.22	72.38
353.447	74.38
353.674	81.38
353.901	95.38
354.128	95.38
354.355	73.38
354.583	90.38
354.81	88.38
355.037	76.38
355.264	84.38
355.491	84.38
355.718	85.38
355.945	97.38
356.172	73.38
356.399	79.38
356.626	83.38
356.853	86.38
357.08	87.38
357.307	86.38
357.534	87.38
357.761	78.38
357.988	87.38
358.215	70.38
358.441	96.38
358.668	82.38
358.895	81.38
359.122	77.38
359.349	79.38
359.576	99.38
359.802	88.38
360.029	84.38
360.256	103.38
360.483	87.38
360.709	85.38
360.936	77.38
361.163	83.38
361.39	81.38
361.616	69.38
361.843	82.38
362.07	72.38
362.296	79.38
362.523	77.38
362.749	76.38
362.976	78.38
363.203	77.38
363.429	79.38
363.656	79.38
363.882	86.38
364.109	86.38
364.335	82.38
364.562	97.38
364.788	88.38
365.015	91.38
365.241	71.38
365.468	88.38
365.694	79.38
365.92	78.38
366.147	79.38
366.373	75.38
366.599	71.38
366.826	82.38
367.052	86.38
367.278	90.38
367.505	87.38
367.731	88.38
367.957	71.38
368.184	83.38
368.41	70.38
368.636	92.38
368.862	84.38
369.089	78.38
369.315	88.38
369.541	82.38
369.767	84.38
369.993	87.38
370.219	81.38
370.445	82.38
370.672	80.38
370.898	101.38
371.124	93.38
371.35	85.38
371.576	79.38
371.802	68.38
372.028	85.38
372.254	86.38
372.48	85.38
372.706	79.38
372.932	87.38
373.158	92.38
373.384	85.38
373.61	86.38
373.835	87.38
374.061	75.38
374.287	83.38
374.513	78.38
374.739	85.38
374.965	90.38
375.191	87.38
375.416	78.38
375.642	82.38
375.868	90.38
376.094	93.38
376.319	77.38
376.545	79.38
376.771	76.38
376.997	87.38
377.222	103.38
377.448	74.38
377.674	84.38
377.899	84.38
378.125	87.38
378.35	84.38
378.576	80.38
378.802	94.38
379.027	79.38
379.253	80.38
379.478	75.38
379.704	87.38
379.929	70.38
380.155	74.38
380.38	72.38
380.606	75.38
380.831	74.38
381.057	89.38
381.282	83.38
381.507	81.38
381.733	87.38
381.958	86.38
382.184	87.38
382.409	81.38
382.634	93.38
382.86	93.38
383.085	81.38
383.31	79.38
383.535	99.38
383.761	85.38
383.986	86.38
384.211	85.38
384.436	85.38
384.662	77.38
384.887	90.38
385.112	91.38
385.337	73.38
385.562	88.38
385.787	82.38
386.013	79.38
386.238	88.38
386.463	87.38
386.688	86.38
386.913	76.38
387.138	80.38
387.363	80.38
387.588	89.38
387.813	83.38
388.038	89.38
388.263	92.38
388.488	86.38
388.713	83.38
388.938	82.38
389.163	73.38
389.387	90.38
389.612	80.38
389.837	92.38
390.062	82.38
390.287	76.38
390.512	71.38
390.736	85.38
390.961	84.38
391.186	80.38
391.411	83.38
391.636	91.38
391.86	77.38
392.085	94.38
392.31	83.38
392.534	73.38
392.759	88.38
392.984	80.38
393.208	88.38
393.433	86.38
393.658	83.38
393.882	84.38
394.107	101.38
394.331	89.38
394.556	82.38
394.78	87.38
395.005	81.38
395.229	75.38
395.454	83.38
395.678	85.38
395.903	83.38
396.127	82.38
396.352	77.38
396.576	94.38
396.801	102.38
397.025	93.38
397.249	80.38
397.474	82.38
397.698	85.38
397.922	91.38
398.147	73.38
398.371	82.38
398.595	81.38
398.82	83.38
399.044	84.38
399.268	98.38
399.492	85.38
399.717	100.38
399.941	85.38
400.165	87.38
400.389	89.38
400.613	96.38
400.837	91.38
401.062	95.38
401.286	93.38
401.51	96.38
401.734	110.38
401.958	82.38
402.182	85.38
402.406	92.38
402.63	79.38
402.854	90.38
403.078	95.38
403.302	81.38
403.526	90.38
403.75	86.38
403.974	73.38
404.198	86.38
404.422	89.38
404.645	94.38
404.869	84.38
405.093	82.38
405.317	87.38
405.541	88.38
405.765	82.38
405.988	93.38
406.212	85.38
406.436	104.38
406.66	88.38
406.883	88.38
407.107	73.38
407.331	84.38
407.555	100.38
407.778	98.38
408.002	91.38
408.226	85.38
408.449	97.38
408.673	92.38
408.896	87.38
409.12	87.38
409.344	87.38
409.567	84.38
409.791	79.38
410.014	91.38
410.238	66.38
410.461	88.38
410.685	87.38
410.908	91.38
411.132	97.38
411.355	94.38
411.578	102.38
411.802	91.38
412.025	88.38
412.249	97.38
412.472	89.38
412.695	85.38
412.919	89.38
413.142	90.38
413.365	103.38
413.589	102.38
413.812	86.38
414.035	94.38
414.258	99.38
414.482	94.38
414.705	89.38
414.928	96.38
415.151	96.38
415.374	88.38
415.597	84.38
415.821	106.38
416.044	108.38
416.267	80.38
416.49	83.38
416.713	92.38
416.936	97.38
417.159	89.38
417.382	83.38
417.605	95.38
417.828	93.38
418.051	75.38
418.274	87.38
418.497	87.38
418.72	95.38
418.943	96.38
419.166	89.38
419.389	90.38
419.611	96.38
419.834	111.38
420.057	95.38
420.28	96.38
420.503	90.38
420.726	83.38
420.948	101.38
421.171	100.38
421.394	80.38
421.617	98.38
421.839	92.38
422.062	84.38
422.285	97.38
422.507	100.38
422.73	106.38
422.953	102.38
423.175	98.38
423.398	83.38
423.621	76.38
423.843	94.38
424.066	100.38
424.288	87.38
424.511	96.38
424.733	96.38
424.956	97.38
425.178	95.38
425.401	102.38
425.623	101.38
425.846	72.38
426.068	86.38
426.291	84.38
426.513	107.38
426.735	98.38
426.958	107.38
427.18	86.38
427.402	99.38
427.625	99.38
427.847	86.38
428.069	80.38
428.292	96.38
428.514	94.38
428.736	99.38
428.958	87.38
429.181	79.38
429.403	97.38
429.625	86.38
429.847	89.38
430.069	90.38
430.292	92.38
430.514	79.38
430.736	103.38
430.958	85.38
431.18	88.38
431.402	94.38
431.624	89.38
431.846	89.38
432.068	81.38
432.29	76.38
432.512	85.38
432.734	86.38
432.956	92.38
433.178	103.38
433.4	104.38
433.622	98.38
433.844	90.38
434.066	88.38
434.287	78.38
434.509	74.38
434.731	74.38
434.953	82.38
435.175	99.38
435.397	98.38
435.618	82.38
435.84	98.38
436.062	71.38
436.284	81.38
436.505	99.38
436.727	94.38
436.949	81.38
437.17	81.38
437.392	97.38
437.614	94.38
437.835	91.38
438.057	84.38
438.278	80.38
438.5	88.38
438.721	82.38
438.943	96.38
439.165	107.38
439.386	103.38
439.608	96.38
439.829	92.38
440.05	80.38
440.272	91.38
440.493	90.38
440.715	89.38
440.936	105.38
441.158	96.38
441.379	97.38
441.6	88.38
441.822	104.38
442.043	115.38
442.264	96.38
442.486	95.38
442.707	95.38
442.928	103.38
443.149	87.38
443.371	99.38
443.592	85.38
443.813	76.38
444.034	112.38
444.255	88.38
444.476	88.38
444.698	109.38
444.919	96.38
445.14	213.38
445.361	152.38
445.582	104.38
445.803	106.38
446.024	110.38
446.245	83.38
446.466	103.38
446.687	106.38
446.908	96.38
447.129	109.38
447.35	96.38
447.571	116.38
447.792	98.38
448.013	96.38
448.234	101.38
448.455	93.38
448.675	86.38
448.896	86.38
449.117	83.38
449.338	99.38
449.559	77.38
449.779	102.38
450	87.38
450.221	91.38
450.442	79.38
450.662	89.38
450.883	96.38
451.104	95.38
451.324	87.38
451.545	97.38
451.766	79.38
451.986	91.38
452.207	92.38
452.428	90.38
452.648	89.38
452.869	82.38
453.089	92.38
453.31	94.38
453.53	82.38
453.751	83.38
453.971	74.38
454.192	94.38
454.412	91.38
454.633	89.38
454.853	87.38
455.073	86.38
455.294	71.38
455.514	92.38
455.734	93.38
455.955	91.38
456.175	95.38
456.395	82.38
456.616	103.38
456.836	97.38
457.056	88.38
457.276	86.38
457.497	101.38
457.717	83.38
457.937	72.38
458.157	74.38
458.377	78.38
458.598	93.38
458.818	87.38
459.038	83.38
459.258	70.38
459.478	97.38
459.698	65.38
459.918	88.38
460.138	91.38
460.358	104.38
460.578	84.38
460.798	77.38
461.018	100.38
461.238	96.38
461.458	92.38
461.678	95.38
461.898	80.38
462.118	108.38
462.338	92.38
462.558	89.38
462.777	91.38
462.997	87.38
463.217	79.38
463.437	74.38
463.657	79.38
463.876	80.38
464.096	91.38
464.316	89.38
464.536	84.38
464.755	92.38
464.975	88.38
465.195	89.38
465.414	82.38
465.634	99.38
465.854	82.38
466.073	90.38
466.293	95.38
466.512	75.38
466.732	91.38
466.951	88.38
467.171	92.38
467.391	92.38
467.61	100.38
467.829	99.38
468.049	101.38
468.268	107.38
468.488	92.38
468.707	102.38
468.927	79.38
469.146	91.38
469.365	102.38
469.585	96.38
469.804	94.38
470.023	110.38
470.243	90.38
470.462	103.38
470.681	95.38
470.901	91.38
471.12	107.38
471.339	97.38
471.558	92.38
471.777	104.38
471.997	99.38
472.216	85.38
472.435	103.38
472.654	89.38
472.873	84.38
473.092	103.38
473.311	86.38
473.53	80.38
473.749	89.38
473.968	86.38
474.187	76.38
474.406	80.38
474.625	91.38
474.844	97.38
475.063	82.38
475.282	98.38
475.501	91.38
475.72	96.38
475.939	98.38
476.158	91.38
476.377	102.38
476.596	87.38
476.814	92.38
477.033	93.38
477.252	96.38
477.471	100.38
477.69	101.38
477.908	93.38
478.127	96.38
478.346	96.38
478.564	89.38
478.783	84.38
479.002	91.38
479.22	90.38
479.439	89.38
479.658	96.38
479.876	90.38
480.095	81.38
480.313	93.38
480.532	89.38
480.751	84.38
480.969	92.38
481.188	86.38
481.406	84.38
481.624	84.38
481.843	80.38
482.061	90.38
482.28	65.38
482.498	74.38
482.717	94.38
482.935	96.38
483.153	104.38
483.372	102.38
483.59	105.38
483.808	99.38
484.027	93.38
484.245	95.38
484.463	97.38
484.681	107.38
484.9	99.38
485.118	110.38
485.336	86.38
485.554	84.38
485.772	83.38
485.99	79.38
486.209	98.38
486.427	83.38
486.645	87.38
486.863	85.38
487.081	111.38
487.299	96.38
487.517	101.38
487.735	93.38
487.953	106.38
488.171	111.38
488.389	101.38
488.607	110.38
488.825	105.38
489.043	92.38
489.261	93.38
489.479	90.38
489.696	99.38
489.914	96.38
490.132	99.38
490.35	89.38
490.568	88.38
490.786	115.38
491.003	114.38
491.221	113.38
491.439	124.38
491.657	117.38
491.874	104.38
492.092	135.38
492.31	137.38
492.527	121.38
492.745	119.38
492.963	103.38
493.18	126.38
493.398	126.38
493.615	116.38
493.833	101.38
494.05	108.38
494.268	96.38
494.485	105.38
494.703	115.38
494.92	92.38
495.138	105.38
495.355	83.38
495.573	121.38
495.79	100.38
496.008	121.38
496.225	98.38
496.442	113.38
496.66	106.38
496.877	104.38
497.094	106.38
497.312	107.38
497.529	110.38
497.746	96.38
497.963	83.38
498.181	103.38
498.398	86.38
498.615	107.38
498.832	94.38
499.049	90.38
499.267	97.38
499.484	106.38
499.701	88.38
499.918	101.38
500.135	112.38
500.352	102.38
500.569	101.38
500.786	108.38
501.003	103.38
501.22	98.38
501.437	95.38
501.654	93.38
501.871	83.38
502.088	98.38
502.305	108.38
502.522	97.38
502.739	102.38
502.956	85.38
503.172	109.38
503.389	96.38
503.606	87.38
503.823	98.38
504.04	98.38
504.256	97.38
504.473	96.38
504.69	88.38
504.907	83.38
505.123	97.38
505.34	83.38
505.557	88.38
505.773	96.38
505.99	94.38
506.207	97.38
506.423	95.38
506.64	79.38
506.856	87.38
507.073	93.38
507.289	84.38
507.506	96.38
507.722	105.38
507.939	87.38
508.155	95.38
508.372	102.38
508.588	103.38
508.805	105.38
509.021	85.38
509.238	74.38
509.454	78.38
509.67	84.38
509.887	90.38
510.103	89.38
510.319	84.38
510.536	88.38
510.752	79.38
510.968	81.38
511.184	84.38
511.401	86.38
511.617	78.38
511.833	98.38
512.049	85.38
512.265	80.38
512.481	90.38
512.698	101.38
512.914	88.38
513.13	82.38
513.346	70.38
513.562	70.38
513.778	95.38
513.994	83.38
514.21	84.38
514.426	81.38
514.642	85.38
514.858	77.38
515.074	91.38
515.29	87.38
515.506	88.38
515.721	96.38
515.937	90.38
516.153	91.38
516.369	92.38
516.585	92.38
516.801	85.38
517.016	75.38
517.232	84.38
517.448	80.38
517.664	86.38
517.879	81.38
518.095	88.38
518.311	92.38
518.527	82.38
518.742	84.38
518.958	85.38
519.173	94.38
519.389	84.38
519.605	85.38
519.82	106.38
520.036	98.38
520.251	83.38
520.467	91.38
520.682	77.38
520.898	75.38
521.113	96.38
521.329	90.38
521.544	83.38
521.76	91.38
521.975	95.38
522.19	77.38
522.406	81.38
522.621	87.38
522.836	96.38
523.052	96.38
523.267	91.38
523.482	90.38
523.698	91.38
523.913	115.38
524.128	97.38
524.343	96.38
524.559	84.38
524.774	85.38
524.989	95.38
525.204	92.38
525.419	94.38
525.634	98.38
525.849	92.38
526.064	88.38
526.28	101.38
526.495	84.38
526.71	91.38
526.925	86.38
527.14	98.38
527.355	79.38
527.57	86.38
527.785	98.38
527.999	97.38
528.214	85.38
528.429	117.38
528.644	101.38
528.859	102.38
529.074	94.38
529.289	105.38
529.503	90.38
529.718	99.38
529.933	99.38
530.148	87.38
530.363	82.38
530.577	85.38
530.792	76.38
531.007	90.38
531.221	98.38
531.436	75.38
531.651	72.38
531.865	78.38
532.08	78.38
532.295	89.38
532.509	68.38
532.724	93.38
532.938	83.38
533.153	90.38
533.367	96.38
533.582	86.38
533.796	85.38
534.011	81.38
534.225	86.38
534.44	90.38
534.654	87.38
534.868	96.38
535.083	81.38
535.297	84.38
535.511	98.38
535.726	114.38
535.94	88.38
536.154	89.38
536.369	79.38
536.583	70.38
536.797	90.38
537.011	73.38
537.225	87.38
537.44	84.38
537.654	89.38
537.868	80.38
538.082	71.38
538.296	86.38
538.51	94.38
538.724	86.38
538.938	96.38
539.153	102.38
539.367	104.38
539.581	102.38
539.795	90.38
540.009	75.38
540.222	97.38
540.436	70.38
540.65	98.38
540.864	108.38
541.078	108.38
541.292	99.38
541.506	108.38
541.72	104.38
541.934	117.38
542.147	133.38
542.361	108.38
542.575	103.38
542.789	99.38
543.002	92.38
543.216	90.38
543.43	99.38
543.644	102.38
543.857	98.38
544.071	107.38
544.285	103.38
544.498	101.38
544.712	99.38
544.925	105.38
545.139	113.38
545.352	94.38
545.566	108.38
545.779	108.38
545.993	106.38
546.206	116.38
546.42	113.38
546.633	119.38
546.847	111.38
547.06	119.38
547.274	116.38
547.487	101.38
547.7	102.38
547.914	115.38
548.127	100.38
548.34	111.38
548.554	120.38
548.767	105.38
548.98	94.38
549.193	108.38
549.407	108.38
549.62	111.38
549.833	102.38
550.046	97.38
550.259	120.38
550.473	101.38
550.686	113.38
550.899	114.38
551.112	115.38
551.325	108.38
551.538	104.38
551.751	95.38
551.964	114.38
552.177	91.38
552.39	104.38
552.603	114.38
552.816	100.38
553.029	98.38
553.242	99.38
553.455	103.38
553.667	102.38
553.88	110.38
554.093	100.38
554.306	105.38
554.519	99.38
554.732	88.38
554.944	97.38
555.157	100.38
555.37	89.38
555.583	107.38
555.795	93.38
556.008	106.38
556.221	89.38
556.433	103.38
556.646	94.38
556.859	111.38
557.071	97.38
557.284	105.38
557.496	99.38
557.709	95.38
557.921	102.38
558.134	102.38
558.346	108.38
558.559	97.38
558.771	105.38
558.984	96.38
559.196	106.38
559.409	91.38
559.621	91.38
559.833	114.38
560.046	105.38
560.258	95.38
560.47	106.38
560.683	103.38
560.895	83.38
561.107	102.38
561.32	101.38
561.532	96.38
561.744	114.38
561.956	105.38
562.168	86.38
562.381	91.38
562.593	101.38
562.805	92.38
563.017	94.38
563.229	90.38
563.441	103.38
563.653	100.38
563.865	118.38
564.077	91.38
564.289	87.38
564.501	96.38
564.713	106.38
564.925	95.38
565.137	92.38
565.349	95.38
565.561	98.38
565.773	99.38
565.985	101.38
566.197	84.38
566.408	109.38
566.62	99.38
566.832	98.38
567.044	95.38
567.255	99.38
567.467	93.38
567.679	115.38
567.891	101.38
568.102	88.38
568.314	88.38
568.526	83.38
568.737	84.38
568.949	91.38
569.161	91.38
569.372	78.38
569.584	79.38
569.795	80.38
570.007	94.38
570.218	75.38
570.43	89.38
570.641	93.38
570.853	72.38
571.064	91.38
571.276	90.38
571.487	88.38
571.698	91.38
571.91	91.38
572.121	93.38
572.333	83.38
572.544	80.38
572.755	80.38
572.966	85.38
573.178	69.38
573.389	76.38
573.6	85.38
573.811	86.38
574.023	82.38
574.234	82.38
574.445	91.38
574.656	88.38
574.867	89.38
575.078	96.38
575.289	80.38
575.501	96.38
575.712	73.38
575.923	92.38
576.134	96.38
576.345	90.38
576.556	86.38
576.767	97.38
576.978	99.38
577.188	84.38
577.399	93.38
577.61	86.38
577.821	88.38
578.032	73.38
578.243	103.38
578.454	96.38
578.665	84.38
578.875	76.38
579.086	98.38
579.297	87.38
579.508	92.38
579.718	102.38
579.929	81.38
580.14	89.38
580.35	83.38
580.561	87.38
580.772	84.38
580.982	81.38
581.193	97.38
581.403	78.38
581.614	75.38
581.825	72.38
582.035	86.38
582.246	89.38
582.456	81.38
582.667	86.38
582.877	88.38
583.087	94.38
583.298	92.38
583.508	89.38
583.719	99.38
583.929	76.38
584.139	72.38
584.35	77.38
584.56	88.38
584.77	99.38
584.981	74.38
585.191	83.38
585.401	76.38
585.611	90.38
585.821	95.38
586.032	90.38
586.242	78.38
586.452	95.38
586.662	73.38
586.872	87.38
587.082	82.38
587.292	92.38
587.502	67.38
587.713	92.38
587.923	81.38
588.133	95.38
588.343	93.38
588.553	92.38
588.762	85.38
588.972	82.38
589.182	89.38
589.392	73.38
589.602	76.38
589.812	81.38
590.022	82.38
590.232	89.38
590.441	89.38
590.651	84.38
590.861	86.38
591.071	80.38
591.281	83.38
591.49	89.38
591.7	75.38
591.91	91.38
592.119	99.38
592.329	82.38
592.539	87.38
592.748	78.38
592.958	91.38
593.167	97.38
593.377	85.38
593.587	71.38
593.796	70.38
594.006	85.38
594.215	86.38
594.424	82.38
594.634	91.38
594.843	83.38
595.053	82.38
595.262	93.38
595.472	89.38
595.681	95.38
595.89	85.38
596.1	79.38
596.309	89.38
596.518	87.38
596.727	83.38
596.937	89.38
597.146	87.38
597.355	100.38
597.564	82.38
597.774	90.38
597.983	91.38
598.192	82.38
598.401	84.38
598.61	93.38
598.819	99.38
599.028	83.38
599.237	87.38
599.446	82.38
599.655	94.38
599.864	94.38
600.073	84.38
600.282	81.38
600.491	91.38
600.7	68.38
600.909	88.38
601.118	75.38
601.327	80.38
601.536	91.38
601.745	98.38
601.953	93.38
602.162	94.38
602.371	88.38
602.58	86.38
602.789	89.38
602.997	91.38
603.206	97.38
603.415	106.38
603.623	86.38
603.832	84.38
604.041	95.38
604.249	81.38
604.458	80.38
604.666	92.38
604.875	85.38
605.084	98.38
605.292	96.38
605.501	100.38
605.709	89.38
605.918	90.38
606.126	90.38
606.334	104.38
606.543	90.38
606.751	85.38
606.96	87.38
607.168	90.38
607.376	87.38
607.585	92.38
607.793	85.38
608.001	82.38
608.21	102.38
608.418	87.38
608.626	87.38
608.834	95.38
609.043	94.38
609.251	96.38
609.459	92.38
609.667	102.38
609.875	78.38
610.083	88.38
610.291	94.38
610.499	98.38
610.707	106.38
610.916	94.38
611.124	100.38
611.332	104.38
611.54	100.38
611.748	88.38
611.955	95.38
612.163	86.38
612.371	100.38
612.579	94.38
612.787	86.38
612.995	88.38
613.203	96.38
613.411	88.38
613.618	91.38
613.826	89.38
614.034	102.38
614.242	96.38
614.449	90.38
614.657	96.38
614.865	100.38
615.072	99.38
615.28	103.38
615.488	94.38
615.695	82.38
615.903	104.38
616.111	87.38
616.318	76.38
616.526	92.38
616.733	92.38
616.941	85.38
617.148	91.38
617.356	87.38
617.563	106.38
617.771	102.38
617.978	88.38
618.185	98.38
618.393	95.38
618.6	86.38
618.807	88.38
619.015	91.38
619.222	88.38
619.429	83.38
619.637	76.38
619.844	85.38
620.051	80.38
620.258	88.38
620.466	89.38
620.673	91.38
620.88	85.38
621.087	90.38
621.294	88.38
621.501	88.38
621.708	99.38
621.915	86.38
622.122	93.38
622.329	101.38
622.536	102.38
622.743	89.38
622.95	95.38
623.157	90.38
623.364	99.38
623.571	93.38
623.778	97.38
623.985	106.38
624.192	96.38
624.399	98.38
624.606	85.38
624.812	97.38
625.019	96.38
625.226	92.38
625.433	93.38
625.639	107.38
625.846	85.38
626.053	80.38
626.259	88.38
626.466	94.38
626.673	83.38
626.879	81.38
627.086	90.38
627.293	82.38
627.499	92.38
627.706	97.38
627.912	97.38
628.119	94.38
628.325	98.38
628.532	87.38
628.738	89.38
628.945	85.38
629.151	87.38
629.357	85.38
629.564	88.38
629.77	96.38
629.976	82.38
630.183	95.38
630.389	93.38
630.595	98.38
630.802	91.38
631.008	94.38
631.214	82.38
631.42	90.38
631.627	99.38
631.833	83.38
632.039	75.38
632.245	94.38
632.451	83.38
632.657	89.38
632.863	92.38
633.069	78.38
633.275	92.38
633.481	88.38
633.688	82.38
633.893	86.38
634.099	99.38
634.305	88.38
634.511	73.38
634.717	80.38
634.923	81.38
635.129	86.38
635.335	81.38
635.541	84.38
635.747	86.38
635.952	87.38
636.158	106.38
636.364	78.38
636.57	91.38
636.775	86.38
636.981	98.38
637.187	96.38
637.392	93.38
637.598	80.38
637.804	81.38
638.009	82.38
638.215	68.38
638.421	83.38
638.626	90.38
638.832	89.38
639.037	88.38
639.243	76.38
639.448	84.38
639.654	102.38
639.859	92.38
640.065	80.38
640.27	96.38
640.475	79.38
640.681	76.38
640.886	87.38
641.091	89.38
641.297	96.38
641.502	95.38
641.707	89.38
641.913	84.38
642.118	100.38
642.323	83.38
642.528	81.38
642.733	99.38
642.939	83.38
643.144	87.38
643.349	95.38
643.554	89.38
643.759	96.38
643.964	109.38
644.169	82.38
644.374	89.38
644.579	88.38
644.784	81.38
644.989	98.38
645.194	105.38
645.399	89.38
645.604	85.38
645.809	94.38
646.014	74.38
646.219	98.38
646.423	80.38
646.628	92.38
646.833	84.38
647.038	80.38
647.243	82.38
647.447	99.38
647.652	81.38
647.857	89.38
648.062	96.38
648.266	86.38
648.471	77.38
648.676	96.38
648.88	94.38
649.085	91.38
649.289	80.38
649.494	89.38
649.698	84.38
649.903	86.38
650.107	78.38
650.312	85.38
650.516	86.38
650.721	93.38
650.925	91.38
651.13	89.38
651.334	95.38
651.539	93.38
651.743	106.38
651.947	86.38
652.152	83.38
652.356	90.38
652.56	93.38
652.764	104.38
652.969	90.38
653.173	88.38
653.377	76.38
653.581	82.38
653.785	91.38
653.99	79.38
654.194	86.38
654.398	93.38
654.602	86.38
654.806	83.38
655.01	96.38
655.214	89.38
655.418	70.38
655.622	89.38
655.826	84.38
656.03	87.38
656.234	73.38
656.438	74.38
656.642	79.38
656.846	80.38
657.049	81.38
657.253	88.38
657.457	77.38
657.661	76.38
657.865	96.38
658.068	69.38
658.272	85.38
658.476	86.38
658.68	80.38
658.883	81.38
659.087	90.38
659.291	84.38
659.494	91.38
659.698	77.38
659.901	79.38
660.105	75.38
660.309	81.38
660.512	70.38
660.716	86.38
660.919	91.38
661.123	91.38
661.326	72.38
661.53	83.38
661.733	81.38
661.936	92.38
662.14	88.38
662.343	70.38
662.546	64.38
662.75	79.38
662.953	83.38
663.156	86.38
663.36	74.38
663.563	76.38
663.766	78.38
663.969	82.38
664.173	68.38
664.376	91.38
664.579	72.38
664.782	73.38
664.985	76.38
665.188	83.38
665.391	79.38
665.594	80.38
665.797	88.38
666	85.38
666.203	69.38
666.406	78.38
666.609	79.38
666.812	75.38
667.015	89.38
667.218	82.38
667.421	91.38
667.624	85.38
667.827	93.38
668.03	80.38
668.232	82.38
668.435	81.38
668.638	73.38
668.841	79.38
669.043	68.38
669.246	81.38
669.449	88.38
669.651	82.38
669.854	82.38
670.057	79.38
670.259	76.38
670.462	87.38
670.665	81.38
670.867	82.38
671.07	82.38
671.272	80.38
671.475	91.38
671.677	81.38
671.88	79.38
672.082	76.38
672.284	82.38
672.487	86.38
672.689	82.38
672.892	81.38
