Data from Location4.07152019.Energy5.Lamp.07192019.3%Agarose_HRD10591_15-24-36-578.txt Node
Date: Fri Jul 19 15:24:36 EDT 2019
User: cochatt
Spectrometer: HR+D1059
Trigger mode: 1
Integration Time (sec): 1.000000E-1
Scans to average: 1
Electric dark correction enabled: true
Nonlinearity correction enabled: false
Boxcar width: 0
XAxis mode: Wavelengths
Number of Pixels in Spectrum: 2048
>>>>>Begin Spectral Data<<<<<
223.165	-11.31
223.4	-11.31
223.635	-11.31
223.869	-11.31
224.104	-26.31
224.338	-18.31
224.573	-27.31
224.808	-20.31
225.042	-10.31
225.277	-8.31
225.511	-3.31
225.746	14.69
225.98	3.69
226.215	16.69
226.449	19.69
226.683	33.69
226.918	24.69
227.152	23.69
227.387	27.69
227.621	36.69
227.856	37.69
228.09	41.69
228.324	37.69
228.559	59.69
228.793	56.69
229.027	62.69
229.262	70.69
229.496	51.69
229.73	69.69
229.964	68.69
230.199	67.69
230.433	71.69
230.667	71.69
230.901	87.69
231.136	81.69
231.37	79.69
231.604	78.69
231.838	89.69
232.072	70.69
232.306	80.69
232.541	65.69
232.775	95.69
233.009	87.69
233.243	93.69
233.477	91.69
233.711	97.69
233.945	84.69
234.179	79.69
234.413	88.69
234.647	84.69
234.881	61.69
235.115	83.69
235.349	90.69
235.583	80.69
235.817	85.69
236.051	88.69
236.285	76.69
236.519	76.69
236.753	77.69
236.987	76.69
237.221	76.69
237.455	76.69
237.689	81.69
237.922	91.69
238.156	74.69
238.39	85.69
238.624	78.69
238.858	84.69
239.091	79.69
239.325	73.69
239.559	85.69
239.793	65.69
240.027	71.69
240.26	77.69
240.494	77.69
240.728	77.69
240.961	72.69
241.195	90.69
241.429	75.69
241.662	76.69
241.896	66.69
242.13	85.69
242.363	83.69
242.597	85.69
242.83	76.69
243.064	80.69
243.298	81.69
243.531	80.69
243.765	77.69
243.998	84.69
244.232	57.69
244.465	81.69
244.699	77.69
244.932	77.69
245.166	83.69
245.399	71.69
245.633	84.69
245.866	75.69
246.099	74.69
246.333	84.69
246.566	87.69
246.8	93.69
247.033	96.69
247.266	83.69
247.5	74.69
247.733	81.69
247.966	89.69
248.2	88.69
248.433	103.69
248.666	74.69
248.899	79.69
249.133	72.69
249.366	83.69
249.599	99.69
249.832	85.69
250.066	82.69
250.299	79.69
250.532	71.69
250.765	85.69
250.998	88.69
251.231	67.69
251.465	81.69
251.698	99.69
251.931	76.69
252.164	77.69
252.397	80.69
252.63	90.69
252.863	76.69
253.096	81.69
253.329	81.69
253.562	87.69
253.795	77.69
254.028	81.69
254.261	70.69
254.494	89.69
254.727	75.69
254.96	72.69
255.193	76.69
255.426	84.69
255.659	82.69
255.892	98.69
256.124	74.69
256.357	98.69
256.59	86.69
256.823	87.69
257.056	76.69
257.289	78.69
257.521	88.69
257.754	77.69
257.987	80.69
258.22	89.69
258.452	85.69
258.685	77.69
258.918	65.69
259.151	90.69
259.383	85.69
259.616	74.69
259.849	91.69
260.081	83.69
260.314	76.69
260.547	90.69
260.779	91.69
261.012	80.69
261.244	89.69
261.477	85.69
261.71	69.69
261.942	80.69
262.175	81.69
262.407	77.69
262.64	75.69
262.872	81.69
263.105	80.69
263.337	83.69
263.57	84.69
263.802	85.69
264.035	79.69
264.267	83.69
264.499	80.69
264.732	75.69
264.964	86.69
265.197	89.69
265.429	99.69
265.661	84.69
265.894	79.69
266.126	91.69
266.358	80.69
266.591	98.69
266.823	83.69
267.055	86.69
267.287	88.69
267.52	85.69
267.752	96.69
267.984	91.69
268.216	95.69
268.448	80.69
268.681	93.69
268.913	79.69
269.145	78.69
269.377	95.69
269.609	86.69
269.841	71.69
270.073	83.69
270.306	77.69
270.538	81.69
270.77	74.69
271.002	79.69
271.234	86.69
271.466	87.69
271.698	99.69
271.93	88.69
272.162	88.69
272.394	96.69
272.626	86.69
272.858	79.69
273.09	70.69
273.322	82.69
273.553	93.69
273.785	83.69
274.017	86.69
274.249	87.69
274.481	76.69
274.713	92.69
274.945	85.69
275.176	92.69
275.408	85.69
275.64	80.69
275.872	84.69
276.104	87.69
276.335	80.69
276.567	84.69
276.799	81.69
277.031	82.69
277.262	75.69
277.494	86.69
277.726	81.69
277.957	76.69
278.189	89.69
278.421	83.69
278.652	85.69
278.884	93.69
279.115	97.69
279.347	95.69
279.579	101.69
279.81	88.69
280.042	89.69
280.273	82.69
280.505	78.69
280.736	89.69
280.968	101.69
281.199	101.69
281.431	93.69
281.662	76.69
281.894	89.69
282.125	88.69
282.356	85.69
282.588	84.69
282.819	84.69
283.051	74.69
283.282	73.69
283.513	94.69
283.745	89.69
283.976	99.69
284.207	83.69
284.439	77.69
284.67	77.69
284.901	77.69
285.132	91.69
285.364	83.69
285.595	90.69
285.826	82.69
286.057	82.69
286.288	79.69
286.52	86.69
286.751	86.69
286.982	93.69
287.213	84.69
287.444	87.69
287.675	94.69
287.906	84.69
288.138	90.69
288.369	78.69
288.6	88.69
288.831	70.69
289.062	86.69
289.293	84.69
289.524	82.69
289.755	85.69
289.986	87.69
290.217	92.69
290.448	82.69
290.679	95.69
290.91	72.69
291.141	83.69
291.371	91.69
291.602	88.69
291.833	80.69
292.064	83.69
292.295	78.69
292.526	82.69
292.757	105.69
292.987	87.69
293.218	80.69
293.449	93.69
293.68	85.69
293.91	82.69
294.141	82.69
294.372	66.69
294.603	85.69
294.833	80.69
295.064	92.69
295.295	78.69
295.525	87.69
295.756	82.69
295.987	83.69
296.217	88.69
296.448	90.69
296.679	77.69
296.909	90.69
297.14	83.69
297.37	88.69
297.601	100.69
297.831	89.69
298.062	76.69
298.292	77.69
298.523	88.69
298.753	73.69
298.984	77.69
299.214	91.69
299.445	91.69
299.675	94.69
299.905	92.69
300.136	107.69
300.366	97.69
300.597	86.69
300.827	93.69
301.057	79.69
301.288	86.69
301.518	79.69
301.748	84.69
301.979	103.69
302.209	74.69
302.439	77.69
302.669	72.69
302.9	82.69
303.13	77.69
303.36	81.69
303.59	92.69
303.82	93.69
304.051	89.69
304.281	77.69
304.511	85.69
304.741	82.69
304.971	87.69
305.201	84.69
305.431	100.69
305.661	73.69
305.891	96.69
306.121	96.69
306.352	88.69
306.582	93.69
306.812	88.69
307.042	92.69
307.272	85.69
307.502	89.69
307.731	96.69
307.961	81.69
308.191	83.69
308.421	74.69
308.651	96.69
308.881	79.69
309.111	98.69
309.341	89.69
309.571	72.69
309.8	87.69
310.03	84.69
310.26	87.69
310.49	85.69
310.72	85.69
310.949	73.69
311.179	80.69
311.409	96.69
311.639	92.69
311.868	95.69
312.098	95.69
312.328	95.69
312.557	82.69
312.787	91.69
313.017	78.69
313.246	84.69
313.476	96.69
313.706	88.69
313.935	77.69
314.165	82.69
314.394	81.69
314.624	100.69
314.853	91.69
315.083	95.69
315.312	87.69
315.542	81.69
315.771	96.69
316.001	83.69
316.23	70.69
316.46	84.69
316.689	79.69
316.919	79.69
317.148	91.69
317.377	91.69
317.607	81.69
317.836	88.69
318.065	89.69
318.295	84.69
318.524	76.69
318.753	93.69
318.983	96.69
319.212	90.69
319.441	82.69
319.67	83.69
319.9	92.69
320.129	88.69
320.358	86.69
320.587	92.69
320.816	85.69
321.046	84.69
321.275	82.69
321.504	84.69
321.733	91.69
321.962	84.69
322.191	86.69
322.42	100.69
322.649	101.69
322.878	91.69
323.108	85.69
323.337	84.69
323.566	79.69
323.795	81.69
324.024	94.69
324.253	88.69
324.482	79.69
324.71	99.69
324.939	107.69
325.168	88.69
325.397	79.69
325.626	71.69
325.855	95.69
326.084	82.69
326.313	89.69
326.542	96.69
326.77	76.69
326.999	83.69
327.228	90.69
327.457	79.69
327.686	86.69
327.914	90.69
328.143	91.69
328.372	86.69
328.6	73.69
328.829	84.69
329.058	82.69
329.287	77.69
329.515	82.69
329.744	70.69
329.972	87.69
330.201	91.69
330.43	86.69
330.658	89.69
330.887	77.69
331.115	88.69
331.344	95.69
331.572	94.69
331.801	79.69
332.03	76.69
332.258	92.69
332.486	85.69
332.715	85.69
332.943	88.69
333.172	89.69
333.4	82.69
333.629	87.69
333.857	87.69
334.085	79.69
334.314	84.69
334.542	69.69
334.771	83.69
334.999	85.69
335.227	83.69
335.455	76.69
335.684	93.69
335.912	97.69
336.14	95.69
336.369	80.69
336.597	83.69
336.825	87.69
337.053	88.69
337.281	86.69
337.51	82.69
337.738	89.69
337.966	95.69
338.194	97.69
338.422	96.69
338.65	87.69
338.878	108.69
339.106	88.69
339.334	95.69
339.562	78.69
339.79	86.69
340.018	83.69
340.246	90.69
340.474	82.69
340.702	74.69
340.93	94.69
341.158	85.69
341.386	83.69
341.614	89.69
341.842	71.69
342.07	88.69
342.298	91.69
342.526	98.69
342.754	90.69
342.981	90.69
343.209	84.69
343.437	96.69
343.665	90.69
343.893	83.69
344.12	84.69
344.348	77.69
344.576	76.69
344.804	84.69
345.031	88.69
345.259	89.69
345.487	96.69
345.714	76.69
345.942	77.69
346.17	100.69
346.397	96.69
346.625	92.69
346.853	98.69
347.08	82.69
347.308	83.69
347.535	96.69
347.763	66.69
347.99	102.69
348.218	91.69
348.445	92.69
348.673	87.69
348.9	86.69
349.128	93.69
349.355	86.69
349.583	79.69
349.81	86.69
350.037	87.69
350.265	85.69
350.492	89.69
350.72	90.69
350.947	79.69
351.174	72.69
351.402	98.69
351.629	88.69
351.856	76.69
352.083	96.69
352.311	81.69
352.538	105.69
352.765	85.69
352.992	82.69
353.22	92.69
353.447	88.69
353.674	74.69
353.901	83.69
354.128	81.69
354.355	91.69
354.583	80.69
354.81	84.69
355.037	86.69
355.264	99.69
355.491	88.69
355.718	85.69
355.945	91.69
356.172	111.69
356.399	87.69
356.626	73.69
356.853	83.69
357.08	87.69
357.307	76.69
357.534	78.69
357.761	74.69
357.988	82.69
358.215	81.69
358.441	85.69
358.668	88.69
358.895	74.69
359.122	96.69
359.349	76.69
359.576	80.69
359.802	78.69
360.029	85.69
360.256	89.69
360.483	105.69
360.709	91.69
360.936	92.69
361.163	92.69
361.39	85.69
361.616	99.69
361.843	77.69
362.07	77.69
362.296	91.69
362.523	67.69
362.749	83.69
362.976	86.69
363.203	95.69
363.429	85.69
363.656	84.69
363.882	76.69
364.109	90.69
364.335	81.69
364.562	72.69
364.788	72.69
365.015	90.69
365.241	94.69
365.468	97.69
365.694	76.69
365.92	78.69
366.147	91.69
366.373	80.69
366.599	92.69
366.826	87.69
367.052	90.69
367.278	84.69
367.505	85.69
367.731	89.69
367.957	75.69
368.184	75.69
368.41	85.69
368.636	70.69
368.862	65.69
369.089	101.69
369.315	88.69
369.541	86.69
369.767	78.69
369.993	80.69
370.219	87.69
370.445	80.69
370.672	102.69
370.898	89.69
371.124	89.69
371.35	90.69
371.576	80.69
371.802	88.69
372.028	88.69
372.254	90.69
372.48	90.69
372.706	68.69
372.932	102.69
373.158	95.69
373.384	84.69
373.61	108.69
373.835	95.69
374.061	94.69
374.287	86.69
374.513	88.69
374.739	89.69
374.965	87.69
375.191	79.69
375.416	79.69
375.642	79.69
375.868	96.69
376.094	93.69
376.319	81.69
376.545	79.69
376.771	80.69
376.997	89.69
377.222	103.69
377.448	102.69
377.674	107.69
377.899	98.69
378.125	74.69
378.35	90.69
378.576	97.69
378.802	71.69
379.027	92.69
379.253	88.69
379.478	104.69
379.704	85.69
379.929	81.69
380.155	86.69
380.38	70.69
380.606	76.69
380.831	82.69
381.057	79.69
381.282	89.69
381.507	88.69
381.733	81.69
381.958	78.69
382.184	78.69
382.409	81.69
382.634	101.69
382.86	81.69
383.085	79.69
383.31	83.69
383.535	90.69
383.761	86.69
383.986	88.69
384.211	94.69
384.436	91.69
384.662	87.69
384.887	96.69
385.112	90.69
385.337	95.69
385.562	91.69
385.787	96.69
386.013	81.69
386.238	86.69
386.463	87.69
386.688	84.69
386.913	86.69
387.138	83.69
387.363	83.69
387.588	90.69
387.813	94.69
388.038	91.69
388.263	102.69
388.488	93.69
388.713	82.69
388.938	88.69
389.163	94.69
389.387	75.69
389.612	88.69
389.837	91.69
390.062	103.69
390.287	89.69
390.512	82.69
390.736	87.69
390.961	84.69
391.186	77.69
391.411	88.69
391.636	87.69
391.86	76.69
392.085	95.69
392.31	92.69
392.534	81.69
392.759	99.69
392.984	105.69
393.208	97.69
393.433	96.69
393.658	92.69
393.882	82.69
394.107	83.69
394.331	81.69
394.556	82.69
394.78	73.69
395.005	77.69
395.229	84.69
395.454	82.69
395.678	88.69
395.903	83.69
396.127	94.69
396.352	97.69
396.576	81.69
396.801	65.69
397.025	91.69
397.249	89.69
397.474	95.69
397.698	90.69
397.922	91.69
398.147	86.69
398.371	98.69
398.595	102.69
398.82	93.69
399.044	94.69
399.268	101.69
399.492	88.69
399.717	104.69
399.941	95.69
400.165	77.69
400.389	84.69
400.613	87.69
400.837	97.69
401.062	90.69
401.286	92.69
401.51	84.69
401.734	75.69
401.958	84.69
402.182	74.69
402.406	90.69
402.63	101.69
402.854	91.69
403.078	101.69
403.302	88.69
403.526	73.69
403.75	92.69
403.974	75.69
404.198	88.69
404.422	93.69
404.645	92.69
404.869	91.69
405.093	84.69
405.317	88.69
405.541	100.69
405.765	99.69
405.988	89.69
406.212	84.69
406.436	101.69
406.66	81.69
406.883	90.69
407.107	93.69
407.331	94.69
407.555	99.69
407.778	91.69
408.002	104.69
408.226	72.69
408.449	93.69
408.673	79.69
408.896	110.69
409.12	97.69
409.344	99.69
409.567	84.69
409.791	86.69
410.014	84.69
410.238	93.69
410.461	74.69
410.685	90.69
410.908	87.69
411.132	87.69
411.355	87.69
411.578	99.69
411.802	97.69
412.025	97.69
412.249	89.69
412.472	82.69
412.695	99.69
412.919	75.69
413.142	94.69
413.365	98.69
413.589	90.69
413.812	97.69
414.035	103.69
414.258	89.69
414.482	100.69
414.705	105.69
414.928	103.69
415.151	100.69
415.374	96.69
415.597	103.69
415.821	104.69
416.044	98.69
416.267	82.69
416.49	88.69
416.713	99.69
416.936	92.69
417.159	99.69
417.382	88.69
417.605	81.69
417.828	95.69
418.051	101.69
418.274	90.69
418.497	93.69
418.72	91.69
418.943	75.69
419.166	96.69
419.389	95.69
419.611	99.69
419.834	92.69
420.057	101.69
420.28	79.69
420.503	89.69
420.726	87.69
420.948	90.69
421.171	99.69
421.394	91.69
421.617	103.69
421.839	90.69
422.062	94.69
422.285	100.69
422.507	94.69
422.73	96.69
422.953	107.69
423.175	90.69
423.398	90.69
423.621	100.69
423.843	82.69
424.066	93.69
424.288	93.69
424.511	102.69
424.733	89.69
424.956	94.69
425.178	103.69
425.401	96.69
425.623	105.69
425.846	93.69
426.068	93.69
426.291	91.69
426.513	80.69
426.735	90.69
426.958	109.69
427.18	103.69
427.402	108.69
427.625	86.69
427.847	81.69
428.069	79.69
428.292	103.69
428.514	92.69
428.736	84.69
428.958	108.69
429.181	104.69
429.403	99.69
429.625	97.69
429.847	98.69
430.069	101.69
430.292	104.69
430.514	77.69
430.736	103.69
430.958	100.69
431.18	97.69
431.402	91.69
431.624	89.69
431.846	84.69
432.068	76.69
432.29	80.69
432.512	77.69
432.734	88.69
432.956	90.69
433.178	94.69
433.4	101.69
433.622	101.69
433.844	106.69
434.066	95.69
434.287	87.69
434.509	77.69
434.731	80.69
434.953	87.69
435.175	105.69
435.397	92.69
435.618	90.69
435.84	85.69
436.062	88.69
436.284	79.69
436.505	86.69
436.727	102.69
436.949	100.69
437.17	94.69
437.392	105.69
437.614	98.69
437.835	87.69
438.057	68.69
438.278	90.69
438.5	88.69
438.721	89.69
438.943	100.69
439.165	97.69
439.386	97.69
439.608	120.69
439.829	96.69
440.05	87.69
440.272	88.69
440.493	80.69
440.715	89.69
440.936	109.69
441.158	98.69
441.379	104.69
441.6	99.69
441.822	98.69
442.043	93.69
442.264	98.69
442.486	100.69
442.707	100.69
442.928	100.69
443.149	89.69
443.371	107.69
443.592	104.69
443.813	95.69
444.034	89.69
444.255	98.69
444.476	85.69
444.698	105.69
444.919	96.69
445.14	221.69
445.361	140.69
445.582	103.69
445.803	92.69
446.024	92.69
446.245	112.69
446.466	99.69
446.687	99.69
446.908	100.69
447.129	87.69
447.35	93.69
447.571	94.69
447.792	104.69
448.013	102.69
448.234	101.69
448.455	100.69
448.675	97.69
448.896	91.69
449.117	100.69
449.338	98.69
449.559	82.69
449.779	96.69
450	102.69
450.221	103.69
450.442	88.69
450.662	103.69
450.883	83.69
451.104	98.69
451.324	105.69
451.545	97.69
451.766	82.69
451.986	81.69
452.207	91.69
452.428	79.69
452.648	99.69
452.869	87.69
453.089	104.69
453.31	100.69
453.53	92.69
453.751	89.69
453.971	92.69
454.192	85.69
454.412	88.69
454.633	92.69
454.853	89.69
455.073	93.69
455.294	102.69
455.514	99.69
455.734	101.69
455.955	91.69
456.175	97.69
456.395	91.69
456.616	92.69
456.836	91.69
457.056	87.69
457.276	86.69
457.497	107.69
457.717	93.69
457.937	90.69
458.157	90.69
458.377	97.69
458.598	74.69
458.818	84.69
459.038	87.69
459.258	75.69
459.478	87.69
459.698	75.69
459.918	94.69
460.138	96.69
460.358	96.69
460.578	81.69
460.798	94.69
461.018	85.69
461.238	99.69
461.458	103.69
461.678	96.69
461.898	84.69
462.118	93.69
462.338	105.69
462.558	96.69
462.777	86.69
462.997	104.69
463.217	96.69
463.437	80.69
463.657	88.69
463.876	82.69
464.096	98.69
464.316	101.69
464.536	88.69
464.755	89.69
464.975	84.69
465.195	92.69
465.414	86.69
465.634	89.69
465.854	88.69
466.073	88.69
466.293	96.69
466.512	98.69
466.732	95.69
466.951	87.69
467.171	96.69
467.391	87.69
467.61	104.69
467.829	105.69
468.049	93.69
468.268	93.69
468.488	102.69
468.707	91.69
468.927	97.69
469.146	98.69
469.365	100.69
469.585	92.69
469.804	99.69
470.023	106.69
470.243	95.69
470.462	96.69
470.681	91.69
470.901	101.69
471.12	94.69
471.339	101.69
471.558	90.69
471.777	91.69
471.997	105.69
472.216	106.69
472.435	87.69
472.654	100.69
472.873	116.69
473.092	102.69
473.311	88.69
473.53	69.69
473.749	88.69
473.968	97.69
474.187	102.69
474.406	85.69
474.625	90.69
474.844	96.69
475.063	91.69
475.282	87.69
475.501	98.69
475.72	101.69
475.939	89.69
476.158	100.69
476.377	91.69
476.596	91.69
476.814	81.69
477.033	88.69
477.252	83.69
477.471	98.69
477.69	84.69
477.908	102.69
478.127	96.69
478.346	95.69
478.564	95.69
478.783	107.69
479.002	105.69
479.22	96.69
479.439	93.69
479.658	88.69
479.876	95.69
480.095	91.69
480.313	91.69
480.532	68.69
480.751	79.69
480.969	85.69
481.188	79.69
481.406	89.69
481.624	74.69
481.843	85.69
482.061	91.69
482.28	91.69
482.498	84.69
482.717	83.69
482.935	83.69
483.153	92.69
483.372	113.69
483.59	99.69
483.808	91.69
484.027	98.69
484.245	91.69
484.463	91.69
484.681	88.69
484.9	96.69
485.118	94.69
485.336	100.69
485.554	87.69
485.772	89.69
485.99	81.69
486.209	91.69
486.427	92.69
486.645	98.69
486.863	102.69
487.081	95.69
487.299	93.69
487.517	90.69
487.735	86.69
487.953	116.69
488.171	113.69
488.389	114.69
488.607	97.69
488.825	92.69
489.043	111.69
489.261	92.69
489.479	106.69
489.696	102.69
489.914	93.69
490.132	95.69
490.35	103.69
490.568	98.69
490.786	109.69
491.003	98.69
491.221	105.69
491.439	112.69
491.657	123.69
491.874	112.69
492.092	132.69
492.31	117.69
492.527	129.69
492.745	124.69
492.963	107.69
493.18	111.69
493.398	101.69
493.615	113.69
493.833	116.69
494.05	98.69
494.268	99.69
494.485	113.69
494.703	115.69
494.92	118.69
495.138	107.69
495.355	107.69
495.573	116.69
495.79	121.69
496.008	110.69
496.225	120.69
496.442	104.69
496.66	108.69
496.877	112.69
497.094	104.69
497.312	97.69
497.529	108.69
497.746	104.69
497.963	90.69
498.181	97.69
498.398	92.69
498.615	96.69
498.832	87.69
499.049	105.69
499.267	97.69
499.484	97.69
499.701	97.69
499.918	98.69
500.135	104.69
500.352	91.69
500.569	90.69
500.786	93.69
501.003	102.69
501.22	94.69
501.437	101.69
501.654	98.69
501.871	99.69
502.088	104.69
502.305	121.69
502.522	101.69
502.739	108.69
502.956	96.69
503.172	88.69
503.389	95.69
503.606	82.69
503.823	88.69
504.04	116.69
504.256	97.69
504.473	103.69
504.69	97.69
504.907	106.69
505.123	84.69
505.34	89.69
505.557	92.69
505.773	90.69
505.99	93.69
506.207	98.69
506.423	106.69
506.64	95.69
506.856	89.69
507.073	90.69
507.289	89.69
507.506	95.69
507.722	99.69
507.939	89.69
508.155	90.69
508.372	81.69
508.588	80.69
508.805	90.69
509.021	94.69
509.238	98.69
509.454	91.69
509.67	76.69
509.887	100.69
510.103	66.69
510.319	82.69
510.536	77.69
510.752	94.69
510.968	91.69
511.184	85.69
511.401	88.69
511.617	107.69
511.833	72.69
512.049	82.69
512.265	88.69
512.481	92.69
512.698	68.69
512.914	87.69
513.13	89.69
513.346	81.69
513.562	88.69
513.778	90.69
513.994	88.69
514.21	86.69
514.426	89.69
514.642	88.69
514.858	89.69
515.074	90.69
515.29	86.69
515.506	89.69
515.721	88.69
515.937	89.69
516.153	85.69
516.369	99.69
516.585	92.69
516.801	96.69
517.016	84.69
517.232	79.69
517.448	75.69
517.664	94.69
517.879	88.69
518.095	93.69
518.311	87.69
518.527	85.69
518.742	101.69
518.958	90.69
519.173	93.69
519.389	97.69
519.605	93.69
519.82	88.69
520.036	102.69
520.251	67.69
520.467	81.69
520.682	87.69
520.898	80.69
521.113	77.69
521.329	83.69
521.544	84.69
521.76	90.69
521.975	100.69
522.19	97.69
522.406	93.69
522.621	91.69
522.836	84.69
523.052	80.69
523.267	101.69
523.482	96.69
523.698	94.69
523.913	77.69
524.128	111.69
524.343	89.69
524.559	97.69
524.774	109.69
524.989	99.69
525.204	93.69
525.419	96.69
525.634	72.69
525.849	87.69
526.064	91.69
526.28	87.69
526.495	80.69
526.71	96.69
526.925	80.69
527.14	73.69
527.355	88.69
527.57	99.69
527.785	100.69
527.999	106.69
528.214	103.69
528.429	79.69
528.644	101.69
528.859	104.69
529.074	108.69
529.289	107.69
529.503	112.69
529.718	86.69
529.933	104.69
530.148	80.69
530.363	85.69
530.577	80.69
530.792	84.69
531.007	94.69
531.221	83.69
531.436	90.69
531.651	84.69
531.865	81.69
532.08	97.69
532.295	82.69
532.509	77.69
532.724	82.69
532.938	92.69
533.153	74.69
533.367	83.69
533.582	89.69
533.796	87.69
534.011	111.69
534.225	103.69
534.44	76.69
534.654	73.69
534.868	90.69
535.083	96.69
535.297	97.69
535.511	81.69
535.726	88.69
535.94	82.69
536.154	95.69
536.369	83.69
536.583	81.69
536.797	88.69
537.011	84.69
537.225	91.69
537.44	83.69
537.654	87.69
537.868	96.69
538.082	91.69
538.296	91.69
538.51	83.69
538.724	95.69
538.938	97.69
539.153	106.69
539.367	99.69
539.581	82.69
539.795	95.69
540.009	91.69
540.222	92.69
540.436	92.69
540.65	91.69
540.864	96.69
541.078	100.69
541.292	89.69
541.506	122.69
541.72	112.69
541.934	101.69
542.147	117.69
542.361	122.69
542.575	109.69
542.789	104.69
543.002	113.69
543.216	108.69
543.43	110.69
543.644	112.69
543.857	112.69
544.071	112.69
544.285	100.69
544.498	105.69
544.712	115.69
544.925	103.69
545.139	101.69
545.352	115.69
545.566	112.69
545.779	108.69
545.993	97.69
546.206	122.69
546.42	91.69
546.633	106.69
546.847	93.69
547.06	124.69
547.274	114.69
547.487	119.69
547.7	105.69
547.914	111.69
548.127	103.69
548.34	107.69
548.554	104.69
548.767	109.69
548.98	112.69
549.193	97.69
549.407	99.69
549.62	112.69
549.833	97.69
550.046	105.69
550.259	108.69
550.473	105.69
550.686	105.69
550.899	93.69
551.112	111.69
551.325	100.69
551.538	123.69
551.751	97.69
551.964	101.69
552.177	112.69
552.39	93.69
552.603	109.69
552.816	97.69
553.029	93.69
553.242	106.69
553.455	115.69
553.667	112.69
553.88	106.69
554.093	113.69
554.306	108.69
554.519	111.69
554.732	103.69
554.944	93.69
555.157	102.69
555.37	86.69
555.583	107.69
555.795	109.69
556.008	111.69
556.221	93.69
556.433	108.69
556.646	90.69
556.859	104.69
557.071	100.69
557.284	102.69
557.496	97.69
557.709	109.69
557.921	107.69
558.134	101.69
558.346	97.69
558.559	99.69
558.771	108.69
558.984	112.69
559.196	97.69
559.409	94.69
559.621	108.69
559.833	99.69
560.046	102.69
560.258	104.69
560.47	97.69
560.683	98.69
560.895	98.69
561.107	96.69
561.32	92.69
561.532	105.69
561.744	104.69
561.956	108.69
562.168	100.69
562.381	106.69
562.593	100.69
562.805	99.69
563.017	88.69
563.229	87.69
563.441	90.69
563.653	84.69
563.865	108.69
564.077	85.69
564.289	96.69
564.501	101.69
564.713	116.69
564.925	101.69
565.137	92.69
565.349	101.69
565.561	93.69
565.773	97.69
565.985	85.69
566.197	105.69
566.408	99.69
566.62	99.69
566.832	100.69
567.044	107.69
567.255	89.69
567.467	98.69
567.679	87.69
567.891	75.69
568.102	91.69
568.314	100.69
568.526	98.69
568.737	81.69
568.949	89.69
569.161	77.69
569.372	90.69
569.584	83.69
569.795	96.69
570.007	92.69
570.218	79.69
570.43	100.69
570.641	79.69
570.853	90.69
571.064	85.69
571.276	92.69
571.487	99.69
571.698	85.69
571.91	86.69
572.121	96.69
572.333	87.69
572.544	86.69
572.755	100.69
572.966	68.69
573.178	88.69
573.389	88.69
573.6	77.69
573.811	85.69
574.023	88.69
574.234	87.69
574.445	98.69
574.656	90.69
574.867	77.69
575.078	90.69
575.289	88.69
575.501	80.69
575.712	83.69
575.923	85.69
576.134	90.69
576.345	82.69
576.556	93.69
576.767	93.69
576.978	85.69
577.188	88.69
577.399	98.69
577.61	84.69
577.821	94.69
578.032	79.69
578.243	92.69
578.454	87.69
578.665	76.69
578.875	82.69
579.086	86.69
579.297	97.69
579.508	101.69
579.718	85.69
579.929	92.69
580.14	80.69
580.35	87.69
580.561	94.69
580.772	83.69
580.982	103.69
581.193	97.69
581.403	91.69
581.614	86.69
581.825	96.69
582.035	86.69
582.246	92.69
582.456	90.69
582.667	93.69
582.877	83.69
583.087	79.69
583.298	81.69
583.508	84.69
583.719	76.69
583.929	80.69
584.139	94.69
584.35	81.69
584.56	91.69
584.77	83.69
584.981	71.69
585.191	89.69
585.401	85.69
585.611	90.69
585.821	82.69
586.032	89.69
586.242	84.69
586.452	98.69
586.662	80.69
586.872	95.69
587.082	82.69
587.292	80.69
587.502	83.69
587.713	92.69
587.923	85.69
588.133	79.69
588.343	92.69
588.553	75.69
588.762	93.69
588.972	91.69
589.182	92.69
589.392	77.69
589.602	93.69
589.812	98.69
590.022	92.69
590.232	93.69
590.441	84.69
590.651	97.69
590.861	77.69
591.071	87.69
591.281	85.69
591.49	83.69
591.7	80.69
591.91	88.69
592.119	82.69
592.329	97.69
592.539	80.69
592.748	85.69
592.958	79.69
593.167	84.69
593.377	78.69
593.587	98.69
593.796	86.69
594.006	83.69
594.215	76.69
594.424	87.69
594.634	89.69
594.843	105.69
595.053	89.69
595.262	83.69
595.472	82.69
595.681	81.69
595.89	87.69
596.1	77.69
596.309	86.69
596.518	97.69
596.727	93.69
596.937	92.69
597.146	89.69
597.355	95.69
597.564	75.69
597.774	79.69
597.983	98.69
598.192	80.69
598.401	81.69
598.61	96.69
598.819	100.69
599.028	91.69
599.237	86.69
599.446	85.69
599.655	102.69
599.864	97.69
600.073	105.69
600.282	91.69
600.491	96.69
600.7	97.69
600.909	83.69
601.118	102.69
601.327	88.69
601.536	84.69
601.745	93.69
601.953	90.69
602.162	100.69
602.371	99.69
602.58	104.69
602.789	104.69
602.997	92.69
603.206	110.69
603.415	90.69
603.623	107.69
603.832	99.69
604.041	90.69
604.249	83.69
604.458	100.69
604.666	76.69
604.875	93.69
605.084	91.69
605.292	107.69
605.501	88.69
605.709	100.69
605.918	112.69
606.126	95.69
606.334	109.69
606.543	96.69
606.751	90.69
606.96	100.69
607.168	106.69
607.376	92.69
607.585	100.69
607.793	95.69
608.001	86.69
608.21	85.69
608.418	90.69
608.626	85.69
608.834	97.69
609.043	95.69
609.251	88.69
609.459	90.69
609.667	114.69
609.875	91.69
610.083	92.69
610.291	91.69
610.499	89.69
610.707	104.69
610.916	104.69
611.124	95.69
611.332	87.69
611.54	99.69
611.748	105.69
611.955	93.69
612.163	83.69
612.371	102.69
612.579	91.69
612.787	95.69
612.995	93.69
613.203	95.69
613.411	86.69
613.618	87.69
613.826	81.69
614.034	92.69
614.242	85.69
614.449	93.69
614.657	90.69
614.865	92.69
615.072	78.69
615.28	88.69
615.488	83.69
615.695	101.69
615.903	100.69
616.111	91.69
616.318	92.69
616.526	81.69
616.733	101.69
616.941	87.69
617.148	90.69
617.356	95.69
617.563	89.69
617.771	98.69
617.978	92.69
618.185	97.69
618.393	100.69
618.6	97.69
618.807	92.69
619.015	98.69
619.222	97.69
619.429	85.69
619.637	95.69
619.844	94.69
620.051	86.69
620.258	90.69
620.466	97.69
620.673	92.69
620.88	94.69
621.087	91.69
621.294	100.69
621.501	81.69
621.708	100.69
621.915	107.69
622.122	96.69
622.329	91.69
622.536	94.69
622.743	100.69
622.95	91.69
623.157	104.69
623.364	89.69
623.571	96.69
623.778	97.69
623.985	95.69
624.192	97.69
624.399	99.69
624.606	111.69
624.812	98.69
625.019	106.69
625.226	84.69
625.433	88.69
625.639	96.69
625.846	91.69
626.053	93.69
626.259	86.69
626.466	100.69
626.673	80.69
626.879	87.69
627.086	92.69
627.293	94.69
627.499	100.69
627.706	91.69
627.912	91.69
628.119	87.69
628.325	102.69
628.532	81.69
628.738	88.69
628.945	91.69
629.151	99.69
629.357	86.69
629.564	98.69
629.77	89.69
629.976	95.69
630.183	89.69
630.389	108.69
630.595	101.69
630.802	106.69
631.008	88.69
631.214	88.69
631.42	80.69
631.627	101.69
631.833	92.69
632.039	94.69
632.245	84.69
632.451	105.69
632.657	95.69
632.863	96.69
633.069	89.69
633.275	82.69
633.481	95.69
633.688	116.69
633.893	91.69
634.099	90.69
634.305	100.69
634.511	99.69
634.717	97.69
634.923	76.69
635.129	77.69
635.335	82.69
635.541	95.69
635.747	86.69
635.952	85.69
636.158	92.69
636.364	98.69
636.57	96.69
636.775	92.69
636.981	89.69
637.187	83.69
637.392	89.69
637.598	100.69
637.804	93.69
638.009	87.69
638.215	95.69
638.421	90.69
638.626	85.69
638.832	92.69
639.037	83.69
639.243	88.69
639.448	88.69
639.654	88.69
639.859	98.69
640.065	95.69
640.27	98.69
640.475	90.69
640.681	86.69
640.886	101.69
641.091	81.69
641.297	89.69
641.502	91.69
641.707	92.69
641.913	99.69
642.118	105.69
642.323	93.69
642.528	92.69
642.733	95.69
642.939	80.69
643.144	77.69
643.349	83.69
643.554	100.69
643.759	89.69
643.964	97.69
644.169	89.69
644.374	87.69
644.579	82.69
644.784	88.69
644.989	89.69
645.194	93.69
645.399	81.69
645.604	74.69
645.809	82.69
646.014	84.69
646.219	87.69
646.423	92.69
646.628	97.69
646.833	97.69
647.038	94.69
647.243	85.69
647.447	102.69
647.652	92.69
647.857	92.69
648.062	86.69
648.266	81.69
648.471	96.69
648.676	91.69
648.88	96.69
649.085	84.69
649.289	90.69
649.494	75.69
649.698	95.69
649.903	91.69
650.107	91.69
650.312	91.69
650.516	87.69
650.721	98.69
650.925	88.69
651.13	91.69
651.334	80.69
651.539	92.69
651.743	72.69
651.947	101.69
652.152	87.69
652.356	84.69
652.56	94.69
652.764	100.69
652.969	83.69
653.173	91.69
653.377	84.69
653.581	79.69
653.785	89.69
653.99	77.69
654.194	90.69
654.398	83.69
654.602	84.69
654.806	88.69
655.01	86.69
655.214	75.69
655.418	85.69
655.622	84.69
655.826	90.69
656.03	81.69
656.234	81.69
656.438	95.69
656.642	87.69
656.846	93.69
657.049	92.69
657.253	77.69
657.457	77.69
657.661	79.69
657.865	89.69
658.068	82.69
658.272	103.69
658.476	78.69
658.68	78.69
658.883	76.69
659.087	90.69
659.291	83.69
659.494	67.69
659.698	83.69
659.901	89.69
660.105	82.69
660.309	92.69
660.512	68.69
660.716	77.69
660.919	75.69
661.123	85.69
661.326	89.69
661.53	97.69
661.733	82.69
661.936	85.69
662.14	90.69
662.343	83.69
662.546	100.69
662.75	105.69
662.953	86.69
663.156	77.69
663.36	85.69
663.563	88.69
663.766	80.69
663.969	87.69
664.173	85.69
664.376	88.69
664.579	91.69
664.782	93.69
664.985	86.69
665.188	89.69
665.391	83.69
665.594	90.69
665.797	81.69
666	82.69
666.203	89.69
666.406	76.69
666.609	76.69
666.812	89.69
667.015	85.69
667.218	84.69
667.421	89.69
667.624	79.69
667.827	84.69
668.03	83.69
668.232	96.69
668.435	94.69
668.638	88.69
668.841	81.69
669.043	90.69
669.246	91.69
669.449	77.69
669.651	77.69
669.854	86.69
670.057	75.69
670.259	96.69
670.462	87.69
670.665	80.69
670.867	87.69
671.07	64.69
671.272	84.69
671.475	90.69
671.677	92.69
671.88	73.69
672.082	85.69
672.284	73.69
672.487	78.69
672.689	97.69
672.892	76.69
