Data from Location4.07152019.Energy5.Lamp.07192019.3%Agarose_HRD10591_15-24-20-577.txt Node
Date: Fri Jul 19 15:24:20 EDT 2019
User: cochatt
Spectrometer: HR+D1059
Trigger mode: 1
Integration Time (sec): 1.000000E-1
Scans to average: 1
Electric dark correction enabled: true
Nonlinearity correction enabled: false
Boxcar width: 0
XAxis mode: Wavelengths
Number of Pixels in Spectrum: 2048
>>>>>Begin Spectral Data<<<<<
223.165	-23.31
223.4	-23.31
223.635	-23.31
223.869	-15.31
224.104	-18.31
224.338	-25.31
224.573	-3.31
224.808	-4.31
225.042	-10.31
225.277	-8.31
225.511	-13.31
225.746	4.69
225.98	12.69
226.215	0.69
226.449	12.69
226.683	29.69
226.918	27.69
227.152	33.69
227.387	41.69
227.621	33.69
227.856	56.69
228.09	51.69
228.324	53.69
228.559	61.69
228.793	57.69
229.027	59.69
229.262	57.69
229.496	76.69
229.73	75.69
229.964	75.69
230.199	89.69
230.433	78.69
230.667	82.69
230.901	82.69
231.136	71.69
231.37	68.69
231.604	87.69
231.838	92.69
232.072	85.69
232.306	90.69
232.541	74.69
232.775	83.69
233.009	69.69
233.243	69.69
233.477	97.69
233.711	87.69
233.945	84.69
234.179	80.69
234.413	76.69
234.647	85.69
234.881	76.69
235.115	58.69
235.349	92.69
235.583	78.69
235.817	83.69
236.051	82.69
236.285	85.69
236.519	85.69
236.753	76.69
236.987	85.69
237.221	68.69
237.455	87.69
237.689	88.69
237.922	75.69
238.156	68.69
238.39	72.69
238.624	78.69
238.858	76.69
239.091	90.69
239.325	76.69
239.559	78.69
239.793	80.69
240.027	76.69
240.26	67.69
240.494	84.69
240.728	100.69
240.961	77.69
241.195	79.69
241.429	80.69
241.662	81.69
241.896	78.69
242.13	75.69
242.363	85.69
242.597	81.69
242.83	89.69
243.064	83.69
243.298	72.69
243.531	79.69
243.765	86.69
243.998	86.69
244.232	78.69
244.465	61.69
244.699	75.69
244.932	88.69
245.166	73.69
245.399	84.69
245.633	87.69
245.866	65.69
246.099	80.69
246.333	68.69
246.566	77.69
246.8	78.69
247.033	82.69
247.266	73.69
247.5	68.69
247.733	72.69
247.966	74.69
248.2	82.69
248.433	68.69
248.666	71.69
248.899	85.69
249.133	89.69
249.366	89.69
249.599	77.69
249.832	79.69
250.066	79.69
250.299	61.69
250.532	101.69
250.765	86.69
250.998	81.69
251.231	81.69
251.465	88.69
251.698	68.69
251.931	82.69
252.164	83.69
252.397	83.69
252.63	96.69
252.863	73.69
253.096	80.69
253.329	84.69
253.562	92.69
253.795	86.69
254.028	86.69
254.261	95.69
254.494	78.69
254.727	90.69
254.96	82.69
255.193	67.69
255.426	65.69
255.659	81.69
255.892	73.69
256.124	87.69
256.357	68.69
256.59	81.69
256.823	85.69
257.056	82.69
257.289	81.69
257.521	86.69
257.754	88.69
257.987	71.69
258.22	90.69
258.452	78.69
258.685	85.69
258.918	83.69
259.151	70.69
259.383	87.69
259.616	74.69
259.849	76.69
260.081	80.69
260.314	85.69
260.547	76.69
260.779	84.69
261.012	77.69
261.244	91.69
261.477	94.69
261.71	86.69
261.942	90.69
262.175	93.69
262.407	84.69
262.64	82.69
262.872	88.69
263.105	83.69
263.337	107.69
263.57	78.69
263.802	86.69
264.035	93.69
264.267	75.69
264.499	77.69
264.732	85.69
264.964	83.69
265.197	82.69
265.429	80.69
265.661	70.69
265.894	78.69
266.126	84.69
266.358	89.69
266.591	87.69
266.823	78.69
267.055	93.69
267.287	83.69
267.52	87.69
267.752	81.69
267.984	83.69
268.216	85.69
268.448	66.69
268.681	75.69
268.913	100.69
269.145	82.69
269.377	92.69
269.609	93.69
269.841	73.69
270.073	68.69
270.306	76.69
270.538	96.69
270.77	81.69
271.002	96.69
271.234	95.69
271.466	87.69
271.698	92.69
271.93	82.69
272.162	84.69
272.394	95.69
272.626	61.69
272.858	73.69
273.09	91.69
273.322	86.69
273.553	97.69
273.785	81.69
274.017	98.69
274.249	82.69
274.481	90.69
274.713	91.69
274.945	88.69
275.176	90.69
275.408	82.69
275.64	101.69
275.872	107.69
276.104	101.69
276.335	84.69
276.567	74.69
276.799	81.69
277.031	76.69
277.262	75.69
277.494	89.69
277.726	80.69
277.957	87.69
278.189	77.69
278.421	84.69
278.652	84.69
278.884	84.69
279.115	79.69
279.347	110.69
279.579	93.69
279.81	83.69
280.042	84.69
280.273	91.69
280.505	86.69
280.736	68.69
280.968	75.69
281.199	89.69
281.431	86.69
281.662	86.69
281.894	98.69
282.125	98.69
282.356	78.69
282.588	92.69
282.819	91.69
283.051	84.69
283.282	71.69
283.513	94.69
283.745	83.69
283.976	82.69
284.207	88.69
284.439	85.69
284.67	88.69
284.901	95.69
285.132	87.69
285.364	67.69
285.595	98.69
285.826	65.69
286.057	92.69
286.288	96.69
286.52	89.69
286.751	88.69
286.982	89.69
287.213	93.69
287.444	70.69
287.675	81.69
287.906	84.69
288.138	90.69
288.369	92.69
288.6	84.69
288.831	74.69
289.062	78.69
289.293	92.69
289.524	88.69
289.755	96.69
289.986	80.69
290.217	87.69
290.448	76.69
290.679	70.69
290.91	87.69
291.141	92.69
291.371	85.69
291.602	90.69
291.833	89.69
292.064	83.69
292.295	83.69
292.526	85.69
292.757	72.69
292.987	80.69
293.218	90.69
293.449	82.69
293.68	77.69
293.91	86.69
294.141	97.69
294.372	84.69
294.603	69.69
294.833	96.69
295.064	74.69
295.295	77.69
295.525	94.69
295.756	86.69
295.987	84.69
296.217	85.69
296.448	88.69
296.679	88.69
296.909	96.69
297.14	76.69
297.37	91.69
297.601	98.69
297.831	84.69
298.062	103.69
298.292	87.69
298.523	74.69
298.753	91.69
298.984	91.69
299.214	81.69
299.445	96.69
299.675	79.69
299.905	84.69
300.136	77.69
300.366	83.69
300.597	83.69
300.827	87.69
301.057	86.69
301.288	89.69
301.518	91.69
301.748	79.69
301.979	82.69
302.209	66.69
302.439	81.69
302.669	86.69
302.9	88.69
303.13	101.69
303.36	90.69
303.59	90.69
303.82	99.69
304.051	84.69
304.281	89.69
304.511	79.69
304.741	94.69
304.971	77.69
305.201	79.69
305.431	89.69
305.661	91.69
305.891	88.69
306.121	93.69
306.352	100.69
306.582	81.69
306.812	90.69
307.042	83.69
307.272	91.69
307.502	82.69
307.731	90.69
307.961	88.69
308.191	86.69
308.421	93.69
308.651	89.69
308.881	84.69
309.111	75.69
309.341	77.69
309.571	87.69
309.8	78.69
310.03	83.69
310.26	82.69
310.49	76.69
310.72	85.69
310.949	74.69
311.179	93.69
311.409	78.69
311.639	83.69
311.868	84.69
312.098	87.69
312.328	87.69
312.557	84.69
312.787	98.69
313.017	78.69
313.246	84.69
313.476	87.69
313.706	88.69
313.935	105.69
314.165	93.69
314.394	79.69
314.624	90.69
314.853	106.69
315.083	91.69
315.312	91.69
315.542	86.69
315.771	81.69
316.001	71.69
316.23	86.69
316.46	84.69
316.689	91.69
316.919	90.69
317.148	91.69
317.377	89.69
317.607	81.69
317.836	82.69
318.065	87.69
318.295	82.69
318.524	84.69
318.753	76.69
318.983	87.69
319.212	89.69
319.441	91.69
319.67	73.69
319.9	88.69
320.129	86.69
320.358	87.69
320.587	85.69
320.816	80.69
321.046	69.69
321.275	113.69
321.504	96.69
321.733	78.69
321.962	90.69
322.191	90.69
322.42	78.69
322.649	83.69
322.878	84.69
323.108	87.69
323.337	84.69
323.566	101.69
323.795	81.69
324.024	74.69
324.253	90.69
324.482	87.69
324.71	96.69
324.939	62.69
325.168	76.69
325.397	77.69
325.626	74.69
325.855	73.69
326.084	93.69
326.313	90.69
326.542	101.69
326.77	93.69
326.999	87.69
327.228	83.69
327.457	102.69
327.686	85.69
327.914	93.69
328.143	84.69
328.372	89.69
328.6	89.69
328.829	79.69
329.058	87.69
329.287	81.69
329.515	87.69
329.744	95.69
329.972	87.69
330.201	84.69
330.43	92.69
330.658	98.69
330.887	89.69
331.115	104.69
331.344	95.69
331.572	91.69
331.801	98.69
332.03	88.69
332.258	91.69
332.486	97.69
332.715	82.69
332.943	81.69
333.172	86.69
333.4	76.69
333.629	90.69
333.857	70.69
334.085	86.69
334.314	88.69
334.542	76.69
334.771	90.69
334.999	74.69
335.227	68.69
335.455	86.69
335.684	85.69
335.912	76.69
336.14	77.69
336.369	90.69
336.597	75.69
336.825	84.69
337.053	88.69
337.281	81.69
337.51	61.69
337.738	88.69
337.966	83.69
338.194	82.69
338.422	97.69
338.65	87.69
338.878	75.69
339.106	88.69
339.334	94.69
339.562	95.69
339.79	86.69
340.018	75.69
340.246	97.69
340.474	77.69
340.702	86.69
340.93	86.69
341.158	88.69
341.386	88.69
341.614	82.69
341.842	85.69
342.07	90.69
342.298	111.69
342.526	76.69
342.754	78.69
342.981	85.69
343.209	81.69
343.437	89.69
343.665	85.69
343.893	93.69
344.12	88.69
344.348	94.69
344.576	83.69
344.804	83.69
345.031	90.69
345.259	82.69
345.487	90.69
345.714	70.69
345.942	90.69
346.17	75.69
346.397	87.69
346.625	88.69
346.853	73.69
347.08	85.69
347.308	75.69
347.535	81.69
347.763	83.69
347.99	78.69
348.218	86.69
348.445	90.69
348.673	91.69
348.9	90.69
349.128	88.69
349.355	90.69
349.583	73.69
349.81	90.69
350.037	86.69
350.265	82.69
350.492	85.69
350.72	85.69
350.947	85.69
351.174	88.69
351.402	90.69
351.629	96.69
351.856	92.69
352.083	87.69
352.311	75.69
352.538	87.69
352.765	92.69
352.992	81.69
353.22	96.69
353.447	87.69
353.674	88.69
353.901	89.69
354.128	79.69
354.355	72.69
354.583	79.69
354.81	80.69
355.037	70.69
355.264	91.69
355.491	92.69
355.718	99.69
355.945	94.69
356.172	84.69
356.399	73.69
356.626	79.69
356.853	82.69
357.08	81.69
357.307	95.69
357.534	81.69
357.761	69.69
357.988	88.69
358.215	80.69
358.441	88.69
358.668	93.69
358.895	95.69
359.122	76.69
359.349	89.69
359.576	88.69
359.802	82.69
360.029	89.69
360.256	84.69
360.483	86.69
360.709	72.69
360.936	98.69
361.163	67.69
361.39	82.69
361.616	70.69
361.843	80.69
362.07	93.69
362.296	85.69
362.523	72.69
362.749	90.69
362.976	87.69
363.203	100.69
363.429	83.69
363.656	86.69
363.882	81.69
364.109	81.69
364.335	98.69
364.562	75.69
364.788	89.69
365.015	87.69
365.241	78.69
365.468	96.69
365.694	87.69
365.92	90.69
366.147	77.69
366.373	82.69
366.599	86.69
366.826	74.69
367.052	86.69
367.278	93.69
367.505	78.69
367.731	85.69
367.957	87.69
368.184	91.69
368.41	93.69
368.636	91.69
368.862	78.69
369.089	92.69
369.315	76.69
369.541	83.69
369.767	94.69
369.993	89.69
370.219	76.69
370.445	82.69
370.672	75.69
370.898	84.69
371.124	83.69
371.35	80.69
371.576	92.69
371.802	90.69
372.028	86.69
372.254	90.69
372.48	90.69
372.706	69.69
372.932	88.69
373.158	78.69
373.384	81.69
373.61	77.69
373.835	81.69
374.061	82.69
374.287	94.69
374.513	84.69
374.739	88.69
374.965	83.69
375.191	69.69
375.416	94.69
375.642	102.69
375.868	90.69
376.094	81.69
376.319	84.69
376.545	86.69
376.771	100.69
376.997	103.69
377.222	99.69
377.448	81.69
377.674	90.69
377.899	89.69
378.125	96.69
378.35	89.69
378.576	88.69
378.802	86.69
379.027	85.69
379.253	101.69
379.478	98.69
379.704	86.69
379.929	93.69
380.155	76.69
380.38	78.69
380.606	84.69
380.831	85.69
381.057	95.69
381.282	86.69
381.507	83.69
381.733	78.69
381.958	86.69
382.184	92.69
382.409	82.69
382.634	91.69
382.86	93.69
383.085	77.69
383.31	103.69
383.535	95.69
383.761	73.69
383.986	78.69
384.211	93.69
384.436	90.69
384.662	79.69
384.887	90.69
385.112	86.69
385.337	103.69
385.562	93.69
385.787	97.69
386.013	94.69
386.238	79.69
386.463	89.69
386.688	77.69
386.913	84.69
387.138	86.69
387.363	86.69
387.588	100.69
387.813	87.69
388.038	98.69
388.263	90.69
388.488	73.69
388.713	78.69
388.938	87.69
389.163	86.69
389.387	84.69
389.612	85.69
389.837	82.69
390.062	94.69
390.287	81.69
390.512	86.69
390.736	88.69
390.961	99.69
391.186	75.69
391.411	90.69
391.636	92.69
391.86	89.69
392.085	88.69
392.31	99.69
392.534	91.69
392.759	89.69
392.984	87.69
393.208	92.69
393.433	97.69
393.658	93.69
393.882	91.69
394.107	93.69
394.331	85.69
394.556	84.69
394.78	92.69
395.005	93.69
395.229	102.69
395.454	99.69
395.678	87.69
395.903	102.69
396.127	93.69
396.352	78.69
396.576	72.69
396.801	78.69
397.025	89.69
397.249	90.69
397.474	89.69
397.698	90.69
397.922	89.69
398.147	100.69
398.371	85.69
398.595	86.69
398.82	87.69
399.044	86.69
399.268	83.69
399.492	90.69
399.717	88.69
399.941	82.69
400.165	97.69
400.389	87.69
400.613	90.69
400.837	96.69
401.062	83.69
401.286	98.69
401.51	112.69
401.734	91.69
401.958	86.69
402.182	93.69
402.406	93.69
402.63	93.69
402.854	98.69
403.078	95.69
403.302	78.69
403.526	91.69
403.75	81.69
403.974	68.69
404.198	79.69
404.422	86.69
404.645	86.69
404.869	81.69
405.093	105.69
405.317	86.69
405.541	106.69
405.765	91.69
405.988	89.69
406.212	89.69
406.436	88.69
406.66	96.69
406.883	92.69
407.107	97.69
407.331	80.69
407.555	85.69
407.778	87.69
408.002	88.69
408.226	84.69
408.449	86.69
408.673	110.69
408.896	87.69
409.12	90.69
409.344	91.69
409.567	90.69
409.791	89.69
410.014	92.69
410.238	86.69
410.461	90.69
410.685	91.69
410.908	83.69
411.132	98.69
411.355	86.69
411.578	104.69
411.802	83.69
412.025	77.69
412.249	87.69
412.472	101.69
412.695	95.69
412.919	97.69
413.142	104.69
413.365	90.69
413.589	84.69
413.812	78.69
414.035	103.69
414.258	100.69
414.482	95.69
414.705	97.69
414.928	85.69
415.151	97.69
415.374	100.69
415.597	104.69
415.821	97.69
416.044	90.69
416.267	86.69
416.49	83.69
416.713	93.69
416.936	100.69
417.159	98.69
417.382	97.69
417.605	98.69
417.828	89.69
418.051	90.69
418.274	101.69
418.497	88.69
418.72	84.69
418.943	91.69
419.166	96.69
419.389	97.69
419.611	84.69
419.834	87.69
420.057	105.69
420.28	87.69
420.503	97.69
420.726	90.69
420.948	106.69
421.171	98.69
421.394	92.69
421.617	92.69
421.839	83.69
422.062	106.69
422.285	100.69
422.507	111.69
422.73	86.69
422.953	77.69
423.175	83.69
423.398	101.69
423.621	96.69
423.843	85.69
424.066	96.69
424.288	108.69
424.511	100.69
424.733	127.69
424.956	97.69
425.178	88.69
425.401	87.69
425.623	109.69
425.846	93.69
426.068	79.69
426.291	95.69
426.513	89.69
426.735	98.69
426.958	104.69
427.18	103.69
427.402	86.69
427.625	92.69
427.847	108.69
428.069	99.69
428.292	96.69
428.514	116.69
428.736	109.69
428.958	90.69
429.181	89.69
429.403	92.69
429.625	88.69
429.847	94.69
430.069	105.69
430.292	97.69
430.514	113.69
430.736	103.69
430.958	103.69
431.18	77.69
431.402	91.69
431.624	93.69
431.846	85.69
432.068	80.69
432.29	84.69
432.512	95.69
432.734	93.69
432.956	94.69
433.178	94.69
433.4	96.69
433.622	95.69
433.844	96.69
434.066	82.69
434.287	82.69
434.509	81.69
434.731	105.69
434.953	95.69
435.175	106.69
435.397	87.69
435.618	92.69
435.84	75.69
436.062	87.69
436.284	70.69
436.505	78.69
436.727	99.69
436.949	97.69
437.17	82.69
437.392	97.69
437.614	101.69
437.835	92.69
438.057	89.69
438.278	106.69
438.5	105.69
438.721	89.69
438.943	85.69
439.165	96.69
439.386	93.69
439.608	112.69
439.829	104.69
440.05	99.69
440.272	93.69
440.493	109.69
440.715	100.69
440.936	105.69
441.158	91.69
441.379	98.69
441.6	87.69
441.822	107.69
442.043	92.69
442.264	104.69
442.486	97.69
442.707	103.69
442.928	102.69
443.149	118.69
443.371	110.69
443.592	107.69
443.813	114.69
444.034	127.69
444.255	99.69
444.476	91.69
444.698	89.69
444.919	97.69
445.14	193.69
445.361	120.69
445.582	110.69
445.803	98.69
446.024	118.69
446.245	104.69
446.466	103.69
446.687	99.69
446.908	100.69
447.129	90.69
447.35	108.69
447.571	89.69
447.792	102.69
448.013	102.69
448.234	89.69
448.455	93.69
448.675	112.69
448.896	105.69
449.117	104.69
449.338	107.69
449.559	92.69
449.779	96.69
450	92.69
450.221	98.69
450.442	101.69
450.662	109.69
450.883	86.69
451.104	94.69
451.324	101.69
451.545	98.69
451.766	100.69
451.986	99.69
452.207	103.69
452.428	105.69
452.648	95.69
452.869	95.69
453.089	100.69
453.31	88.69
453.53	86.69
453.751	91.69
453.971	93.69
454.192	94.69
454.412	88.69
454.633	93.69
454.853	87.69
455.073	83.69
455.294	108.69
455.514	99.69
455.734	96.69
455.955	91.69
456.175	99.69
456.395	93.69
456.616	83.69
456.836	91.69
457.056	90.69
457.276	82.69
457.497	75.69
457.717	92.69
457.937	82.69
458.157	88.69
458.377	77.69
458.598	90.69
458.818	85.69
459.038	81.69
459.258	84.69
459.478	88.69
459.698	85.69
459.918	86.69
460.138	95.69
460.358	78.69
460.578	88.69
460.798	82.69
461.018	94.69
461.238	80.69
461.458	81.69
461.678	110.69
461.898	98.69
462.118	86.69
462.338	89.69
462.558	91.69
462.777	81.69
462.997	102.69
463.217	92.69
463.437	89.69
463.657	90.69
463.876	87.69
464.096	87.69
464.316	97.69
464.536	82.69
464.755	76.69
464.975	87.69
465.195	91.69
465.414	93.69
465.634	99.69
465.854	104.69
466.073	90.69
466.293	95.69
466.512	86.69
466.732	96.69
466.951	94.69
467.171	92.69
467.391	86.69
467.61	101.69
467.829	104.69
468.049	100.69
468.268	92.69
468.488	106.69
468.707	84.69
468.927	102.69
469.146	96.69
469.365	120.69
469.585	107.69
469.804	98.69
470.023	94.69
470.243	91.69
470.462	97.69
470.681	101.69
470.901	103.69
471.12	101.69
471.339	97.69
471.558	93.69
471.777	99.69
471.997	102.69
472.216	114.69
472.435	98.69
472.654	91.69
472.873	89.69
473.092	100.69
473.311	99.69
473.53	94.69
473.749	94.69
473.968	96.69
474.187	101.69
474.406	96.69
474.625	83.69
474.844	90.69
475.063	107.69
475.282	93.69
475.501	104.69
475.72	105.69
475.939	89.69
476.158	107.69
476.377	108.69
476.596	94.69
476.814	93.69
477.033	96.69
477.252	84.69
477.471	103.69
477.69	84.69
477.908	85.69
478.127	106.69
478.346	93.69
478.564	95.69
478.783	92.69
479.002	100.69
479.22	108.69
479.439	107.69
479.658	106.69
479.876	92.69
480.095	85.69
480.313	90.69
480.532	75.69
480.751	89.69
480.969	82.69
481.188	83.69
481.406	83.69
481.624	85.69
481.843	92.69
482.061	96.69
482.28	94.69
482.498	88.69
482.717	93.69
482.935	102.69
483.153	108.69
483.372	100.69
483.59	105.69
483.808	89.69
484.027	101.69
484.245	110.69
484.463	78.69
484.681	110.69
484.9	100.69
485.118	90.69
485.336	114.69
485.554	91.69
485.772	118.69
485.99	83.69
486.209	87.69
486.427	93.69
486.645	95.69
486.863	120.69
487.081	89.69
487.299	86.69
487.517	94.69
487.735	107.69
487.953	109.69
488.171	122.69
488.389	111.69
488.607	113.69
488.825	102.69
489.043	90.69
489.261	96.69
489.479	117.69
489.696	98.69
489.914	100.69
490.132	98.69
490.35	96.69
490.568	110.69
490.786	117.69
491.003	112.69
491.221	102.69
491.439	114.69
491.657	116.69
491.874	99.69
492.092	124.69
492.31	128.69
492.527	133.69
492.745	111.69
492.963	107.69
493.18	118.69
493.398	118.69
493.615	119.69
493.833	112.69
494.05	105.69
494.268	107.69
494.485	108.69
494.703	112.69
494.92	105.69
495.138	113.69
495.355	118.69
495.573	113.69
495.79	107.69
496.008	114.69
496.225	117.69
496.442	102.69
496.66	108.69
496.877	109.69
497.094	119.69
497.312	105.69
497.529	108.69
497.746	96.69
497.963	93.69
498.181	110.69
498.398	94.69
498.615	84.69
498.832	80.69
499.049	108.69
499.267	103.69
499.484	99.69
499.701	97.69
499.918	95.69
500.135	89.69
500.352	101.69
500.569	103.69
500.786	107.69
501.003	92.69
501.22	106.69
501.437	108.69
501.654	100.69
501.871	91.69
502.088	104.69
502.305	90.69
502.522	92.69
502.739	101.69
502.956	102.69
503.172	102.69
503.389	88.69
503.606	110.69
503.823	102.69
504.04	86.69
504.256	103.69
504.473	119.69
504.69	102.69
504.907	98.69
505.123	98.69
505.34	96.69
505.557	96.69
505.773	102.69
505.99	82.69
506.207	83.69
506.423	104.69
506.64	92.69
506.856	89.69
507.073	96.69
507.289	94.69
507.506	97.69
507.722	80.69
507.939	93.69
508.155	104.69
508.372	94.69
508.588	74.69
508.805	91.69
509.021	80.69
509.238	103.69
509.454	94.69
509.67	102.69
509.887	99.69
510.103	96.69
510.319	92.69
510.536	93.69
510.752	86.69
510.968	78.69
511.184	84.69
511.401	83.69
511.617	93.69
511.833	79.69
512.049	80.69
512.265	89.69
512.481	95.69
512.698	93.69
512.914	104.69
513.13	77.69
513.346	87.69
513.562	77.69
513.778	84.69
513.994	90.69
514.21	85.69
514.426	86.69
514.642	83.69
514.858	93.69
515.074	83.69
515.29	96.69
515.506	85.69
515.721	92.69
515.937	91.69
516.153	91.69
516.369	82.69
516.585	90.69
516.801	78.69
517.016	77.69
517.232	80.69
517.448	97.69
517.664	87.69
517.879	84.69
518.095	97.69
518.311	90.69
518.527	89.69
518.742	73.69
518.958	74.69
519.173	95.69
519.389	80.69
519.605	102.69
519.82	86.69
520.036	86.69
520.251	93.69
520.467	86.69
520.682	97.69
520.898	79.69
521.113	91.69
521.329	87.69
521.544	86.69
521.76	86.69
521.975	92.69
522.19	96.69
522.406	92.69
522.621	88.69
522.836	85.69
523.052	84.69
523.267	105.69
523.482	114.69
523.698	96.69
523.913	88.69
524.128	83.69
524.343	84.69
524.559	102.69
524.774	87.69
524.989	96.69
525.204	89.69
525.419	91.69
525.634	102.69
525.849	87.69
526.064	103.69
526.28	82.69
526.495	72.69
526.71	90.69
526.925	88.69
527.14	92.69
527.355	76.69
527.57	85.69
527.785	84.69
527.999	89.69
528.214	94.69
528.429	100.69
528.644	98.69
528.859	107.69
529.074	105.69
529.289	105.69
529.503	100.69
529.718	103.69
529.933	97.69
530.148	96.69
530.363	91.69
530.577	82.69
530.792	83.69
531.007	67.69
531.221	84.69
531.436	83.69
531.651	85.69
531.865	72.69
532.08	91.69
532.295	89.69
532.509	85.69
532.724	77.69
532.938	83.69
533.153	78.69
533.367	89.69
533.582	92.69
533.796	87.69
534.011	90.69
534.225	90.69
534.44	81.69
534.654	81.69
534.868	87.69
535.083	87.69
535.297	94.69
535.511	95.69
535.726	105.69
535.94	90.69
536.154	92.69
536.369	86.69
536.583	65.69
536.797	86.69
537.011	68.69
537.225	78.69
537.44	88.69
537.654	82.69
537.868	107.69
538.082	85.69
538.296	81.69
538.51	91.69
538.724	107.69
538.938	90.69
539.153	96.69
539.367	93.69
539.581	85.69
539.795	90.69
540.009	92.69
540.222	89.69
540.436	93.69
540.65	81.69
540.864	115.69
541.078	108.69
541.292	104.69
541.506	109.69
541.72	117.69
541.934	117.69
542.147	125.69
542.361	117.69
542.575	121.69
542.789	102.69
543.002	98.69
543.216	100.69
543.43	95.69
543.644	93.69
543.857	113.69
544.071	114.69
544.285	107.69
544.498	106.69
544.712	118.69
544.925	120.69
545.139	107.69
545.352	123.69
545.566	114.69
545.779	100.69
545.993	110.69
546.206	107.69
546.42	105.69
546.633	116.69
546.847	108.69
547.06	112.69
547.274	116.69
547.487	113.69
547.7	109.69
547.914	117.69
548.127	114.69
548.34	105.69
548.554	93.69
548.767	96.69
548.98	104.69
549.193	105.69
549.407	114.69
549.62	117.69
549.833	103.69
550.046	118.69
550.259	99.69
550.473	102.69
550.686	106.69
550.899	102.69
551.112	122.69
551.325	103.69
551.538	99.69
551.751	85.69
551.964	104.69
552.177	101.69
552.39	108.69
552.603	112.69
552.816	111.69
553.029	103.69
553.242	112.69
553.455	99.69
553.667	118.69
553.88	122.69
554.093	108.69
554.306	99.69
554.519	107.69
554.732	106.69
554.944	96.69
555.157	99.69
555.37	109.69
555.583	121.69
555.795	114.69
556.008	96.69
556.221	88.69
556.433	105.69
556.646	89.69
556.859	96.69
557.071	102.69
557.284	103.69
557.496	105.69
557.709	92.69
557.921	106.69
558.134	109.69
558.346	100.69
558.559	115.69
558.771	105.69
558.984	98.69
559.196	90.69
559.409	91.69
559.621	90.69
559.833	89.69
560.046	106.69
560.258	94.69
560.47	96.69
560.683	104.69
560.895	104.69
561.107	104.69
561.32	106.69
561.532	101.69
561.744	109.69
561.956	98.69
562.168	102.69
562.381	109.69
562.593	106.69
562.805	88.69
563.017	88.69
563.229	96.69
563.441	89.69
563.653	104.69
563.865	85.69
564.077	104.69
564.289	105.69
564.501	101.69
564.713	94.69
564.925	97.69
565.137	92.69
565.349	96.69
565.561	97.69
565.773	100.69
565.985	88.69
566.197	86.69
566.408	89.69
566.62	99.69
566.832	98.69
567.044	98.69
567.255	97.69
567.467	79.69
567.679	95.69
567.891	77.69
568.102	77.69
568.314	81.69
568.526	90.69
568.737	96.69
568.949	85.69
569.161	88.69
569.372	93.69
569.584	78.69
569.795	88.69
570.007	91.69
570.218	82.69
570.43	93.69
570.641	78.69
570.853	97.69
571.064	79.69
571.276	98.69
571.487	94.69
571.698	78.69
571.91	112.69
572.121	85.69
572.333	81.69
572.544	80.69
572.755	91.69
572.966	89.69
573.178	82.69
573.389	84.69
573.6	89.69
573.811	103.69
574.023	90.69
574.234	71.69
574.445	76.69
574.656	75.69
574.867	65.69
575.078	71.69
575.289	97.69
575.501	98.69
575.712	99.69
575.923	88.69
576.134	89.69
576.345	86.69
576.556	90.69
576.767	91.69
576.978	94.69
577.188	81.69
577.399	85.69
577.61	101.69
577.821	91.69
578.032	82.69
578.243	91.69
578.454	90.69
578.665	88.69
578.875	85.69
579.086	85.69
579.297	75.69
579.508	82.69
579.718	84.69
579.929	98.69
580.14	84.69
580.35	102.69
580.561	85.69
580.772	86.69
580.982	78.69
581.193	82.69
581.403	88.69
581.614	84.69
581.825	85.69
582.035	67.69
582.246	83.69
582.456	74.69
582.667	87.69
582.877	75.69
583.087	92.69
583.298	82.69
583.508	86.69
583.719	77.69
583.929	96.69
584.139	92.69
584.35	84.69
584.56	90.69
584.77	96.69
584.981	93.69
585.191	87.69
585.401	89.69
585.611	94.69
585.821	82.69
586.032	87.69
586.242	96.69
586.452	80.69
586.662	89.69
586.872	86.69
587.082	70.69
587.292	76.69
587.502	88.69
587.713	79.69
587.923	86.69
588.133	87.69
588.343	96.69
588.553	105.69
588.762	86.69
588.972	90.69
589.182	86.69
589.392	92.69
589.602	75.69
589.812	89.69
590.022	96.69
590.232	78.69
590.441	93.69
590.651	82.69
590.861	87.69
591.071	88.69
591.281	95.69
591.49	91.69
591.7	86.69
591.91	98.69
592.119	90.69
592.329	78.69
592.539	77.69
592.748	96.69
592.958	89.69
593.167	70.69
593.377	82.69
593.587	89.69
593.796	83.69
594.006	84.69
594.215	84.69
594.424	68.69
594.634	88.69
594.843	78.69
595.053	86.69
595.262	91.69
595.472	84.69
595.681	85.69
595.89	81.69
596.1	101.69
596.309	72.69
596.518	92.69
596.727	96.69
596.937	89.69
597.146	90.69
597.355	90.69
597.564	91.69
597.774	82.69
597.983	80.69
598.192	97.69
598.401	95.69
598.61	89.69
598.819	97.69
599.028	99.69
599.237	89.69
599.446	88.69
599.655	99.69
599.864	88.69
600.073	98.69
600.282	83.69
600.491	90.69
600.7	92.69
600.909	98.69
601.118	90.69
601.327	92.69
601.536	105.69
601.745	95.69
601.953	97.69
602.162	96.69
602.371	90.69
602.58	99.69
602.789	71.69
602.997	87.69
603.206	99.69
603.415	92.69
603.623	97.69
603.832	99.69
604.041	94.69
604.249	106.69
604.458	90.69
604.666	81.69
604.875	81.69
605.084	91.69
605.292	87.69
605.501	100.69
605.709	86.69
605.918	95.69
606.126	97.69
606.334	99.69
606.543	95.69
606.751	90.69
606.96	93.69
607.168	93.69
607.376	87.69
607.585	89.69
607.793	82.69
608.001	97.69
608.21	94.69
608.418	92.69
608.626	81.69
608.834	85.69
609.043	83.69
609.251	97.69
609.459	98.69
609.667	93.69
609.875	97.69
610.083	92.69
610.291	84.69
610.499	95.69
610.707	98.69
610.916	86.69
611.124	100.69
611.332	94.69
611.54	88.69
611.748	97.69
611.955	116.69
612.163	88.69
612.371	90.69
612.579	87.69
612.787	94.69
612.995	92.69
613.203	94.69
613.411	95.69
613.618	94.69
613.826	97.69
614.034	97.69
614.242	91.69
614.449	100.69
614.657	76.69
614.865	89.69
615.072	107.69
615.28	81.69
615.488	104.69
615.695	93.69
615.903	93.69
616.111	90.69
616.318	103.69
616.526	102.69
616.733	99.69
616.941	78.69
617.148	88.69
617.356	103.69
617.563	88.69
617.771	76.69
617.978	83.69
618.185	91.69
618.393	86.69
618.6	101.69
618.807	112.69
619.015	101.69
619.222	84.69
619.429	97.69
619.637	112.69
619.844	96.69
620.051	86.69
620.258	95.69
620.466	88.69
620.673	99.69
620.88	106.69
621.087	89.69
621.294	81.69
621.501	96.69
621.708	99.69
621.915	87.69
622.122	86.69
622.329	93.69
622.536	90.69
622.743	97.69
622.95	85.69
623.157	86.69
623.364	89.69
623.571	83.69
623.778	93.69
623.985	97.69
624.192	95.69
624.399	95.69
624.606	91.69
624.812	75.69
625.019	88.69
625.226	78.69
625.433	91.69
625.639	90.69
625.846	99.69
626.053	96.69
626.259	89.69
626.466	82.69
626.673	87.69
626.879	101.69
627.086	95.69
627.293	95.69
627.499	85.69
627.706	90.69
627.912	83.69
628.119	100.69
628.325	90.69
628.532	86.69
628.738	86.69
628.945	94.69
629.151	105.69
629.357	94.69
629.564	86.69
629.77	111.69
629.976	107.69
630.183	96.69
630.389	91.69
630.595	93.69
630.802	96.69
631.008	93.69
631.214	69.69
631.42	92.69
631.627	91.69
631.833	102.69
632.039	81.69
632.245	91.69
632.451	92.69
632.657	82.69
632.863	94.69
633.069	100.69
633.275	95.69
633.481	79.69
633.688	91.69
633.893	102.69
634.099	79.69
634.305	88.69
634.511	90.69
634.717	102.69
634.923	82.69
635.129	81.69
635.335	81.69
635.541	94.69
635.747	96.69
635.952	76.69
636.158	92.69
636.364	94.69
636.57	88.69
636.775	89.69
636.981	85.69
637.187	90.69
637.392	99.69
637.598	93.69
637.804	82.69
638.009	96.69
638.215	93.69
638.421	75.69
638.626	79.69
638.832	82.69
639.037	89.69
639.243	91.69
639.448	94.69
639.654	73.69
639.859	78.69
640.065	87.69
640.27	98.69
640.475	86.69
640.681	78.69
640.886	83.69
641.091	91.69
641.297	96.69
641.502	91.69
641.707	89.69
641.913	76.69
642.118	104.69
642.323	98.69
642.528	79.69
642.733	88.69
642.939	87.69
643.144	88.69
643.349	78.69
643.554	88.69
643.759	86.69
643.964	92.69
644.169	81.69
644.374	93.69
644.579	94.69
644.784	91.69
644.989	96.69
645.194	101.69
645.399	100.69
645.604	97.69
645.809	89.69
646.014	93.69
646.219	98.69
646.423	83.69
646.628	83.69
646.833	77.69
647.038	76.69
647.243	97.69
647.447	86.69
647.652	80.69
647.857	92.69
648.062	102.69
648.266	93.69
648.471	84.69
648.676	100.69
648.88	82.69
649.085	90.69
649.289	73.69
649.494	95.69
649.698	96.69
649.903	88.69
650.107	85.69
650.312	101.69
650.516	75.69
650.721	88.69
650.925	90.69
651.13	83.69
651.334	88.69
651.539	92.69
651.743	85.69
651.947	84.69
652.152	89.69
652.356	75.69
652.56	91.69
652.764	87.69
652.969	98.69
653.173	102.69
653.377	82.69
653.581	76.69
653.785	86.69
653.99	101.69
654.194	81.69
654.398	79.69
654.602	94.69
654.806	86.69
655.01	69.69
655.214	83.69
655.418	98.69
655.622	89.69
655.826	91.69
656.03	92.69
656.234	69.69
656.438	72.69
656.642	88.69
656.846	90.69
657.049	75.69
657.253	86.69
657.457	97.69
657.661	96.69
657.865	96.69
658.068	81.69
658.272	66.69
658.476	77.69
658.68	84.69
658.883	91.69
659.087	92.69
659.291	94.69
659.494	91.69
659.698	96.69
659.901	75.69
660.105	94.69
660.309	90.69
660.512	72.69
660.716	80.69
660.919	85.69
661.123	78.69
661.326	96.69
661.53	82.69
661.733	77.69
661.936	76.69
662.14	66.69
662.343	86.69
662.546	91.69
662.75	75.69
662.953	60.69
663.156	80.69
663.36	54.69
663.563	97.69
663.766	91.69
663.969	80.69
664.173	76.69
664.376	75.69
664.579	75.69
664.782	80.69
664.985	72.69
665.188	82.69
665.391	90.69
665.594	80.69
665.797	85.69
666	83.69
666.203	89.69
666.406	87.69
666.609	87.69
666.812	84.69
667.015	91.69
667.218	79.69
667.421	78.69
667.624	76.69
667.827	77.69
668.03	72.69
668.232	76.69
668.435	75.69
668.638	88.69
668.841	68.69
669.043	81.69
669.246	78.69
669.449	89.69
669.651	94.69
669.854	91.69
670.057	72.69
670.259	84.69
670.462	72.69
670.665	80.69
670.867	68.69
671.07	91.69
671.272	79.69
671.475	84.69
671.677	78.69
671.88	87.69
672.082	82.69
672.284	96.69
672.487	89.69
672.689	76.69
672.892	84.69
