Data from Location4.07152019.Energy5.Lamp.07192019.3%Agarose_HRD10591_15-24-12-577.txt Node
Date: Fri Jul 19 15:24:12 EDT 2019
User: cochatt
Spectrometer: HR+D1059
Trigger mode: 1
Integration Time (sec): 1.000000E-1
Scans to average: 1
Electric dark correction enabled: true
Nonlinearity correction enabled: false
Boxcar width: 0
XAxis mode: Wavelengths
Number of Pixels in Spectrum: 2048
>>>>>Begin Spectral Data<<<<<
223.165	-14.25
223.4	-14.25
223.635	-14.25
223.869	-14.25
224.104	-24.25
224.338	-17.25
224.573	-6.25
224.808	-10.25
225.042	-3.25
225.277	-3.25
225.511	-2.25
225.746	-0.25
225.98	6.75
226.215	12.75
226.449	13.75
226.683	27.75
226.918	4.75
227.152	29.75
227.387	33.75
227.621	30.75
227.856	40.75
228.09	36.75
228.324	49.75
228.559	60.75
228.793	61.75
229.027	54.75
229.262	64.75
229.496	58.75
229.73	65.75
229.964	69.75
230.199	59.75
230.433	69.75
230.667	64.75
230.901	81.75
231.136	62.75
231.37	83.75
231.604	83.75
231.838	83.75
232.072	80.75
232.306	67.75
232.541	82.75
232.775	66.75
233.009	63.75
233.243	90.75
233.477	75.75
233.711	77.75
233.945	71.75
234.179	77.75
234.413	89.75
234.647	91.75
234.881	77.75
235.115	81.75
235.349	87.75
235.583	89.75
235.817	70.75
236.051	84.75
236.285	80.75
236.519	82.75
236.753	68.75
236.987	85.75
237.221	83.75
237.455	67.75
237.689	82.75
237.922	77.75
238.156	73.75
238.39	61.75
238.624	80.75
238.858	74.75
239.091	67.75
239.325	71.75
239.559	79.75
239.793	65.75
240.027	78.75
240.26	87.75
240.494	77.75
240.728	72.75
240.961	77.75
241.195	73.75
241.429	79.75
241.662	71.75
241.896	69.75
242.13	66.75
242.363	81.75
242.597	89.75
242.83	85.75
243.064	84.75
243.298	71.75
243.531	69.75
243.765	74.75
243.998	80.75
244.232	69.75
244.465	73.75
244.699	75.75
244.932	81.75
245.166	68.75
245.399	58.75
245.633	90.75
245.866	83.75
246.099	70.75
246.333	70.75
246.566	71.75
246.8	70.75
247.033	73.75
247.266	77.75
247.5	82.75
247.733	75.75
247.966	71.75
248.2	89.75
248.433	68.75
248.666	69.75
248.899	70.75
249.133	71.75
249.366	80.75
249.599	58.75
249.832	82.75
250.066	90.75
250.299	76.75
250.532	86.75
250.765	74.75
250.998	85.75
251.231	77.75
251.465	65.75
251.698	82.75
251.931	89.75
252.164	77.75
252.397	86.75
252.63	74.75
252.863	87.75
253.096	80.75
253.329	72.75
253.562	72.75
253.795	71.75
254.028	84.75
254.261	78.75
254.494	82.75
254.727	80.75
254.96	75.75
255.193	76.75
255.426	84.75
255.659	79.75
255.892	77.75
256.124	78.75
256.357	86.75
256.59	67.75
256.823	85.75
257.056	81.75
257.289	83.75
257.521	81.75
257.754	72.75
257.987	88.75
258.22	73.75
258.452	72.75
258.685	79.75
258.918	70.75
259.151	67.75
259.383	69.75
259.616	70.75
259.849	80.75
260.081	87.75
260.314	78.75
260.547	74.75
260.779	80.75
261.012	83.75
261.244	81.75
261.477	84.75
261.71	82.75
261.942	78.75
262.175	101.75
262.407	75.75
262.64	77.75
262.872	86.75
263.105	71.75
263.337	72.75
263.57	68.75
263.802	78.75
264.035	79.75
264.267	85.75
264.499	87.75
264.732	69.75
264.964	80.75
265.197	85.75
265.429	84.75
265.661	86.75
265.894	82.75
266.126	106.75
266.358	84.75
266.591	86.75
266.823	80.75
267.055	67.75
267.287	81.75
267.52	77.75
267.752	80.75
267.984	71.75
268.216	81.75
268.448	74.75
268.681	77.75
268.913	87.75
269.145	80.75
269.377	75.75
269.609	81.75
269.841	85.75
270.073	89.75
270.306	85.75
270.538	75.75
270.77	87.75
271.002	94.75
271.234	75.75
271.466	78.75
271.698	75.75
271.93	93.75
272.162	77.75
272.394	66.75
272.626	86.75
272.858	85.75
273.09	79.75
273.322	67.75
273.553	82.75
273.785	77.75
274.017	85.75
274.249	80.75
274.481	80.75
274.713	75.75
274.945	76.75
275.176	83.75
275.408	89.75
275.64	83.75
275.872	89.75
276.104	68.75
276.335	79.75
276.567	94.75
276.799	77.75
277.031	67.75
277.262	76.75
277.494	86.75
277.726	94.75
277.957	73.75
278.189	71.75
278.421	70.75
278.652	61.75
278.884	80.75
279.115	71.75
279.347	81.75
279.579	77.75
279.81	85.75
280.042	82.75
280.273	73.75
280.505	85.75
280.736	77.75
280.968	81.75
281.199	81.75
281.431	88.75
281.662	102.75
281.894	88.75
282.125	62.75
282.356	83.75
282.588	72.75
282.819	69.75
283.051	91.75
283.282	95.75
283.513	86.75
283.745	89.75
283.976	90.75
284.207	88.75
284.439	82.75
284.67	77.75
284.901	78.75
285.132	68.75
285.364	65.75
285.595	80.75
285.826	80.75
286.057	82.75
286.288	92.75
286.52	96.75
286.751	66.75
286.982	72.75
287.213	85.75
287.444	78.75
287.675	90.75
287.906	85.75
288.138	90.75
288.369	87.75
288.6	75.75
288.831	89.75
289.062	91.75
289.293	83.75
289.524	95.75
289.755	76.75
289.986	72.75
290.217	72.75
290.448	96.75
290.679	62.75
290.91	81.75
291.141	69.75
291.371	84.75
291.602	81.75
291.833	85.75
292.064	87.75
292.295	83.75
292.526	74.75
292.757	91.75
292.987	81.75
293.218	78.75
293.449	67.75
293.68	61.75
293.91	85.75
294.141	71.75
294.372	81.75
294.603	72.75
294.833	85.75
295.064	85.75
295.295	98.75
295.525	82.75
295.756	87.75
295.987	95.75
296.217	80.75
296.448	74.75
296.679	82.75
296.909	86.75
297.14	81.75
297.37	83.75
297.601	76.75
297.831	87.75
298.062	83.75
298.292	87.75
298.523	83.75
298.753	79.75
298.984	78.75
299.214	92.75
299.445	85.75
299.675	98.75
299.905	94.75
300.136	82.75
300.366	97.75
300.597	73.75
300.827	75.75
301.057	66.75
301.288	73.75
301.518	96.75
301.748	86.75
301.979	80.75
302.209	88.75
302.439	77.75
302.669	77.75
302.9	87.75
303.13	84.75
303.36	94.75
303.59	87.75
303.82	81.75
304.051	92.75
304.281	89.75
304.511	72.75
304.741	74.75
304.971	72.75
305.201	90.75
305.431	85.75
305.661	72.75
305.891	88.75
306.121	98.75
306.352	80.75
306.582	82.75
306.812	78.75
307.042	76.75
307.272	86.75
307.502	89.75
307.731	71.75
307.961	82.75
308.191	73.75
308.421	94.75
308.651	92.75
308.881	76.75
309.111	78.75
309.341	77.75
309.571	77.75
309.8	88.75
310.03	72.75
310.26	86.75
310.49	76.75
310.72	102.75
310.949	69.75
311.179	84.75
311.409	88.75
311.639	96.75
311.868	89.75
312.098	60.75
312.328	69.75
312.557	79.75
312.787	64.75
313.017	87.75
313.246	82.75
313.476	87.75
313.706	70.75
313.935	86.75
314.165	84.75
314.394	90.75
314.624	78.75
314.853	74.75
315.083	75.75
315.312	91.75
315.542	95.75
315.771	93.75
316.001	88.75
316.23	87.75
316.46	78.75
316.689	91.75
316.919	79.75
317.148	87.75
317.377	74.75
317.607	78.75
317.836	85.75
318.065	83.75
318.295	86.75
318.524	76.75
318.753	88.75
318.983	85.75
319.212	92.75
319.441	75.75
319.67	84.75
319.9	98.75
320.129	85.75
320.358	68.75
320.587	82.75
320.816	80.75
321.046	87.75
321.275	87.75
321.504	62.75
321.733	74.75
321.962	86.75
322.191	98.75
322.42	82.75
322.649	87.75
322.878	88.75
323.108	81.75
323.337	83.75
323.566	85.75
323.795	93.75
324.024	83.75
324.253	85.75
324.482	84.75
324.71	74.75
324.939	82.75
325.168	91.75
325.397	72.75
325.626	89.75
325.855	85.75
326.084	95.75
326.313	81.75
326.542	76.75
326.77	73.75
326.999	84.75
327.228	88.75
327.457	71.75
327.686	75.75
327.914	96.75
328.143	90.75
328.372	81.75
328.6	86.75
328.829	94.75
329.058	77.75
329.287	81.75
329.515	68.75
329.744	85.75
329.972	82.75
330.201	86.75
330.43	67.75
330.658	89.75
330.887	85.75
331.115	78.75
331.344	81.75
331.572	70.75
331.801	79.75
332.03	81.75
332.258	72.75
332.486	79.75
332.715	72.75
332.943	76.75
333.172	84.75
333.4	94.75
333.629	72.75
333.857	74.75
334.085	93.75
334.314	86.75
334.542	95.75
334.771	84.75
334.999	83.75
335.227	74.75
335.455	80.75
335.684	82.75
335.912	82.75
336.14	90.75
336.369	80.75
336.597	80.75
336.825	85.75
337.053	83.75
337.281	83.75
337.51	94.75
337.738	106.75
337.966	74.75
338.194	78.75
338.422	84.75
338.65	76.75
338.878	85.75
339.106	87.75
339.334	82.75
339.562	77.75
339.79	74.75
340.018	74.75
340.246	82.75
340.474	69.75
340.702	88.75
340.93	89.75
341.158	73.75
341.386	72.75
341.614	81.75
341.842	81.75
342.07	85.75
342.298	93.75
342.526	85.75
342.754	72.75
342.981	79.75
343.209	85.75
343.437	86.75
343.665	87.75
343.893	94.75
344.12	73.75
344.348	91.75
344.576	81.75
344.804	84.75
345.031	91.75
345.259	87.75
345.487	90.75
345.714	77.75
345.942	91.75
346.17	76.75
346.397	78.75
346.625	83.75
346.853	88.75
347.08	80.75
347.308	89.75
347.535	88.75
347.763	77.75
347.99	84.75
348.218	81.75
348.445	70.75
348.673	77.75
348.9	84.75
349.128	74.75
349.355	89.75
349.583	86.75
349.81	82.75
350.037	78.75
350.265	75.75
350.492	95.75
350.72	82.75
350.947	86.75
351.174	84.75
351.402	75.75
351.629	90.75
351.856	73.75
352.083	79.75
352.311	97.75
352.538	83.75
352.765	77.75
352.992	75.75
353.22	89.75
353.447	85.75
353.674	102.75
353.901	95.75
354.128	79.75
354.355	80.75
354.583	84.75
354.81	79.75
355.037	81.75
355.264	75.75
355.491	69.75
355.718	86.75
355.945	81.75
356.172	75.75
356.399	77.75
356.626	76.75
356.853	69.75
357.08	89.75
357.307	88.75
357.534	87.75
357.761	93.75
357.988	90.75
358.215	89.75
358.441	70.75
358.668	70.75
358.895	72.75
359.122	87.75
359.349	73.75
359.576	78.75
359.802	67.75
360.029	69.75
360.256	88.75
360.483	82.75
360.709	79.75
360.936	90.75
361.163	86.75
361.39	73.75
361.616	89.75
361.843	80.75
362.07	85.75
362.296	81.75
362.523	76.75
362.749	86.75
362.976	61.75
363.203	90.75
363.429	95.75
363.656	82.75
363.882	80.75
364.109	89.75
364.335	93.75
364.562	85.75
364.788	70.75
365.015	71.75
365.241	86.75
365.468	80.75
365.694	84.75
365.92	86.75
366.147	76.75
366.373	68.75
366.599	84.75
366.826	79.75
367.052	79.75
367.278	76.75
367.505	74.75
367.731	87.75
367.957	89.75
368.184	83.75
368.41	86.75
368.636	81.75
368.862	82.75
369.089	68.75
369.315	91.75
369.541	87.75
369.767	87.75
369.993	86.75
370.219	81.75
370.445	69.75
370.672	79.75
370.898	88.75
371.124	79.75
371.35	73.75
371.576	92.75
371.802	86.75
372.028	90.75
372.254	93.75
372.48	77.75
372.706	81.75
372.932	83.75
373.158	81.75
373.384	81.75
373.61	99.75
373.835	88.75
374.061	80.75
374.287	75.75
374.513	79.75
374.739	87.75
374.965	83.75
375.191	78.75
375.416	84.75
375.642	76.75
375.868	95.75
376.094	79.75
376.319	83.75
376.545	82.75
376.771	84.75
376.997	83.75
377.222	94.75
377.448	90.75
377.674	86.75
377.899	76.75
378.125	84.75
378.35	88.75
378.576	74.75
378.802	92.75
379.027	82.75
379.253	84.75
379.478	86.75
379.704	75.75
379.929	77.75
380.155	78.75
380.38	89.75
380.606	79.75
380.831	92.75
381.057	96.75
381.282	81.75
381.507	87.75
381.733	84.75
381.958	74.75
382.184	93.75
382.409	70.75
382.634	72.75
382.86	76.75
383.085	88.75
383.31	79.75
383.535	77.75
383.761	86.75
383.986	92.75
384.211	78.75
384.436	92.75
384.662	93.75
384.887	82.75
385.112	85.75
385.337	85.75
385.562	78.75
385.787	76.75
386.013	86.75
386.238	91.75
386.463	78.75
386.688	85.75
386.913	80.75
387.138	78.75
387.363	89.75
387.588	79.75
387.813	77.75
388.038	83.75
388.263	82.75
388.488	83.75
388.713	73.75
388.938	83.75
389.163	89.75
389.387	91.75
389.612	87.75
389.837	78.75
390.062	94.75
390.287	90.75
390.512	89.75
390.736	75.75
390.961	81.75
391.186	87.75
391.411	83.75
391.636	97.75
391.86	87.75
392.085	89.75
392.31	89.75
392.534	90.75
392.759	91.75
392.984	78.75
393.208	78.75
393.433	86.75
393.658	89.75
393.882	91.75
394.107	94.75
394.331	78.75
394.556	82.75
394.78	90.75
395.005	69.75
395.229	71.75
395.454	88.75
395.678	92.75
395.903	94.75
396.127	69.75
396.352	80.75
396.576	85.75
396.801	93.75
397.025	86.75
397.249	85.75
397.474	96.75
397.698	97.75
397.922	87.75
398.147	86.75
398.371	76.75
398.595	87.75
398.82	79.75
399.044	77.75
399.268	80.75
399.492	75.75
399.717	87.75
399.941	90.75
400.165	99.75
400.389	86.75
400.613	94.75
400.837	87.75
401.062	75.75
401.286	83.75
401.51	93.75
401.734	82.75
401.958	87.75
402.182	74.75
402.406	94.75
402.63	85.75
402.854	100.75
403.078	93.75
403.302	75.75
403.526	101.75
403.75	107.75
403.974	89.75
404.198	86.75
404.422	94.75
404.645	83.75
404.869	80.75
405.093	69.75
405.317	93.75
405.541	76.75
405.765	79.75
405.988	85.75
406.212	83.75
406.436	85.75
406.66	83.75
406.883	83.75
407.107	83.75
407.331	91.75
407.555	106.75
407.778	92.75
408.002	87.75
408.226	95.75
408.449	88.75
408.673	88.75
408.896	104.75
409.12	88.75
409.344	75.75
409.567	78.75
409.791	109.75
410.014	90.75
410.238	89.75
410.461	95.75
410.685	97.75
410.908	97.75
411.132	91.75
411.355	83.75
411.578	72.75
411.802	86.75
412.025	96.75
412.249	100.75
412.472	72.75
412.695	78.75
412.919	83.75
413.142	89.75
413.365	91.75
413.589	84.75
413.812	93.75
414.035	80.75
414.258	98.75
414.482	79.75
414.705	93.75
414.928	80.75
415.151	75.75
415.374	94.75
415.597	82.75
415.821	101.75
416.044	96.75
416.267	94.75
416.49	78.75
416.713	84.75
416.936	71.75
417.159	87.75
417.382	75.75
417.605	87.75
417.828	98.75
418.051	96.75
418.274	102.75
418.497	94.75
418.72	91.75
418.943	94.75
419.166	89.75
419.389	85.75
419.611	91.75
419.834	96.75
420.057	82.75
420.28	84.75
420.503	90.75
420.726	86.75
420.948	90.75
421.171	97.75
421.394	98.75
421.617	75.75
421.839	84.75
422.062	81.75
422.285	89.75
422.507	101.75
422.73	89.75
422.953	82.75
423.175	101.75
423.398	97.75
423.621	89.75
423.843	94.75
424.066	94.75
424.288	84.75
424.511	97.75
424.733	85.75
424.956	89.75
425.178	92.75
425.401	96.75
425.623	93.75
425.846	93.75
426.068	93.75
426.291	89.75
426.513	83.75
426.735	93.75
426.958	91.75
427.18	98.75
427.402	91.75
427.625	94.75
427.847	79.75
428.069	74.75
428.292	98.75
428.514	83.75
428.736	85.75
428.958	89.75
429.181	102.75
429.403	82.75
429.625	87.75
429.847	91.75
430.069	83.75
430.292	91.75
430.514	93.75
430.736	79.75
430.958	107.75
431.18	99.75
431.402	95.75
431.624	102.75
431.846	88.75
432.068	89.75
432.29	95.75
432.512	89.75
432.734	75.75
432.956	78.75
433.178	92.75
433.4	94.75
433.622	97.75
433.844	87.75
434.066	83.75
434.287	97.75
434.509	75.75
434.731	84.75
434.953	91.75
435.175	86.75
435.397	82.75
435.618	81.75
435.84	86.75
436.062	89.75
436.284	79.75
436.505	96.75
436.727	105.75
436.949	89.75
437.17	103.75
437.392	78.75
437.614	88.75
437.835	79.75
438.057	87.75
438.278	86.75
438.5	99.75
438.721	92.75
438.943	85.75
439.165	78.75
439.386	100.75
439.608	95.75
439.829	99.75
440.05	94.75
440.272	97.75
440.493	103.75
440.715	99.75
440.936	86.75
441.158	88.75
441.379	89.75
441.6	105.75
441.822	93.75
442.043	88.75
442.264	97.75
442.486	95.75
442.707	94.75
442.928	98.75
443.149	95.75
443.371	112.75
443.592	99.75
443.813	93.75
444.034	100.75
444.255	90.75
444.476	97.75
444.698	87.75
444.919	91.75
445.14	174.75
445.361	135.75
445.582	111.75
445.803	109.75
446.024	101.75
446.245	94.75
446.466	106.75
446.687	101.75
446.908	103.75
447.129	94.75
447.35	97.75
447.571	110.75
447.792	89.75
448.013	102.75
448.234	98.75
448.455	98.75
448.675	96.75
448.896	88.75
449.117	100.75
449.338	97.75
449.559	97.75
449.779	86.75
450	96.75
450.221	80.75
450.442	93.75
450.662	87.75
450.883	102.75
451.104	93.75
451.324	99.75
451.545	93.75
451.766	102.75
451.986	97.75
452.207	74.75
452.428	97.75
452.648	83.75
452.869	90.75
453.089	96.75
453.31	91.75
453.53	89.75
453.751	101.75
453.971	83.75
454.192	87.75
454.412	113.75
454.633	93.75
454.853	81.75
455.073	81.75
455.294	83.75
455.514	102.75
455.734	85.75
455.955	81.75
456.175	81.75
456.395	79.75
456.616	89.75
456.836	88.75
457.056	92.75
457.276	86.75
457.497	84.75
457.717	73.75
457.937	92.75
458.157	88.75
458.377	94.75
458.598	77.75
458.818	83.75
459.038	74.75
459.258	76.75
459.478	78.75
459.698	76.75
459.918	98.75
460.138	88.75
460.358	95.75
460.578	88.75
460.798	67.75
461.018	72.75
461.238	96.75
461.458	88.75
461.678	96.75
461.898	74.75
462.118	99.75
462.338	84.75
462.558	95.75
462.777	85.75
462.997	100.75
463.217	85.75
463.437	93.75
463.657	79.75
463.876	86.75
464.096	92.75
464.316	95.75
464.536	105.75
464.755	85.75
464.975	86.75
465.195	102.75
465.414	86.75
465.634	84.75
465.854	82.75
466.073	92.75
466.293	93.75
466.512	96.75
466.732	85.75
466.951	97.75
467.171	101.75
467.391	82.75
467.61	96.75
467.829	91.75
468.049	87.75
468.268	90.75
468.488	83.75
468.707	94.75
468.927	90.75
469.146	98.75
469.365	98.75
469.585	83.75
469.804	100.75
470.023	97.75
470.243	96.75
470.462	100.75
470.681	99.75
470.901	82.75
471.12	84.75
471.339	93.75
471.558	90.75
471.777	100.75
471.997	95.75
472.216	89.75
472.435	92.75
472.654	92.75
472.873	81.75
473.092	109.75
473.311	93.75
473.53	83.75
473.749	92.75
473.968	81.75
474.187	87.75
474.406	90.75
474.625	85.75
474.844	95.75
475.063	90.75
475.282	87.75
475.501	92.75
475.72	88.75
475.939	86.75
476.158	81.75
476.377	91.75
476.596	94.75
476.814	82.75
477.033	77.75
477.252	83.75
477.471	80.75
477.69	100.75
477.908	99.75
478.127	95.75
478.346	92.75
478.564	85.75
478.783	92.75
479.002	109.75
479.22	107.75
479.439	96.75
479.658	86.75
479.876	81.75
480.095	93.75
480.313	107.75
480.532	89.75
480.751	94.75
480.969	79.75
481.188	84.75
481.406	80.75
481.624	89.75
481.843	99.75
482.061	86.75
482.28	101.75
482.498	98.75
482.717	79.75
482.935	89.75
483.153	92.75
483.372	102.75
483.59	106.75
483.808	95.75
484.027	97.75
484.245	94.75
484.463	98.75
484.681	93.75
484.9	100.75
485.118	99.75
485.336	80.75
485.554	97.75
485.772	95.75
485.99	86.75
486.209	75.75
486.427	87.75
486.645	87.75
486.863	98.75
487.081	98.75
487.299	93.75
487.517	109.75
487.735	114.75
487.953	111.75
488.171	113.75
488.389	109.75
488.607	87.75
488.825	100.75
489.043	107.75
489.261	102.75
489.479	88.75
489.696	97.75
489.914	93.75
490.132	95.75
490.35	103.75
490.568	99.75
490.786	101.75
491.003	102.75
491.221	103.75
491.439	111.75
491.657	125.75
491.874	127.75
492.092	133.75
492.31	120.75
492.527	122.75
492.745	116.75
492.963	105.75
493.18	109.75
493.398	112.75
493.615	109.75
493.833	104.75
494.05	92.75
494.268	109.75
494.485	94.75
494.703	120.75
494.92	113.75
495.138	117.75
495.355	118.75
495.573	113.75
495.79	96.75
496.008	111.75
496.225	117.75
496.442	109.75
496.66	111.75
496.877	97.75
497.094	102.75
497.312	106.75
497.529	110.75
497.746	96.75
497.963	94.75
498.181	100.75
498.398	82.75
498.615	103.75
498.832	101.75
499.049	87.75
499.267	95.75
499.484	84.75
499.701	93.75
499.918	106.75
500.135	102.75
500.352	93.75
500.569	95.75
500.786	113.75
501.003	107.75
501.22	93.75
501.437	97.75
501.654	93.75
501.871	101.75
502.088	88.75
502.305	93.75
502.522	86.75
502.739	92.75
502.956	79.75
503.172	84.75
503.389	94.75
503.606	89.75
503.823	102.75
504.04	97.75
504.256	90.75
504.473	95.75
504.69	89.75
504.907	106.75
505.123	86.75
505.34	102.75
505.557	88.75
505.773	82.75
505.99	101.75
506.207	90.75
506.423	87.75
506.64	82.75
506.856	95.75
507.073	99.75
507.289	102.75
507.506	103.75
507.722	106.75
507.939	92.75
508.155	87.75
508.372	87.75
508.588	90.75
508.805	77.75
509.021	82.75
509.238	86.75
509.454	79.75
509.67	89.75
509.887	93.75
510.103	91.75
510.319	94.75
510.536	99.75
510.752	86.75
510.968	93.75
511.184	86.75
511.401	85.75
511.617	76.75
511.833	82.75
512.049	84.75
512.265	93.75
512.481	85.75
512.698	75.75
512.914	99.75
513.13	90.75
513.346	77.75
513.562	83.75
513.778	74.75
513.994	82.75
514.21	86.75
514.426	83.75
514.642	72.75
514.858	89.75
515.074	73.75
515.29	88.75
515.506	96.75
515.721	93.75
515.937	82.75
516.153	88.75
516.369	89.75
516.585	78.75
516.801	79.75
517.016	81.75
517.232	104.75
517.448	93.75
517.664	82.75
517.879	73.75
518.095	88.75
518.311	89.75
518.527	79.75
518.742	84.75
518.958	95.75
519.173	85.75
519.389	94.75
519.605	90.75
519.82	83.75
520.036	91.75
520.251	99.75
520.467	85.75
520.682	101.75
520.898	85.75
521.113	77.75
521.329	86.75
521.544	91.75
521.76	77.75
521.975	79.75
522.19	89.75
522.406	96.75
522.621	103.75
522.836	98.75
523.052	86.75
523.267	85.75
523.482	82.75
523.698	103.75
523.913	79.75
524.128	83.75
524.343	103.75
524.559	87.75
524.774	86.75
524.989	80.75
525.204	85.75
525.419	97.75
525.634	97.75
525.849	91.75
526.064	90.75
526.28	75.75
526.495	81.75
526.71	84.75
526.925	85.75
527.14	71.75
527.355	72.75
527.57	86.75
527.785	93.75
527.999	83.75
528.214	83.75
528.429	99.75
528.644	89.75
528.859	83.75
529.074	99.75
529.289	114.75
529.503	127.75
529.718	102.75
529.933	91.75
530.148	86.75
530.363	85.75
530.577	80.75
530.792	108.75
531.007	79.75
531.221	94.75
531.436	82.75
531.651	93.75
531.865	92.75
532.08	84.75
532.295	81.75
532.509	79.75
532.724	77.75
532.938	67.75
533.153	95.75
533.367	88.75
533.582	90.75
533.796	89.75
534.011	90.75
534.225	73.75
534.44	88.75
534.654	78.75
534.868	84.75
535.083	98.75
535.297	76.75
535.511	84.75
535.726	96.75
535.94	66.75
536.154	78.75
536.369	94.75
536.583	82.75
536.797	87.75
537.011	81.75
537.225	97.75
537.44	82.75
537.654	82.75
537.868	101.75
538.082	78.75
538.296	86.75
538.51	74.75
538.724	84.75
538.938	91.75
539.153	99.75
539.367	86.75
539.581	87.75
539.795	90.75
540.009	83.75
540.222	86.75
540.436	101.75
540.65	96.75
540.864	92.75
541.078	97.75
541.292	96.75
541.506	103.75
541.72	108.75
541.934	113.75
542.147	123.75
542.361	114.75
542.575	101.75
542.789	98.75
543.002	98.75
543.216	103.75
543.43	94.75
543.644	93.75
543.857	113.75
544.071	111.75
544.285	115.75
544.498	89.75
544.712	102.75
544.925	100.75
545.139	107.75
545.352	108.75
545.566	96.75
545.779	93.75
545.993	103.75
546.206	112.75
546.42	119.75
546.633	106.75
546.847	110.75
547.06	113.75
547.274	114.75
547.487	110.75
547.7	109.75
547.914	105.75
548.127	113.75
548.34	89.75
548.554	110.75
548.767	110.75
548.98	102.75
549.193	113.75
549.407	97.75
549.62	104.75
549.833	103.75
550.046	126.75
550.259	101.75
550.473	97.75
550.686	108.75
550.899	103.75
551.112	98.75
551.325	104.75
551.538	109.75
551.751	82.75
551.964	77.75
552.177	91.75
552.39	104.75
552.603	111.75
552.816	95.75
553.029	94.75
553.242	89.75
553.455	106.75
553.667	113.75
553.88	99.75
554.093	91.75
554.306	86.75
554.519	110.75
554.732	99.75
554.944	99.75
555.157	88.75
555.37	97.75
555.583	99.75
555.795	99.75
556.008	93.75
556.221	93.75
556.433	100.75
556.646	90.75
556.859	91.75
557.071	105.75
557.284	95.75
557.496	99.75
557.709	84.75
557.921	99.75
558.134	100.75
558.346	96.75
558.559	104.75
558.771	96.75
558.984	95.75
559.196	98.75
559.409	103.75
559.621	93.75
559.833	87.75
560.046	101.75
560.258	101.75
560.47	100.75
560.683	84.75
560.895	88.75
561.107	84.75
561.32	99.75
561.532	103.75
561.744	99.75
561.956	98.75
562.168	100.75
562.381	114.75
562.593	102.75
562.805	90.75
563.017	97.75
563.229	88.75
563.441	83.75
563.653	99.75
563.865	89.75
564.077	87.75
564.289	88.75
564.501	85.75
564.713	91.75
564.925	91.75
565.137	84.75
565.349	101.75
565.561	100.75
565.773	90.75
565.985	77.75
566.197	96.75
566.408	90.75
566.62	93.75
566.832	86.75
567.044	97.75
567.255	94.75
567.467	87.75
567.679	85.75
567.891	96.75
568.102	78.75
568.314	86.75
568.526	89.75
568.737	85.75
568.949	89.75
569.161	94.75
569.372	94.75
569.584	90.75
569.795	86.75
570.007	82.75
570.218	83.75
570.43	70.75
570.641	81.75
570.853	99.75
571.064	101.75
571.276	76.75
571.487	77.75
571.698	98.75
571.91	95.75
572.121	101.75
572.333	87.75
572.544	74.75
572.755	90.75
572.966	96.75
573.178	77.75
573.389	93.75
573.6	88.75
573.811	88.75
574.023	82.75
574.234	77.75
574.445	88.75
574.656	101.75
574.867	94.75
575.078	86.75
575.289	79.75
575.501	82.75
575.712	85.75
575.923	75.75
576.134	89.75
576.345	100.75
576.556	94.75
576.767	90.75
576.978	81.75
577.188	94.75
577.399	88.75
577.61	89.75
577.821	93.75
578.032	89.75
578.243	79.75
578.454	90.75
578.665	86.75
578.875	84.75
579.086	81.75
579.297	80.75
579.508	83.75
579.718	97.75
579.929	71.75
580.14	87.75
580.35	94.75
580.561	87.75
580.772	85.75
580.982	79.75
581.193	87.75
581.403	83.75
581.614	99.75
581.825	83.75
582.035	99.75
582.246	76.75
582.456	88.75
582.667	82.75
582.877	97.75
583.087	85.75
583.298	79.75
583.508	78.75
583.719	81.75
583.929	82.75
584.139	85.75
584.35	75.75
584.56	84.75
584.77	90.75
584.981	78.75
585.191	79.75
585.401	86.75
585.611	100.75
585.821	89.75
586.032	82.75
586.242	94.75
586.452	76.75
586.662	80.75
586.872	87.75
587.082	85.75
587.292	96.75
587.502	86.75
587.713	77.75
587.923	81.75
588.133	93.75
588.343	72.75
588.553	76.75
588.762	79.75
588.972	74.75
589.182	85.75
589.392	73.75
589.602	105.75
589.812	87.75
590.022	87.75
590.232	77.75
590.441	81.75
590.651	73.75
590.861	97.75
591.071	79.75
591.281	83.75
591.49	80.75
591.7	87.75
591.91	84.75
592.119	85.75
592.329	90.75
592.539	90.75
592.748	91.75
592.958	85.75
593.167	77.75
593.377	103.75
593.587	93.75
593.796	87.75
594.006	87.75
594.215	80.75
594.424	66.75
594.634	74.75
594.843	87.75
595.053	93.75
595.262	96.75
595.472	83.75
595.681	77.75
595.89	80.75
596.1	81.75
596.309	87.75
596.518	96.75
596.727	94.75
596.937	82.75
597.146	83.75
597.355	81.75
597.564	96.75
597.774	96.75
597.983	71.75
598.192	90.75
598.401	78.75
598.61	80.75
598.819	88.75
599.028	86.75
599.237	75.75
599.446	94.75
599.655	100.75
599.864	79.75
600.073	79.75
600.282	90.75
600.491	80.75
600.7	78.75
600.909	83.75
601.118	85.75
601.327	79.75
601.536	90.75
601.745	86.75
601.953	87.75
602.162	91.75
602.371	80.75
602.58	83.75
602.789	83.75
602.997	81.75
603.206	85.75
603.415	86.75
603.623	90.75
603.832	91.75
604.041	74.75
604.249	99.75
604.458	89.75
604.666	76.75
604.875	82.75
605.084	93.75
605.292	85.75
605.501	89.75
605.709	98.75
605.918	89.75
606.126	103.75
606.334	92.75
606.543	78.75
606.751	101.75
606.96	85.75
607.168	89.75
607.376	98.75
607.585	97.75
607.793	88.75
608.001	100.75
608.21	94.75
608.418	91.75
608.626	93.75
608.834	95.75
609.043	71.75
609.251	88.75
609.459	96.75
609.667	87.75
609.875	90.75
610.083	98.75
610.291	101.75
610.499	97.75
610.707	106.75
610.916	102.75
611.124	82.75
611.332	101.75
611.54	106.75
611.748	88.75
611.955	90.75
612.163	97.75
612.371	96.75
612.579	94.75
612.787	77.75
612.995	97.75
613.203	95.75
613.411	102.75
613.618	87.75
613.826	95.75
614.034	102.75
614.242	93.75
614.449	97.75
614.657	89.75
614.865	96.75
615.072	88.75
615.28	79.75
615.488	78.75
615.695	94.75
615.903	85.75
616.111	98.75
616.318	80.75
616.526	91.75
616.733	94.75
616.941	86.75
617.148	78.75
617.356	80.75
617.563	82.75
617.771	86.75
617.978	95.75
618.185	81.75
618.393	97.75
618.6	89.75
618.807	91.75
619.015	89.75
619.222	90.75
619.429	86.75
619.637	89.75
619.844	101.75
620.051	87.75
620.258	87.75
620.466	86.75
620.673	86.75
620.88	101.75
621.087	90.75
621.294	94.75
621.501	88.75
621.708	102.75
621.915	86.75
622.122	65.75
622.329	78.75
622.536	98.75
622.743	86.75
622.95	88.75
623.157	73.75
623.364	75.75
623.571	97.75
623.778	91.75
623.985	93.75
624.192	94.75
624.399	86.75
624.606	90.75
624.812	79.75
625.019	86.75
625.226	89.75
625.433	97.75
625.639	95.75
625.846	93.75
626.053	81.75
626.259	89.75
626.466	81.75
626.673	78.75
626.879	90.75
627.086	91.75
627.293	81.75
627.499	83.75
627.706	85.75
627.912	82.75
628.119	87.75
628.325	99.75
628.532	83.75
628.738	79.75
628.945	95.75
629.151	93.75
629.357	82.75
629.564	82.75
629.77	98.75
629.976	82.75
630.183	85.75
630.389	87.75
630.595	94.75
630.802	79.75
631.008	80.75
631.214	77.75
631.42	87.75
631.627	97.75
631.833	81.75
632.039	94.75
632.245	94.75
632.451	86.75
632.657	93.75
632.863	78.75
633.069	71.75
633.275	81.75
633.481	93.75
633.688	98.75
633.893	90.75
634.099	88.75
634.305	91.75
634.511	93.75
634.717	89.75
634.923	84.75
635.129	91.75
635.335	87.75
635.541	102.75
635.747	81.75
635.952	86.75
636.158	77.75
636.364	76.75
636.57	88.75
636.775	90.75
636.981	96.75
637.187	79.75
637.392	70.75
637.598	91.75
637.804	88.75
638.009	86.75
638.215	99.75
638.421	96.75
638.626	79.75
638.832	84.75
639.037	84.75
639.243	87.75
639.448	86.75
639.654	80.75
639.859	87.75
640.065	69.75
640.27	89.75
640.475	84.75
640.681	89.75
640.886	92.75
641.091	86.75
641.297	84.75
641.502	83.75
641.707	85.75
641.913	100.75
642.118	89.75
642.323	95.75
642.528	82.75
642.733	85.75
642.939	102.75
643.144	81.75
643.349	76.75
643.554	100.75
643.759	80.75
643.964	83.75
644.169	77.75
644.374	89.75
644.579	82.75
644.784	89.75
644.989	87.75
645.194	95.75
645.399	92.75
645.604	75.75
645.809	89.75
646.014	86.75
646.219	101.75
646.423	76.75
646.628	79.75
646.833	85.75
647.038	78.75
647.243	100.75
647.447	68.75
647.652	80.75
647.857	90.75
648.062	97.75
648.266	78.75
648.471	75.75
648.676	81.75
648.88	80.75
649.085	78.75
649.289	73.75
649.494	84.75
649.698	96.75
649.903	90.75
650.107	74.75
650.312	89.75
650.516	85.75
650.721	78.75
650.925	73.75
651.13	104.75
651.334	94.75
651.539	88.75
651.743	93.75
651.947	75.75
652.152	90.75
652.356	85.75
652.56	92.75
652.764	86.75
652.969	82.75
653.173	86.75
653.377	93.75
653.581	70.75
653.785	83.75
653.99	79.75
654.194	83.75
654.398	88.75
654.602	77.75
654.806	81.75
655.01	87.75
655.214	93.75
655.418	86.75
655.622	79.75
655.826	78.75
656.03	87.75
656.234	92.75
656.438	88.75
656.642	89.75
656.846	87.75
657.049	85.75
657.253	72.75
657.457	74.75
657.661	85.75
657.865	86.75
658.068	93.75
658.272	85.75
658.476	73.75
658.68	81.75
658.883	83.75
659.087	90.75
659.291	109.75
659.494	81.75
659.698	87.75
659.901	91.75
660.105	88.75
660.309	75.75
660.512	80.75
660.716	81.75
660.919	79.75
661.123	91.75
661.326	75.75
661.53	79.75
661.733	85.75
661.936	82.75
662.14	89.75
662.343	74.75
662.546	90.75
662.75	80.75
662.953	79.75
663.156	76.75
663.36	75.75
663.563	81.75
663.766	72.75
663.969	84.75
664.173	76.75
664.376	73.75
664.579	65.75
664.782	81.75
664.985	76.75
665.188	78.75
665.391	71.75
665.594	93.75
665.797	90.75
666	84.75
666.203	86.75
666.406	74.75
666.609	85.75
666.812	65.75
667.015	88.75
667.218	82.75
667.421	79.75
667.624	88.75
667.827	89.75
668.03	78.75
668.232	79.75
668.435	77.75
668.638	80.75
668.841	75.75
669.043	69.75
669.246	77.75
669.449	79.75
669.651	75.75
669.854	83.75
670.057	87.75
670.259	70.75
670.462	75.75
670.665	83.75
670.867	69.75
671.07	87.75
671.272	81.75
671.475	81.75
671.677	82.75
671.88	72.75
672.082	90.75
672.284	86.75
672.487	65.75
672.689	79.75
672.892	80.75
