Data from Location4.07152019.Energy5.Lamp.07192019.3%Agarose_HRD10591_15-23-47-576.txt Node
Date: Fri Jul 19 15:23:47 EDT 2019
User: cochatt
Spectrometer: HR+D1059
Trigger mode: 1
Integration Time (sec): 1.000000E-1
Scans to average: 1
Electric dark correction enabled: true
Nonlinearity correction enabled: false
Boxcar width: 0
XAxis mode: Wavelengths
Number of Pixels in Spectrum: 2048
>>>>>Begin Spectral Data<<<<<
223.165	-3.62
223.4	-3.62
223.635	-3.62
223.869	-23.62
224.104	-20.62
224.338	-8.62
224.573	-12.62
224.808	-19.62
225.042	-16.62
225.277	-3.62
225.511	3.38
225.746	5.38
225.98	-0.62
226.215	19.38
226.449	10.38
226.683	28.38
226.918	20.38
227.152	22.38
227.387	19.38
227.621	23.38
227.856	33.38
228.09	45.38
228.324	39.38
228.559	57.38
228.793	63.38
229.027	56.38
229.262	61.38
229.496	48.38
229.73	64.38
229.964	77.38
230.199	61.38
230.433	73.38
230.667	75.38
230.901	75.38
231.136	78.38
231.37	67.38
231.604	82.38
231.838	81.38
232.072	73.38
232.306	79.38
232.541	75.38
232.775	61.38
233.009	81.38
233.243	64.38
233.477	87.38
233.711	85.38
233.945	62.38
234.179	88.38
234.413	89.38
234.647	75.38
234.881	77.38
235.115	70.38
235.349	84.38
235.583	81.38
235.817	77.38
236.051	72.38
236.285	71.38
236.519	58.38
236.753	77.38
236.987	80.38
237.221	75.38
237.455	57.38
237.689	83.38
237.922	59.38
238.156	74.38
238.39	81.38
238.624	70.38
238.858	69.38
239.091	65.38
239.325	74.38
239.559	72.38
239.793	79.38
240.027	79.38
240.26	83.38
240.494	67.38
240.728	69.38
240.961	64.38
241.195	68.38
241.429	84.38
241.662	67.38
241.896	80.38
242.13	69.38
242.363	80.38
242.597	79.38
242.83	69.38
243.064	87.38
243.298	72.38
243.531	77.38
243.765	79.38
243.998	75.38
244.232	78.38
244.465	82.38
244.699	67.38
244.932	72.38
245.166	71.38
245.399	75.38
245.633	90.38
245.866	61.38
246.099	84.38
246.333	80.38
246.566	79.38
246.8	64.38
247.033	86.38
247.266	77.38
247.5	86.38
247.733	84.38
247.966	71.38
248.2	75.38
248.433	65.38
248.666	79.38
248.899	72.38
249.133	72.38
249.366	73.38
249.599	73.38
249.832	75.38
250.066	76.38
250.299	75.38
250.532	92.38
250.765	79.38
250.998	74.38
251.231	66.38
251.465	83.38
251.698	73.38
251.931	73.38
252.164	96.38
252.397	83.38
252.63	75.38
252.863	75.38
253.096	62.38
253.329	79.38
253.562	64.38
253.795	70.38
254.028	69.38
254.261	84.38
254.494	78.38
254.727	80.38
254.96	87.38
255.193	67.38
255.426	69.38
255.659	88.38
255.892	75.38
256.124	90.38
256.357	74.38
256.59	79.38
256.823	73.38
257.056	67.38
257.289	68.38
257.521	76.38
257.754	70.38
257.987	73.38
258.22	64.38
258.452	64.38
258.685	74.38
258.918	79.38
259.151	67.38
259.383	75.38
259.616	92.38
259.849	80.38
260.081	80.38
260.314	82.38
260.547	70.38
260.779	70.38
261.012	92.38
261.244	82.38
261.477	84.38
261.71	89.38
261.942	73.38
262.175	85.38
262.407	85.38
262.64	89.38
262.872	76.38
263.105	71.38
263.337	80.38
263.57	83.38
263.802	75.38
264.035	80.38
264.267	72.38
264.499	83.38
264.732	72.38
264.964	72.38
265.197	86.38
265.429	75.38
265.661	74.38
265.894	70.38
266.126	71.38
266.358	79.38
266.591	88.38
266.823	85.38
267.055	84.38
267.287	53.38
267.52	76.38
267.752	70.38
267.984	89.38
268.216	75.38
268.448	63.38
268.681	78.38
268.913	83.38
269.145	96.38
269.377	82.38
269.609	79.38
269.841	72.38
270.073	78.38
270.306	73.38
270.538	77.38
270.77	77.38
271.002	82.38
271.234	80.38
271.466	81.38
271.698	78.38
271.93	82.38
272.162	81.38
272.394	78.38
272.626	66.38
272.858	87.38
273.09	74.38
273.322	95.38
273.553	80.38
273.785	83.38
274.017	64.38
274.249	71.38
274.481	78.38
274.713	76.38
274.945	91.38
275.176	71.38
275.408	81.38
275.64	81.38
275.872	83.38
276.104	77.38
276.335	83.38
276.567	78.38
276.799	74.38
277.031	73.38
277.262	77.38
277.494	81.38
277.726	93.38
277.957	65.38
278.189	85.38
278.421	73.38
278.652	80.38
278.884	74.38
279.115	76.38
279.347	68.38
279.579	77.38
279.81	76.38
280.042	74.38
280.273	76.38
280.505	76.38
280.736	77.38
280.968	77.38
281.199	87.38
281.431	79.38
281.662	80.38
281.894	71.38
282.125	65.38
282.356	88.38
282.588	84.38
282.819	80.38
283.051	88.38
283.282	87.38
283.513	96.38
283.745	83.38
283.976	77.38
284.207	87.38
284.439	83.38
284.67	97.38
284.901	87.38
285.132	91.38
285.364	80.38
285.595	78.38
285.826	76.38
286.057	77.38
286.288	82.38
286.52	81.38
286.751	81.38
286.982	82.38
287.213	81.38
287.444	85.38
287.675	88.38
287.906	82.38
288.138	87.38
288.369	93.38
288.6	79.38
288.831	88.38
289.062	86.38
289.293	81.38
289.524	100.38
289.755	80.38
289.986	78.38
290.217	81.38
290.448	80.38
290.679	85.38
290.91	88.38
291.141	70.38
291.371	77.38
291.602	84.38
291.833	80.38
292.064	83.38
292.295	81.38
292.526	72.38
292.757	67.38
292.987	81.38
293.218	78.38
293.449	78.38
293.68	83.38
293.91	76.38
294.141	77.38
294.372	79.38
294.603	80.38
294.833	84.38
295.064	84.38
295.295	77.38
295.525	81.38
295.756	75.38
295.987	83.38
296.217	94.38
296.448	87.38
296.679	84.38
296.909	73.38
297.14	80.38
297.37	71.38
297.601	62.38
297.831	96.38
298.062	86.38
298.292	73.38
298.523	85.38
298.753	93.38
298.984	79.38
299.214	89.38
299.445	89.38
299.675	80.38
299.905	92.38
300.136	81.38
300.366	86.38
300.597	86.38
300.827	83.38
301.057	82.38
301.288	93.38
301.518	90.38
301.748	81.38
301.979	88.38
302.209	78.38
302.439	72.38
302.669	87.38
302.9	84.38
303.13	77.38
303.36	85.38
303.59	86.38
303.82	78.38
304.051	83.38
304.281	74.38
304.511	87.38
304.741	84.38
304.971	83.38
305.201	80.38
305.431	97.38
305.661	83.38
305.891	76.38
306.121	82.38
306.352	74.38
306.582	73.38
306.812	95.38
307.042	81.38
307.272	71.38
307.502	85.38
307.731	94.38
307.961	91.38
308.191	77.38
308.421	82.38
308.651	80.38
308.881	85.38
309.111	80.38
309.341	86.38
309.571	82.38
309.8	79.38
310.03	70.38
310.26	79.38
310.49	87.38
310.72	88.38
310.949	93.38
311.179	91.38
311.409	64.38
311.639	88.38
311.868	77.38
312.098	85.38
312.328	101.38
312.557	84.38
312.787	75.38
313.017	80.38
313.246	76.38
313.476	91.38
313.706	74.38
313.935	79.38
314.165	91.38
314.394	69.38
314.624	87.38
314.853	90.38
315.083	73.38
315.312	79.38
315.542	80.38
315.771	83.38
316.001	80.38
316.23	90.38
316.46	77.38
316.689	77.38
316.919	82.38
317.148	77.38
317.377	81.38
317.607	83.38
317.836	77.38
318.065	71.38
318.295	92.38
318.524	81.38
318.753	98.38
318.983	80.38
319.212	69.38
319.441	75.38
319.67	71.38
319.9	86.38
320.129	83.38
320.358	77.38
320.587	82.38
320.816	78.38
321.046	73.38
321.275	79.38
321.504	80.38
321.733	82.38
321.962	73.38
322.191	88.38
322.42	88.38
322.649	84.38
322.878	74.38
323.108	79.38
323.337	89.38
323.566	80.38
323.795	83.38
324.024	75.38
324.253	73.38
324.482	67.38
324.71	74.38
324.939	81.38
325.168	76.38
325.397	80.38
325.626	86.38
325.855	85.38
326.084	77.38
326.313	69.38
326.542	69.38
326.77	75.38
326.999	85.38
327.228	89.38
327.457	94.38
327.686	88.38
327.914	81.38
328.143	88.38
328.372	87.38
328.6	80.38
328.829	84.38
329.058	68.38
329.287	73.38
329.515	88.38
329.744	79.38
329.972	83.38
330.201	88.38
330.43	80.38
330.658	88.38
330.887	74.38
331.115	83.38
331.344	72.38
331.572	100.38
331.801	78.38
332.03	80.38
332.258	83.38
332.486	89.38
332.715	80.38
332.943	88.38
333.172	63.38
333.4	91.38
333.629	75.38
333.857	85.38
334.085	83.38
334.314	77.38
334.542	88.38
334.771	81.38
334.999	88.38
335.227	84.38
335.455	79.38
335.684	81.38
335.912	91.38
336.14	77.38
336.369	82.38
336.597	81.38
336.825	86.38
337.053	87.38
337.281	80.38
337.51	76.38
337.738	88.38
337.966	73.38
338.194	76.38
338.422	88.38
338.65	88.38
338.878	79.38
339.106	65.38
339.334	90.38
339.562	80.38
339.79	67.38
340.018	64.38
340.246	75.38
340.474	84.38
340.702	82.38
340.93	84.38
341.158	78.38
341.386	79.38
341.614	80.38
341.842	67.38
342.07	69.38
342.298	83.38
342.526	70.38
342.754	84.38
342.981	85.38
343.209	81.38
343.437	77.38
343.665	86.38
343.893	80.38
344.12	92.38
344.348	75.38
344.576	74.38
344.804	79.38
345.031	85.38
345.259	80.38
345.487	84.38
345.714	82.38
345.942	84.38
346.17	98.38
346.397	88.38
346.625	78.38
346.853	75.38
347.08	86.38
347.308	88.38
347.535	76.38
347.763	79.38
347.99	83.38
348.218	74.38
348.445	78.38
348.673	83.38
348.9	72.38
349.128	74.38
349.355	86.38
349.583	80.38
349.81	68.38
350.037	91.38
350.265	71.38
350.492	76.38
350.72	85.38
350.947	77.38
351.174	84.38
351.402	79.38
351.629	75.38
351.856	84.38
352.083	84.38
352.311	80.38
352.538	84.38
352.765	87.38
352.992	83.38
353.22	90.38
353.447	75.38
353.674	74.38
353.901	91.38
354.128	78.38
354.355	86.38
354.583	81.38
354.81	75.38
355.037	80.38
355.264	85.38
355.491	79.38
355.718	54.38
355.945	81.38
356.172	89.38
356.399	85.38
356.626	83.38
356.853	84.38
357.08	74.38
357.307	79.38
357.534	78.38
357.761	85.38
357.988	81.38
358.215	69.38
358.441	79.38
358.668	81.38
358.895	73.38
359.122	82.38
359.349	91.38
359.576	87.38
359.802	80.38
360.029	72.38
360.256	82.38
360.483	83.38
360.709	68.38
360.936	69.38
361.163	82.38
361.39	74.38
361.616	77.38
361.843	95.38
362.07	84.38
362.296	67.38
362.523	94.38
362.749	90.38
362.976	80.38
363.203	80.38
363.429	87.38
363.656	88.38
363.882	80.38
364.109	83.38
364.335	77.38
364.562	82.38
364.788	72.38
365.015	80.38
365.241	79.38
365.468	73.38
365.694	83.38
365.92	84.38
366.147	81.38
366.373	78.38
366.599	81.38
366.826	76.38
367.052	94.38
367.278	78.38
367.505	83.38
367.731	85.38
367.957	84.38
368.184	90.38
368.41	82.38
368.636	72.38
368.862	70.38
369.089	88.38
369.315	75.38
369.541	85.38
369.767	86.38
369.993	79.38
370.219	80.38
370.445	79.38
370.672	92.38
370.898	71.38
371.124	90.38
371.35	79.38
371.576	85.38
371.802	84.38
372.028	91.38
372.254	71.38
372.48	69.38
372.706	71.38
372.932	71.38
373.158	88.38
373.384	82.38
373.61	99.38
373.835	80.38
374.061	83.38
374.287	86.38
374.513	89.38
374.739	88.38
374.965	94.38
375.191	67.38
375.416	104.38
375.642	97.38
375.868	74.38
376.094	90.38
376.319	78.38
376.545	83.38
376.771	81.38
376.997	93.38
377.222	85.38
377.448	88.38
377.674	79.38
377.899	90.38
378.125	87.38
378.35	87.38
378.576	71.38
378.802	95.38
379.027	85.38
379.253	84.38
379.478	87.38
379.704	91.38
379.929	88.38
380.155	86.38
380.38	82.38
380.606	90.38
380.831	83.38
381.057	88.38
381.282	63.38
381.507	79.38
381.733	86.38
381.958	96.38
382.184	68.38
382.409	81.38
382.634	78.38
382.86	98.38
383.085	89.38
383.31	96.38
383.535	87.38
383.761	87.38
383.986	81.38
384.211	69.38
384.436	69.38
384.662	89.38
384.887	76.38
385.112	79.38
385.337	82.38
385.562	88.38
385.787	94.38
386.013	80.38
386.238	77.38
386.463	86.38
386.688	78.38
386.913	76.38
387.138	89.38
387.363	82.38
387.588	83.38
387.813	80.38
388.038	74.38
388.263	67.38
388.488	89.38
388.713	91.38
388.938	99.38
389.163	86.38
389.387	81.38
389.612	85.38
389.837	83.38
390.062	71.38
390.287	73.38
390.512	97.38
390.736	72.38
390.961	78.38
391.186	80.38
391.411	86.38
391.636	90.38
391.86	72.38
392.085	77.38
392.31	100.38
392.534	76.38
392.759	76.38
392.984	83.38
393.208	77.38
393.433	85.38
393.658	90.38
393.882	75.38
394.107	93.38
394.331	80.38
394.556	75.38
394.78	66.38
395.005	91.38
395.229	93.38
395.454	92.38
395.678	83.38
395.903	98.38
396.127	85.38
396.352	82.38
396.576	96.38
396.801	82.38
397.025	85.38
397.249	74.38
397.474	88.38
397.698	84.38
397.922	86.38
398.147	86.38
398.371	79.38
398.595	96.38
398.82	84.38
399.044	75.38
399.268	85.38
399.492	85.38
399.717	71.38
399.941	66.38
400.165	80.38
400.389	69.38
400.613	83.38
400.837	83.38
401.062	88.38
401.286	78.38
401.51	88.38
401.734	73.38
401.958	90.38
402.182	84.38
402.406	85.38
402.63	86.38
402.854	82.38
403.078	96.38
403.302	84.38
403.526	91.38
403.75	61.38
403.974	84.38
404.198	86.38
404.422	86.38
404.645	85.38
404.869	91.38
405.093	87.38
405.317	85.38
405.541	89.38
405.765	94.38
405.988	83.38
406.212	91.38
406.436	72.38
406.66	99.38
406.883	91.38
407.107	82.38
407.331	94.38
407.555	90.38
407.778	87.38
408.002	93.38
408.226	96.38
408.449	98.38
408.673	75.38
408.896	92.38
409.12	81.38
409.344	88.38
409.567	93.38
409.791	91.38
410.014	87.38
410.238	87.38
410.461	86.38
410.685	93.38
410.908	76.38
411.132	85.38
411.355	87.38
411.578	92.38
411.802	79.38
412.025	91.38
412.249	98.38
412.472	86.38
412.695	80.38
412.919	85.38
413.142	96.38
413.365	87.38
413.589	87.38
413.812	81.38
414.035	93.38
414.258	92.38
414.482	84.38
414.705	96.38
414.928	77.38
415.151	89.38
415.374	84.38
415.597	76.38
415.821	89.38
416.044	74.38
416.267	81.38
416.49	79.38
416.713	92.38
416.936	89.38
417.159	84.38
417.382	95.38
417.605	96.38
417.828	99.38
418.051	104.38
418.274	97.38
418.497	94.38
418.72	93.38
418.943	86.38
419.166	73.38
419.389	91.38
419.611	86.38
419.834	83.38
420.057	86.38
420.28	85.38
420.503	91.38
420.726	112.38
420.948	88.38
421.171	88.38
421.394	89.38
421.617	84.38
421.839	88.38
422.062	101.38
422.285	98.38
422.507	96.38
422.73	89.38
422.953	84.38
423.175	91.38
423.398	89.38
423.621	99.38
423.843	83.38
424.066	80.38
424.288	93.38
424.511	91.38
424.733	95.38
424.956	107.38
425.178	98.38
425.401	81.38
425.623	84.38
425.846	85.38
426.068	86.38
426.291	80.38
426.513	84.38
426.735	102.38
426.958	85.38
427.18	91.38
427.402	89.38
427.625	77.38
427.847	99.38
428.069	92.38
428.292	95.38
428.514	76.38
428.736	99.38
428.958	95.38
429.181	95.38
429.403	92.38
429.625	93.38
429.847	91.38
430.069	92.38
430.292	91.38
430.514	73.38
430.736	81.38
430.958	92.38
431.18	83.38
431.402	77.38
431.624	92.38
431.846	84.38
432.068	80.38
432.29	76.38
432.512	91.38
432.734	86.38
432.956	87.38
433.178	83.38
433.4	95.38
433.622	92.38
433.844	88.38
434.066	94.38
434.287	82.38
434.509	65.38
434.731	92.38
434.953	87.38
435.175	89.38
435.397	89.38
435.618	89.38
435.84	88.38
436.062	79.38
436.284	94.38
436.505	88.38
436.727	104.38
436.949	92.38
437.17	82.38
437.392	86.38
437.614	89.38
437.835	85.38
438.057	84.38
438.278	78.38
438.5	91.38
438.721	100.38
438.943	89.38
439.165	93.38
439.386	93.38
439.608	93.38
439.829	96.38
440.05	90.38
440.272	99.38
440.493	108.38
440.715	98.38
440.936	86.38
441.158	104.38
441.379	92.38
441.6	99.38
441.822	98.38
442.043	72.38
442.264	91.38
442.486	107.38
442.707	98.38
442.928	90.38
443.149	80.38
443.371	93.38
443.592	110.38
443.813	101.38
444.034	96.38
444.255	96.38
444.476	91.38
444.698	84.38
444.919	102.38
445.14	176.38
445.361	147.38
445.582	89.38
445.803	80.38
446.024	93.38
446.245	101.38
446.466	95.38
446.687	99.38
446.908	102.38
447.129	87.38
447.35	89.38
447.571	107.38
447.792	99.38
448.013	98.38
448.234	88.38
448.455	94.38
448.675	104.38
448.896	93.38
449.117	91.38
449.338	92.38
449.559	94.38
449.779	98.38
450	91.38
450.221	95.38
450.442	98.38
450.662	89.38
450.883	81.38
451.104	91.38
451.324	99.38
451.545	111.38
451.766	78.38
451.986	95.38
452.207	91.38
452.428	97.38
452.648	97.38
452.869	85.38
453.089	89.38
453.31	88.38
453.53	85.38
453.751	81.38
453.971	80.38
454.192	74.38
454.412	82.38
454.633	85.38
454.853	81.38
455.073	96.38
455.294	88.38
455.514	88.38
455.734	99.38
455.955	78.38
456.175	85.38
456.395	88.38
456.616	100.38
456.836	89.38
457.056	89.38
457.276	82.38
457.497	82.38
457.717	98.38
457.937	87.38
458.157	82.38
458.377	79.38
458.598	84.38
458.818	73.38
459.038	70.38
459.258	76.38
459.478	83.38
459.698	78.38
459.918	78.38
460.138	78.38
460.358	84.38
460.578	92.38
460.798	94.38
461.018	94.38
461.238	84.38
461.458	81.38
461.678	83.38
461.898	88.38
462.118	83.38
462.338	81.38
462.558	96.38
462.777	81.38
462.997	66.38
463.217	77.38
463.437	96.38
463.657	90.38
463.876	79.38
464.096	85.38
464.316	94.38
464.536	97.38
464.755	94.38
464.975	93.38
465.195	89.38
465.414	92.38
465.634	98.38
465.854	100.38
466.073	101.38
466.293	87.38
466.512	96.38
466.732	86.38
466.951	86.38
467.171	88.38
467.391	98.38
467.61	91.38
467.829	94.38
468.049	99.38
468.268	102.38
468.488	84.38
468.707	108.38
468.927	92.38
469.146	100.38
469.365	101.38
469.585	96.38
469.804	99.38
470.023	83.38
470.243	92.38
470.462	96.38
470.681	102.38
470.901	99.38
471.12	107.38
471.339	104.38
471.558	89.38
471.777	80.38
471.997	101.38
472.216	95.38
472.435	73.38
472.654	80.38
472.873	101.38
473.092	115.38
473.311	97.38
473.53	98.38
473.749	86.38
473.968	83.38
474.187	93.38
474.406	110.38
474.625	101.38
474.844	90.38
475.063	90.38
475.282	91.38
475.501	91.38
475.72	96.38
475.939	91.38
476.158	91.38
476.377	97.38
476.596	94.38
476.814	87.38
477.033	90.38
477.252	78.38
477.471	95.38
477.69	93.38
477.908	94.38
478.127	104.38
478.346	97.38
478.564	90.38
478.783	110.38
479.002	88.38
479.22	87.38
479.439	94.38
479.658	79.38
479.876	90.38
480.095	77.38
480.313	98.38
480.532	98.38
480.751	79.38
480.969	81.38
481.188	76.38
481.406	81.38
481.624	73.38
481.843	86.38
482.061	89.38
482.28	80.38
482.498	79.38
482.717	82.38
482.935	100.38
483.153	99.38
483.372	94.38
483.59	97.38
483.808	88.38
484.027	96.38
484.245	91.38
484.463	92.38
484.681	112.38
484.9	90.38
485.118	98.38
485.336	99.38
485.554	90.38
485.772	89.38
485.99	78.38
486.209	77.38
486.427	87.38
486.645	72.38
486.863	93.38
487.081	95.38
487.299	72.38
487.517	100.38
487.735	108.38
487.953	113.38
488.171	103.38
488.389	98.38
488.607	88.38
488.825	100.38
489.043	87.38
489.261	95.38
489.479	102.38
489.696	90.38
489.914	86.38
490.132	84.38
490.35	94.38
490.568	102.38
490.786	108.38
491.003	96.38
491.221	100.38
491.439	111.38
491.657	113.38
491.874	116.38
492.092	109.38
492.31	117.38
492.527	120.38
492.745	113.38
492.963	118.38
493.18	112.38
493.398	109.38
493.615	117.38
493.833	103.38
494.05	118.38
494.268	105.38
494.485	93.38
494.703	99.38
494.92	115.38
495.138	92.38
495.355	94.38
495.573	106.38
495.79	114.38
496.008	110.38
496.225	95.38
496.442	100.38
496.66	109.38
496.877	99.38
497.094	75.38
497.312	96.38
497.529	79.38
497.746	96.38
497.963	103.38
498.181	101.38
498.398	87.38
498.615	90.38
498.832	90.38
499.049	89.38
499.267	81.38
499.484	97.38
499.701	99.38
499.918	99.38
500.135	94.38
500.352	85.38
500.569	108.38
500.786	88.38
501.003	101.38
501.22	100.38
501.437	96.38
501.654	96.38
501.871	79.38
502.088	91.38
502.305	91.38
502.522	98.38
502.739	75.38
502.956	103.38
503.172	93.38
503.389	85.38
503.606	85.38
503.823	93.38
504.04	99.38
504.256	87.38
504.473	86.38
504.69	100.38
504.907	76.38
505.123	88.38
505.34	88.38
505.557	99.38
505.773	89.38
505.99	80.38
506.207	97.38
506.423	92.38
506.64	88.38
506.856	84.38
507.073	100.38
507.289	80.38
507.506	84.38
507.722	89.38
507.939	83.38
508.155	107.38
508.372	103.38
508.588	79.38
508.805	91.38
509.021	87.38
509.238	88.38
509.454	78.38
509.67	88.38
509.887	82.38
510.103	79.38
510.319	72.38
510.536	74.38
510.752	78.38
510.968	73.38
511.184	62.38
511.401	93.38
511.617	91.38
511.833	88.38
512.049	88.38
512.265	71.38
512.481	81.38
512.698	79.38
512.914	76.38
513.13	85.38
513.346	79.38
513.562	68.38
513.778	73.38
513.994	92.38
514.21	92.38
514.426	78.38
514.642	95.38
514.858	90.38
515.074	82.38
515.29	78.38
515.506	88.38
515.721	97.38
515.937	101.38
516.153	77.38
516.369	87.38
516.585	92.38
516.801	72.38
517.016	79.38
517.232	80.38
517.448	78.38
517.664	77.38
517.879	82.38
518.095	63.38
518.311	80.38
518.527	78.38
518.742	69.38
518.958	93.38
519.173	89.38
519.389	94.38
519.605	80.38
519.82	85.38
520.036	94.38
520.251	98.38
520.467	86.38
520.682	79.38
520.898	95.38
521.113	81.38
521.329	93.38
521.544	93.38
521.76	85.38
521.975	92.38
522.19	91.38
522.406	84.38
522.621	93.38
522.836	77.38
523.052	89.38
523.267	85.38
523.482	81.38
523.698	84.38
523.913	94.38
524.128	93.38
524.343	87.38
524.559	94.38
524.774	101.38
524.989	95.38
525.204	97.38
525.419	107.38
525.634	96.38
525.849	77.38
526.064	87.38
526.28	89.38
526.495	82.38
526.71	85.38
526.925	79.38
527.14	72.38
527.355	86.38
527.57	74.38
527.785	87.38
527.999	78.38
528.214	94.38
528.429	99.38
528.644	101.38
528.859	100.38
529.074	106.38
529.289	109.38
529.503	111.38
529.718	108.38
529.933	81.38
530.148	91.38
530.363	80.38
530.577	83.38
530.792	89.38
531.007	83.38
531.221	84.38
531.436	81.38
531.651	68.38
531.865	79.38
532.08	72.38
532.295	76.38
532.509	73.38
532.724	77.38
532.938	77.38
533.153	90.38
533.367	87.38
533.582	112.38
533.796	97.38
534.011	96.38
534.225	94.38
534.44	96.38
534.654	84.38
534.868	88.38
535.083	85.38
535.297	81.38
535.511	109.38
535.726	93.38
535.94	79.38
536.154	88.38
536.369	91.38
536.583	63.38
536.797	79.38
537.011	86.38
537.225	82.38
537.44	87.38
537.654	77.38
537.868	89.38
538.082	82.38
538.296	85.38
538.51	90.38
538.724	91.38
538.938	79.38
539.153	79.38
539.367	91.38
539.581	93.38
539.795	99.38
540.009	96.38
540.222	87.38
540.436	88.38
540.65	92.38
540.864	94.38
541.078	88.38
541.292	89.38
541.506	98.38
541.72	100.38
541.934	109.38
542.147	111.38
542.361	94.38
542.575	101.38
542.789	103.38
543.002	98.38
543.216	90.38
543.43	96.38
543.644	92.38
543.857	97.38
544.071	104.38
544.285	95.38
544.498	114.38
544.712	108.38
544.925	104.38
545.139	115.38
545.352	104.38
545.566	105.38
545.779	123.38
545.993	97.38
546.206	102.38
546.42	94.38
546.633	115.38
546.847	104.38
547.06	107.38
547.274	114.38
547.487	99.38
547.7	116.38
547.914	113.38
548.127	108.38
548.34	108.38
548.554	103.38
548.767	113.38
548.98	117.38
549.193	108.38
549.407	121.38
549.62	117.38
549.833	92.38
550.046	107.38
550.259	115.38
550.473	108.38
550.686	94.38
550.899	97.38
551.112	107.38
551.325	104.38
551.538	87.38
551.751	90.38
551.964	92.38
552.177	92.38
552.39	110.38
552.603	89.38
552.816	92.38
553.029	87.38
553.242	109.38
553.455	116.38
553.667	98.38
553.88	103.38
554.093	100.38
554.306	101.38
554.519	111.38
554.732	99.38
554.944	104.38
555.157	111.38
555.37	85.38
555.583	92.38
555.795	98.38
556.008	100.38
556.221	98.38
556.433	94.38
556.646	92.38
556.859	87.38
557.071	99.38
557.284	85.38
557.496	99.38
557.709	96.38
557.921	92.38
558.134	88.38
558.346	99.38
558.559	95.38
558.771	92.38
558.984	102.38
559.196	103.38
559.409	99.38
559.621	97.38
559.833	75.38
560.046	89.38
560.258	99.38
560.47	95.38
560.683	98.38
560.895	79.38
561.107	99.38
561.32	84.38
561.532	103.38
561.744	97.38
561.956	89.38
562.168	101.38
562.381	99.38
562.593	90.38
562.805	84.38
563.017	94.38
563.229	103.38
563.441	92.38
563.653	101.38
563.865	94.38
564.077	80.38
564.289	91.38
564.501	97.38
564.713	87.38
564.925	92.38
565.137	99.38
565.349	86.38
565.561	96.38
565.773	85.38
565.985	96.38
566.197	72.38
566.408	78.38
566.62	80.38
566.832	84.38
567.044	91.38
567.255	93.38
567.467	91.38
567.679	90.38
567.891	92.38
568.102	97.38
568.314	86.38
568.526	79.38
568.737	88.38
568.949	75.38
569.161	82.38
569.372	87.38
569.584	87.38
569.795	79.38
570.007	81.38
570.218	73.38
570.43	88.38
570.641	82.38
570.853	80.38
571.064	98.38
571.276	82.38
571.487	87.38
571.698	82.38
571.91	86.38
572.121	87.38
572.333	92.38
572.544	81.38
572.755	83.38
572.966	83.38
573.178	83.38
573.389	84.38
573.6	88.38
573.811	60.38
574.023	72.38
574.234	62.38
574.445	81.38
574.656	90.38
574.867	76.38
575.078	85.38
575.289	84.38
575.501	78.38
575.712	80.38
575.923	83.38
576.134	77.38
576.345	66.38
576.556	84.38
576.767	92.38
576.978	97.38
577.188	78.38
577.399	85.38
577.61	84.38
577.821	84.38
578.032	91.38
578.243	87.38
578.454	86.38
578.665	71.38
578.875	75.38
579.086	83.38
579.297	89.38
579.508	95.38
579.718	90.38
579.929	76.38
580.14	95.38
580.35	77.38
580.561	82.38
580.772	87.38
580.982	85.38
581.193	93.38
581.403	92.38
581.614	88.38
581.825	93.38
582.035	75.38
582.246	80.38
582.456	83.38
582.667	81.38
582.877	86.38
583.087	91.38
583.298	91.38
583.508	68.38
583.719	87.38
583.929	91.38
584.139	81.38
584.35	82.38
584.56	76.38
584.77	82.38
584.981	76.38
585.191	87.38
585.401	83.38
585.611	83.38
585.821	84.38
586.032	83.38
586.242	71.38
586.452	83.38
586.662	76.38
586.872	87.38
587.082	76.38
587.292	79.38
587.502	91.38
587.713	78.38
587.923	93.38
588.133	89.38
588.343	84.38
588.553	86.38
588.762	90.38
588.972	81.38
589.182	96.38
589.392	87.38
589.602	84.38
589.812	71.38
590.022	83.38
590.232	83.38
590.441	97.38
590.651	82.38
590.861	83.38
591.071	85.38
591.281	95.38
591.49	87.38
591.7	89.38
591.91	77.38
592.119	88.38
592.329	84.38
592.539	92.38
592.748	78.38
592.958	86.38
593.167	81.38
593.377	76.38
593.587	75.38
593.796	86.38
594.006	89.38
594.215	84.38
594.424	73.38
594.634	99.38
594.843	95.38
595.053	83.38
595.262	80.38
595.472	74.38
595.681	70.38
595.89	91.38
596.1	72.38
596.309	87.38
596.518	83.38
596.727	80.38
596.937	78.38
597.146	81.38
597.355	82.38
597.564	84.38
597.774	96.38
597.983	71.38
598.192	81.38
598.401	82.38
598.61	82.38
598.819	78.38
599.028	89.38
599.237	83.38
599.446	83.38
599.655	73.38
599.864	79.38
600.073	84.38
600.282	80.38
600.491	87.38
600.7	78.38
600.909	88.38
601.118	93.38
601.327	75.38
601.536	82.38
601.745	87.38
601.953	91.38
602.162	82.38
602.371	86.38
602.58	84.38
602.789	104.38
602.997	87.38
603.206	86.38
603.415	89.38
603.623	90.38
603.832	87.38
604.041	82.38
604.249	75.38
604.458	79.38
604.666	78.38
604.875	92.38
605.084	89.38
605.292	77.38
605.501	82.38
605.709	93.38
605.918	89.38
606.126	98.38
606.334	97.38
606.543	94.38
606.751	99.38
606.96	93.38
607.168	87.38
607.376	77.38
607.585	83.38
607.793	86.38
608.001	83.38
608.21	99.38
608.418	84.38
608.626	94.38
608.834	85.38
609.043	91.38
609.251	89.38
609.459	92.38
609.667	92.38
609.875	82.38
610.083	108.38
610.291	90.38
610.499	98.38
610.707	84.38
610.916	100.38
611.124	98.38
611.332	106.38
611.54	85.38
611.748	91.38
611.955	85.38
612.163	95.38
612.371	88.38
612.579	100.38
612.787	103.38
612.995	89.38
613.203	96.38
613.411	84.38
613.618	85.38
613.826	89.38
614.034	90.38
614.242	86.38
614.449	95.38
614.657	84.38
614.865	81.38
615.072	107.38
615.28	93.38
615.488	74.38
615.695	85.38
615.903	82.38
616.111	82.38
616.318	89.38
616.526	98.38
616.733	101.38
616.941	104.38
617.148	91.38
617.356	97.38
617.563	83.38
617.771	96.38
617.978	91.38
618.185	86.38
618.393	88.38
618.6	81.38
618.807	101.38
619.015	90.38
619.222	95.38
619.429	107.38
619.637	77.38
619.844	78.38
620.051	85.38
620.258	76.38
620.466	99.38
620.673	84.38
620.88	73.38
621.087	97.38
621.294	84.38
621.501	88.38
621.708	81.38
621.915	76.38
622.122	92.38
622.329	77.38
622.536	94.38
622.743	96.38
622.95	98.38
623.157	83.38
623.364	88.38
623.571	73.38
623.778	89.38
623.985	78.38
624.192	100.38
624.399	77.38
624.606	102.38
624.812	78.38
625.019	87.38
625.226	92.38
625.433	70.38
625.639	88.38
625.846	70.38
626.053	83.38
626.259	84.38
626.466	88.38
626.673	71.38
626.879	85.38
627.086	87.38
627.293	96.38
627.499	84.38
627.706	84.38
627.912	94.38
628.119	103.38
628.325	89.38
628.532	84.38
628.738	101.38
628.945	82.38
629.151	98.38
629.357	89.38
629.564	81.38
629.77	90.38
629.976	91.38
630.183	73.38
630.389	96.38
630.595	88.38
630.802	95.38
631.008	101.38
631.214	85.38
631.42	83.38
631.627	108.38
631.833	97.38
632.039	77.38
632.245	95.38
632.451	91.38
632.657	87.38
632.863	76.38
633.069	95.38
633.275	78.38
633.481	72.38
633.688	76.38
633.893	113.38
634.099	100.38
634.305	76.38
634.511	95.38
634.717	88.38
634.923	77.38
635.129	81.38
635.335	84.38
635.541	72.38
635.747	87.38
635.952	89.38
636.158	87.38
636.364	83.38
636.57	93.38
636.775	93.38
636.981	99.38
637.187	80.38
637.392	88.38
637.598	94.38
637.804	86.38
638.009	92.38
638.215	94.38
638.421	88.38
638.626	83.38
638.832	81.38
639.037	84.38
639.243	88.38
639.448	101.38
639.654	93.38
639.859	81.38
640.065	84.38
640.27	89.38
640.475	83.38
640.681	81.38
640.886	92.38
641.091	79.38
641.297	97.38
641.502	83.38
641.707	88.38
641.913	84.38
642.118	70.38
642.323	79.38
642.528	87.38
642.733	82.38
642.939	83.38
643.144	90.38
643.349	79.38
643.554	88.38
643.759	86.38
643.964	86.38
644.169	89.38
644.374	83.38
644.579	85.38
644.784	77.38
644.989	95.38
645.194	82.38
645.399	80.38
645.604	85.38
645.809	80.38
646.014	95.38
646.219	73.38
646.423	69.38
646.628	84.38
646.833	86.38
647.038	89.38
647.243	92.38
647.447	80.38
647.652	88.38
647.857	82.38
648.062	83.38
648.266	83.38
648.471	84.38
648.676	76.38
648.88	81.38
649.085	69.38
649.289	80.38
649.494	68.38
649.698	78.38
649.903	77.38
650.107	79.38
650.312	87.38
650.516	80.38
650.721	91.38
650.925	88.38
651.13	83.38
651.334	79.38
651.539	77.38
651.743	89.38
651.947	85.38
652.152	72.38
652.356	90.38
652.56	80.38
652.764	95.38
652.969	80.38
653.173	90.38
653.377	72.38
653.581	77.38
653.785	78.38
653.99	64.38
654.194	83.38
654.398	89.38
654.602	80.38
654.806	79.38
655.01	76.38
655.214	91.38
655.418	99.38
655.622	89.38
655.826	69.38
656.03	70.38
656.234	62.38
656.438	82.38
656.642	81.38
656.846	75.38
657.049	68.38
657.253	78.38
657.457	90.38
657.661	76.38
657.865	86.38
658.068	83.38
658.272	84.38
658.476	73.38
658.68	81.38
658.883	71.38
659.087	76.38
659.291	69.38
659.494	81.38
659.698	73.38
659.901	83.38
660.105	71.38
660.309	84.38
660.512	73.38
660.716	78.38
660.919	70.38
661.123	74.38
661.326	76.38
661.53	87.38
661.733	87.38
661.936	83.38
662.14	77.38
662.343	79.38
662.546	69.38
662.75	92.38
662.953	76.38
663.156	80.38
663.36	85.38
663.563	74.38
663.766	72.38
663.969	84.38
664.173	80.38
664.376	71.38
664.579	87.38
664.782	91.38
664.985	74.38
665.188	78.38
665.391	78.38
665.594	84.38
665.797	76.38
666	86.38
666.203	82.38
666.406	63.38
666.609	79.38
666.812	77.38
667.015	78.38
667.218	82.38
667.421	76.38
667.624	87.38
667.827	77.38
668.03	74.38
668.232	87.38
668.435	65.38
668.638	76.38
668.841	77.38
669.043	88.38
669.246	86.38
669.449	72.38
669.651	77.38
669.854	83.38
670.057	85.38
670.259	65.38
670.462	87.38
670.665	82.38
670.867	73.38
671.07	71.38
671.272	82.38
671.475	81.38
671.677	69.38
671.88	73.38
672.082	77.38
672.284	81.38
672.487	88.38
672.689	79.38
672.892	75.38
