Data from 1960PennyLincolnUp.LampE5.5.200Scan.07172019.P1.ChangedAngle_HRD10591_13-15-12-821.txt Node
Date: Thu Jul 18 13:15:12 EDT 2019
User: cochatt
Spectrometer: HR+D1059
Trigger mode: 1
Integration Time (sec): 1.000000E-1
Scans to average: 1
Electric dark correction enabled: true
Nonlinearity correction enabled: false
Boxcar width: 0
XAxis mode: Wavelengths
Number of Pixels in Spectrum: 2048
>>>>>Begin Spectral Data<<<<<
223.165	-12.12
223.4	-12.12
223.635	-12.12
223.869	-7.12
224.104	-27.12
224.338	-23.12
224.573	-18.12
224.808	-16.12
225.042	-13.12
225.277	4.88
225.511	4.88
225.746	-6.12
225.98	5.88
226.215	10.88
226.449	7.88
226.683	20.88
226.918	37.88
227.152	29.88
227.387	41.88
227.621	36.88
227.856	48.88
228.09	49.88
228.324	38.88
228.559	57.88
228.793	59.88
229.027	91.88
229.262	94.88
229.496	86.88
229.73	114.88
229.964	132.88
230.199	99.88
230.433	105.88
230.667	107.88
230.901	102.88
231.136	104.88
231.37	90.88
231.604	81.88
231.838	91.88
232.072	92.88
232.306	109.88
232.541	105.88
232.775	105.88
233.009	111.88
233.243	84.88
233.477	107.88
233.711	95.88
233.945	104.88
234.179	105.88
234.413	108.88
234.647	128.88
234.881	116.88
235.115	116.88
235.349	99.88
235.583	108.88
235.817	90.88
236.051	104.88
236.285	106.88
236.519	122.88
236.753	107.88
236.987	126.88
237.221	134.88
237.455	166.88
237.689	144.88
237.922	129.88
238.156	124.88
238.39	115.88
238.624	116.88
238.858	102.88
239.091	113.88
239.325	117.88
239.559	119.88
239.793	108.88
240.027	117.88
240.26	115.88
240.494	128.88
240.728	123.88
240.961	126.88
241.195	133.88
241.429	122.88
241.662	132.88
241.896	133.88
242.13	125.88
242.363	126.88
242.597	108.88
242.83	120.88
243.064	132.88
243.298	116.88
243.531	125.88
243.765	137.88
243.998	122.88
244.232	135.88
244.465	141.88
244.699	137.88
244.932	126.88
245.166	148.88
245.399	150.88
245.633	146.88
245.866	145.88
246.099	130.88
246.333	136.88
246.566	138.88
246.8	141.88
247.033	132.88
247.266	141.88
247.5	140.88
247.733	140.88
247.966	144.88
248.2	161.88
248.433	158.88
248.666	150.88
248.899	149.88
249.133	184.88
249.366	178.88
249.599	168.88
249.832	168.88
250.066	166.88
250.299	172.88
250.532	172.88
250.765	179.88
250.998	195.88
251.231	221.88
251.465	178.88
251.698	173.88
251.931	177.88
252.164	183.88
252.397	170.88
252.63	165.88
252.863	193.88
253.096	181.88
253.329	186.88
253.562	198.88
253.795	195.88
254.028	180.88
254.261	194.88
254.494	196.88
254.727	209.88
254.96	215.88
255.193	239.88
255.426	205.88
255.659	180.88
255.892	200.88
256.124	198.88
256.357	219.88
256.59	203.88
256.823	188.88
257.056	184.88
257.289	197.88
257.521	202.88
257.754	186.88
257.987	190.88
258.22	196.88
258.452	182.88
258.685	191.88
258.918	173.88
259.151	186.88
259.383	198.88
259.616	209.88
259.849	216.88
260.081	202.88
260.314	204.88
260.547	213.88
260.779	230.88
261.012	210.88
261.244	217.88
261.477	210.88
261.71	199.88
261.942	215.88
262.175	217.88
262.407	198.88
262.64	217.88
262.872	188.88
263.105	197.88
263.337	198.88
263.57	188.88
263.802	198.88
264.035	196.88
264.267	193.88
264.499	197.88
264.732	213.88
264.964	199.88
265.197	206.88
265.429	222.88
265.661	208.88
265.894	211.88
266.126	214.88
266.358	209.88
266.591	203.88
266.823	209.88
267.055	196.88
267.287	205.88
267.52	203.88
267.752	207.88
267.984	206.88
268.216	207.88
268.448	216.88
268.681	221.88
268.913	223.88
269.145	238.88
269.377	247.88
269.609	240.88
269.841	237.88
270.073	253.88
270.306	262.88
270.538	264.88
270.77	267.88
271.002	283.88
271.234	260.88
271.466	268.88
271.698	256.88
271.93	252.88
272.162	276.88
272.394	274.88
272.626	245.88
272.858	273.88
273.09	264.88
273.322	247.88
273.553	244.88
273.785	258.88
274.017	261.88
274.249	253.88
274.481	228.88
274.713	238.88
274.945	260.88
275.176	248.88
275.408	245.88
275.64	260.88
275.872	235.88
276.104	254.88
276.335	248.88
276.567	267.88
276.799	257.88
277.031	274.88
277.262	290.88
277.494	272.88
277.726	290.88
277.957	260.88
278.189	257.88
278.421	248.88
278.652	252.88
278.884	255.88
279.115	254.88
279.347	252.88
279.579	243.88
279.81	236.88
280.042	257.88
280.273	254.88
280.505	263.88
280.736	250.88
280.968	244.88
281.199	232.88
281.431	272.88
281.662	247.88
281.894	252.88
282.125	261.88
282.356	273.88
282.588	261.88
282.819	283.88
283.051	268.88
283.282	251.88
283.513	261.88
283.745	258.88
283.976	266.88
284.207	266.88
284.439	275.88
284.67	268.88
284.901	264.88
285.132	251.88
285.364	262.88
285.595	268.88
285.826	270.88
286.057	270.88
286.288	264.88
286.52	281.88
286.751	276.88
286.982	262.88
287.213	268.88
287.444	283.88
287.675	266.88
287.906	267.88
288.138	282.88
288.369	281.88
288.6	283.88
288.831	285.88
289.062	266.88
289.293	285.88
289.524	286.88
289.755	278.88
289.986	280.88
290.217	284.88
290.448	288.88
290.679	276.88
290.91	273.88
291.141	258.88
291.371	253.88
291.602	280.88
291.833	277.88
292.064	283.88
292.295	280.88
292.526	275.88
292.757	276.88
292.987	281.88
293.218	282.88
293.449	286.88
293.68	272.88
293.91	289.88
294.141	275.88
294.372	288.88
294.603	291.88
294.833	300.88
295.064	273.88
295.295	285.88
295.525	281.88
295.756	292.88
295.987	296.88
296.217	296.88
296.448	299.88
296.679	293.88
296.909	292.88
297.14	285.88
297.37	289.88
297.601	304.88
297.831	290.88
298.062	301.88
298.292	290.88
298.523	291.88
298.753	288.88
298.984	282.88
299.214	288.88
299.445	291.88
299.675	301.88
299.905	303.88
300.136	301.88
300.366	302.88
300.597	293.88
300.827	303.88
301.057	288.88
301.288	312.88
301.518	311.88
301.748	297.88
301.979	327.88
302.209	316.88
302.439	313.88
302.669	314.88
302.9	326.88
303.13	307.88
303.36	324.88
303.59	308.88
303.82	300.88
304.051	323.88
304.281	314.88
304.511	302.88
304.741	315.88
304.971	316.88
305.201	318.88
305.431	291.88
305.661	304.88
305.891	307.88
306.121	323.88
306.352	309.88
306.582	325.88
306.812	317.88
307.042	325.88
307.272	312.88
307.502	321.88
307.731	310.88
307.961	300.88
308.191	307.88
308.421	309.88
308.651	329.88
308.881	318.88
309.111	312.88
309.341	323.88
309.571	323.88
309.8	333.88
310.03	316.88
310.26	337.88
310.49	322.88
310.72	347.88
310.949	337.88
311.179	348.88
311.409	360.88
311.639	332.88
311.868	332.88
312.098	342.88
312.328	357.88
312.557	358.88
312.787	348.88
313.017	366.88
313.246	360.88
313.476	349.88
313.706	330.88
313.935	363.88
314.165	337.88
314.394	372.88
314.624	352.88
314.853	354.88
315.083	348.88
315.312	354.88
315.542	363.88
315.771	345.88
316.001	342.88
316.23	345.88
316.46	374.88
316.689	356.88
316.919	343.88
317.148	354.88
317.377	368.88
317.607	344.88
317.836	356.88
318.065	344.88
318.295	356.88
318.524	360.88
318.753	345.88
318.983	335.88
319.212	341.88
319.441	356.88
319.67	366.88
319.9	331.88
320.129	348.88
320.358	359.88
320.587	368.88
320.816	390.88
321.046	380.88
321.275	354.88
321.504	360.88
321.733	352.88
321.962	376.88
322.191	362.88
322.42	393.88
322.649	405.88
322.878	373.88
323.108	392.88
323.337	418.88
323.566	440.88
323.795	437.88
324.024	447.88
324.253	562.88
324.482	748.88
324.71	1062.88
324.939	1435.88
325.168	1204.88
325.397	697.88
325.626	496.88
325.855	445.88
326.084	440.88
326.313	435.88
326.542	433.88
326.77	461.88
326.999	536.88
327.228	676.88
327.457	925.88
327.686	1073.88
327.914	773.88
328.143	536.88
328.372	506.88
328.6	470.88
328.829	462.88
329.058	469.88
329.287	457.88
329.515	439.88
329.744	422.88
329.972	449.88
330.201	453.88
330.43	475.88
330.658	476.88
330.887	478.88
331.115	486.88
331.344	439.88
331.572	437.88
331.801	442.88
332.03	422.88
332.258	443.88
332.486	432.88
332.715	397.88
332.943	402.88
333.172	408.88
333.4	442.88
333.629	452.88
333.857	411.88
334.085	436.88
334.314	451.88
334.542	457.88
334.771	453.88
334.999	436.88
335.227	437.88
335.455	419.88
335.684	410.88
335.912	414.88
336.14	421.88
336.369	396.88
336.597	409.88
336.825	409.88
337.053	413.88
337.281	418.88
337.51	411.88
337.738	406.88
337.966	386.88
338.194	412.88
338.422	430.88
338.65	405.88
338.878	406.88
339.106	419.88
339.334	388.88
339.562	383.88
339.79	385.88
340.018	398.88
340.246	399.88
340.474	370.88
340.702	407.88
340.93	366.88
341.158	397.88
341.386	362.88
341.614	393.88
341.842	382.88
342.07	380.88
342.298	384.88
342.526	379.88
342.754	374.88
342.981	393.88
343.209	378.88
343.437	396.88
343.665	365.88
343.893	389.88
344.12	383.88
344.348	392.88
344.576	375.88
344.804	380.88
345.031	406.88
345.259	415.88
345.487	374.88
345.714	386.88
345.942	396.88
346.17	374.88
346.397	365.88
346.625	372.88
346.853	357.88
347.08	360.88
347.308	362.88
347.535	348.88
347.763	389.88
347.99	376.88
348.218	376.88
348.445	377.88
348.673	379.88
348.9	382.88
349.128	364.88
349.355	352.88
349.583	357.88
349.81	356.88
350.037	358.88
350.265	369.88
350.492	377.88
350.72	360.88
350.947	375.88
351.174	384.88
351.402	385.88
351.629	368.88
351.856	368.88
352.083	372.88
352.311	388.88
352.538	379.88
352.765	372.88
352.992	363.88
353.22	361.88
353.447	368.88
353.674	365.88
353.901	354.88
354.128	342.88
354.355	358.88
354.583	370.88
354.81	337.88
355.037	363.88
355.264	364.88
355.491	346.88
355.718	340.88
355.945	349.88
356.172	339.88
356.399	341.88
356.626	348.88
356.853	359.88
357.08	358.88
357.307	340.88
357.534	346.88
357.761	340.88
357.988	345.88
358.215	350.88
358.441	356.88
358.668	324.88
358.895	356.88
359.122	369.88
359.349	358.88
359.576	367.88
359.802	370.88
360.029	367.88
360.256	380.88
360.483	373.88
360.709	342.88
360.936	360.88
361.163	365.88
361.39	353.88
361.616	361.88
361.843	364.88
362.07	377.88
362.296	354.88
362.523	358.88
362.749	368.88
362.976	340.88
363.203	352.88
363.429	335.88
363.656	343.88
363.882	344.88
364.109	353.88
364.335	353.88
364.562	363.88
364.788	337.88
365.015	351.88
365.241	348.88
365.468	355.88
365.694	348.88
365.92	352.88
366.147	345.88
366.373	343.88
366.599	342.88
366.826	344.88
367.052	330.88
367.278	360.88
367.505	357.88
367.731	354.88
367.957	342.88
368.184	343.88
368.41	345.88
368.636	358.88
368.862	349.88
369.089	350.88
369.315	378.88
369.541	366.88
369.767	347.88
369.993	344.88
370.219	360.88
370.445	331.88
370.672	335.88
370.898	327.88
371.124	324.88
371.35	354.88
371.576	342.88
371.802	345.88
372.028	338.88
372.254	342.88
372.48	339.88
372.706	342.88
372.932	358.88
373.158	347.88
373.384	344.88
373.61	333.88
373.835	341.88
374.061	363.88
374.287	352.88
374.513	341.88
374.739	343.88
374.965	339.88
375.191	345.88
375.416	343.88
375.642	360.88
375.868	352.88
376.094	343.88
376.319	326.88
376.545	356.88
376.771	344.88
376.997	348.88
377.222	350.88
377.448	358.88
377.674	344.88
377.899	338.88
378.125	329.88
378.35	342.88
378.576	362.88
378.802	334.88
379.027	342.88
379.253	334.88
379.478	349.88
379.704	339.88
379.929	342.88
380.155	326.88
380.38	337.88
380.606	344.88
380.831	334.88
381.057	341.88
381.282	342.88
381.507	336.88
381.733	356.88
381.958	337.88
382.184	336.88
382.409	333.88
382.634	346.88
382.86	345.88
383.085	375.88
383.31	358.88
383.535	342.88
383.761	346.88
383.986	344.88
384.211	352.88
384.436	354.88
384.662	348.88
384.887	364.88
385.112	366.88
385.337	366.88
385.562	357.88
385.787	351.88
386.013	358.88
386.238	373.88
386.463	376.88
386.688	384.88
386.913	368.88
387.138	361.88
387.363	369.88
387.588	370.88
387.813	366.88
388.038	366.88
388.263	347.88
388.488	364.88
388.713	384.88
388.938	370.88
389.163	357.88
389.387	362.88
389.612	358.88
389.837	345.88
390.062	358.88
390.287	362.88
390.512	369.88
390.736	371.88
390.961	373.88
391.186	360.88
391.411	385.88
391.636	366.88
391.86	364.88
392.085	371.88
392.31	361.88
392.534	375.88
392.759	389.88
392.984	372.88
393.208	369.88
393.433	379.88
393.658	379.88
393.882	390.88
394.107	358.88
394.331	377.88
394.556	358.88
394.78	362.88
395.005	355.88
395.229	366.88
395.454	386.88
395.678	373.88
395.903	386.88
396.127	402.88
396.352	408.88
396.576	385.88
396.801	374.88
397.025	387.88
397.249	390.88
397.474	396.88
397.698	386.88
397.922	405.88
398.147	396.88
398.371	404.88
398.595	413.88
398.82	386.88
399.044	390.88
399.268	429.88
399.492	449.88
399.717	475.88
399.941	498.88
400.165	488.88
400.389	529.88
400.613	480.88
400.837	438.88
401.062	404.88
401.286	417.88
401.51	413.88
401.734	412.88
401.958	421.88
402.182	401.88
402.406	404.88
402.63	430.88
402.854	419.88
403.078	424.88
403.302	441.88
403.526	438.88
403.75	410.88
403.974	426.88
404.198	398.88
404.422	424.88
404.645	435.88
404.869	428.88
405.093	421.88
405.317	477.88
405.541	476.88
405.765	463.88
405.988	457.88
406.212	449.88
406.436	457.88
406.66	461.88
406.883	450.88
407.107	459.88
407.331	486.88
407.555	526.88
407.778	518.88
408.002	480.88
408.226	471.88
408.449	431.88
408.673	441.88
408.896	470.88
409.12	514.88
409.344	482.88
409.567	450.88
409.791	397.88
410.014	416.88
410.238	426.88
410.461	431.88
410.685	452.88
410.908	443.88
411.132	461.88
411.355	475.88
411.578	437.88
411.802	427.88
412.025	423.88
412.249	413.88
412.472	445.88
412.695	447.88
412.919	446.88
413.142	410.88
413.365	431.88
413.589	392.88
413.812	420.88
414.035	408.88
414.258	384.88
414.482	389.88
414.705	405.88
414.928	408.88
415.151	398.88
415.374	403.88
415.597	409.88
415.821	379.88
416.044	387.88
416.267	391.88
416.49	396.88
416.713	385.88
416.936	382.88
417.159	409.88
417.382	383.88
417.605	397.88
417.828	394.88
418.051	416.88
418.274	391.88
418.497	397.88
418.72	407.88
418.943	406.88
419.166	408.88
419.389	431.88
419.611	429.88
419.834	406.88
420.057	403.88
420.28	405.88
420.503	398.88
420.726	425.88
420.948	412.88
421.171	431.88
421.394	432.88
421.617	414.88
421.839	413.88
422.062	418.88
422.285	397.88
422.507	451.88
422.73	506.88
422.953	463.88
423.175	436.88
423.398	414.88
423.621	401.88
423.843	416.88
424.066	437.88
424.288	415.88
424.511	436.88
424.733	475.88
424.956	506.88
425.178	517.88
425.401	498.88
425.623	514.88
425.846	466.88
426.068	436.88
426.291	400.88
426.513	420.88
426.735	428.88
426.958	426.88
427.18	476.88
427.402	574.88
427.625	632.88
427.847	547.88
428.069	475.88
428.292	444.88
428.514	419.88
428.736	410.88
428.958	372.88
429.181	377.88
429.403	384.88
429.625	420.88
429.847	423.88
430.069	468.88
430.292	442.88
430.514	411.88
430.736	400.88
430.958	372.88
431.18	386.88
431.402	385.88
431.624	363.88
431.846	378.88
432.068	402.88
432.29	375.88
432.512	360.88
432.734	380.88
432.956	387.88
433.178	388.88
433.4	393.88
433.622	377.88
433.844	354.88
434.066	363.88
434.287	374.88
434.509	365.88
434.731	395.88
434.953	384.88
435.175	392.88
435.397	410.88
435.618	425.88
435.84	462.88
436.062	510.88
436.284	524.88
436.505	467.88
436.727	416.88
436.949	411.88
437.17	390.88
437.392	416.88
437.614	406.88
437.835	402.88
438.057	473.88
438.278	538.88
438.5	550.88
438.721	578.88
438.943	557.88
439.165	452.88
439.386	445.88
439.608	409.88
439.829	428.88
440.05	430.88
440.272	444.88
440.493	430.88
440.715	418.88
440.936	391.88
441.158	393.88
441.379	405.88
441.6	388.88
441.822	424.88
442.043	427.88
442.264	467.88
442.486	550.88
442.707	425.88
442.928	418.88
443.149	439.88
443.371	442.88
443.592	461.88
443.813	529.88
444.034	574.88
444.255	477.88
444.476	424.88
444.698	428.88
444.919	409.88
445.14	504.88
445.361	474.88
445.582	446.88
445.803	477.88
446.024	532.88
446.245	528.88
446.466	492.88
446.687	423.88
446.908	412.88
447.129	397.88
447.35	390.88
447.571	381.88
447.792	382.88
448.013	389.88
448.234	397.88
448.455	432.88
448.675	516.88
448.896	578.88
449.117	491.88
449.338	480.88
449.559	547.88
449.779	596.88
450	501.88
450.221	421.88
450.442	382.88
450.662	386.88
450.883	373.88
451.104	389.88
451.324	383.88
451.545	362.88
451.766	363.88
451.986	360.88
452.207	327.88
452.428	345.88
452.648	353.88
452.869	349.88
453.089	340.88
453.31	354.88
453.53	356.88
453.751	353.88
453.971	344.88
454.192	345.88
454.412	359.88
454.633	348.88
454.853	316.88
455.073	339.88
455.294	366.88
455.514	414.88
455.734	388.88
455.955	368.88
456.175	360.88
456.395	325.88
456.616	327.88
456.836	342.88
457.056	339.88
457.276	336.88
457.497	339.88
457.717	326.88
457.937	340.88
458.157	337.88
458.377	347.88
458.598	369.88
458.818	403.88
459.038	444.88
459.258	440.88
459.478	403.88
459.698	375.88
459.918	352.88
460.138	374.88
460.358	369.88
460.578	382.88
460.798	389.88
461.018	382.88
461.238	384.88
461.458	382.88
461.678	388.88
461.898	383.88
462.118	379.88
462.338	407.88
462.558	401.88
462.777	404.88
462.997	403.88
463.217	427.88
463.437	424.88
463.657	401.88
463.876	417.88
464.096	425.88
464.316	420.88
464.536	412.88
464.755	404.88
464.975	422.88
465.195	418.88
465.414	452.88
465.634	400.88
465.854	377.88
466.073	402.88
466.293	385.88
466.512	365.88
466.732	344.88
466.951	352.88
467.171	366.88
467.391	360.88
467.61	360.88
467.829	369.88
468.049	357.88
468.268	363.88
468.488	352.88
468.707	354.88
468.927	335.88
469.146	328.88
469.365	339.88
469.585	357.88
469.804	361.88
470.023	372.88
470.243	341.88
470.462	380.88
470.681	384.88
470.901	358.88
471.12	387.88
471.339	379.88
471.558	365.88
471.777	373.88
471.997	354.88
472.216	376.88
472.435	381.88
472.654	380.88
472.873	368.88
473.092	393.88
473.311	375.88
473.53	357.88
473.749	397.88
473.968	393.88
474.187	449.88
474.406	457.88
474.625	392.88
474.844	386.88
475.063	379.88
475.282	378.88
475.501	349.88
475.72	362.88
475.939	366.88
476.158	378.88
476.377	376.88
476.596	374.88
476.814	383.88
477.033	370.88
477.252	402.88
477.471	400.88
477.69	368.88
477.908	388.88
478.127	416.88
478.346	411.88
478.564	426.88
478.783	409.88
479.002	422.88
479.22	406.88
479.439	422.88
479.658	435.88
479.876	421.88
480.095	437.88
480.313	443.88
480.532	444.88
480.751	453.88
480.969	438.88
481.188	488.88
481.406	511.88
481.624	452.88
481.843	438.88
482.061	413.88
482.28	423.88
482.498	412.88
482.717	421.88
482.935	432.88
483.153	428.88
483.372	426.88
483.59	424.88
483.808	416.88
484.027	422.88
484.245	431.88
484.463	422.88
484.681	434.88
484.9	426.88
485.118	432.88
485.336	412.88
485.554	425.88
485.772	430.88
485.99	422.88
486.209	425.88
486.427	414.88
486.645	430.88
486.863	446.88
487.081	468.88
487.299	455.88
487.517	468.88
487.735	459.88
487.953	462.88
488.171	430.88
488.389	460.88
488.607	447.88
488.825	440.88
489.043	428.88
489.261	435.88
489.479	465.88
489.696	445.88
489.914	431.88
490.132	469.88
490.35	466.88
490.568	462.88
490.786	469.88
491.003	503.88
491.221	488.88
491.439	490.88
491.657	490.88
491.874	462.88
492.092	481.88
492.31	487.88
492.527	506.88
492.745	511.88
492.963	504.88
493.18	505.88
493.398	515.88
493.615	515.88
493.833	519.88
494.05	522.88
494.268	496.88
494.485	504.88
494.703	503.88
494.92	514.88
495.138	501.88
495.355	505.88
495.573	503.88
495.79	513.88
496.008	524.88
496.225	505.88
496.442	518.88
496.66	536.88
496.877	533.88
497.094	499.88
497.312	535.88
497.529	550.88
497.746	550.88
497.963	546.88
498.181	562.88
498.398	558.88
498.615	592.88
498.832	587.88
499.049	603.88
499.267	603.88
499.484	647.88
499.701	660.88
499.918	672.88
500.135	719.88
500.352	724.88
500.569	739.88
500.786	746.88
501.003	732.88
501.22	716.88
501.437	690.88
501.654	668.88
501.871	646.88
502.088	644.88
502.305	610.88
502.522	603.88
502.739	584.88
502.956	580.88
503.172	556.88
503.389	556.88
503.606	539.88
503.823	562.88
504.04	533.88
504.256	539.88
504.473	522.88
504.69	519.88
504.907	516.88
505.123	511.88
505.34	520.88
505.557	500.88
505.773	501.88
505.99	491.88
506.207	474.88
506.423	502.88
506.64	497.88
506.856	503.88
507.073	483.88
507.289	471.88
507.506	463.88
507.722	477.88
507.939	491.88
508.155	467.88
508.372	479.88
508.588	449.88
508.805	456.88
509.021	479.88
509.238	448.88
509.454	497.88
509.67	470.88
509.887	459.88
510.103	475.88
510.319	485.88
510.536	511.88
510.752	776.88
510.968	616.88
511.184	477.88
511.401	457.88
511.617	467.88
511.833	450.88
512.049	467.88
512.265	442.88
512.481	443.88
512.698	445.88
512.914	445.88
513.13	439.88
513.346	442.88
513.562	448.88
513.778	452.88
513.994	446.88
514.21	458.88
514.426	467.88
514.642	474.88
514.858	494.88
515.074	518.88
515.29	580.88
515.506	765.88
515.721	656.88
515.937	507.88
516.153	450.88
516.369	465.88
516.585	468.88
516.801	480.88
517.016	447.88
517.232	460.88
517.448	450.88
517.664	454.88
517.879	441.88
518.095	473.88
518.311	457.88
518.527	461.88
518.742	457.88
518.958	453.88
519.173	475.88
519.389	450.88
519.605	440.88
519.82	448.88
520.036	456.88
520.251	433.88
520.467	469.88
520.682	463.88
520.898	474.88
521.113	478.88
521.329	503.88
521.544	506.88
521.76	622.88
521.975	953.88
522.19	895.88
522.406	581.88
522.621	477.88
522.836	436.88
523.052	404.88
523.267	396.88
523.482	417.88
523.698	382.88
523.913	401.88
524.128	412.88
524.343	401.88
524.559	386.88
524.774	392.88
524.989	393.88
525.204	392.88
525.419	397.88
525.634	358.88
525.849	366.88
526.064	388.88
526.28	393.88
526.495	382.88
526.71	375.88
526.925	368.88
527.14	365.88
527.355	389.88
527.57	379.88
527.785	376.88
527.999	389.88
528.214	356.88
528.429	362.88
528.644	393.88
528.859	381.88
529.074	374.88
529.289	384.88
529.503	423.88
529.718	386.88
529.933	394.88
530.148	395.88
530.363	378.88
530.577	360.88
530.792	357.88
531.007	368.88
531.221	365.88
531.436	348.88
531.651	351.88
531.865	366.88
532.08	350.88
532.295	358.88
532.509	339.88
532.724	344.88
532.938	355.88
533.153	362.88
533.367	355.88
533.582	360.88
533.796	349.88
534.011	353.88
534.225	353.88
534.44	354.88
534.654	362.88
534.868	367.88
535.083	368.88
535.297	361.88
535.511	346.88
535.726	382.88
535.94	365.88
536.154	344.88
536.369	357.88
536.583	354.88
536.797	374.88
537.011	341.88
537.225	327.88
537.44	345.88
537.654	335.88
537.868	360.88
538.082	354.88
538.296	347.88
538.51	348.88
538.724	354.88
538.938	332.88
539.153	356.88
539.367	358.88
539.581	349.88
539.795	344.88
540.009	353.88
540.222	358.88
540.436	332.88
540.65	340.88
540.864	360.88
541.078	337.88
541.292	355.88
541.506	355.88
541.72	344.88
541.934	334.88
542.147	329.88
542.361	350.88
542.575	364.88
542.789	332.88
543.002	346.88
543.216	341.88
543.43	355.88
543.644	346.88
543.857	345.88
544.071	322.88
544.285	354.88
544.498	337.88
544.712	341.88
544.925	342.88
545.139	341.88
545.352	352.88
545.566	336.88
545.779	344.88
545.993	339.88
546.206	348.88
546.42	339.88
546.633	352.88
546.847	310.88
547.06	319.88
547.274	324.88
547.487	342.88
547.7	326.88
547.914	320.88
548.127	358.88
548.34	333.88
548.554	326.88
548.767	326.88
548.98	341.88
549.193	330.88
549.407	323.88
549.62	322.88
549.833	324.88
550.046	337.88
550.259	310.88
550.473	321.88
550.686	314.88
550.899	350.88
551.112	315.88
551.325	339.88
551.538	312.88
551.751	336.88
551.964	326.88
552.177	316.88
552.39	329.88
552.603	336.88
552.816	341.88
553.029	338.88
553.242	333.88
553.455	334.88
553.667	353.88
553.88	339.88
554.093	335.88
554.306	326.88
554.519	331.88
554.732	317.88
554.944	333.88
555.157	323.88
555.37	298.88
555.583	339.88
555.795	314.88
556.008	308.88
556.221	291.88
556.433	301.88
556.646	316.88
556.859	278.88
557.071	299.88
557.284	306.88
557.496	299.88
557.709	315.88
557.921	318.88
558.134	320.88
558.346	294.88
558.559	290.88
558.771	302.88
558.984	293.88
559.196	285.88
559.409	294.88
559.621	288.88
559.833	290.88
560.046	291.88
560.258	290.88
560.47	295.88
560.683	276.88
560.895	296.88
561.107	291.88
561.32	292.88
561.532	288.88
561.744	291.88
561.956	285.88
562.168	300.88
562.381	290.88
562.593	303.88
562.805	292.88
563.017	279.88
563.229	299.88
563.441	296.88
563.653	306.88
563.865	269.88
564.077	296.88
564.289	300.88
564.501	310.88
564.713	312.88
564.925	322.88
565.137	310.88
565.349	317.88
565.561	333.88
565.773	320.88
565.985	329.88
566.197	326.88
566.408	361.88
566.62	338.88
566.832	354.88
567.044	360.88
567.255	362.88
567.467	371.88
567.679	365.88
567.891	370.88
568.102	370.88
568.314	375.88
568.526	358.88
568.737	350.88
568.949	341.88
569.161	324.88
569.372	325.88
569.584	308.88
569.795	335.88
570.007	306.88
570.218	331.88
570.43	328.88
570.641	298.88
570.853	297.88
571.064	291.88
571.276	289.88
571.487	264.88
571.698	292.88
571.91	268.88
572.121	274.88
572.333	278.88
572.544	272.88
572.755	272.88
572.966	282.88
573.178	283.88
573.389	261.88
573.6	260.88
573.811	249.88
574.023	252.88
574.234	251.88
574.445	256.88
574.656	244.88
574.867	247.88
575.078	248.88
575.289	277.88
575.501	256.88
575.712	250.88
575.923	258.88
576.134	249.88
576.345	251.88
576.556	253.88
576.767	244.88
576.978	252.88
577.188	252.88
577.399	247.88
577.61	250.88
577.821	266.88
578.032	265.88
578.243	267.88
578.454	371.88
578.665	304.88
578.875	244.88
579.086	245.88
579.297	249.88
579.508	235.88
579.718	232.88
579.929	228.88
580.14	246.88
580.35	257.88
580.561	240.88
580.772	234.88
580.982	247.88
581.193	245.88
581.403	239.88
581.614	246.88
581.825	233.88
582.035	243.88
582.246	231.88
582.456	247.88
582.667	245.88
582.877	231.88
583.087	221.88
583.298	236.88
583.508	218.88
583.719	248.88
583.929	246.88
584.139	246.88
584.35	223.88
584.56	232.88
584.77	214.88
584.981	235.88
585.191	236.88
585.401	234.88
585.611	258.88
585.821	224.88
586.032	235.88
586.242	213.88
586.452	232.88
586.662	220.88
586.872	228.88
587.082	206.88
587.292	237.88
587.502	217.88
587.713	224.88
587.923	235.88
588.133	217.88
588.343	232.88
588.553	218.88
588.762	224.88
588.972	225.88
589.182	285.88
589.392	279.88
589.602	226.88
589.812	258.88
590.022	253.88
590.232	238.88
590.441	227.88
590.651	217.88
590.861	228.88
591.071	213.88
591.281	221.88
591.49	230.88
591.7	218.88
591.91	240.88
592.119	234.88
592.329	231.88
592.539	246.88
592.748	236.88
592.958	227.88
593.167	226.88
593.377	242.88
593.587	242.88
593.796	244.88
594.006	249.88
594.215	233.88
594.424	238.88
594.634	249.88
594.843	245.88
595.053	234.88
595.262	214.88
595.472	244.88
595.681	231.88
595.89	217.88
596.1	213.88
596.309	209.88
596.518	211.88
596.727	217.88
596.937	220.88
597.146	233.88
597.355	214.88
597.564	223.88
597.774	210.88
597.983	219.88
598.192	220.88
598.401	215.88
598.61	218.88
598.819	198.88
599.028	213.88
599.237	189.88
599.446	209.88
599.655	209.88
599.864	179.88
600.073	195.88
600.282	209.88
600.491	196.88
600.7	218.88
600.909	193.88
601.118	196.88
601.327	187.88
601.536	189.88
601.745	229.88
601.953	202.88
602.162	196.88
602.371	214.88
602.58	196.88
602.789	201.88
602.997	198.88
603.206	181.88
603.415	186.88
603.623	213.88
603.832	205.88
604.041	202.88
604.249	176.88
604.458	189.88
604.666	196.88
604.875	189.88
605.084	188.88
605.292	194.88
605.501	202.88
605.709	188.88
605.918	198.88
606.126	201.88
606.334	184.88
606.543	191.88
606.751	183.88
606.96	198.88
607.168	185.88
607.376	187.88
607.585	198.88
607.793	195.88
608.001	181.88
608.21	185.88
608.418	197.88
608.626	184.88
608.834	198.88
609.043	194.88
609.251	178.88
609.459	183.88
609.667	208.88
609.875	189.88
610.083	190.88
610.291	195.88
610.499	199.88
610.707	205.88
610.916	182.88
611.124	193.88
611.332	200.88
611.54	212.88
611.748	209.88
611.955	183.88
612.163	196.88
612.371	200.88
612.579	188.88
612.787	178.88
612.995	207.88
613.203	182.88
613.411	192.88
613.618	174.88
613.826	182.88
614.034	192.88
614.242	179.88
614.449	185.88
614.657	181.88
614.865	195.88
615.072	193.88
615.28	195.88
615.488	182.88
615.695	176.88
615.903	170.88
616.111	187.88
616.318	189.88
616.526	179.88
616.733	181.88
616.941	184.88
617.148	193.88
617.356	191.88
617.563	181.88
617.771	176.88
617.978	181.88
618.185	177.88
618.393	170.88
618.6	183.88
618.807	173.88
619.015	170.88
619.222	175.88
619.429	170.88
619.637	176.88
619.844	190.88
620.051	190.88
620.258	169.88
620.466	178.88
620.673	168.88
620.88	172.88
621.087	170.88
621.294	176.88
621.501	172.88
621.708	179.88
621.915	189.88
622.122	182.88
622.329	184.88
622.536	165.88
622.743	182.88
622.95	179.88
623.157	163.88
623.364	165.88
623.571	168.88
623.778	184.88
623.985	181.88
624.192	170.88
624.399	166.88
624.606	165.88
624.812	166.88
625.019	167.88
625.226	168.88
625.433	169.88
625.639	175.88
625.846	177.88
626.053	166.88
626.259	162.88
626.466	169.88
626.673	149.88
626.879	149.88
627.086	149.88
627.293	165.88
627.499	160.88
627.706	176.88
627.912	171.88
628.119	158.88
628.325	168.88
628.532	146.88
628.738	166.88
628.945	154.88
629.151	162.88
629.357	162.88
629.564	155.88
629.77	149.88
629.976	163.88
630.183	177.88
630.389	164.88
630.595	156.88
630.802	153.88
631.008	151.88
631.214	166.88
631.42	149.88
631.627	163.88
631.833	143.88
632.039	154.88
632.245	164.88
632.451	156.88
632.657	146.88
632.863	156.88
633.069	154.88
633.275	145.88
633.481	163.88
633.688	152.88
633.893	155.88
634.099	138.88
634.305	156.88
634.511	155.88
634.717	151.88
634.923	146.88
635.129	155.88
635.335	155.88
635.541	154.88
635.747	155.88
635.952	148.88
636.158	169.88
636.364	167.88
636.57	164.88
636.775	146.88
636.981	135.88
637.187	146.88
637.392	160.88
637.598	161.88
637.804	150.88
638.009	153.88
638.215	152.88
638.421	144.88
638.626	144.88
638.832	147.88
639.037	145.88
639.243	148.88
639.448	149.88
639.654	148.88
639.859	144.88
640.065	133.88
640.27	160.88
640.475	145.88
640.681	136.88
640.886	153.88
641.091	141.88
641.297	150.88
641.502	145.88
641.707	146.88
641.913	162.88
642.118	133.88
642.323	138.88
642.528	144.88
642.733	152.88
642.939	143.88
643.144	163.88
643.349	156.88
643.554	142.88
643.759	136.88
643.964	134.88
644.169	139.88
644.374	136.88
644.579	147.88
644.784	141.88
644.989	146.88
645.194	144.88
645.399	132.88
645.604	144.88
645.809	143.88
646.014	131.88
646.219	146.88
646.423	146.88
646.628	144.88
646.833	158.88
647.038	137.88
647.243	131.88
647.447	152.88
647.652	142.88
647.857	130.88
648.062	148.88
648.266	126.88
648.471	142.88
648.676	148.88
648.88	126.88
649.085	135.88
649.289	144.88
649.494	141.88
649.698	156.88
649.903	140.88
650.107	150.88
650.312	158.88
650.516	129.88
650.721	124.88
650.925	137.88
651.13	135.88
651.334	121.88
651.539	134.88
651.743	140.88
651.947	124.88
652.152	138.88
652.356	118.88
652.56	132.88
652.764	137.88
652.969	129.88
653.173	115.88
653.377	112.88
653.581	113.88
653.785	128.88
653.99	130.88
654.194	125.88
654.398	130.88
654.602	129.88
654.806	124.88
655.01	127.88
655.214	136.88
655.418	107.88
655.622	106.88
655.826	111.88
656.03	120.88
656.234	115.88
656.438	127.88
656.642	129.88
656.846	135.88
657.049	109.88
657.253	115.88
657.457	106.88
657.661	105.88
657.865	109.88
658.068	112.88
658.272	108.88
658.476	106.88
658.68	100.88
658.883	96.88
659.087	81.88
659.291	105.88
659.494	108.88
659.698	99.88
659.901	100.88
660.105	93.88
660.309	88.88
660.512	77.88
660.716	93.88
660.919	82.88
661.123	77.88
661.326	97.88
661.53	80.88
661.733	94.88
661.936	88.88
662.14	82.88
662.343	89.88
662.546	88.88
662.75	85.88
662.953	86.88
663.156	87.88
663.36	74.88
663.563	68.88
663.766	83.88
663.969	77.88
664.173	87.88
664.376	82.88
664.579	98.88
664.782	74.88
664.985	80.88
665.188	93.88
665.391	83.88
665.594	72.88
665.797	85.88
666	91.88
666.203	80.88
666.406	74.88
666.609	76.88
666.812	67.88
667.015	83.88
667.218	84.88
667.421	76.88
667.624	80.88
667.827	77.88
668.03	61.88
668.232	67.88
668.435	91.88
668.638	86.88
668.841	76.88
669.043	86.88
669.246	86.88
669.449	63.88
669.651	72.88
669.854	62.88
670.057	71.88
670.259	85.88
670.462	84.88
670.665	76.88
670.867	76.88
671.07	82.88
671.272	72.88
671.475	74.88
671.677	74.88
671.88	74.88
672.082	73.88
672.284	81.88
672.487	80.88
672.689	73.88
672.892	74.88
