Data from 1960PennyLincolnUp.LampE5.5.200Scan.07172019.P1.ChangedAngle_HRD10591_13-15-29-822.txt Node
Date: Thu Jul 18 13:15:29 EDT 2019
User: cochatt
Spectrometer: HR+D1059
Trigger mode: 1
Integration Time (sec): 1.000000E-1
Scans to average: 1
Electric dark correction enabled: true
Nonlinearity correction enabled: false
Boxcar width: 0
XAxis mode: Wavelengths
Number of Pixels in Spectrum: 2048
>>>>>Begin Spectral Data<<<<<
223.165	-3.94
223.4	-3.94
223.635	-3.94
223.869	-33.94
224.104	-9.94
224.338	-15.94
224.573	-15.94
224.808	-4.94
225.042	1.06
225.277	10.06
225.511	-10.94
225.746	0.06
225.98	-2.94
226.215	15.06
226.449	6.06
226.683	10.06
226.918	18.06
227.152	38.06
227.387	23.06
227.621	32.06
227.856	27.06
228.09	55.06
228.324	54.06
228.559	47.06
228.793	53.06
229.027	88.06
229.262	87.06
229.496	110.06
229.73	88.06
229.964	134.06
230.199	116.06
230.433	115.06
230.667	102.06
230.901	107.06
231.136	96.06
231.37	94.06
231.604	106.06
231.838	98.06
232.072	107.06
232.306	106.06
232.541	109.06
232.775	96.06
233.009	114.06
233.243	104.06
233.477	119.06
233.711	115.06
233.945	106.06
234.179	110.06
234.413	112.06
234.647	109.06
234.881	122.06
235.115	110.06
235.349	111.06
235.583	122.06
235.817	130.06
236.051	125.06
236.285	111.06
236.519	109.06
236.753	117.06
236.987	137.06
237.221	166.06
237.455	190.06
237.689	142.06
237.922	121.06
238.156	116.06
238.39	126.06
238.624	104.06
238.858	120.06
239.091	116.06
239.325	116.06
239.559	115.06
239.793	111.06
240.027	122.06
240.26	124.06
240.494	140.06
240.728	122.06
240.961	123.06
241.195	139.06
241.429	109.06
241.662	124.06
241.896	127.06
242.13	126.06
242.363	130.06
242.597	118.06
242.83	129.06
243.064	120.06
243.298	134.06
243.531	127.06
243.765	142.06
243.998	129.06
244.232	134.06
244.465	117.06
244.699	142.06
244.932	132.06
245.166	159.06
245.399	144.06
245.633	136.06
245.866	146.06
246.099	137.06
246.333	139.06
246.566	147.06
246.8	142.06
247.033	143.06
247.266	151.06
247.5	163.06
247.733	162.06
247.966	151.06
248.2	148.06
248.433	150.06
248.666	161.06
248.899	159.06
249.133	178.06
249.366	189.06
249.599	167.06
249.832	186.06
250.066	178.06
250.299	162.06
250.532	179.06
250.765	193.06
250.998	194.06
251.231	201.06
251.465	212.06
251.698	200.06
251.931	198.06
252.164	172.06
252.397	178.06
252.63	173.06
252.863	180.06
253.096	193.06
253.329	209.06
253.562	207.06
253.795	200.06
254.028	207.06
254.261	211.06
254.494	213.06
254.727	217.06
254.96	237.06
255.193	229.06
255.426	217.06
255.659	208.06
255.892	209.06
256.124	198.06
256.357	210.06
256.59	204.06
256.823	192.06
257.056	215.06
257.289	195.06
257.521	198.06
257.754	182.06
257.987	203.06
258.22	196.06
258.452	191.06
258.685	188.06
258.918	212.06
259.151	208.06
259.383	201.06
259.616	200.06
259.849	219.06
260.081	232.06
260.314	206.06
260.547	231.06
260.779	226.06
261.012	228.06
261.244	210.06
261.477	215.06
261.71	210.06
261.942	206.06
262.175	208.06
262.407	205.06
262.64	202.06
262.872	206.06
263.105	207.06
263.337	184.06
263.57	219.06
263.802	207.06
264.035	200.06
264.267	204.06
264.499	198.06
264.732	201.06
264.964	202.06
265.197	194.06
265.429	221.06
265.661	210.06
265.894	221.06
266.126	206.06
266.358	216.06
266.591	214.06
266.823	213.06
267.055	213.06
267.287	206.06
267.52	219.06
267.752	227.06
267.984	226.06
268.216	215.06
268.448	221.06
268.681	229.06
268.913	240.06
269.145	233.06
269.377	262.06
269.609	254.06
269.841	229.06
270.073	266.06
270.306	287.06
270.538	279.06
270.77	285.06
271.002	267.06
271.234	273.06
271.466	279.06
271.698	271.06
271.93	281.06
272.162	288.06
272.394	280.06
272.626	273.06
272.858	278.06
273.09	252.06
273.322	277.06
273.553	269.06
273.785	238.06
274.017	254.06
274.249	268.06
274.481	274.06
274.713	259.06
274.945	259.06
275.176	248.06
275.408	248.06
275.64	234.06
275.872	267.06
276.104	253.06
276.335	257.06
276.567	257.06
276.799	267.06
277.031	294.06
277.262	300.06
277.494	284.06
277.726	293.06
277.957	278.06
278.189	260.06
278.421	280.06
278.652	285.06
278.884	246.06
279.115	242.06
279.347	263.06
279.579	263.06
279.81	250.06
280.042	276.06
280.273	277.06
280.505	241.06
280.736	261.06
280.968	258.06
281.199	262.06
281.431	263.06
281.662	250.06
281.894	248.06
282.125	260.06
282.356	292.06
282.588	286.06
282.819	272.06
283.051	268.06
283.282	263.06
283.513	276.06
283.745	272.06
283.976	271.06
284.207	260.06
284.439	258.06
284.67	274.06
284.901	272.06
285.132	271.06
285.364	267.06
285.595	283.06
285.826	280.06
286.057	291.06
286.288	276.06
286.52	262.06
286.751	280.06
286.982	272.06
287.213	282.06
287.444	286.06
287.675	293.06
287.906	292.06
288.138	298.06
288.369	281.06
288.6	282.06
288.831	279.06
289.062	310.06
289.293	308.06
289.524	274.06
289.755	300.06
289.986	302.06
290.217	299.06
290.448	280.06
290.679	304.06
290.91	267.06
291.141	274.06
291.371	298.06
291.602	303.06
291.833	277.06
292.064	294.06
292.295	295.06
292.526	270.06
292.757	291.06
292.987	285.06
293.218	288.06
293.449	291.06
293.68	301.06
293.91	285.06
294.141	300.06
294.372	285.06
294.603	279.06
294.833	276.06
295.064	293.06
295.295	315.06
295.525	292.06
295.756	291.06
295.987	277.06
296.217	297.06
296.448	332.06
296.679	300.06
296.909	292.06
297.14	291.06
297.37	298.06
297.601	307.06
297.831	299.06
298.062	315.06
298.292	299.06
298.523	285.06
298.753	300.06
298.984	309.06
299.214	279.06
299.445	303.06
299.675	305.06
299.905	317.06
300.136	322.06
300.366	306.06
300.597	319.06
300.827	313.06
301.057	311.06
301.288	310.06
301.518	312.06
301.748	327.06
301.979	314.06
302.209	326.06
302.439	329.06
302.669	318.06
302.9	324.06
303.13	345.06
303.36	321.06
303.59	324.06
303.82	330.06
304.051	325.06
304.281	328.06
304.511	310.06
304.741	328.06
304.971	322.06
305.201	332.06
305.431	326.06
305.661	320.06
305.891	326.06
306.121	326.06
306.352	338.06
306.582	324.06
306.812	339.06
307.042	331.06
307.272	327.06
307.502	334.06
307.731	325.06
307.961	326.06
308.191	317.06
308.421	323.06
308.651	319.06
308.881	341.06
309.111	319.06
309.341	325.06
309.571	354.06
309.8	351.06
310.03	339.06
310.26	325.06
310.49	363.06
310.72	380.06
310.949	366.06
311.179	358.06
311.409	360.06
311.639	342.06
311.868	370.06
312.098	384.06
312.328	352.06
312.557	393.06
312.787	380.06
313.017	390.06
313.246	367.06
313.476	342.06
313.706	366.06
313.935	380.06
314.165	385.06
314.394	374.06
314.624	400.06
314.853	368.06
315.083	360.06
315.312	354.06
315.542	368.06
315.771	381.06
316.001	363.06
316.23	363.06
316.46	382.06
316.689	369.06
316.919	372.06
317.148	374.06
317.377	388.06
317.607	357.06
317.836	370.06
318.065	368.06
318.295	380.06
318.524	399.06
318.753	387.06
318.983	372.06
319.212	374.06
319.441	375.06
319.67	388.06
319.9	380.06
320.129	384.06
320.358	378.06
320.587	369.06
320.816	379.06
321.046	370.06
321.275	387.06
321.504	382.06
321.733	406.06
321.962	394.06
322.191	390.06
322.42	408.06
322.649	433.06
322.878	434.06
323.108	436.06
323.337	432.06
323.566	457.06
323.795	474.06
324.024	508.06
324.253	569.06
324.482	790.06
324.71	1159.06
324.939	1500.06
325.168	1302.06
325.397	732.06
325.626	536.06
325.855	486.06
326.084	465.06
326.313	464.06
326.542	460.06
326.77	482.06
326.999	534.06
327.228	713.06
327.457	1008.06
327.686	1158.06
327.914	799.06
328.143	551.06
328.372	522.06
328.6	489.06
328.829	494.06
329.058	492.06
329.287	490.06
329.515	467.06
329.744	454.06
329.972	466.06
330.201	498.06
330.43	500.06
330.658	514.06
330.887	492.06
331.115	512.06
331.344	472.06
331.572	455.06
331.801	445.06
332.03	454.06
332.258	449.06
332.486	428.06
332.715	432.06
332.943	421.06
333.172	422.06
333.4	413.06
333.629	424.06
333.857	460.06
334.085	446.06
334.314	471.06
334.542	472.06
334.771	498.06
334.999	483.06
335.227	464.06
335.455	456.06
335.684	451.06
335.912	460.06
336.14	441.06
336.369	429.06
336.597	434.06
336.825	428.06
337.053	419.06
337.281	429.06
337.51	421.06
337.738	438.06
337.966	440.06
338.194	404.06
338.422	419.06
338.65	429.06
338.878	420.06
339.106	415.06
339.334	410.06
339.562	415.06
339.79	405.06
340.018	404.06
340.246	391.06
340.474	406.06
340.702	415.06
340.93	399.06
341.158	406.06
341.386	414.06
341.614	424.06
341.842	401.06
342.07	422.06
342.298	397.06
342.526	397.06
342.754	387.06
342.981	384.06
343.209	389.06
343.437	414.06
343.665	398.06
343.893	416.06
344.12	419.06
344.348	406.06
344.576	426.06
344.804	396.06
345.031	415.06
345.259	411.06
345.487	422.06
345.714	387.06
345.942	396.06
346.17	383.06
346.397	395.06
346.625	399.06
346.853	367.06
347.08	375.06
347.308	384.06
347.535	396.06
347.763	392.06
347.99	398.06
348.218	393.06
348.445	417.06
348.673	384.06
348.9	393.06
349.128	376.06
349.355	384.06
349.583	377.06
349.81	370.06
350.037	369.06
350.265	376.06
350.492	380.06
350.72	383.06
350.947	384.06
351.174	373.06
351.402	394.06
351.629	372.06
351.856	380.06
352.083	385.06
352.311	396.06
352.538	382.06
352.765	378.06
352.992	388.06
353.22	374.06
353.447	385.06
353.674	376.06
353.901	362.06
354.128	354.06
354.355	374.06
354.583	362.06
354.81	374.06
355.037	364.06
355.264	362.06
355.491	344.06
355.718	344.06
355.945	354.06
356.172	351.06
356.399	374.06
356.626	352.06
356.853	370.06
357.08	368.06
357.307	354.06
357.534	361.06
357.761	375.06
357.988	362.06
358.215	367.06
358.441	356.06
358.668	361.06
358.895	362.06
359.122	371.06
359.349	362.06
359.576	382.06
359.802	384.06
360.029	393.06
360.256	401.06
360.483	380.06
360.709	398.06
360.936	367.06
361.163	369.06
361.39	358.06
361.616	367.06
361.843	375.06
362.07	382.06
362.296	394.06
362.523	362.06
362.749	367.06
362.976	374.06
363.203	358.06
363.429	367.06
363.656	360.06
363.882	373.06
364.109	365.06
364.335	364.06
364.562	346.06
364.788	364.06
365.015	368.06
365.241	367.06
365.468	361.06
365.694	366.06
365.92	360.06
366.147	370.06
366.373	344.06
366.599	362.06
366.826	346.06
367.052	360.06
367.278	350.06
367.505	360.06
367.731	369.06
367.957	344.06
368.184	364.06
368.41	362.06
368.636	366.06
368.862	369.06
369.089	376.06
369.315	350.06
369.541	356.06
369.767	355.06
369.993	350.06
370.219	340.06
370.445	362.06
370.672	357.06
370.898	358.06
371.124	363.06
371.35	365.06
371.576	367.06
371.802	356.06
372.028	361.06
372.254	359.06
372.48	348.06
372.706	372.06
372.932	362.06
373.158	370.06
373.384	354.06
373.61	355.06
373.835	361.06
374.061	374.06
374.287	363.06
374.513	350.06
374.739	368.06
374.965	370.06
375.191	354.06
375.416	364.06
375.642	375.06
375.868	372.06
376.094	345.06
376.319	354.06
376.545	339.06
376.771	352.06
376.997	355.06
377.222	349.06
377.448	352.06
377.674	356.06
377.899	366.06
378.125	346.06
378.35	348.06
378.576	354.06
378.802	363.06
379.027	360.06
379.253	368.06
379.478	358.06
379.704	352.06
379.929	358.06
380.155	366.06
380.38	359.06
380.606	362.06
380.831	363.06
381.057	343.06
381.282	370.06
381.507	350.06
381.733	370.06
381.958	372.06
382.184	361.06
382.409	358.06
382.634	358.06
382.86	356.06
383.085	359.06
383.31	366.06
383.535	348.06
383.761	374.06
383.986	390.06
384.211	371.06
384.436	367.06
384.662	390.06
384.887	383.06
385.112	382.06
385.337	380.06
385.562	375.06
385.787	382.06
386.013	383.06
386.238	390.06
386.463	375.06
386.688	400.06
386.913	389.06
387.138	362.06
387.363	386.06
387.588	365.06
387.813	372.06
388.038	366.06
388.263	369.06
388.488	365.06
388.713	374.06
388.938	375.06
389.163	394.06
389.387	392.06
389.612	385.06
389.837	373.06
390.062	381.06
390.287	387.06
390.512	389.06
390.736	373.06
390.961	385.06
391.186	387.06
391.411	404.06
391.636	396.06
391.86	384.06
392.085	414.06
392.31	384.06
392.534	397.06
392.759	406.06
392.984	385.06
393.208	386.06
393.433	375.06
393.658	384.06
393.882	377.06
394.107	386.06
394.331	386.06
394.556	398.06
394.78	388.06
395.005	389.06
395.229	345.06
395.454	388.06
395.678	398.06
395.903	399.06
396.127	431.06
396.352	406.06
396.576	397.06
396.801	391.06
397.025	404.06
397.249	398.06
397.474	397.06
397.698	411.06
397.922	414.06
398.147	420.06
398.371	422.06
398.595	427.06
398.82	425.06
399.044	424.06
399.268	465.06
399.492	466.06
399.717	506.06
399.941	487.06
400.165	503.06
400.389	529.06
400.613	490.06
400.837	446.06
401.062	433.06
401.286	441.06
401.51	416.06
401.734	401.06
401.958	416.06
402.182	429.06
402.406	439.06
402.63	424.06
402.854	427.06
403.078	413.06
403.302	438.06
403.526	451.06
403.75	442.06
403.974	438.06
404.198	436.06
404.422	438.06
404.645	427.06
404.869	452.06
405.093	458.06
405.317	506.06
405.541	505.06
405.765	491.06
405.988	471.06
406.212	450.06
406.436	457.06
406.66	495.06
406.883	468.06
407.107	502.06
407.331	503.06
407.555	546.06
407.778	561.06
408.002	516.06
408.226	491.06
408.449	494.06
408.673	463.06
408.896	498.06
409.12	514.06
409.344	503.06
409.567	450.06
409.791	446.06
410.014	452.06
410.238	443.06
410.461	448.06
410.685	451.06
410.908	442.06
411.132	477.06
411.355	507.06
411.578	474.06
411.802	447.06
412.025	425.06
412.249	451.06
412.472	466.06
412.695	473.06
412.919	484.06
413.142	461.06
413.365	434.06
413.589	429.06
413.812	419.06
414.035	435.06
414.258	415.06
414.482	406.06
414.705	419.06
414.928	385.06
415.151	405.06
415.374	407.06
415.597	409.06
415.821	403.06
416.044	408.06
416.267	413.06
416.49	402.06
416.713	395.06
416.936	389.06
417.159	401.06
417.382	430.06
417.605	402.06
417.828	408.06
418.051	415.06
418.274	412.06
418.497	414.06
418.72	418.06
418.943	424.06
419.166	411.06
419.389	438.06
419.611	447.06
419.834	440.06
420.057	429.06
420.28	433.06
420.503	410.06
420.726	418.06
420.948	426.06
421.171	455.06
421.394	478.06
421.617	418.06
421.839	415.06
422.062	416.06
422.285	446.06
422.507	499.06
422.73	530.06
422.953	503.06
423.175	435.06
423.398	431.06
423.621	442.06
423.843	441.06
424.066	443.06
424.288	433.06
424.511	454.06
424.733	487.06
424.956	547.06
425.178	538.06
425.401	526.06
425.623	532.06
425.846	477.06
426.068	453.06
426.291	426.06
426.513	435.06
426.735	444.06
426.958	466.06
427.18	527.06
427.402	628.06
427.625	656.06
427.847	594.06
428.069	534.06
428.292	455.06
428.514	430.06
428.736	424.06
428.958	409.06
429.181	414.06
429.403	404.06
429.625	420.06
429.847	436.06
430.069	483.06
430.292	498.06
430.514	414.06
430.736	439.06
430.958	418.06
431.18	410.06
431.402	399.06
431.624	411.06
431.846	398.06
432.068	384.06
432.29	390.06
432.512	406.06
432.734	381.06
432.956	407.06
433.178	387.06
433.4	400.06
433.622	388.06
433.844	418.06
434.066	398.06
434.287	391.06
434.509	387.06
434.731	383.06
434.953	414.06
435.175	416.06
435.397	426.06
435.618	440.06
435.84	475.06
436.062	523.06
436.284	564.06
436.505	472.06
436.727	452.06
436.949	424.06
437.17	407.06
437.392	414.06
437.614	435.06
437.835	450.06
438.057	486.06
438.278	549.06
438.5	566.06
438.721	610.06
438.943	584.06
439.165	482.06
439.386	474.06
439.608	446.06
439.829	435.06
440.05	469.06
440.272	473.06
440.493	459.06
440.715	435.06
440.936	416.06
441.158	415.06
441.379	393.06
441.6	434.06
441.822	436.06
442.043	467.06
442.264	494.06
442.486	538.06
442.707	448.06
442.928	439.06
443.149	447.06
443.371	472.06
443.592	500.06
443.813	585.06
444.034	576.06
444.255	508.06
444.476	464.06
444.698	434.06
444.919	447.06
445.14	512.06
445.361	485.06
445.582	451.06
445.803	500.06
446.024	558.06
446.245	571.06
446.466	543.06
446.687	469.06
446.908	426.06
447.129	408.06
447.35	404.06
447.571	408.06
447.792	408.06
448.013	386.06
448.234	406.06
448.455	458.06
448.675	561.06
448.896	606.06
449.117	531.06
449.338	494.06
449.559	582.06
449.779	655.06
450	501.06
450.221	425.06
450.442	405.06
450.662	394.06
450.883	387.06
451.104	396.06
451.324	387.06
451.545	378.06
451.766	374.06
451.986	374.06
452.207	372.06
452.428	372.06
452.648	370.06
452.869	356.06
453.089	369.06
453.31	373.06
453.53	379.06
453.751	372.06
453.971	350.06
454.192	370.06
454.412	356.06
454.633	367.06
454.853	359.06
455.073	368.06
455.294	374.06
455.514	419.06
455.734	423.06
455.955	372.06
456.175	348.06
456.395	335.06
456.616	341.06
456.836	355.06
457.056	346.06
457.276	346.06
457.497	348.06
457.717	350.06
457.937	350.06
458.157	351.06
458.377	364.06
458.598	381.06
458.818	405.06
459.038	449.06
459.258	461.06
459.478	422.06
459.698	398.06
459.918	381.06
460.138	384.06
460.358	400.06
460.578	408.06
460.798	396.06
461.018	394.06
461.238	384.06
461.458	402.06
461.678	414.06
461.898	395.06
462.118	396.06
462.338	403.06
462.558	401.06
462.777	426.06
462.997	430.06
463.217	442.06
463.437	450.06
463.657	439.06
463.876	414.06
464.096	427.06
464.316	442.06
464.536	425.06
464.755	428.06
464.975	423.06
465.195	424.06
465.414	468.06
465.634	435.06
465.854	403.06
466.073	385.06
466.293	389.06
466.512	376.06
466.732	368.06
466.951	368.06
467.171	374.06
467.391	379.06
467.61	384.06
467.829	395.06
468.049	383.06
468.268	387.06
468.488	358.06
468.707	363.06
468.927	357.06
469.146	369.06
469.365	379.06
469.585	362.06
469.804	358.06
470.023	375.06
470.243	368.06
470.462	391.06
470.681	389.06
470.901	387.06
471.12	389.06
471.339	383.06
471.558	378.06
471.777	387.06
471.997	375.06
472.216	375.06
472.435	404.06
472.654	382.06
472.873	366.06
473.092	357.06
473.311	376.06
473.53	376.06
473.749	394.06
473.968	414.06
474.187	464.06
474.406	495.06
474.625	421.06
474.844	387.06
475.063	370.06
475.282	392.06
475.501	400.06
475.72	376.06
475.939	389.06
476.158	384.06
476.377	383.06
476.596	382.06
476.814	399.06
477.033	413.06
477.252	401.06
477.471	390.06
477.69	402.06
477.908	398.06
478.127	420.06
478.346	436.06
478.564	410.06
478.783	421.06
479.002	432.06
479.22	446.06
479.439	434.06
479.658	455.06
479.876	440.06
480.095	467.06
480.313	483.06
480.532	475.06
480.751	451.06
480.969	455.06
481.188	487.06
481.406	508.06
481.624	484.06
481.843	471.06
482.061	442.06
482.28	438.06
482.498	447.06
482.717	460.06
482.935	426.06
483.153	420.06
483.372	420.06
483.59	443.06
483.808	449.06
484.027	419.06
484.245	428.06
484.463	459.06
484.681	439.06
484.9	440.06
485.118	467.06
485.336	448.06
485.554	451.06
485.772	445.06
485.99	455.06
486.209	454.06
486.427	468.06
486.645	474.06
486.863	467.06
487.081	475.06
487.299	461.06
487.517	454.06
487.735	460.06
487.953	458.06
488.171	465.06
488.389	477.06
488.607	475.06
488.825	474.06
489.043	459.06
489.261	468.06
489.479	450.06
489.696	441.06
489.914	485.06
490.132	486.06
490.35	476.06
490.568	476.06
490.786	502.06
491.003	512.06
491.221	496.06
491.439	490.06
491.657	508.06
491.874	518.06
492.092	520.06
492.31	520.06
492.527	526.06
492.745	528.06
492.963	540.06
493.18	531.06
493.398	536.06
493.615	514.06
493.833	525.06
494.05	528.06
494.268	518.06
494.485	530.06
494.703	539.06
494.92	538.06
495.138	508.06
495.355	540.06
495.573	538.06
495.79	538.06
496.008	534.06
496.225	531.06
496.442	540.06
496.66	546.06
496.877	537.06
497.094	529.06
497.312	541.06
497.529	564.06
497.746	569.06
497.963	571.06
498.181	590.06
498.398	587.06
498.615	620.06
498.832	596.06
499.049	646.06
499.267	628.06
499.484	676.06
499.701	680.06
499.918	712.06
500.135	766.06
500.352	735.06
500.569	780.06
500.786	754.06
501.003	772.06
501.22	744.06
501.437	727.06
501.654	708.06
501.871	678.06
502.088	662.06
502.305	615.06
502.522	616.06
502.739	610.06
502.956	571.06
503.172	573.06
503.389	576.06
503.606	574.06
503.823	575.06
504.04	542.06
504.256	558.06
504.473	551.06
504.69	592.06
504.907	562.06
505.123	543.06
505.34	521.06
505.557	532.06
505.773	512.06
505.99	521.06
506.207	506.06
506.423	496.06
506.64	518.06
506.856	496.06
507.073	511.06
507.289	504.06
507.506	487.06
507.722	503.06
507.939	524.06
508.155	493.06
508.372	470.06
508.588	484.06
508.805	486.06
509.021	501.06
509.238	477.06
509.454	497.06
509.67	485.06
509.887	493.06
510.103	467.06
510.319	486.06
510.536	540.06
510.752	805.06
510.968	638.06
511.184	472.06
511.401	478.06
511.617	469.06
511.833	472.06
512.049	463.06
512.265	475.06
512.481	447.06
512.698	446.06
512.914	452.06
513.13	453.06
513.346	453.06
513.562	463.06
513.778	458.06
513.994	442.06
514.21	465.06
514.426	500.06
514.642	487.06
514.858	496.06
515.074	522.06
515.29	619.06
515.506	795.06
515.721	674.06
515.937	522.06
516.153	499.06
516.369	485.06
516.585	497.06
516.801	470.06
517.016	494.06
517.232	466.06
517.448	485.06
517.664	486.06
517.879	497.06
518.095	462.06
518.311	481.06
518.527	479.06
518.742	493.06
518.958	470.06
519.173	464.06
519.389	455.06
519.605	467.06
519.82	460.06
520.036	470.06
520.251	471.06
520.467	499.06
520.682	484.06
520.898	478.06
521.113	488.06
521.329	534.06
521.544	555.06
521.76	643.06
521.975	992.06
522.19	944.06
522.406	580.06
522.621	497.06
522.836	457.06
523.052	457.06
523.267	449.06
523.482	430.06
523.698	406.06
523.913	430.06
524.128	431.06
524.343	402.06
524.559	426.06
524.774	410.06
524.989	398.06
525.204	419.06
525.419	410.06
525.634	416.06
525.849	415.06
526.064	393.06
526.28	387.06
526.495	391.06
526.71	387.06
526.925	402.06
527.14	374.06
527.355	377.06
527.57	384.06
527.785	402.06
527.999	380.06
528.214	372.06
528.429	384.06
528.644	385.06
528.859	394.06
529.074	393.06
529.289	408.06
529.503	414.06
529.718	428.06
529.933	400.06
530.148	401.06
530.363	368.06
530.577	388.06
530.792	388.06
531.007	380.06
531.221	362.06
531.436	375.06
531.651	388.06
531.865	371.06
532.08	378.06
532.295	370.06
532.509	389.06
532.724	365.06
532.938	376.06
533.153	364.06
533.367	380.06
533.582	360.06
533.796	372.06
534.011	346.06
534.225	376.06
534.44	369.06
534.654	382.06
534.868	362.06
535.083	363.06
535.297	374.06
535.511	359.06
535.726	367.06
535.94	366.06
536.154	369.06
536.369	360.06
536.583	349.06
536.797	359.06
537.011	359.06
537.225	368.06
537.44	362.06
537.654	351.06
537.868	339.06
538.082	350.06
538.296	351.06
538.51	357.06
538.724	354.06
538.938	369.06
539.153	358.06
539.367	383.06
539.581	374.06
539.795	361.06
540.009	362.06
540.222	356.06
540.436	364.06
540.65	342.06
540.864	372.06
541.078	376.06
541.292	371.06
541.506	379.06
541.72	355.06
541.934	359.06
542.147	363.06
542.361	364.06
542.575	341.06
542.789	360.06
543.002	356.06
543.216	354.06
543.43	357.06
543.644	346.06
543.857	375.06
544.071	364.06
544.285	358.06
544.498	352.06
544.712	354.06
544.925	358.06
545.139	357.06
545.352	341.06
545.566	362.06
545.779	342.06
545.993	356.06
546.206	347.06
546.42	358.06
546.633	354.06
546.847	359.06
547.06	357.06
547.274	356.06
547.487	342.06
547.7	350.06
547.914	331.06
548.127	334.06
548.34	354.06
548.554	350.06
548.767	331.06
548.98	362.06
549.193	343.06
549.407	342.06
549.62	351.06
549.833	340.06
550.046	351.06
550.259	354.06
550.473	332.06
550.686	340.06
550.899	335.06
551.112	346.06
551.325	338.06
551.538	334.06
551.751	342.06
551.964	338.06
552.177	331.06
552.39	328.06
552.603	327.06
552.816	333.06
553.029	344.06
553.242	357.06
553.455	333.06
553.667	354.06
553.88	348.06
554.093	362.06
554.306	358.06
554.519	335.06
554.732	347.06
554.944	332.06
555.157	335.06
555.37	341.06
555.583	331.06
555.795	326.06
556.008	318.06
556.221	315.06
556.433	324.06
556.646	327.06
556.859	314.06
557.071	327.06
557.284	314.06
557.496	324.06
557.709	324.06
557.921	311.06
558.134	315.06
558.346	327.06
558.559	309.06
558.771	302.06
558.984	297.06
559.196	312.06
559.409	326.06
559.621	304.06
559.833	299.06
560.046	310.06
560.258	309.06
560.47	320.06
560.683	305.06
560.895	294.06
561.107	297.06
561.32	311.06
561.532	311.06
561.744	307.06
561.956	307.06
562.168	317.06
562.381	308.06
562.593	295.06
562.805	312.06
563.017	324.06
563.229	316.06
563.441	304.06
563.653	308.06
563.865	324.06
564.077	318.06
564.289	306.06
564.501	320.06
564.713	302.06
564.925	328.06
565.137	318.06
565.349	324.06
565.561	330.06
565.773	325.06
565.985	316.06
566.197	339.06
566.408	356.06
566.62	359.06
566.832	364.06
567.044	370.06
567.255	375.06
567.467	388.06
567.679	378.06
567.891	389.06
568.102	374.06
568.314	383.06
568.526	345.06
568.737	359.06
568.949	338.06
569.161	346.06
569.372	338.06
569.584	313.06
569.795	318.06
570.007	341.06
570.218	336.06
570.43	335.06
570.641	298.06
570.853	279.06
571.064	294.06
571.276	292.06
571.487	294.06
571.698	291.06
571.91	284.06
572.121	300.06
572.333	298.06
572.544	296.06
572.755	285.06
572.966	272.06
573.178	270.06
573.389	275.06
573.6	279.06
573.811	260.06
574.023	272.06
574.234	270.06
574.445	266.06
574.656	284.06
574.867	279.06
575.078	287.06
575.289	271.06
575.501	262.06
575.712	246.06
575.923	266.06
576.134	251.06
576.345	260.06
576.556	257.06
576.767	253.06
576.978	260.06
577.188	264.06
577.399	257.06
577.61	251.06
577.821	271.06
578.032	262.06
578.243	293.06
578.454	383.06
578.665	316.06
578.875	271.06
579.086	258.06
579.297	266.06
579.508	245.06
579.718	258.06
579.929	268.06
580.14	247.06
580.35	232.06
580.561	239.06
580.772	253.06
580.982	246.06
581.193	252.06
581.403	254.06
581.614	263.06
581.825	250.06
582.035	240.06
582.246	243.06
582.456	244.06
582.667	220.06
582.877	246.06
583.087	242.06
583.298	252.06
583.508	246.06
583.719	256.06
583.929	249.06
584.139	251.06
584.35	242.06
584.56	247.06
584.77	236.06
584.981	262.06
585.191	238.06
585.401	254.06
585.611	252.06
585.821	247.06
586.032	244.06
586.242	231.06
586.452	232.06
586.662	245.06
586.872	248.06
587.082	244.06
587.292	237.06
587.502	242.06
587.713	226.06
587.923	238.06
588.133	228.06
588.343	244.06
588.553	227.06
588.762	233.06
588.972	238.06
589.182	266.06
589.392	263.06
589.602	242.06
589.812	265.06
590.022	242.06
590.232	236.06
590.441	250.06
590.651	228.06
590.861	243.06
591.071	235.06
591.281	251.06
591.49	248.06
591.7	235.06
591.91	237.06
592.119	223.06
592.329	230.06
592.539	217.06
592.748	254.06
592.958	261.06
593.167	244.06
593.377	242.06
593.587	270.06
593.796	242.06
594.006	242.06
594.215	237.06
594.424	244.06
594.634	240.06
594.843	244.06
595.053	236.06
595.262	232.06
595.472	243.06
595.681	228.06
595.89	208.06
596.1	222.06
596.309	234.06
596.518	234.06
596.727	226.06
596.937	235.06
597.146	227.06
597.355	237.06
597.564	224.06
597.774	210.06
597.983	212.06
598.192	220.06
598.401	214.06
598.61	209.06
598.819	204.06
599.028	207.06
599.237	213.06
599.446	213.06
599.655	219.06
599.864	205.06
600.073	220.06
600.282	212.06
600.491	204.06
600.7	224.06
600.909	214.06
601.118	213.06
601.327	206.06
601.536	216.06
601.745	215.06
601.953	199.06
602.162	211.06
602.371	200.06
602.58	203.06
602.789	206.06
602.997	212.06
603.206	214.06
603.415	197.06
603.623	203.06
603.832	192.06
604.041	212.06
604.249	204.06
604.458	219.06
604.666	200.06
604.875	207.06
605.084	219.06
605.292	213.06
605.501	207.06
605.709	206.06
605.918	193.06
606.126	189.06
606.334	198.06
606.543	188.06
606.751	206.06
606.96	201.06
607.168	181.06
607.376	196.06
607.585	210.06
607.793	205.06
608.001	181.06
608.21	208.06
608.418	213.06
608.626	197.06
608.834	182.06
609.043	184.06
609.251	202.06
609.459	195.06
609.667	196.06
609.875	188.06
610.083	190.06
610.291	193.06
610.499	192.06
610.707	200.06
610.916	202.06
611.124	190.06
611.332	183.06
611.54	193.06
611.748	201.06
611.955	179.06
612.163	199.06
612.371	195.06
612.579	200.06
612.787	190.06
612.995	188.06
613.203	173.06
613.411	190.06
613.618	199.06
613.826	199.06
614.034	185.06
614.242	185.06
614.449	193.06
614.657	207.06
614.865	184.06
615.072	183.06
615.28	185.06
615.488	184.06
615.695	195.06
615.903	201.06
616.111	199.06
616.318	207.06
616.526	180.06
616.733	180.06
616.941	192.06
617.148	180.06
617.356	199.06
617.563	189.06
617.771	192.06
617.978	166.06
618.185	191.06
618.393	189.06
618.6	185.06
618.807	188.06
619.015	190.06
619.222	188.06
619.429	189.06
619.637	184.06
619.844	160.06
620.051	167.06
620.258	187.06
620.466	179.06
620.673	188.06
620.88	179.06
621.087	185.06
621.294	174.06
621.501	188.06
621.708	185.06
621.915	181.06
622.122	179.06
622.329	212.06
622.536	170.06
622.743	186.06
622.95	157.06
623.157	173.06
623.364	173.06
623.571	169.06
623.778	176.06
623.985	166.06
624.192	166.06
624.399	175.06
624.606	180.06
624.812	176.06
625.019	164.06
625.226	169.06
625.433	180.06
625.639	166.06
625.846	182.06
626.053	184.06
626.259	178.06
626.466	173.06
626.673	168.06
626.879	165.06
627.086	172.06
627.293	176.06
627.499	160.06
627.706	151.06
627.912	180.06
628.119	159.06
628.325	176.06
628.532	159.06
628.738	165.06
628.945	154.06
629.151	159.06
629.357	164.06
629.564	164.06
629.77	176.06
629.976	148.06
630.183	164.06
630.389	165.06
630.595	174.06
630.802	171.06
631.008	148.06
631.214	148.06
631.42	175.06
631.627	166.06
631.833	163.06
632.039	152.06
632.245	172.06
632.451	157.06
632.657	166.06
632.863	158.06
633.069	167.06
633.275	147.06
633.481	174.06
633.688	148.06
633.893	166.06
634.099	151.06
634.305	168.06
634.511	155.06
634.717	160.06
634.923	153.06
635.129	148.06
635.335	170.06
635.541	149.06
635.747	142.06
635.952	162.06
636.158	158.06
636.364	158.06
636.57	156.06
636.775	146.06
636.981	153.06
637.187	143.06
637.392	156.06
637.598	155.06
637.804	138.06
638.009	155.06
638.215	154.06
638.421	155.06
638.626	145.06
638.832	142.06
639.037	150.06
639.243	140.06
639.448	139.06
639.654	162.06
639.859	162.06
640.065	133.06
640.27	139.06
640.475	157.06
640.681	151.06
640.886	164.06
641.091	142.06
641.297	146.06
641.502	158.06
641.707	145.06
641.913	144.06
642.118	144.06
642.323	152.06
642.528	149.06
642.733	153.06
642.939	146.06
643.144	145.06
643.349	131.06
643.554	134.06
643.759	156.06
643.964	136.06
644.169	142.06
644.374	149.06
644.579	148.06
644.784	139.06
644.989	130.06
645.194	143.06
645.399	138.06
645.604	135.06
645.809	138.06
646.014	128.06
646.219	140.06
646.423	156.06
646.628	143.06
646.833	168.06
647.038	148.06
647.243	139.06
647.447	151.06
647.652	125.06
647.857	146.06
648.062	158.06
648.266	131.06
648.471	164.06
648.676	148.06
648.88	147.06
649.085	137.06
649.289	151.06
649.494	130.06
649.698	167.06
649.903	153.06
650.107	132.06
650.312	156.06
650.516	135.06
650.721	113.06
650.925	138.06
651.13	128.06
651.334	127.06
651.539	129.06
651.743	134.06
651.947	132.06
652.152	134.06
652.356	135.06
652.56	138.06
652.764	123.06
652.969	116.06
653.173	126.06
653.377	125.06
653.581	121.06
653.785	126.06
653.99	124.06
654.194	115.06
654.398	124.06
654.602	136.06
654.806	123.06
655.01	114.06
655.214	137.06
655.418	124.06
655.622	120.06
655.826	125.06
656.03	108.06
656.234	134.06
656.438	121.06
656.642	129.06
656.846	141.06
657.049	128.06
657.253	128.06
657.457	117.06
657.661	134.06
657.865	135.06
658.068	100.06
658.272	96.06
658.476	121.06
658.68	107.06
658.883	110.06
659.087	100.06
659.291	83.06
659.494	91.06
659.698	102.06
659.901	104.06
660.105	98.06
660.309	86.06
660.512	84.06
660.716	99.06
660.919	85.06
661.123	93.06
661.326	93.06
661.53	94.06
661.733	81.06
661.936	72.06
662.14	93.06
662.343	84.06
662.546	88.06
662.75	91.06
662.953	91.06
663.156	88.06
663.36	82.06
663.563	89.06
663.766	62.06
663.969	82.06
664.173	71.06
664.376	82.06
664.579	93.06
664.782	89.06
664.985	85.06
665.188	75.06
665.391	80.06
665.594	75.06
665.797	88.06
666	82.06
666.203	80.06
666.406	96.06
666.609	86.06
666.812	85.06
667.015	89.06
667.218	75.06
667.421	69.06
667.624	87.06
667.827	86.06
668.03	72.06
668.232	69.06
668.435	76.06
668.638	77.06
668.841	78.06
669.043	80.06
669.246	88.06
669.449	86.06
669.651	85.06
669.854	82.06
670.057	72.06
670.259	68.06
670.462	69.06
670.665	81.06
670.867	83.06
671.07	85.06
671.272	85.06
671.475	87.06
671.677	76.06
671.88	85.06
672.082	75.06
672.284	87.06
672.487	82.06
672.689	77.06
672.892	88.06
