Data from 1960PennyLincolnUp.LampE6.200Scan.07172019.P1_HRD10591_13-05-01-002.txt Node
Date: Thu Jul 18 13:05:01 EDT 2019
User: cochatt
Spectrometer: HR+D1059
Trigger mode: 1
Integration Time (sec): 1.000000E-1
Scans to average: 1
Electric dark correction enabled: true
Nonlinearity correction enabled: false
Boxcar width: 0
XAxis mode: Wavelengths
Number of Pixels in Spectrum: 2048
>>>>>Begin Spectral Data<<<<<
223.165	-13.62
223.4	-13.62
223.635	-13.62
223.869	1.38
224.104	-15.62
224.338	-18.62
224.573	-10.62
224.808	-13.62
225.042	-1.62
225.277	-8.62
225.511	-14.62
225.746	7.38
225.98	8.38
226.215	2.38
226.449	5.38
226.683	19.38
226.918	20.38
227.152	32.38
227.387	31.38
227.621	39.38
227.856	25.38
228.09	60.38
228.324	60.38
228.559	59.38
228.793	72.38
229.027	87.38
229.262	105.38
229.496	92.38
229.73	111.38
229.964	135.38
230.199	106.38
230.433	96.38
230.667	94.38
230.901	105.38
231.136	95.38
231.37	113.38
231.604	88.38
231.838	105.38
232.072	103.38
232.306	107.38
232.541	117.38
232.775	115.38
233.009	120.38
233.243	102.38
233.477	123.38
233.711	112.38
233.945	105.38
234.179	96.38
234.413	117.38
234.647	102.38
234.881	106.38
235.115	125.38
235.349	105.38
235.583	127.38
235.817	114.38
236.051	114.38
236.285	136.38
236.519	121.38
236.753	109.38
236.987	127.38
237.221	148.38
237.455	170.38
237.689	131.38
237.922	117.38
238.156	117.38
238.39	118.38
238.624	128.38
238.858	119.38
239.091	115.38
239.325	109.38
239.559	114.38
239.793	120.38
240.027	128.38
240.26	123.38
240.494	133.38
240.728	134.38
240.961	141.38
241.195	130.38
241.429	134.38
241.662	121.38
241.896	120.38
242.13	121.38
242.363	124.38
242.597	129.38
242.83	133.38
243.064	144.38
243.298	130.38
243.531	144.38
243.765	130.38
243.998	131.38
244.232	136.38
244.465	128.38
244.699	140.38
244.932	141.38
245.166	147.38
245.399	136.38
245.633	144.38
245.866	149.38
246.099	143.38
246.333	136.38
246.566	141.38
246.8	146.38
247.033	148.38
247.266	144.38
247.5	161.38
247.733	152.38
247.966	165.38
248.2	139.38
248.433	160.38
248.666	157.38
248.899	169.38
249.133	173.38
249.366	178.38
249.599	169.38
249.832	148.38
250.066	164.38
250.299	177.38
250.532	176.38
250.765	179.38
250.998	197.38
251.231	185.38
251.465	169.38
251.698	181.38
251.931	168.38
252.164	176.38
252.397	176.38
252.63	200.38
252.863	195.38
253.096	194.38
253.329	193.38
253.562	187.38
253.795	183.38
254.028	179.38
254.261	182.38
254.494	196.38
254.727	183.38
254.96	213.38
255.193	220.38
255.426	192.38
255.659	179.38
255.892	195.38
256.124	207.38
256.357	191.38
256.59	198.38
256.823	187.38
257.056	194.38
257.289	203.38
257.521	179.38
257.754	170.38
257.987	189.38
258.22	192.38
258.452	182.38
258.685	188.38
258.918	185.38
259.151	203.38
259.383	195.38
259.616	191.38
259.849	195.38
260.081	191.38
260.314	213.38
260.547	214.38
260.779	206.38
261.012	208.38
261.244	197.38
261.477	216.38
261.71	205.38
261.942	213.38
262.175	195.38
262.407	210.38
262.64	213.38
262.872	216.38
263.105	212.38
263.337	212.38
263.57	187.38
263.802	203.38
264.035	202.38
264.267	187.38
264.499	199.38
264.732	207.38
264.964	203.38
265.197	211.38
265.429	228.38
265.661	211.38
265.894	216.38
266.126	215.38
266.358	198.38
266.591	208.38
266.823	213.38
267.055	224.38
267.287	221.38
267.52	218.38
267.752	222.38
267.984	207.38
268.216	202.38
268.448	223.38
268.681	217.38
268.913	219.38
269.145	244.38
269.377	256.38
269.609	225.38
269.841	233.38
270.073	237.38
270.306	260.38
270.538	255.38
270.77	257.38
271.002	241.38
271.234	233.38
271.466	261.38
271.698	276.38
271.93	257.38
272.162	261.38
272.394	253.38
272.626	256.38
272.858	249.38
273.09	258.38
273.322	249.38
273.553	243.38
273.785	233.38
274.017	245.38
274.249	230.38
274.481	256.38
274.713	262.38
274.945	251.38
275.176	248.38
275.408	251.38
275.64	258.38
275.872	242.38
276.104	278.38
276.335	252.38
276.567	245.38
276.799	258.38
277.031	289.38
277.262	287.38
277.494	282.38
277.726	295.38
277.957	267.38
278.189	267.38
278.421	244.38
278.652	265.38
278.884	269.38
279.115	266.38
279.347	288.38
279.579	296.38
279.81	308.38
280.042	297.38
280.273	286.38
280.505	318.38
280.736	275.38
280.968	265.38
281.199	295.38
281.431	269.38
281.662	255.38
281.894	258.38
282.125	282.38
282.356	295.38
282.588	275.38
282.819	295.38
283.051	280.38
283.282	270.38
283.513	271.38
283.745	280.38
283.976	282.38
284.207	288.38
284.439	285.38
284.67	272.38
284.901	291.38
285.132	263.38
285.364	290.38
285.595	278.38
285.826	302.38
286.057	301.38
286.288	304.38
286.52	274.38
286.751	280.38
286.982	301.38
287.213	264.38
287.444	289.38
287.675	301.38
287.906	322.38
288.138	302.38
288.369	319.38
288.6	305.38
288.831	317.38
289.062	297.38
289.293	301.38
289.524	305.38
289.755	318.38
289.986	312.38
290.217	305.38
290.448	309.38
290.679	299.38
290.91	304.38
291.141	297.38
291.371	294.38
291.602	298.38
291.833	305.38
292.064	299.38
292.295	295.38
292.526	284.38
292.757	300.38
292.987	283.38
293.218	296.38
293.449	304.38
293.68	291.38
293.91	302.38
294.141	308.38
294.372	314.38
294.603	318.38
294.833	301.38
295.064	311.38
295.295	303.38
295.525	307.38
295.756	330.38
295.987	307.38
296.217	345.38
296.448	323.38
296.679	324.38
296.909	322.38
297.14	317.38
297.37	330.38
297.601	314.38
297.831	311.38
298.062	308.38
298.292	329.38
298.523	327.38
298.753	330.38
298.984	313.38
299.214	306.38
299.445	311.38
299.675	320.38
299.905	340.38
300.136	345.38
300.366	331.38
300.597	330.38
300.827	326.38
301.057	337.38
301.288	334.38
301.518	350.38
301.748	347.38
301.979	351.38
302.209	349.38
302.439	334.38
302.669	319.38
302.9	344.38
303.13	336.38
303.36	335.38
303.59	336.38
303.82	344.38
304.051	352.38
304.281	314.38
304.511	339.38
304.741	320.38
304.971	357.38
305.201	352.38
305.431	342.38
305.661	325.38
305.891	343.38
306.121	358.38
306.352	333.38
306.582	327.38
306.812	331.38
307.042	353.38
307.272	323.38
307.502	328.38
307.731	358.38
307.961	339.38
308.191	339.38
308.421	336.38
308.651	327.38
308.881	340.38
309.111	345.38
309.341	339.38
309.571	355.38
309.8	366.38
310.03	371.38
310.26	375.38
310.49	361.38
310.72	340.38
310.949	369.38
311.179	389.38
311.409	377.38
311.639	388.38
311.868	357.38
312.098	373.38
312.328	365.38
312.557	374.38
312.787	387.38
313.017	378.38
313.246	374.38
313.476	374.38
313.706	371.38
313.935	387.38
314.165	394.38
314.394	408.38
314.624	371.38
314.853	370.38
315.083	379.38
315.312	379.38
315.542	378.38
315.771	375.38
316.001	358.38
316.23	378.38
316.46	374.38
316.689	378.38
316.919	368.38
317.148	383.38
317.377	383.38
317.607	399.38
317.836	379.38
318.065	375.38
318.295	382.38
318.524	371.38
318.753	368.38
318.983	379.38
319.212	377.38
319.441	377.38
319.67	384.38
319.9	367.38
320.129	394.38
320.358	399.38
320.587	389.38
320.816	382.38
321.046	383.38
321.275	411.38
321.504	368.38
321.733	393.38
321.962	403.38
322.191	397.38
322.42	397.38
322.649	414.38
322.878	415.38
323.108	422.38
323.337	415.38
323.566	458.38
323.795	465.38
324.024	503.38
324.253	577.38
324.482	786.38
324.71	1151.38
324.939	1591.38
325.168	1311.38
325.397	696.38
325.626	523.38
325.855	468.38
326.084	457.38
326.313	439.38
326.542	466.38
326.77	479.38
326.999	589.38
327.228	731.38
327.457	1089.38
327.686	1227.38
327.914	820.38
328.143	584.38
328.372	537.38
328.6	503.38
328.829	487.38
329.058	490.38
329.287	509.38
329.515	473.38
329.744	455.38
329.972	454.38
330.201	458.38
330.43	497.38
330.658	505.38
330.887	521.38
331.115	520.38
331.344	463.38
331.572	473.38
331.801	471.38
332.03	482.38
332.258	468.38
332.486	477.38
332.715	454.38
332.943	495.38
333.172	496.38
333.4	514.38
333.629	521.38
333.857	525.38
334.085	537.38
334.314	538.38
334.542	548.38
334.771	573.38
334.999	541.38
335.227	510.38
335.455	499.38
335.684	471.38
335.912	464.38
336.14	491.38
336.369	490.38
336.597	479.38
336.825	477.38
337.053	474.38
337.281	458.38
337.51	489.38
337.738	472.38
337.966	446.38
338.194	458.38
338.422	452.38
338.65	462.38
338.878	466.38
339.106	443.38
339.334	439.38
339.562	438.38
339.79	429.38
340.018	423.38
340.246	435.38
340.474	440.38
340.702	445.38
340.93	441.38
341.158	429.38
341.386	435.38
341.614	447.38
341.842	433.38
342.07	424.38
342.298	426.38
342.526	435.38
342.754	435.38
342.981	426.38
343.209	421.38
343.437	439.38
343.665	474.38
343.893	494.38
344.12	498.38
344.348	480.38
344.576	457.38
344.804	447.38
345.031	441.38
345.259	439.38
345.487	434.38
345.714	440.38
345.942	429.38
346.17	450.38
346.397	439.38
346.625	414.38
346.853	422.38
347.08	408.38
347.308	424.38
347.535	435.38
347.763	426.38
347.99	414.38
348.218	407.38
348.445	413.38
348.673	407.38
348.9	406.38
349.128	427.38
349.355	415.38
349.583	404.38
349.81	393.38
350.037	401.38
350.265	425.38
350.492	408.38
350.72	403.38
350.947	402.38
351.174	393.38
351.402	430.38
351.629	391.38
351.856	419.38
352.083	409.38
352.311	425.38
352.538	413.38
352.765	432.38
352.992	431.38
353.22	425.38
353.447	418.38
353.674	403.38
353.901	399.38
354.128	404.38
354.355	391.38
354.583	390.38
354.81	400.38
355.037	392.38
355.264	389.38
355.491	389.38
355.718	410.38
355.945	386.38
356.172	386.38
356.399	387.38
356.626	397.38
356.853	404.38
357.08	400.38
357.307	405.38
357.534	395.38
357.761	406.38
357.988	415.38
358.215	396.38
358.441	409.38
358.668	406.38
358.895	437.38
359.122	423.38
359.349	425.38
359.576	437.38
359.802	432.38
360.029	438.38
360.256	450.38
360.483	445.38
360.709	437.38
360.936	421.38
361.163	399.38
361.39	424.38
361.616	417.38
361.843	399.38
362.07	417.38
362.296	423.38
362.523	411.38
362.749	407.38
362.976	402.38
363.203	415.38
363.429	402.38
363.656	413.38
363.882	397.38
364.109	403.38
364.335	391.38
364.562	401.38
364.788	410.38
365.015	410.38
365.241	399.38
365.468	402.38
365.694	398.38
365.92	424.38
366.147	413.38
366.373	419.38
366.599	402.38
366.826	402.38
367.052	386.38
367.278	410.38
367.505	393.38
367.731	416.38
367.957	403.38
368.184	423.38
368.41	424.38
368.636	435.38
368.862	431.38
369.089	417.38
369.315	415.38
369.541	423.38
369.767	417.38
369.993	412.38
370.219	398.38
370.445	421.38
370.672	410.38
370.898	386.38
371.124	416.38
371.35	438.38
371.576	433.38
371.802	408.38
372.028	433.38
372.254	441.38
372.48	446.38
372.706	432.38
372.932	412.38
373.158	457.38
373.384	443.38
373.61	444.38
373.835	444.38
374.061	450.38
374.287	422.38
374.513	426.38
374.739	456.38
374.965	464.38
375.191	468.38
375.416	461.38
375.642	440.38
375.868	447.38
376.094	437.38
376.319	432.38
376.545	446.38
376.771	433.38
376.997	401.38
377.222	422.38
377.448	413.38
377.674	435.38
377.899	423.38
378.125	417.38
378.35	422.38
378.576	403.38
378.802	423.38
379.027	401.38
379.253	430.38
379.478	424.38
379.704	419.38
379.929	418.38
380.155	438.38
380.38	434.38
380.606	433.38
380.831	437.38
381.057	426.38
381.282	417.38
381.507	446.38
381.733	453.38
381.958	429.38
382.184	438.38
382.409	465.38
382.634	442.38
382.86	453.38
383.085	458.38
383.31	476.38
383.535	481.38
383.761	468.38
383.986	450.38
384.211	478.38
384.436	470.38
384.662	485.38
384.887	500.38
385.112	498.38
385.337	515.38
385.562	506.38
385.787	496.38
386.013	542.38
386.238	506.38
386.463	501.38
386.688	509.38
386.913	496.38
387.138	487.38
387.363	489.38
387.588	499.38
387.813	493.38
388.038	502.38
388.263	500.38
388.488	493.38
388.713	498.38
388.938	487.38
389.163	478.38
389.387	477.38
389.612	474.38
389.837	483.38
390.062	489.38
390.287	489.38
390.512	462.38
390.736	495.38
390.961	481.38
391.186	489.38
391.411	526.38
391.636	509.38
391.86	542.38
392.085	527.38
392.31	527.38
392.534	543.38
392.759	543.38
392.984	537.38
393.208	586.38
393.433	690.38
393.658	692.38
393.882	547.38
394.107	509.38
394.331	521.38
394.556	490.38
394.78	498.38
395.005	519.38
395.229	503.38
395.454	515.38
395.678	510.38
395.903	523.38
396.127	518.38
396.352	557.38
396.576	535.38
396.801	589.38
397.025	635.38
397.249	589.38
397.474	547.38
397.698	528.38
397.922	548.38
398.147	552.38
398.371	552.38
398.595	578.38
398.82	575.38
399.044	602.38
399.268	647.38
399.492	685.38
399.717	750.38
399.941	777.38
400.165	741.38
400.389	709.38
400.613	641.38
400.837	603.38
401.062	589.38
401.286	571.38
401.51	564.38
401.734	565.38
401.958	587.38
402.182	593.38
402.406	598.38
402.63	612.38
402.854	619.38
403.078	600.38
403.302	616.38
403.526	618.38
403.75	650.38
403.974	624.38
404.198	655.38
404.422	623.38
404.645	648.38
404.869	635.38
405.093	656.38
405.317	649.38
405.541	678.38
405.765	647.38
405.988	646.38
406.212	653.38
406.436	654.38
406.66	667.38
406.883	626.38
407.107	705.38
407.331	747.38
407.555	757.38
407.778	762.38
408.002	728.38
408.226	687.38
408.449	669.38
408.673	647.38
408.896	657.38
409.12	674.38
409.344	669.38
409.567	621.38
409.791	594.38
410.014	617.38
410.238	613.38
410.461	615.38
410.685	620.38
410.908	592.38
411.132	645.38
411.355	637.38
411.578	628.38
411.802	593.38
412.025	576.38
412.249	620.38
412.472	625.38
412.695	638.38
412.919	635.38
413.142	588.38
413.365	551.38
413.589	578.38
413.812	572.38
414.035	573.38
414.258	567.38
414.482	574.38
414.705	578.38
414.928	582.38
415.151	577.38
415.374	577.38
415.597	593.38
415.821	584.38
416.044	563.38
416.267	594.38
416.49	566.38
416.713	563.38
416.936	599.38
417.159	553.38
417.382	558.38
417.605	573.38
417.828	562.38
418.051	578.38
418.274	576.38
418.497	563.38
418.72	586.38
418.943	571.38
419.166	609.38
419.389	637.38
419.611	623.38
419.834	605.38
420.057	592.38
420.28	597.38
420.503	565.38
420.726	570.38
420.948	590.38
421.171	587.38
421.394	610.38
421.617	579.38
421.839	583.38
422.062	574.38
422.285	573.38
422.507	624.38
422.73	709.38
422.953	697.38
423.175	620.38
423.398	601.38
423.621	595.38
423.843	608.38
424.066	630.38
424.288	595.38
424.511	613.38
424.733	654.38
424.956	678.38
425.178	689.38
425.401	639.38
425.623	649.38
425.846	592.38
426.068	591.38
426.291	545.38
426.513	571.38
426.735	574.38
426.958	575.38
427.18	622.38
427.402	710.38
427.625	790.38
427.847	689.38
428.069	627.38
428.292	598.38
428.514	566.38
428.736	554.38
428.958	554.38
429.181	540.38
429.403	519.38
429.625	524.38
429.847	555.38
430.069	600.38
430.292	625.38
430.514	527.38
430.736	522.38
430.958	521.38
431.18	506.38
431.402	517.38
431.624	504.38
431.846	527.38
432.068	522.38
432.29	546.38
432.512	501.38
432.734	532.38
432.956	521.38
433.178	522.38
433.4	544.38
433.622	507.38
433.844	512.38
434.066	513.38
434.287	534.38
434.509	531.38
434.731	533.38
434.953	572.38
435.175	572.38
435.397	578.38
435.618	547.38
435.84	608.38
436.062	638.38
436.284	656.38
436.505	613.38
436.727	565.38
436.949	549.38
437.17	542.38
437.392	524.38
437.614	521.38
437.835	534.38
438.057	593.38
438.278	650.38
438.5	643.38
438.721	720.38
438.943	677.38
439.165	564.38
439.386	558.38
439.608	562.38
439.829	545.38
440.05	557.38
440.272	599.38
440.493	577.38
440.715	563.38
440.936	553.38
441.158	547.38
441.379	558.38
441.6	592.38
441.822	585.38
442.043	617.38
442.264	660.38
442.486	656.38
442.707	601.38
442.928	610.38
443.149	594.38
443.371	625.38
443.592	643.38
443.813	690.38
444.034	749.38
444.255	646.38
444.476	629.38
444.698	656.38
444.919	633.38
445.14	736.38
445.361	658.38
445.582	620.38
445.803	645.38
446.024	662.38
446.245	674.38
446.466	641.38
446.687	579.38
446.908	563.38
447.129	541.38
447.35	536.38
447.571	521.38
447.792	519.38
448.013	517.38
448.234	525.38
448.455	542.38
448.675	590.38
448.896	644.38
449.117	569.38
449.338	548.38
449.559	644.38
449.779	678.38
450	577.38
450.221	523.38
450.442	480.38
450.662	507.38
450.883	500.38
451.104	525.38
451.324	487.38
451.545	500.38
451.766	464.38
451.986	458.38
452.207	483.38
452.428	474.38
452.648	471.38
452.869	472.38
453.089	467.38
453.31	495.38
453.53	463.38
453.751	459.38
453.971	470.38
454.192	501.38
454.412	480.38
454.633	435.38
454.853	453.38
455.073	456.38
455.294	478.38
455.514	511.38
455.734	495.38
455.955	465.38
456.175	432.38
456.395	436.38
456.616	451.38
456.836	432.38
457.056	455.38
457.276	415.38
457.497	449.38
457.717	436.38
457.937	472.38
458.157	444.38
458.377	471.38
458.598	478.38
458.818	503.38
459.038	569.38
459.258	569.38
459.478	523.38
459.698	527.38
459.918	531.38
460.138	552.38
460.358	569.38
460.578	568.38
460.798	595.38
461.018	549.38
461.238	556.38
461.458	554.38
461.678	571.38
461.898	546.38
462.118	568.38
462.338	581.38
462.558	615.38
462.777	600.38
462.997	631.38
463.217	657.38
463.437	676.38
463.657	641.38
463.876	635.38
464.096	626.38
464.316	618.38
464.536	661.38
464.755	612.38
464.975	626.38
465.195	617.38
465.414	643.38
465.634	576.38
465.854	534.38
466.073	527.38
466.293	519.38
466.512	528.38
466.732	480.38
466.951	500.38
467.171	509.38
467.391	488.38
467.61	481.38
467.829	513.38
468.049	506.38
468.268	507.38
468.488	485.38
468.707	489.38
468.927	472.38
469.146	481.38
469.365	499.38
469.585	470.38
469.804	495.38
470.023	509.38
470.243	482.38
470.462	508.38
470.681	546.38
470.901	518.38
471.12	513.38
471.339	481.38
471.558	494.38
471.777	473.38
471.997	491.38
472.216	479.38
472.435	510.38
472.654	507.38
472.873	489.38
473.092	467.38
473.311	480.38
473.53	453.38
473.749	471.38
473.968	495.38
474.187	554.38
474.406	565.38
474.625	497.38
474.844	465.38
475.063	501.38
475.282	475.38
475.501	483.38
475.72	470.38
475.939	477.38
476.158	483.38
476.377	479.38
476.596	486.38
476.814	496.38
477.033	517.38
477.252	529.38
477.471	506.38
477.69	551.38
477.908	533.38
478.127	534.38
478.346	574.38
478.564	562.38
478.783	546.38
479.002	588.38
479.22	575.38
479.439	577.38
479.658	606.38
479.876	591.38
480.095	603.38
480.313	650.38
480.532	631.38
480.751	615.38
480.969	609.38
481.188	673.38
481.406	681.38
481.624	601.38
481.843	555.38
482.061	611.38
482.28	564.38
482.498	545.38
482.717	545.38
482.935	546.38
483.153	561.38
483.372	568.38
483.59	561.38
483.808	555.38
484.027	566.38
484.245	570.38
484.463	579.38
484.681	584.38
484.9	562.38
485.118	591.38
485.336	589.38
485.554	613.38
485.772	559.38
485.99	592.38
486.209	600.38
486.427	594.38
486.645	602.38
486.863	623.38
487.081	615.38
487.299	634.38
487.517	600.38
487.735	594.38
487.953	607.38
488.171	629.38
488.389	612.38
488.607	583.38
488.825	581.38
489.043	569.38
489.261	596.38
489.479	613.38
489.696	592.38
489.914	623.38
490.132	619.38
490.35	590.38
490.568	595.38
490.786	613.38
491.003	615.38
491.221	611.38
491.439	651.38
491.657	630.38
491.874	675.38
492.092	641.38
492.31	649.38
492.527	662.38
492.745	657.38
492.963	652.38
493.18	678.38
493.398	685.38
493.615	667.38
493.833	666.38
494.05	645.38
494.268	669.38
494.485	671.38
494.703	673.38
494.92	667.38
495.138	667.38
495.355	691.38
495.573	672.38
495.79	661.38
496.008	653.38
496.225	664.38
496.442	677.38
496.66	687.38
496.877	682.38
497.094	695.38
497.312	678.38
497.529	715.38
497.746	742.38
497.963	743.38
498.181	755.38
498.398	776.38
498.615	823.38
498.832	843.38
499.049	866.38
499.267	901.38
499.484	969.38
499.701	1049.38
499.918	1112.38
500.135	1188.38
500.352	1325.38
500.569	1346.38
500.786	1345.38
501.003	1282.38
501.22	1195.38
501.437	1110.38
501.654	1025.38
501.871	979.38
502.088	890.38
502.305	856.38
502.522	837.38
502.739	798.38
502.956	759.38
503.172	768.38
503.389	746.38
503.606	706.38
503.823	711.38
504.04	678.38
504.256	704.38
504.473	728.38
504.69	745.38
504.907	724.38
505.123	689.38
505.34	664.38
505.557	650.38
505.773	648.38
505.99	620.38
506.207	631.38
506.423	633.38
506.64	603.38
506.856	585.38
507.073	585.38
507.289	605.38
507.506	577.38
507.722	612.38
507.939	599.38
508.155	598.38
508.372	576.38
508.588	562.38
508.805	584.38
509.021	571.38
509.238	578.38
509.454	582.38
509.67	599.38
509.887	588.38
510.103	564.38
510.319	576.38
510.536	655.38
510.752	1027.38
510.968	821.38
511.184	565.38
511.401	565.38
511.617	543.38
511.833	541.38
512.049	565.38
512.265	553.38
512.481	546.38
512.698	520.38
512.914	535.38
513.13	523.38
513.346	515.38
513.562	529.38
513.778	529.38
513.994	533.38
514.21	548.38
514.426	579.38
514.642	589.38
514.858	597.38
515.074	619.38
515.29	737.38
515.506	1076.38
515.721	875.38
515.937	655.38
516.153	613.38
516.369	594.38
516.585	600.38
516.801	616.38
517.016	629.38
517.232	641.38
517.448	654.38
517.664	672.38
517.879	656.38
518.095	676.38
518.311	641.38
518.527	626.38
518.742	614.38
518.958	601.38
519.173	600.38
519.389	580.38
519.605	567.38
519.82	571.38
520.036	578.38
520.251	574.38
520.467	582.38
520.682	588.38
520.898	576.38
521.113	598.38
521.329	618.38
521.544	645.38
521.76	776.38
521.975	1264.38
522.19	1282.38
522.406	718.38
522.621	582.38
522.836	536.38
523.052	533.38
523.267	509.38
523.482	515.38
523.698	501.38
523.913	506.38
524.128	509.38
524.343	479.38
524.559	488.38
524.774	490.38
524.989	492.38
525.204	489.38
525.419	475.38
525.634	487.38
525.849	495.38
526.064	474.38
526.28	467.38
526.495	451.38
526.71	462.38
526.925	480.38
527.14	479.38
527.355	467.38
527.57	466.38
527.785	459.38
527.999	436.38
528.214	469.38
528.429	465.38
528.644	465.38
528.859	473.38
529.074	464.38
529.289	476.38
529.503	530.38
529.718	520.38
529.933	502.38
530.148	464.38
530.363	472.38
530.577	460.38
530.792	453.38
531.007	462.38
531.221	455.38
531.436	453.38
531.651	470.38
531.865	462.38
532.08	464.38
532.295	463.38
532.509	466.38
532.724	455.38
532.938	458.38
533.153	457.38
533.367	462.38
533.582	465.38
533.796	447.38
534.011	475.38
534.225	458.38
534.44	442.38
534.654	463.38
534.868	426.38
535.083	441.38
535.297	479.38
535.511	440.38
535.726	441.38
535.94	469.38
536.154	435.38
536.369	433.38
536.583	436.38
536.797	453.38
537.011	417.38
537.225	434.38
537.44	430.38
537.654	449.38
537.868	427.38
538.082	426.38
538.296	433.38
538.51	430.38
538.724	446.38
538.938	443.38
539.153	425.38
539.367	441.38
539.581	455.38
539.795	418.38
540.009	409.38
540.222	429.38
540.436	427.38
540.65	426.38
540.864	445.38
541.078	444.38
541.292	431.38
541.506	451.38
541.72	439.38
541.934	409.38
542.147	437.38
542.361	441.38
542.575	434.38
542.789	429.38
543.002	428.38
543.216	425.38
543.43	432.38
543.644	433.38
543.857	440.38
544.071	429.38
544.285	438.38
544.498	428.38
544.712	431.38
544.925	429.38
545.139	440.38
545.352	437.38
545.566	435.38
545.779	429.38
545.993	448.38
546.206	442.38
546.42	424.38
546.633	426.38
546.847	431.38
547.06	419.38
547.274	443.38
547.487	451.38
547.7	455.38
547.914	438.38
548.127	441.38
548.34	442.38
548.554	431.38
548.767	461.38
548.98	442.38
549.193	434.38
549.407	453.38
549.62	432.38
549.833	456.38
550.046	432.38
550.259	425.38
550.473	410.38
550.686	432.38
550.899	436.38
551.112	425.38
551.325	427.38
551.538	431.38
551.751	419.38
551.964	423.38
552.177	409.38
552.39	451.38
552.603	433.38
552.816	449.38
553.029	444.38
553.242	465.38
553.455	465.38
553.667	470.38
553.88	472.38
554.093	470.38
554.306	466.38
554.519	457.38
554.732	433.38
554.944	432.38
555.157	442.38
555.37	438.38
555.583	441.38
555.795	421.38
556.008	418.38
556.221	413.38
556.433	394.38
556.646	410.38
556.859	390.38
557.071	393.38
557.284	378.38
557.496	386.38
557.709	374.38
557.921	383.38
558.134	371.38
558.346	398.38
558.559	386.38
558.771	389.38
558.984	381.38
559.196	393.38
559.409	399.38
559.621	395.38
559.833	388.38
560.046	395.38
560.258	377.38
560.47	379.38
560.683	367.38
560.895	377.38
561.107	374.38
561.32	370.38
561.532	369.38
561.744	362.38
561.956	349.38
562.168	389.38
562.381	375.38
562.593	367.38
562.805	384.38
563.017	368.38
563.229	362.38
563.441	375.38
563.653	390.38
563.865	381.38
564.077	394.38
564.289	381.38
564.501	388.38
564.713	415.38
564.925	419.38
565.137	425.38
565.349	410.38
565.561	418.38
565.773	439.38
565.985	447.38
566.197	462.38
566.408	480.38
566.62	519.38
566.832	547.38
567.044	549.38
567.255	559.38
567.467	571.38
567.679	580.38
567.891	593.38
568.102	601.38
568.314	621.38
568.526	575.38
568.737	528.38
568.949	493.38
569.161	453.38
569.372	461.38
569.584	422.38
569.795	405.38
570.007	405.38
570.218	418.38
570.43	417.38
570.641	390.38
570.853	393.38
571.064	399.38
571.276	371.38
571.487	371.38
571.698	382.38
571.91	338.38
572.121	347.38
572.333	345.38
572.544	325.38
572.755	337.38
572.966	349.38
573.178	321.38
573.389	328.38
573.6	327.38
573.811	335.38
574.023	336.38
574.234	313.38
574.445	335.38
574.656	356.38
574.867	333.38
575.078	333.38
575.289	343.38
575.501	327.38
575.712	323.38
575.923	320.38
576.134	322.38
576.345	305.38
576.556	308.38
576.767	326.38
576.978	320.38
577.188	314.38
577.399	321.38
577.61	308.38
577.821	310.38
578.032	325.38
578.243	344.38
578.454	497.38
578.665	379.38
578.875	324.38
579.086	305.38
579.297	278.38
579.508	303.38
579.718	299.38
579.929	311.38
580.14	289.38
580.35	288.38
580.561	296.38
580.772	291.38
580.982	301.38
581.193	309.38
581.403	269.38
581.614	280.38
581.825	275.38
582.035	298.38
582.246	278.38
582.456	292.38
582.667	285.38
582.877	291.38
583.087	288.38
583.298	278.38
583.508	309.38
583.719	269.38
583.929	285.38
584.139	284.38
584.35	279.38
584.56	279.38
584.77	297.38
584.981	307.38
585.191	279.38
585.401	264.38
585.611	275.38
585.821	279.38
586.032	286.38
586.242	296.38
586.452	280.38
586.662	273.38
586.872	280.38
587.082	280.38
587.292	282.38
587.502	300.38
587.713	285.38
587.923	277.38
588.133	254.38
588.343	282.38
588.553	279.38
588.762	309.38
588.972	344.38
589.182	648.38
589.392	623.38
589.602	395.38
589.812	583.38
590.022	465.38
590.232	313.38
590.441	302.38
590.651	298.38
590.861	299.38
591.071	291.38
591.281	293.38
591.49	298.38
591.7	287.38
591.91	290.38
592.119	301.38
592.329	298.38
592.539	317.38
592.748	327.38
592.958	327.38
593.167	349.38
593.377	335.38
593.587	353.38
593.796	344.38
594.006	346.38
594.215	328.38
594.424	351.38
594.634	330.38
594.843	326.38
595.053	316.38
595.262	299.38
595.472	317.38
595.681	291.38
595.89	289.38
596.1	295.38
596.309	284.38
596.518	273.38
596.727	274.38
596.937	279.38
597.146	260.38
597.355	258.38
597.564	282.38
597.774	266.38
597.983	256.38
598.192	260.38
598.401	248.38
598.61	258.38
598.819	268.38
599.028	256.38
599.237	261.38
599.446	259.38
599.655	266.38
599.864	259.38
600.073	260.38
600.282	240.38
600.491	249.38
600.7	245.38
600.909	266.38
601.118	241.38
601.327	257.38
601.536	239.38
601.745	244.38
601.953	247.38
602.162	246.38
602.371	252.38
602.58	230.38
602.789	255.38
602.997	236.38
603.206	265.38
603.415	245.38
603.623	233.38
603.832	252.38
604.041	241.38
604.249	235.38
604.458	245.38
604.666	218.38
604.875	246.38
605.084	230.38
605.292	234.38
605.501	247.38
605.709	227.38
605.918	230.38
606.126	245.38
606.334	239.38
606.543	251.38
606.751	240.38
606.96	233.38
607.168	225.38
607.376	243.38
607.585	250.38
607.793	238.38
608.001	243.38
608.21	215.38
608.418	233.38
608.626	247.38
608.834	237.38
609.043	232.38
609.251	237.38
609.459	212.38
609.667	235.38
609.875	239.38
610.083	240.38
610.291	241.38
610.499	249.38
610.707	234.38
610.916	254.38
611.124	229.38
611.332	249.38
611.54	244.38
611.748	235.38
611.955	226.38
612.163	218.38
612.371	232.38
612.579	239.38
612.787	241.38
612.995	225.38
613.203	242.38
613.411	247.38
613.618	244.38
613.826	234.38
614.034	239.38
614.242	224.38
614.449	232.38
614.657	233.38
614.865	235.38
615.072	226.38
615.28	238.38
615.488	224.38
615.695	239.38
615.903	233.38
616.111	235.38
616.318	260.38
616.526	245.38
616.733	229.38
616.941	240.38
617.148	227.38
617.356	205.38
617.563	229.38
617.771	238.38
617.978	216.38
618.185	248.38
618.393	234.38
618.6	236.38
618.807	234.38
619.015	215.38
619.222	216.38
619.429	232.38
619.637	223.38
619.844	208.38
620.051	225.38
620.258	223.38
620.466	213.38
620.673	213.38
620.88	217.38
621.087	215.38
621.294	197.38
621.501	220.38
621.708	210.38
621.915	221.38
622.122	217.38
622.329	231.38
622.536	202.38
622.743	205.38
622.95	216.38
623.157	232.38
623.364	213.38
623.571	217.38
623.778	201.38
623.985	217.38
624.192	209.38
624.399	228.38
624.606	199.38
624.812	210.38
625.019	189.38
625.226	200.38
625.433	212.38
625.639	202.38
625.846	195.38
626.053	201.38
626.259	194.38
626.466	200.38
626.673	206.38
626.879	200.38
627.086	205.38
627.293	207.38
627.499	197.38
627.706	199.38
627.912	195.38
628.119	194.38
628.325	199.38
628.532	195.38
628.738	191.38
628.945	208.38
629.151	200.38
629.357	194.38
629.564	201.38
629.77	198.38
629.976	190.38
630.183	189.38
630.389	184.38
630.595	189.38
630.802	190.38
631.008	191.38
631.214	185.38
631.42	190.38
631.627	201.38
631.833	174.38
632.039	186.38
632.245	192.38
632.451	186.38
632.657	207.38
632.863	187.38
633.069	182.38
633.275	188.38
633.481	169.38
633.688	196.38
633.893	168.38
634.099	180.38
634.305	192.38
634.511	195.38
634.717	184.38
634.923	187.38
635.129	187.38
635.335	179.38
635.541	183.38
635.747	184.38
635.952	172.38
636.158	185.38
636.364	179.38
636.57	192.38
636.775	179.38
636.981	190.38
637.187	183.38
637.392	174.38
637.598	176.38
637.804	163.38
638.009	183.38
638.215	169.38
638.421	182.38
638.626	184.38
638.832	176.38
639.037	172.38
639.243	171.38
639.448	171.38
639.654	158.38
639.859	183.38
640.065	169.38
640.27	179.38
640.475	152.38
640.681	169.38
640.886	182.38
641.091	175.38
641.297	172.38
641.502	162.38
641.707	171.38
641.913	173.38
642.118	167.38
642.323	164.38
642.528	162.38
642.733	170.38
642.939	178.38
643.144	178.38
643.349	180.38
643.554	169.38
643.759	176.38
643.964	161.38
644.169	176.38
644.374	154.38
644.579	162.38
644.784	170.38
644.989	165.38
645.194	184.38
645.399	161.38
645.604	155.38
645.809	153.38
646.014	172.38
646.219	182.38
646.423	178.38
646.628	179.38
646.833	184.38
647.038	173.38
647.243	186.38
647.447	179.38
647.652	170.38
647.857	178.38
648.062	186.38
648.266	172.38
648.471	194.38
648.676	187.38
648.88	171.38
649.085	175.38
649.289	183.38
649.494	173.38
649.698	185.38
649.903	192.38
650.107	181.38
650.312	173.38
650.516	155.38
650.721	159.38
650.925	171.38
651.13	179.38
651.334	168.38
651.539	162.38
651.743	170.38
651.947	161.38
652.152	150.38
652.356	154.38
652.56	146.38
652.764	149.38
652.969	148.38
653.173	154.38
653.377	162.38
653.581	153.38
653.785	160.38
653.99	145.38
654.194	159.38
654.398	137.38
654.602	142.38
654.806	150.38
655.01	173.38
655.214	166.38
655.418	135.38
655.622	166.38
655.826	155.38
656.03	158.38
656.234	181.38
656.438	193.38
656.642	166.38
656.846	193.38
657.049	166.38
657.253	176.38
657.457	162.38
657.661	153.38
657.865	137.38
658.068	131.38
658.272	129.38
658.476	135.38
658.68	117.38
658.883	127.38
659.087	118.38
659.291	108.38
659.494	113.38
659.698	96.38
659.901	100.38
660.105	102.38
660.309	86.38
660.512	100.38
660.716	94.38
660.919	103.38
661.123	98.38
661.326	85.38
661.53	82.38
661.733	93.38
661.936	99.38
662.14	84.38
662.343	93.38
662.546	84.38
662.75	94.38
662.953	104.38
663.156	84.38
663.36	82.38
663.563	82.38
663.766	78.38
663.969	79.38
664.173	80.38
664.376	72.38
664.579	80.38
664.782	87.38
664.985	97.38
665.188	89.38
665.391	97.38
665.594	88.38
665.797	98.38
666	86.38
666.203	88.38
666.406	84.38
666.609	82.38
666.812	82.38
667.015	88.38
667.218	79.38
667.421	87.38
667.624	94.38
667.827	88.38
668.03	89.38
668.232	96.38
668.435	82.38
668.638	87.38
668.841	95.38
669.043	82.38
669.246	93.38
669.449	87.38
669.651	97.38
669.854	75.38
670.057	84.38
670.259	78.38
670.462	72.38
670.665	85.38
670.867	90.38
671.07	85.38
671.272	82.38
671.475	84.38
671.677	80.38
671.88	73.38
672.082	87.38
672.284	75.38
672.487	76.38
672.689	79.38
672.892	64.38
