Data from 1960PennyLincolnUp.LampE5.5.200Scan.07172019.P1.ChangedAngle_HRD10591_13-14-52-821.txt Node
Date: Thu Jul 18 13:14:52 EDT 2019
User: cochatt
Spectrometer: HR+D1059
Trigger mode: 1
Integration Time (sec): 1.000000E-1
Scans to average: 1
Electric dark correction enabled: true
Nonlinearity correction enabled: false
Boxcar width: 0
XAxis mode: Wavelengths
Number of Pixels in Spectrum: 2048
>>>>>Begin Spectral Data<<<<<
223.165	-9.31
223.4	-9.31
223.635	-9.31
223.869	-10.31
224.104	-24.31
224.338	-10.31
224.573	-15.31
224.808	-3.31
225.042	-7.31
225.277	-3.31
225.511	6.69
225.746	-3.31
225.98	3.69
226.215	3.69
226.449	26.69
226.683	3.69
226.918	24.69
227.152	17.69
227.387	42.69
227.621	47.69
227.856	44.69
228.09	44.69
228.324	49.69
228.559	60.69
228.793	55.69
229.027	81.69
229.262	96.69
229.496	98.69
229.73	104.69
229.964	128.69
230.199	110.69
230.433	107.69
230.667	104.69
230.901	102.69
231.136	91.69
231.37	106.69
231.604	110.69
231.838	116.69
232.072	112.69
232.306	114.69
232.541	108.69
232.775	116.69
233.009	104.69
233.243	115.69
233.477	103.69
233.711	116.69
233.945	113.69
234.179	105.69
234.413	111.69
234.647	114.69
234.881	113.69
235.115	87.69
235.349	126.69
235.583	122.69
235.817	106.69
236.051	115.69
236.285	110.69
236.519	109.69
236.753	112.69
236.987	127.69
237.221	153.69
237.455	179.69
237.689	137.69
237.922	114.69
238.156	116.69
238.39	122.69
238.624	130.69
238.858	112.69
239.091	109.69
239.325	111.69
239.559	107.69
239.793	130.69
240.027	110.69
240.26	131.69
240.494	146.69
240.728	116.69
240.961	134.69
241.195	134.69
241.429	129.69
241.662	144.69
241.896	113.69
242.13	123.69
242.363	131.69
242.597	136.69
242.83	126.69
243.064	126.69
243.298	131.69
243.531	118.69
243.765	129.69
243.998	134.69
244.232	150.69
244.465	140.69
244.699	120.69
244.932	148.69
245.166	132.69
245.399	151.69
245.633	142.69
245.866	134.69
246.099	148.69
246.333	151.69
246.566	123.69
246.8	127.69
247.033	149.69
247.266	136.69
247.5	135.69
247.733	146.69
247.966	143.69
248.2	160.69
248.433	158.69
248.666	151.69
248.899	164.69
249.133	181.69
249.366	186.69
249.599	162.69
249.832	171.69
250.066	169.69
250.299	171.69
250.532	166.69
250.765	175.69
250.998	193.69
251.231	175.69
251.465	195.69
251.698	177.69
251.931	164.69
252.164	176.69
252.397	179.69
252.63	197.69
252.863	172.69
253.096	195.69
253.329	184.69
253.562	196.69
253.795	177.69
254.028	179.69
254.261	186.69
254.494	212.69
254.727	224.69
254.96	228.69
255.193	206.69
255.426	225.69
255.659	187.69
255.892	209.69
256.124	192.69
256.357	201.69
256.59	198.69
256.823	192.69
257.056	182.69
257.289	195.69
257.521	192.69
257.754	190.69
257.987	193.69
258.22	199.69
258.452	188.69
258.685	193.69
258.918	195.69
259.151	214.69
259.383	211.69
259.616	206.69
259.849	215.69
260.081	216.69
260.314	198.69
260.547	209.69
260.779	209.69
261.012	211.69
261.244	210.69
261.477	206.69
261.71	191.69
261.942	203.69
262.175	190.69
262.407	196.69
262.64	179.69
262.872	191.69
263.105	184.69
263.337	207.69
263.57	198.69
263.802	193.69
264.035	206.69
264.267	210.69
264.499	195.69
264.732	190.69
264.964	183.69
265.197	203.69
265.429	209.69
265.661	207.69
265.894	199.69
266.126	202.69
266.358	211.69
266.591	212.69
266.823	214.69
267.055	210.69
267.287	227.69
267.52	209.69
267.752	222.69
267.984	204.69
268.216	211.69
268.448	222.69
268.681	220.69
268.913	236.69
269.145	242.69
269.377	235.69
269.609	239.69
269.841	248.69
270.073	246.69
270.306	260.69
270.538	249.69
270.77	278.69
271.002	257.69
271.234	251.69
271.466	260.69
271.698	254.69
271.93	261.69
272.162	282.69
272.394	262.69
272.626	267.69
272.858	272.69
273.09	254.69
273.322	238.69
273.553	248.69
273.785	241.69
274.017	238.69
274.249	230.69
274.481	225.69
274.713	235.69
274.945	229.69
275.176	254.69
275.408	234.69
275.64	242.69
275.872	247.69
276.104	256.69
276.335	235.69
276.567	253.69
276.799	240.69
277.031	268.69
277.262	276.69
277.494	289.69
277.726	259.69
277.957	259.69
278.189	267.69
278.421	255.69
278.652	268.69
278.884	253.69
279.115	253.69
279.347	260.69
279.579	269.69
279.81	249.69
280.042	235.69
280.273	271.69
280.505	258.69
280.736	267.69
280.968	254.69
281.199	264.69
281.431	252.69
281.662	259.69
281.894	236.69
282.125	276.69
282.356	282.69
282.588	277.69
282.819	273.69
283.051	240.69
283.282	252.69
283.513	266.69
283.745	249.69
283.976	271.69
284.207	266.69
284.439	268.69
284.67	279.69
284.901	248.69
285.132	258.69
285.364	248.69
285.595	266.69
285.826	268.69
286.057	272.69
286.288	281.69
286.52	255.69
286.751	251.69
286.982	267.69
287.213	267.69
287.444	268.69
287.675	268.69
287.906	290.69
288.138	290.69
288.369	289.69
288.6	307.69
288.831	273.69
289.062	294.69
289.293	280.69
289.524	294.69
289.755	274.69
289.986	275.69
290.217	279.69
290.448	278.69
290.679	284.69
290.91	282.69
291.141	272.69
291.371	270.69
291.602	279.69
291.833	258.69
292.064	270.69
292.295	282.69
292.526	286.69
292.757	274.69
292.987	271.69
293.218	254.69
293.449	272.69
293.68	296.69
293.91	280.69
294.141	277.69
294.372	278.69
294.603	261.69
294.833	271.69
295.064	281.69
295.295	276.69
295.525	270.69
295.756	294.69
295.987	302.69
296.217	280.69
296.448	287.69
296.679	280.69
296.909	277.69
297.14	285.69
297.37	296.69
297.601	283.69
297.831	296.69
298.062	287.69
298.292	295.69
298.523	296.69
298.753	306.69
298.984	283.69
299.214	296.69
299.445	287.69
299.675	291.69
299.905	313.69
300.136	294.69
300.366	295.69
300.597	284.69
300.827	323.69
301.057	314.69
301.288	315.69
301.518	310.69
301.748	315.69
301.979	305.69
302.209	306.69
302.439	317.69
302.669	289.69
302.9	307.69
303.13	309.69
303.36	291.69
303.59	312.69
303.82	311.69
304.051	322.69
304.281	321.69
304.511	286.69
304.741	310.69
304.971	298.69
305.201	292.69
305.431	311.69
305.661	320.69
305.891	305.69
306.121	319.69
306.352	324.69
306.582	316.69
306.812	354.69
307.042	321.69
307.272	306.69
307.502	307.69
307.731	286.69
307.961	328.69
308.191	320.69
308.421	320.69
308.651	298.69
308.881	320.69
309.111	315.69
309.341	320.69
309.571	335.69
309.8	320.69
310.03	324.69
310.26	339.69
310.49	342.69
310.72	329.69
310.949	342.69
311.179	352.69
311.409	353.69
311.639	317.69
311.868	347.69
312.098	349.69
312.328	344.69
312.557	365.69
312.787	358.69
313.017	351.69
313.246	358.69
313.476	358.69
313.706	335.69
313.935	344.69
314.165	345.69
314.394	342.69
314.624	371.69
314.853	345.69
315.083	348.69
315.312	360.69
315.542	350.69
315.771	345.69
316.001	352.69
316.23	339.69
316.46	370.69
316.689	346.69
316.919	348.69
317.148	369.69
317.377	358.69
317.607	348.69
317.836	356.69
318.065	386.69
318.295	351.69
318.524	355.69
318.753	347.69
318.983	349.69
319.212	338.69
319.441	355.69
319.67	352.69
319.9	363.69
320.129	364.69
320.358	343.69
320.587	356.69
320.816	369.69
321.046	387.69
321.275	365.69
321.504	354.69
321.733	379.69
321.962	366.69
322.191	391.69
322.42	368.69
322.649	392.69
322.878	401.69
323.108	395.69
323.337	396.69
323.566	412.69
323.795	430.69
324.024	466.69
324.253	534.69
324.482	717.69
324.71	1038.69
324.939	1360.69
325.168	1149.69
325.397	681.69
325.626	511.69
325.855	462.69
326.084	438.69
326.313	400.69
326.542	433.69
326.77	466.69
326.999	474.69
327.228	644.69
327.457	887.69
327.686	1044.69
327.914	761.69
328.143	544.69
328.372	488.69
328.6	473.69
328.829	447.69
329.058	447.69
329.287	460.69
329.515	443.69
329.744	449.69
329.972	431.69
330.201	448.69
330.43	438.69
330.658	464.69
330.887	469.69
331.115	484.69
331.344	449.69
331.572	444.69
331.801	403.69
332.03	419.69
332.258	414.69
332.486	426.69
332.715	401.69
332.943	404.69
333.172	431.69
333.4	430.69
333.629	427.69
333.857	451.69
334.085	425.69
334.314	448.69
334.542	455.69
334.771	461.69
334.999	451.69
335.227	414.69
335.455	415.69
335.684	417.69
335.912	426.69
336.14	404.69
336.369	410.69
336.597	413.69
336.825	408.69
337.053	407.69
337.281	423.69
337.51	409.69
337.738	397.69
337.966	389.69
338.194	411.69
338.422	410.69
338.65	402.69
338.878	395.69
339.106	386.69
339.334	379.69
339.562	403.69
339.79	393.69
340.018	406.69
340.246	396.69
340.474	392.69
340.702	379.69
340.93	372.69
341.158	387.69
341.386	397.69
341.614	389.69
341.842	394.69
342.07	372.69
342.298	380.69
342.526	372.69
342.754	368.69
342.981	370.69
343.209	361.69
343.437	364.69
343.665	396.69
343.893	419.69
344.12	411.69
344.348	408.69
344.576	402.69
344.804	392.69
345.031	403.69
345.259	387.69
345.487	399.69
345.714	386.69
345.942	382.69
346.17	381.69
346.397	377.69
346.625	359.69
346.853	365.69
347.08	366.69
347.308	356.69
347.535	383.69
347.763	360.69
347.99	379.69
348.218	368.69
348.445	376.69
348.673	368.69
348.9	369.69
349.128	364.69
349.355	366.69
349.583	382.69
349.81	373.69
350.037	370.69
350.265	365.69
350.492	364.69
350.72	374.69
350.947	376.69
351.174	370.69
351.402	362.69
351.629	364.69
351.856	375.69
352.083	379.69
352.311	373.69
352.538	365.69
352.765	367.69
352.992	363.69
353.22	360.69
353.447	355.69
353.674	346.69
353.901	362.69
354.128	355.69
354.355	348.69
354.583	371.69
354.81	356.69
355.037	361.69
355.264	374.69
355.491	360.69
355.718	366.69
355.945	332.69
356.172	342.69
356.399	343.69
356.626	358.69
356.853	349.69
357.08	345.69
357.307	353.69
357.534	345.69
357.761	332.69
357.988	345.69
358.215	338.69
358.441	349.69
358.668	355.69
358.895	354.69
359.122	348.69
359.349	366.69
359.576	393.69
359.802	391.69
360.029	374.69
360.256	378.69
360.483	372.69
360.709	346.69
360.936	335.69
361.163	341.69
361.39	350.69
361.616	372.69
361.843	352.69
362.07	368.69
362.296	371.69
362.523	347.69
362.749	336.69
362.976	352.69
363.203	370.69
363.429	314.69
363.656	360.69
363.882	341.69
364.109	362.69
364.335	345.69
364.562	336.69
364.788	348.69
365.015	361.69
365.241	352.69
365.468	354.69
365.694	368.69
365.92	345.69
366.147	345.69
366.373	351.69
366.599	350.69
366.826	353.69
367.052	357.69
367.278	367.69
367.505	350.69
367.731	339.69
367.957	364.69
368.184	355.69
368.41	351.69
368.636	345.69
368.862	362.69
369.089	351.69
369.315	342.69
369.541	345.69
369.767	363.69
369.993	335.69
370.219	350.69
370.445	355.69
370.672	344.69
370.898	348.69
371.124	348.69
371.35	364.69
371.576	335.69
371.802	354.69
372.028	358.69
372.254	341.69
372.48	368.69
372.706	364.69
372.932	358.69
373.158	352.69
373.384	352.69
373.61	345.69
373.835	339.69
374.061	339.69
374.287	348.69
374.513	352.69
374.739	375.69
374.965	348.69
375.191	355.69
375.416	364.69
375.642	342.69
375.868	355.69
376.094	354.69
376.319	332.69
376.545	330.69
376.771	324.69
376.997	345.69
377.222	347.69
377.448	330.69
377.674	357.69
377.899	353.69
378.125	367.69
378.35	338.69
378.576	345.69
378.802	337.69
379.027	344.69
379.253	333.69
379.478	333.69
379.704	347.69
379.929	360.69
380.155	366.69
380.38	349.69
380.606	333.69
380.831	350.69
381.057	345.69
381.282	329.69
381.507	345.69
381.733	341.69
381.958	348.69
382.184	339.69
382.409	330.69
382.634	354.69
382.86	333.69
383.085	338.69
383.31	345.69
383.535	352.69
383.761	364.69
383.986	330.69
384.211	374.69
384.436	345.69
384.662	347.69
384.887	365.69
385.112	364.69
385.337	378.69
385.562	377.69
385.787	355.69
386.013	376.69
386.238	386.69
386.463	368.69
386.688	372.69
386.913	376.69
387.138	385.69
387.363	367.69
387.588	361.69
387.813	386.69
388.038	367.69
388.263	391.69
388.488	371.69
388.713	382.69
388.938	364.69
389.163	353.69
389.387	365.69
389.612	370.69
389.837	362.69
390.062	368.69
390.287	366.69
390.512	357.69
390.736	372.69
390.961	362.69
391.186	366.69
391.411	348.69
391.636	388.69
391.86	374.69
392.085	375.69
392.31	386.69
392.534	402.69
392.759	371.69
392.984	362.69
393.208	355.69
393.433	365.69
393.658	376.69
393.882	372.69
394.107	351.69
394.331	375.69
394.556	365.69
394.78	353.69
395.005	374.69
395.229	348.69
395.454	378.69
395.678	380.69
395.903	379.69
396.127	372.69
396.352	418.69
396.576	392.69
396.801	380.69
397.025	386.69
397.249	397.69
397.474	392.69
397.698	396.69
397.922	393.69
398.147	408.69
398.371	384.69
398.595	411.69
398.82	416.69
399.044	422.69
399.268	434.69
399.492	444.69
399.717	479.69
399.941	467.69
400.165	488.69
400.389	507.69
400.613	471.69
400.837	422.69
401.062	419.69
401.286	409.69
401.51	396.69
401.734	394.69
401.958	411.69
402.182	422.69
402.406	414.69
402.63	415.69
402.854	408.69
403.078	422.69
403.302	406.69
403.526	411.69
403.75	427.69
403.974	418.69
404.198	411.69
404.422	434.69
404.645	428.69
404.869	442.69
405.093	435.69
405.317	461.69
405.541	492.69
405.765	470.69
405.988	433.69
406.212	442.69
406.436	433.69
406.66	471.69
406.883	450.69
407.107	453.69
407.331	482.69
407.555	525.69
407.778	527.69
408.002	485.69
408.226	467.69
408.449	454.69
408.673	441.69
408.896	470.69
409.12	507.69
409.344	484.69
409.567	423.69
409.791	436.69
410.014	409.69
410.238	426.69
410.461	428.69
410.685	441.69
410.908	447.69
411.132	458.69
411.355	456.69
411.578	457.69
411.802	430.69
412.025	418.69
412.249	422.69
412.472	426.69
412.695	462.69
412.919	438.69
413.142	422.69
413.365	417.69
413.589	410.69
413.812	411.69
414.035	408.69
414.258	400.69
414.482	403.69
414.705	399.69
414.928	400.69
415.151	391.69
415.374	391.69
415.597	407.69
415.821	386.69
416.044	384.69
416.267	411.69
416.49	399.69
416.713	395.69
416.936	400.69
417.159	394.69
417.382	371.69
417.605	376.69
417.828	382.69
418.051	379.69
418.274	392.69
418.497	400.69
418.72	389.69
418.943	386.69
419.166	400.69
419.389	406.69
419.611	410.69
419.834	387.69
420.057	425.69
420.28	404.69
420.503	405.69
420.726	374.69
420.948	404.69
421.171	428.69
421.394	457.69
421.617	413.69
421.839	392.69
422.062	399.69
422.285	401.69
422.507	465.69
422.73	503.69
422.953	477.69
423.175	450.69
423.398	424.69
423.621	425.69
423.843	431.69
424.066	412.69
424.288	446.69
424.511	443.69
424.733	482.69
424.956	514.69
425.178	510.69
425.401	499.69
425.623	500.69
425.846	430.69
426.068	436.69
426.291	433.69
426.513	439.69
426.735	410.69
426.958	436.69
427.18	512.69
427.402	577.69
427.625	645.69
427.847	547.69
428.069	481.69
428.292	446.69
428.514	403.69
428.736	406.69
428.958	407.69
429.181	383.69
429.403	394.69
429.625	390.69
429.847	415.69
430.069	450.69
430.292	438.69
430.514	400.69
430.736	390.69
430.958	385.69
431.18	387.69
431.402	381.69
431.624	369.69
431.846	368.69
432.068	392.69
432.29	372.69
432.512	378.69
432.734	370.69
432.956	375.69
433.178	397.69
433.4	382.69
433.622	392.69
433.844	370.69
434.066	374.69
434.287	374.69
434.509	378.69
434.731	385.69
434.953	401.69
435.175	401.69
435.397	426.69
435.618	415.69
435.84	465.69
436.062	490.69
436.284	535.69
436.505	452.69
436.727	424.69
436.949	392.69
437.17	364.69
437.392	387.69
437.614	400.69
437.835	411.69
438.057	479.69
438.278	522.69
438.5	530.69
438.721	566.69
438.943	524.69
439.165	473.69
439.386	440.69
439.608	430.69
439.829	414.69
440.05	440.69
440.272	426.69
440.493	435.69
440.715	411.69
440.936	414.69
441.158	410.69
441.379	400.69
441.6	417.69
441.822	410.69
442.043	445.69
442.264	481.69
442.486	523.69
442.707	444.69
442.928	424.69
443.149	434.69
443.371	456.69
443.592	451.69
443.813	518.69
444.034	555.69
444.255	492.69
444.476	447.69
444.698	422.69
444.919	426.69
445.14	521.69
445.361	465.69
445.582	451.69
445.803	474.69
446.024	542.69
446.245	525.69
446.466	494.69
446.687	436.69
446.908	427.69
447.129	385.69
447.35	379.69
447.571	398.69
447.792	386.69
448.013	406.69
448.234	414.69
448.455	448.69
448.675	500.69
448.896	548.69
449.117	491.69
449.338	456.69
449.559	536.69
449.779	603.69
450	487.69
450.221	399.69
450.442	387.69
450.662	376.69
450.883	365.69
451.104	382.69
451.324	376.69
451.545	372.69
451.766	366.69
451.986	360.69
452.207	339.69
452.428	363.69
452.648	334.69
452.869	348.69
453.089	362.69
453.31	379.69
453.53	356.69
453.751	349.69
453.971	360.69
454.192	351.69
454.412	333.69
454.633	353.69
454.853	358.69
455.073	352.69
455.294	360.69
455.514	398.69
455.734	379.69
455.955	362.69
456.175	328.69
456.395	304.69
456.616	323.69
456.836	335.69
457.056	322.69
457.276	329.69
457.497	319.69
457.717	342.69
457.937	351.69
458.157	359.69
458.377	346.69
458.598	365.69
458.818	401.69
459.038	427.69
459.258	461.69
459.478	394.69
459.698	382.69
459.918	378.69
460.138	375.69
460.358	374.69
460.578	368.69
460.798	394.69
461.018	388.69
461.238	396.69
461.458	389.69
461.678	386.69
461.898	383.69
462.118	389.69
462.338	412.69
462.558	418.69
462.777	405.69
462.997	408.69
463.217	410.69
463.437	418.69
463.657	410.69
463.876	417.69
464.096	436.69
464.316	404.69
464.536	412.69
464.755	389.69
464.975	386.69
465.195	423.69
465.414	424.69
465.634	397.69
465.854	386.69
466.073	366.69
466.293	368.69
466.512	367.69
466.732	359.69
466.951	358.69
467.171	360.69
467.391	369.69
467.61	374.69
467.829	379.69
468.049	370.69
468.268	380.69
468.488	363.69
468.707	364.69
468.927	354.69
469.146	337.69
469.365	368.69
469.585	360.69
469.804	368.69
470.023	365.69
470.243	364.69
470.462	368.69
470.681	376.69
470.901	367.69
471.12	374.69
471.339	363.69
471.558	378.69
471.777	369.69
471.997	360.69
472.216	362.69
472.435	374.69
472.654	365.69
472.873	371.69
473.092	358.69
473.311	368.69
473.53	366.69
473.749	385.69
473.968	398.69
474.187	465.69
474.406	478.69
474.625	396.69
474.844	388.69
475.063	374.69
475.282	379.69
475.501	366.69
475.72	378.69
475.939	365.69
476.158	387.69
476.377	390.69
476.596	355.69
476.814	378.69
477.033	382.69
477.252	382.69
477.471	386.69
477.69	398.69
477.908	410.69
478.127	396.69
478.346	401.69
478.564	400.69
478.783	404.69
479.002	398.69
479.22	419.69
479.439	409.69
479.658	429.69
479.876	434.69
480.095	439.69
480.313	468.69
480.532	446.69
480.751	443.69
480.969	452.69
481.188	480.69
481.406	488.69
481.624	438.69
481.843	432.69
482.061	411.69
482.28	417.69
482.498	430.69
482.717	425.69
482.935	434.69
483.153	433.69
483.372	424.69
483.59	442.69
483.808	429.69
484.027	425.69
484.245	445.69
484.463	431.69
484.681	437.69
484.9	439.69
485.118	434.69
485.336	439.69
485.554	450.69
485.772	464.69
485.99	425.69
486.209	430.69
486.427	451.69
486.645	441.69
486.863	446.69
487.081	459.69
487.299	445.69
487.517	454.69
487.735	443.69
487.953	451.69
488.171	466.69
488.389	450.69
488.607	463.69
488.825	433.69
489.043	441.69
489.261	442.69
489.479	464.69
489.696	459.69
489.914	455.69
490.132	444.69
490.35	458.69
490.568	452.69
490.786	447.69
491.003	480.69
491.221	489.69
491.439	480.69
491.657	488.69
491.874	501.69
492.092	465.69
492.31	490.69
492.527	508.69
492.745	497.69
492.963	502.69
493.18	516.69
493.398	514.69
493.615	516.69
493.833	496.69
494.05	490.69
494.268	505.69
494.485	503.69
494.703	504.69
494.92	513.69
495.138	507.69
495.355	496.69
495.573	513.69
495.79	510.69
496.008	503.69
496.225	520.69
496.442	528.69
496.66	514.69
496.877	508.69
497.094	522.69
497.312	534.69
497.529	521.69
497.746	537.69
497.963	557.69
498.181	560.69
498.398	578.69
498.615	573.69
498.832	577.69
499.049	615.69
499.267	608.69
499.484	646.69
499.701	647.69
499.918	666.69
500.135	703.69
500.352	733.69
500.569	756.69
500.786	759.69
501.003	747.69
501.22	680.69
501.437	694.69
501.654	653.69
501.871	655.69
502.088	653.69
502.305	612.69
502.522	595.69
502.739	593.69
502.956	562.69
503.172	552.69
503.389	535.69
503.606	534.69
503.823	556.69
504.04	532.69
504.256	544.69
504.473	537.69
504.69	512.69
504.907	535.69
505.123	519.69
505.34	525.69
505.557	516.69
505.773	515.69
505.99	513.69
506.207	490.69
506.423	502.69
506.64	508.69
506.856	482.69
507.073	476.69
507.289	460.69
507.506	487.69
507.722	474.69
507.939	471.69
508.155	453.69
508.372	473.69
508.588	461.69
508.805	466.69
509.021	463.69
509.238	470.69
509.454	481.69
509.67	480.69
509.887	461.69
510.103	446.69
510.319	482.69
510.536	512.69
510.752	731.69
510.968	620.69
511.184	473.69
511.401	455.69
511.617	434.69
511.833	440.69
512.049	451.69
512.265	435.69
512.481	426.69
512.698	437.69
512.914	416.69
513.13	447.69
513.346	429.69
513.562	451.69
513.778	428.69
513.994	435.69
514.21	456.69
514.426	475.69
514.642	473.69
514.858	493.69
515.074	500.69
515.29	561.69
515.506	734.69
515.721	630.69
515.937	483.69
516.153	477.69
516.369	470.69
516.585	442.69
516.801	457.69
517.016	465.69
517.232	466.69
517.448	459.69
517.664	466.69
517.879	443.69
518.095	461.69
518.311	473.69
518.527	443.69
518.742	461.69
518.958	464.69
519.173	433.69
519.389	451.69
519.605	432.69
519.82	447.69
520.036	464.69
520.251	451.69
520.467	468.69
520.682	478.69
520.898	472.69
521.113	460.69
521.329	476.69
521.544	515.69
521.76	623.69
521.975	899.69
522.19	867.69
522.406	542.69
522.621	449.69
522.836	455.69
523.052	426.69
523.267	422.69
523.482	424.69
523.698	412.69
523.913	401.69
524.128	397.69
524.343	391.69
524.559	408.69
524.774	393.69
524.989	403.69
525.204	409.69
525.419	385.69
525.634	391.69
525.849	388.69
526.064	394.69
526.28	380.69
526.495	388.69
526.71	371.69
526.925	383.69
527.14	367.69
527.355	373.69
527.57	373.69
527.785	376.69
527.999	373.69
528.214	388.69
528.429	379.69
528.644	367.69
528.859	370.69
529.074	369.69
529.289	378.69
529.503	397.69
529.718	396.69
529.933	393.69
530.148	381.69
530.363	377.69
530.577	376.69
530.792	366.69
531.007	372.69
531.221	356.69
531.436	354.69
531.651	365.69
531.865	386.69
532.08	366.69
532.295	338.69
532.509	362.69
532.724	349.69
532.938	358.69
533.153	336.69
533.367	366.69
533.582	351.69
533.796	358.69
534.011	348.69
534.225	351.69
534.44	346.69
534.654	355.69
534.868	344.69
535.083	354.69
535.297	343.69
535.511	353.69
535.726	369.69
535.94	354.69
536.154	340.69
536.369	338.69
536.583	352.69
536.797	343.69
537.011	349.69
537.225	350.69
537.44	366.69
537.654	354.69
537.868	342.69
538.082	326.69
538.296	336.69
538.51	356.69
538.724	355.69
538.938	338.69
539.153	352.69
539.367	354.69
539.581	365.69
539.795	346.69
540.009	337.69
540.222	337.69
540.436	371.69
540.65	330.69
540.864	333.69
541.078	349.69
541.292	348.69
541.506	361.69
541.72	341.69
541.934	344.69
542.147	335.69
542.361	345.69
542.575	331.69
542.789	334.69
543.002	336.69
543.216	350.69
543.43	370.69
543.644	352.69
543.857	372.69
544.071	340.69
544.285	344.69
544.498	350.69
544.712	342.69
544.925	366.69
545.139	336.69
545.352	330.69
545.566	316.69
545.779	331.69
545.993	351.69
546.206	339.69
546.42	335.69
546.633	332.69
546.847	334.69
547.06	327.69
547.274	336.69
547.487	349.69
547.7	342.69
547.914	346.69
548.127	330.69
548.34	347.69
548.554	344.69
548.767	322.69
548.98	337.69
549.193	328.69
549.407	337.69
549.62	331.69
549.833	349.69
550.046	328.69
550.259	347.69
550.473	323.69
550.686	345.69
550.899	348.69
551.112	321.69
551.325	328.69
551.538	322.69
551.751	339.69
551.964	318.69
552.177	323.69
552.39	327.69
552.603	335.69
552.816	344.69
553.029	326.69
553.242	321.69
553.455	337.69
553.667	343.69
553.88	338.69
554.093	322.69
554.306	333.69
554.519	331.69
554.732	328.69
554.944	317.69
555.157	326.69
555.37	314.69
555.583	318.69
555.795	322.69
556.008	334.69
556.221	313.69
556.433	303.69
556.646	310.69
556.859	287.69
557.071	313.69
557.284	304.69
557.496	278.69
557.709	300.69
557.921	322.69
558.134	297.69
558.346	306.69
558.559	294.69
558.771	313.69
558.984	302.69
559.196	282.69
559.409	291.69
559.621	317.69
559.833	289.69
560.046	298.69
560.258	288.69
560.47	299.69
560.683	300.69
560.895	279.69
561.107	292.69
561.32	291.69
561.532	318.69
561.744	312.69
561.956	287.69
562.168	308.69
562.381	310.69
562.593	284.69
562.805	283.69
563.017	296.69
563.229	298.69
563.441	302.69
563.653	294.69
563.865	318.69
564.077	318.69
564.289	306.69
564.501	314.69
564.713	323.69
564.925	321.69
565.137	311.69
565.349	317.69
565.561	327.69
565.773	346.69
565.985	339.69
566.197	328.69
566.408	318.69
566.62	344.69
566.832	368.69
567.044	362.69
567.255	346.69
567.467	361.69
567.679	367.69
567.891	380.69
568.102	368.69
568.314	368.69
568.526	352.69
568.737	359.69
568.949	319.69
569.161	338.69
569.372	305.69
569.584	321.69
569.795	309.69
570.007	316.69
570.218	342.69
570.43	327.69
570.641	299.69
570.853	295.69
571.064	270.69
571.276	279.69
571.487	294.69
571.698	286.69
571.91	278.69
572.121	282.69
572.333	267.69
572.544	285.69
572.755	273.69
572.966	274.69
573.178	285.69
573.389	267.69
573.6	246.69
573.811	267.69
574.023	267.69
574.234	251.69
574.445	258.69
574.656	272.69
574.867	272.69
575.078	278.69
575.289	253.69
575.501	264.69
575.712	254.69
575.923	265.69
576.134	249.69
576.345	257.69
576.556	248.69
576.767	254.69
576.978	266.69
577.188	253.69
577.399	255.69
577.61	238.69
577.821	245.69
578.032	259.69
578.243	268.69
578.454	392.69
578.665	304.69
578.875	268.69
579.086	244.69
579.297	258.69
579.508	263.69
579.718	234.69
579.929	240.69
580.14	244.69
580.35	257.69
580.561	245.69
580.772	237.69
580.982	259.69
581.193	239.69
581.403	244.69
581.614	252.69
581.825	221.69
582.035	246.69
582.246	256.69
582.456	239.69
582.667	234.69
582.877	248.69
583.087	231.69
583.298	233.69
583.508	227.69
583.719	238.69
583.929	233.69
584.139	246.69
584.35	238.69
584.56	248.69
584.77	234.69
584.981	219.69
585.191	232.69
585.401	234.69
585.611	228.69
585.821	228.69
586.032	234.69
586.242	231.69
586.452	233.69
586.662	239.69
586.872	236.69
587.082	223.69
587.292	236.69
587.502	235.69
587.713	236.69
587.923	239.69
588.133	223.69
588.343	233.69
588.553	248.69
588.762	242.69
588.972	245.69
589.182	283.69
589.392	282.69
589.602	251.69
589.812	283.69
590.022	261.69
590.232	226.69
590.441	222.69
590.651	233.69
590.861	223.69
591.071	238.69
591.281	238.69
591.49	252.69
591.7	224.69
591.91	234.69
592.119	248.69
592.329	239.69
592.539	219.69
592.748	244.69
592.958	238.69
593.167	242.69
593.377	259.69
593.587	266.69
593.796	233.69
594.006	250.69
594.215	248.69
594.424	234.69
594.634	253.69
594.843	237.69
595.053	244.69
595.262	243.69
595.472	214.69
595.681	236.69
595.89	244.69
596.1	243.69
596.309	236.69
596.518	214.69
596.727	202.69
596.937	225.69
597.146	223.69
597.355	219.69
597.564	219.69
597.774	212.69
597.983	222.69
598.192	231.69
598.401	220.69
598.61	213.69
598.819	219.69
599.028	198.69
599.237	217.69
599.446	220.69
599.655	223.69
599.864	210.69
600.073	216.69
600.282	205.69
600.491	207.69
600.7	204.69
600.909	202.69
601.118	187.69
601.327	216.69
601.536	180.69
601.745	199.69
601.953	208.69
602.162	209.69
602.371	194.69
602.58	198.69
602.789	196.69
602.997	202.69
603.206	188.69
603.415	203.69
603.623	198.69
603.832	192.69
604.041	208.69
604.249	206.69
604.458	203.69
604.666	196.69
604.875	186.69
605.084	197.69
605.292	193.69
605.501	195.69
605.709	206.69
605.918	188.69
606.126	209.69
606.334	190.69
606.543	202.69
606.751	194.69
606.96	205.69
607.168	192.69
607.376	195.69
607.585	190.69
607.793	203.69
608.001	207.69
608.21	192.69
608.418	172.69
608.626	198.69
608.834	189.69
609.043	205.69
609.251	197.69
609.459	194.69
609.667	205.69
609.875	207.69
610.083	199.69
610.291	199.69
610.499	188.69
610.707	201.69
610.916	179.69
611.124	167.69
611.332	188.69
611.54	204.69
611.748	206.69
611.955	203.69
612.163	186.69
612.371	210.69
612.579	176.69
612.787	202.69
612.995	199.69
613.203	195.69
613.411	197.69
613.618	200.69
613.826	196.69
614.034	185.69
614.242	198.69
614.449	188.69
614.657	191.69
614.865	174.69
615.072	182.69
615.28	184.69
615.488	200.69
615.695	179.69
615.903	187.69
616.111	191.69
616.318	200.69
616.526	181.69
616.733	198.69
616.941	157.69
617.148	177.69
617.356	191.69
617.563	188.69
617.771	194.69
617.978	181.69
618.185	189.69
618.393	199.69
618.6	185.69
618.807	176.69
619.015	192.69
619.222	174.69
619.429	189.69
619.637	187.69
619.844	189.69
620.051	182.69
620.258	182.69
620.466	176.69
620.673	195.69
620.88	171.69
621.087	179.69
621.294	175.69
621.501	183.69
621.708	183.69
621.915	187.69
622.122	188.69
622.329	173.69
622.536	192.69
622.743	164.69
622.95	160.69
623.157	182.69
623.364	173.69
623.571	170.69
623.778	183.69
623.985	162.69
624.192	170.69
624.399	176.69
624.606	178.69
624.812	171.69
625.019	173.69
625.226	176.69
625.433	171.69
625.639	170.69
625.846	172.69
626.053	171.69
626.259	167.69
626.466	158.69
626.673	172.69
626.879	161.69
627.086	172.69
627.293	166.69
627.499	168.69
627.706	161.69
627.912	172.69
628.119	174.69
628.325	174.69
628.532	167.69
628.738	174.69
628.945	162.69
629.151	168.69
629.357	161.69
629.564	172.69
629.77	166.69
629.976	176.69
630.183	169.69
630.389	159.69
630.595	159.69
630.802	161.69
631.008	166.69
631.214	166.69
631.42	156.69
631.627	166.69
631.833	145.69
632.039	158.69
632.245	155.69
632.451	142.69
632.657	162.69
632.863	154.69
633.069	137.69
633.275	141.69
633.481	154.69
633.688	157.69
633.893	174.69
634.099	180.69
634.305	148.69
634.511	139.69
634.717	144.69
634.923	163.69
635.129	144.69
635.335	145.69
635.541	155.69
635.747	156.69
635.952	144.69
636.158	162.69
636.364	163.69
636.57	150.69
636.775	161.69
636.981	158.69
637.187	148.69
637.392	136.69
637.598	161.69
637.804	160.69
638.009	144.69
638.215	148.69
638.421	151.69
638.626	162.69
638.832	147.69
639.037	149.69
639.243	136.69
639.448	147.69
639.654	140.69
639.859	131.69
640.065	151.69
640.27	152.69
640.475	146.69
640.681	122.69
640.886	127.69
641.091	138.69
641.297	149.69
641.502	160.69
641.707	149.69
641.913	145.69
642.118	145.69
642.323	154.69
642.528	144.69
642.733	145.69
642.939	137.69
643.144	149.69
643.349	149.69
643.554	157.69
643.759	150.69
643.964	152.69
644.169	146.69
644.374	142.69
644.579	148.69
644.784	140.69
644.989	153.69
645.194	144.69
645.399	150.69
645.604	140.69
645.809	155.69
646.014	146.69
646.219	128.69
646.423	152.69
646.628	136.69
646.833	141.69
647.038	139.69
647.243	131.69
647.447	157.69
647.652	143.69
647.857	148.69
648.062	149.69
648.266	126.69
648.471	143.69
648.676	167.69
648.88	162.69
649.085	156.69
649.289	158.69
649.494	153.69
649.698	152.69
649.903	154.69
650.107	136.69
650.312	151.69
650.516	149.69
650.721	141.69
650.925	124.69
651.13	130.69
651.334	138.69
651.539	132.69
651.743	139.69
651.947	139.69
652.152	137.69
652.356	129.69
652.56	144.69
652.764	136.69
652.969	132.69
653.173	127.69
653.377	122.69
653.581	128.69
653.785	122.69
653.99	124.69
654.194	114.69
654.398	124.69
654.602	118.69
654.806	134.69
655.01	124.69
655.214	120.69
655.418	118.69
655.622	138.69
655.826	126.69
656.03	130.69
656.234	131.69
656.438	137.69
656.642	139.69
656.846	134.69
657.049	112.69
657.253	143.69
657.457	119.69
657.661	116.69
657.865	123.69
658.068	98.69
658.272	114.69
658.476	114.69
658.68	99.69
658.883	108.69
659.087	99.69
659.291	99.69
659.494	95.69
659.698	106.69
659.901	102.69
660.105	97.69
660.309	90.69
660.512	97.69
660.716	96.69
660.919	85.69
661.123	97.69
661.326	96.69
661.53	85.69
661.733	81.69
661.936	81.69
662.14	98.69
662.343	90.69
662.546	92.69
662.75	87.69
662.953	93.69
663.156	87.69
663.36	76.69
663.563	76.69
663.766	89.69
663.969	94.69
664.173	96.69
664.376	95.69
664.579	68.69
664.782	78.69
664.985	85.69
665.188	90.69
665.391	82.69
665.594	74.69
665.797	79.69
666	91.69
666.203	81.69
666.406	84.69
666.609	76.69
666.812	79.69
667.015	92.69
667.218	89.69
667.421	89.69
667.624	90.69
667.827	88.69
668.03	75.69
668.232	91.69
668.435	87.69
668.638	79.69
668.841	79.69
669.043	77.69
669.246	83.69
669.449	87.69
669.651	79.69
669.854	92.69
670.057	93.69
670.259	90.69
670.462	71.69
670.665	84.69
670.867	80.69
671.07	80.69
671.272	82.69
671.475	98.69
671.677	82.69
671.88	77.69
672.082	90.69
672.284	82.69
672.487	88.69
672.689	72.69
672.892	73.69
