Data from 1960PennyLincolnUp.LampE6.200Scan.07172019.P1_HRD10591_13-05-19-001.txt Node
Date: Thu Jul 18 13:05:19 EDT 2019
User: cochatt
Spectrometer: HR+D1059
Trigger mode: 1
Integration Time (sec): 1.000000E-1
Scans to average: 1
Electric dark correction enabled: true
Nonlinearity correction enabled: false
Boxcar width: 0
XAxis mode: Wavelengths
Number of Pixels in Spectrum: 2048
>>>>>Begin Spectral Data<<<<<
223.165	-12.12
223.4	-12.12
223.635	-12.12
223.869	-9.12
224.104	-24.12
224.338	-3.12
224.573	-11.12
224.808	-9.12
225.042	1.88
225.277	-13.12
225.511	-15.12
225.746	-0.12
225.98	2.88
226.215	15.88
226.449	17.88
226.683	13.88
226.918	17.88
227.152	26.88
227.387	38.88
227.621	28.88
227.856	38.88
228.09	31.88
228.324	44.88
228.559	47.88
228.793	64.88
229.027	84.88
229.262	104.88
229.496	93.88
229.73	105.88
229.964	116.88
230.199	114.88
230.433	104.88
230.667	123.88
230.901	108.88
231.136	96.88
231.37	106.88
231.604	109.88
231.838	108.88
232.072	117.88
232.306	98.88
232.541	98.88
232.775	101.88
233.009	105.88
233.243	97.88
233.477	104.88
233.711	109.88
233.945	122.88
234.179	110.88
234.413	115.88
234.647	118.88
234.881	110.88
235.115	102.88
235.349	116.88
235.583	107.88
235.817	104.88
236.051	115.88
236.285	102.88
236.519	127.88
236.753	136.88
236.987	136.88
237.221	152.88
237.455	181.88
237.689	139.88
237.922	127.88
238.156	121.88
238.39	119.88
238.624	128.88
238.858	116.88
239.091	119.88
239.325	117.88
239.559	114.88
239.793	118.88
240.027	123.88
240.26	130.88
240.494	151.88
240.728	120.88
240.961	132.88
241.195	130.88
241.429	120.88
241.662	141.88
241.896	142.88
242.13	123.88
242.363	129.88
242.597	114.88
242.83	129.88
243.064	145.88
243.298	129.88
243.531	125.88
243.765	134.88
243.998	128.88
244.232	122.88
244.465	150.88
244.699	144.88
244.932	143.88
245.166	137.88
245.399	136.88
245.633	132.88
245.866	137.88
246.099	133.88
246.333	129.88
246.566	142.88
246.8	130.88
247.033	145.88
247.266	154.88
247.5	145.88
247.733	143.88
247.966	153.88
248.2	161.88
248.433	170.88
248.666	146.88
248.899	161.88
249.133	170.88
249.366	173.88
249.599	167.88
249.832	165.88
250.066	176.88
250.299	160.88
250.532	161.88
250.765	172.88
250.998	183.88
251.231	173.88
251.465	185.88
251.698	179.88
251.931	168.88
252.164	187.88
252.397	178.88
252.63	180.88
252.863	182.88
253.096	201.88
253.329	200.88
253.562	198.88
253.795	195.88
254.028	185.88
254.261	198.88
254.494	200.88
254.727	202.88
254.96	211.88
255.193	211.88
255.426	180.88
255.659	194.88
255.892	183.88
256.124	199.88
256.357	210.88
256.59	192.88
256.823	180.88
257.056	180.88
257.289	173.88
257.521	193.88
257.754	186.88
257.987	189.88
258.22	186.88
258.452	182.88
258.685	190.88
258.918	199.88
259.151	183.88
259.383	195.88
259.616	198.88
259.849	197.88
260.081	201.88
260.314	209.88
260.547	211.88
260.779	212.88
261.012	200.88
261.244	188.88
261.477	207.88
261.71	196.88
261.942	209.88
262.175	191.88
262.407	215.88
262.64	207.88
262.872	201.88
263.105	202.88
263.337	216.88
263.57	196.88
263.802	207.88
264.035	194.88
264.267	190.88
264.499	204.88
264.732	212.88
264.964	217.88
265.197	225.88
265.429	202.88
265.661	208.88
265.894	217.88
266.126	221.88
266.358	207.88
266.591	200.88
266.823	212.88
267.055	217.88
267.287	222.88
267.52	228.88
267.752	214.88
267.984	211.88
268.216	226.88
268.448	211.88
268.681	210.88
268.913	229.88
269.145	247.88
269.377	262.88
269.609	242.88
269.841	245.88
270.073	243.88
270.306	271.88
270.538	261.88
270.77	275.88
271.002	252.88
271.234	243.88
271.466	249.88
271.698	266.88
271.93	250.88
272.162	271.88
272.394	276.88
272.626	247.88
272.858	250.88
273.09	251.88
273.322	252.88
273.553	246.88
273.785	248.88
274.017	245.88
274.249	248.88
274.481	232.88
274.713	243.88
274.945	249.88
275.176	250.88
275.408	241.88
275.64	227.88
275.872	245.88
276.104	243.88
276.335	249.88
276.567	250.88
276.799	246.88
277.031	266.88
277.262	275.88
277.494	271.88
277.726	263.88
277.957	270.88
278.189	249.88
278.421	261.88
278.652	266.88
278.884	262.88
279.115	262.88
279.347	265.88
279.579	262.88
279.81	241.88
280.042	268.88
280.273	247.88
280.505	251.88
280.736	266.88
280.968	269.88
281.199	262.88
281.431	267.88
281.662	272.88
281.894	280.88
282.125	263.88
282.356	266.88
282.588	269.88
282.819	279.88
283.051	261.88
283.282	275.88
283.513	277.88
283.745	257.88
283.976	273.88
284.207	279.88
284.439	278.88
284.67	279.88
284.901	281.88
285.132	287.88
285.364	279.88
285.595	279.88
285.826	293.88
286.057	280.88
286.288	286.88
286.52	295.88
286.751	279.88
286.982	298.88
287.213	282.88
287.444	280.88
287.675	295.88
287.906	288.88
288.138	305.88
288.369	314.88
288.6	307.88
288.831	295.88
289.062	290.88
289.293	284.88
289.524	292.88
289.755	312.88
289.986	298.88
290.217	292.88
290.448	289.88
290.679	291.88
290.91	308.88
291.141	291.88
291.371	295.88
291.602	295.88
291.833	294.88
292.064	297.88
292.295	285.88
292.526	292.88
292.757	290.88
292.987	302.88
293.218	278.88
293.449	291.88
293.68	299.88
293.91	294.88
294.141	317.88
294.372	310.88
294.603	306.88
294.833	285.88
295.064	301.88
295.295	306.88
295.525	314.88
295.756	297.88
295.987	314.88
296.217	317.88
296.448	296.88
296.679	305.88
296.909	304.88
297.14	319.88
297.37	309.88
297.601	307.88
297.831	304.88
298.062	311.88
298.292	322.88
298.523	305.88
298.753	313.88
298.984	317.88
299.214	337.88
299.445	339.88
299.675	304.88
299.905	309.88
300.136	324.88
300.366	325.88
300.597	322.88
300.827	331.88
301.057	322.88
301.288	338.88
301.518	307.88
301.748	325.88
301.979	341.88
302.209	340.88
302.439	340.88
302.669	329.88
302.9	352.88
303.13	332.88
303.36	340.88
303.59	343.88
303.82	333.88
304.051	352.88
304.281	348.88
304.511	337.88
304.741	336.88
304.971	336.88
305.201	329.88
305.431	332.88
305.661	340.88
305.891	323.88
306.121	353.88
306.352	336.88
306.582	343.88
306.812	342.88
307.042	325.88
307.272	331.88
307.502	343.88
307.731	350.88
307.961	332.88
308.191	342.88
308.421	342.88
308.651	332.88
308.881	334.88
309.111	338.88
309.341	331.88
309.571	335.88
309.8	345.88
310.03	335.88
310.26	353.88
310.49	362.88
310.72	358.88
310.949	359.88
311.179	352.88
311.409	364.88
311.639	351.88
311.868	348.88
312.098	362.88
312.328	370.88
312.557	351.88
312.787	367.88
313.017	375.88
313.246	372.88
313.476	345.88
313.706	356.88
313.935	372.88
314.165	362.88
314.394	384.88
314.624	375.88
314.853	358.88
315.083	380.88
315.312	375.88
315.542	368.88
315.771	366.88
316.001	367.88
316.23	355.88
316.46	354.88
316.689	373.88
316.919	369.88
317.148	356.88
317.377	377.88
317.607	370.88
317.836	378.88
318.065	361.88
318.295	359.88
318.524	366.88
318.753	363.88
318.983	369.88
319.212	360.88
319.441	369.88
319.67	363.88
319.9	361.88
320.129	385.88
320.358	366.88
320.587	378.88
320.816	378.88
321.046	368.88
321.275	387.88
321.504	383.88
321.733	382.88
321.962	390.88
322.191	397.88
322.42	389.88
322.649	382.88
322.878	411.88
323.108	416.88
323.337	411.88
323.566	414.88
323.795	411.88
324.024	450.88
324.253	515.88
324.482	660.88
324.71	888.88
324.939	1166.88
325.168	1016.88
325.397	596.88
325.626	479.88
325.855	422.88
326.084	426.88
326.313	434.88
326.542	430.88
326.77	465.88
326.999	490.88
327.228	625.88
327.457	851.88
327.686	950.88
327.914	646.88
328.143	516.88
328.372	503.88
328.6	465.88
328.829	448.88
329.058	458.88
329.287	441.88
329.515	462.88
329.744	442.88
329.972	445.88
330.201	444.88
330.43	472.88
330.658	474.88
330.887	497.88
331.115	465.88
331.344	462.88
331.572	436.88
331.801	444.88
332.03	430.88
332.258	432.88
332.486	441.88
332.715	469.88
332.943	492.88
333.172	476.88
333.4	497.88
333.629	480.88
333.857	502.88
334.085	533.88
334.314	518.88
334.542	529.88
334.771	534.88
334.999	488.88
335.227	483.88
335.455	506.88
335.684	506.88
335.912	470.88
336.14	463.88
336.369	457.88
336.597	465.88
336.825	468.88
337.053	474.88
337.281	457.88
337.51	441.88
337.738	438.88
337.966	464.88
338.194	492.88
338.422	425.88
338.65	436.88
338.878	425.88
339.106	429.88
339.334	431.88
339.562	456.88
339.79	418.88
340.018	417.88
340.246	425.88
340.474	434.88
340.702	453.88
340.93	433.88
341.158	412.88
341.386	428.88
341.614	435.88
341.842	432.88
342.07	412.88
342.298	420.88
342.526	401.88
342.754	420.88
342.981	409.88
343.209	427.88
343.437	457.88
343.665	442.88
343.893	473.88
344.12	488.88
344.348	479.88
344.576	452.88
344.804	427.88
345.031	467.88
345.259	413.88
345.487	422.88
345.714	425.88
345.942	393.88
346.17	404.88
346.397	399.88
346.625	406.88
346.853	406.88
347.08	397.88
347.308	408.88
347.535	423.88
347.763	409.88
347.99	421.88
348.218	415.88
348.445	416.88
348.673	414.88
348.9	421.88
349.128	398.88
349.355	399.88
349.583	422.88
349.81	398.88
350.037	408.88
350.265	395.88
350.492	395.88
350.72	384.88
350.947	388.88
351.174	413.88
351.402	407.88
351.629	409.88
351.856	397.88
352.083	406.88
352.311	386.88
352.538	408.88
352.765	412.88
352.992	400.88
353.22	389.88
353.447	407.88
353.674	404.88
353.901	396.88
354.128	401.88
354.355	372.88
354.583	407.88
354.81	416.88
355.037	407.88
355.264	400.88
355.491	390.88
355.718	404.88
355.945	392.88
356.172	395.88
356.399	392.88
356.626	402.88
356.853	394.88
357.08	407.88
357.307	392.88
357.534	405.88
357.761	370.88
357.988	394.88
358.215	387.88
358.441	382.88
358.668	379.88
358.895	402.88
359.122	386.88
359.349	408.88
359.576	416.88
359.802	417.88
360.029	416.88
360.256	417.88
360.483	407.88
360.709	390.88
360.936	406.88
361.163	425.88
361.39	409.88
361.616	400.88
361.843	397.88
362.07	415.88
362.296	399.88
362.523	389.88
362.749	395.88
362.976	394.88
363.203	418.88
363.429	396.88
363.656	384.88
363.882	386.88
364.109	384.88
364.335	393.88
364.562	397.88
364.788	361.88
365.015	395.88
365.241	404.88
365.468	394.88
365.694	401.88
365.92	392.88
366.147	399.88
366.373	382.88
366.599	399.88
366.826	378.88
367.052	373.88
367.278	390.88
367.505	397.88
367.731	391.88
367.957	403.88
368.184	402.88
368.41	391.88
368.636	394.88
368.862	409.88
369.089	398.88
369.315	384.88
369.541	399.88
369.767	418.88
369.993	417.88
370.219	391.88
370.445	414.88
370.672	400.88
370.898	423.88
371.124	400.88
371.35	407.88
371.576	423.88
371.802	416.88
372.028	412.88
372.254	419.88
372.48	408.88
372.706	422.88
372.932	436.88
373.158	432.88
373.384	420.88
373.61	429.88
373.835	418.88
374.061	400.88
374.287	414.88
374.513	418.88
374.739	424.88
374.965	444.88
375.191	436.88
375.416	446.88
375.642	446.88
375.868	422.88
376.094	416.88
376.319	414.88
376.545	421.88
376.771	419.88
376.997	408.88
377.222	424.88
377.448	422.88
377.674	401.88
377.899	419.88
378.125	404.88
378.35	411.88
378.576	408.88
378.802	412.88
379.027	418.88
379.253	404.88
379.478	398.88
379.704	412.88
379.929	412.88
380.155	408.88
380.38	407.88
380.606	435.88
380.831	421.88
381.057	434.88
381.282	415.88
381.507	420.88
381.733	426.88
381.958	426.88
382.184	433.88
382.409	457.88
382.634	431.88
382.86	424.88
383.085	437.88
383.31	450.88
383.535	433.88
383.761	452.88
383.986	454.88
384.211	441.88
384.436	435.88
384.662	465.88
384.887	458.88
385.112	459.88
385.337	464.88
385.562	465.88
385.787	424.88
386.013	506.88
386.238	489.88
386.463	506.88
386.688	471.88
386.913	490.88
387.138	494.88
387.363	485.88
387.588	468.88
387.813	462.88
388.038	469.88
388.263	469.88
388.488	468.88
388.713	479.88
388.938	465.88
389.163	462.88
389.387	484.88
389.612	462.88
389.837	459.88
390.062	468.88
390.287	469.88
390.512	477.88
390.736	450.88
390.961	462.88
391.186	494.88
391.411	487.88
391.636	501.88
391.86	508.88
392.085	520.88
392.31	493.88
392.534	504.88
392.759	502.88
392.984	493.88
393.208	505.88
393.433	505.88
393.658	490.88
393.882	499.88
394.107	494.88
394.331	516.88
394.556	473.88
394.78	474.88
395.005	494.88
395.229	503.88
395.454	505.88
395.678	513.88
395.903	539.88
396.127	513.88
396.352	518.88
396.576	506.88
396.801	511.88
397.025	504.88
397.249	493.88
397.474	519.88
397.698	518.88
397.922	536.88
398.147	543.88
398.371	521.88
398.595	544.88
398.82	528.88
399.044	564.88
399.268	617.88
399.492	706.88
399.717	754.88
399.941	765.88
400.165	736.88
400.389	678.88
400.613	633.88
400.837	579.88
401.062	582.88
401.286	579.88
401.51	541.88
401.734	567.88
401.958	567.88
402.182	581.88
402.406	572.88
402.63	575.88
402.854	573.88
403.078	593.88
403.302	593.88
403.526	590.88
403.75	615.88
403.974	630.88
404.198	618.88
404.422	630.88
404.645	606.88
404.869	599.88
405.093	638.88
405.317	652.88
405.541	664.88
405.765	645.88
405.988	599.88
406.212	620.88
406.436	624.88
406.66	649.88
406.883	623.88
407.107	680.88
407.331	701.88
407.555	728.88
407.778	718.88
408.002	661.88
408.226	660.88
408.449	638.88
408.673	615.88
408.896	631.88
409.12	671.88
409.344	628.88
409.567	610.88
409.791	584.88
410.014	608.88
410.238	608.88
410.461	564.88
410.685	592.88
410.908	591.88
411.132	601.88
411.355	620.88
411.578	595.88
411.802	571.88
412.025	584.88
412.249	599.88
412.472	603.88
412.695	625.88
412.919	599.88
413.142	580.88
413.365	567.88
413.589	578.88
413.812	566.88
414.035	562.88
414.258	548.88
414.482	557.88
414.705	578.88
414.928	553.88
415.151	568.88
415.374	559.88
415.597	561.88
415.821	544.88
416.044	551.88
416.267	536.88
416.49	544.88
416.713	538.88
416.936	535.88
417.159	536.88
417.382	548.88
417.605	556.88
417.828	563.88
418.051	558.88
418.274	573.88
418.497	563.88
418.72	576.88
418.943	567.88
419.166	613.88
419.389	605.88
419.611	593.88
419.834	586.88
420.057	570.88
420.28	583.88
420.503	547.88
420.726	556.88
420.948	558.88
421.171	581.88
421.394	608.88
421.617	574.88
421.839	561.88
422.062	569.88
422.285	569.88
422.507	608.88
422.73	644.88
422.953	662.88
423.175	584.88
423.398	590.88
423.621	573.88
423.843	610.88
424.066	601.88
424.288	590.88
424.511	606.88
424.733	634.88
424.956	664.88
425.178	650.88
425.401	631.88
425.623	617.88
425.846	597.88
426.068	584.88
426.291	584.88
426.513	576.88
426.735	570.88
426.958	555.88
427.18	629.88
427.402	690.88
427.625	743.88
427.847	654.88
428.069	604.88
428.292	595.88
428.514	525.88
428.736	512.88
428.958	529.88
429.181	504.88
429.403	514.88
429.625	519.88
429.847	527.88
430.069	577.88
430.292	550.88
430.514	519.88
430.736	492.88
430.958	516.88
431.18	493.88
431.402	491.88
431.624	484.88
431.846	481.88
432.068	505.88
432.29	496.88
432.512	521.88
432.734	516.88
432.956	496.88
433.178	499.88
433.4	502.88
433.622	510.88
433.844	512.88
434.066	498.88
434.287	507.88
434.509	534.88
434.731	525.88
434.953	528.88
435.175	575.88
435.397	568.88
435.618	573.88
435.84	575.88
436.062	614.88
436.284	657.88
436.505	577.88
436.727	534.88
436.949	540.88
437.17	521.88
437.392	504.88
437.614	513.88
437.835	514.88
438.057	575.88
438.278	618.88
438.5	642.88
438.721	677.88
438.943	656.88
439.165	572.88
439.386	541.88
439.608	550.88
439.829	525.88
440.05	554.88
440.272	568.88
440.493	542.88
440.715	530.88
440.936	522.88
441.158	530.88
441.379	530.88
441.6	574.88
441.822	582.88
442.043	581.88
442.264	615.88
442.486	624.88
442.707	577.88
442.928	566.88
443.149	581.88
443.371	586.88
443.592	597.88
443.813	656.88
444.034	689.88
444.255	654.88
444.476	604.88
444.698	624.88
444.919	615.88
445.14	719.88
445.361	628.88
445.582	602.88
445.803	626.88
446.024	674.88
446.245	645.88
446.466	618.88
446.687	566.88
446.908	528.88
447.129	493.88
447.35	516.88
447.571	477.88
447.792	506.88
448.013	487.88
448.234	471.88
448.455	525.88
448.675	598.88
448.896	658.88
449.117	581.88
449.338	578.88
449.559	608.88
449.779	664.88
450	550.88
450.221	505.88
450.442	497.88
450.662	490.88
450.883	470.88
451.104	497.88
451.324	480.88
451.545	474.88
451.766	444.88
451.986	460.88
452.207	454.88
452.428	449.88
452.648	457.88
452.869	463.88
453.089	459.88
453.31	464.88
453.53	455.88
453.751	439.88
453.971	442.88
454.192	467.88
454.412	452.88
454.633	459.88
454.853	430.88
455.073	436.88
455.294	470.88
455.514	504.88
455.734	452.88
455.955	439.88
456.175	424.88
456.395	432.88
456.616	432.88
456.836	424.88
457.056	420.88
457.276	414.88
457.497	422.88
457.717	416.88
457.937	436.88
458.157	450.88
458.377	461.88
458.598	439.88
458.818	503.88
459.038	541.88
459.258	533.88
459.478	507.88
459.698	494.88
459.918	513.88
460.138	506.88
460.358	517.88
460.578	533.88
460.798	554.88
461.018	567.88
461.238	556.88
461.458	541.88
461.678	513.88
461.898	538.88
462.118	550.88
462.338	537.88
462.558	567.88
462.777	588.88
462.997	620.88
463.217	643.88
463.437	648.88
463.657	607.88
463.876	619.88
464.096	603.88
464.316	608.88
464.536	601.88
464.755	622.88
464.975	570.88
465.195	558.88
465.414	588.88
465.634	551.88
465.854	525.88
466.073	489.88
466.293	499.88
466.512	509.88
466.732	462.88
466.951	464.88
467.171	446.88
467.391	477.88
467.61	492.88
467.829	480.88
468.049	480.88
468.268	447.88
468.488	456.88
468.707	449.88
468.927	461.88
469.146	458.88
469.365	460.88
469.585	453.88
469.804	480.88
470.023	500.88
470.243	486.88
470.462	486.88
470.681	509.88
470.901	481.88
471.12	508.88
471.339	493.88
471.558	477.88
471.777	473.88
471.997	462.88
472.216	483.88
472.435	488.88
472.654	487.88
472.873	458.88
473.092	446.88
473.311	477.88
473.53	466.88
473.749	463.88
473.968	481.88
474.187	542.88
474.406	537.88
474.625	506.88
474.844	480.88
475.063	469.88
475.282	464.88
475.501	449.88
475.72	485.88
475.939	468.88
476.158	462.88
476.377	478.88
476.596	464.88
476.814	478.88
477.033	471.88
477.252	503.88
477.471	512.88
477.69	510.88
477.908	537.88
478.127	531.88
478.346	540.88
478.564	535.88
478.783	542.88
479.002	545.88
479.22	548.88
479.439	537.88
479.658	554.88
479.876	543.88
480.095	565.88
480.313	586.88
480.532	600.88
480.751	598.88
480.969	578.88
481.188	605.88
481.406	615.88
481.624	572.88
481.843	551.88
482.061	529.88
482.28	518.88
482.498	550.88
482.717	524.88
482.935	529.88
483.153	525.88
483.372	517.88
483.59	550.88
483.808	511.88
484.027	532.88
484.245	538.88
484.463	541.88
484.681	554.88
484.9	565.88
485.118	550.88
485.336	531.88
485.554	546.88
485.772	588.88
485.99	558.88
486.209	569.88
486.427	553.88
486.645	574.88
486.863	583.88
487.081	574.88
487.299	572.88
487.517	565.88
487.735	580.88
487.953	589.88
488.171	566.88
488.389	562.88
488.607	548.88
488.825	557.88
489.043	554.88
489.261	558.88
489.479	576.88
489.696	578.88
489.914	569.88
490.132	558.88
490.35	585.88
490.568	596.88
490.786	614.88
491.003	570.88
491.221	590.88
491.439	608.88
491.657	624.88
491.874	631.88
492.092	640.88
492.31	639.88
492.527	647.88
492.745	631.88
492.963	632.88
493.18	647.88
493.398	638.88
493.615	653.88
493.833	645.88
494.05	645.88
494.268	640.88
494.485	671.88
494.703	646.88
494.92	652.88
495.138	652.88
495.355	655.88
495.573	652.88
495.79	633.88
496.008	642.88
496.225	642.88
496.442	663.88
496.66	658.88
496.877	648.88
497.094	660.88
497.312	677.88
497.529	695.88
497.746	700.88
497.963	716.88
498.181	727.88
498.398	744.88
498.615	750.88
498.832	765.88
499.049	836.88
499.267	885.88
499.484	934.88
499.701	1000.88
499.918	1042.88
500.135	1170.88
500.352	1324.88
500.569	1288.88
500.786	1308.88
501.003	1252.88
501.22	1127.88
501.437	1062.88
501.654	996.88
501.871	945.88
502.088	864.88
502.305	830.88
502.522	782.88
502.739	752.88
502.956	733.88
503.172	725.88
503.389	689.88
503.606	687.88
503.823	681.88
504.04	690.88
504.256	681.88
504.473	678.88
504.69	687.88
504.907	678.88
505.123	661.88
505.34	645.88
505.557	616.88
505.773	617.88
505.99	626.88
506.207	599.88
506.423	622.88
506.64	574.88
506.856	575.88
507.073	573.88
507.289	607.88
507.506	588.88
507.722	586.88
507.939	573.88
508.155	560.88
508.372	558.88
508.588	562.88
508.805	552.88
509.021	557.88
509.238	565.88
509.454	563.88
509.67	555.88
509.887	547.88
510.103	553.88
510.319	546.88
510.536	585.88
510.752	819.88
510.968	680.88
511.184	546.88
511.401	512.88
511.617	539.88
511.833	519.88
512.049	521.88
512.265	535.88
512.481	521.88
512.698	503.88
512.914	542.88
513.13	524.88
513.346	516.88
513.562	526.88
513.778	526.88
513.994	529.88
514.21	525.88
514.426	531.88
514.642	573.88
514.858	566.88
515.074	580.88
515.29	637.88
515.506	811.88
515.721	723.88
515.937	583.88
516.153	572.88
516.369	563.88
516.585	582.88
516.801	561.88
517.016	584.88
517.232	600.88
517.448	627.88
517.664	618.88
517.879	640.88
518.095	627.88
518.311	608.88
518.527	613.88
518.742	606.88
518.958	600.88
519.173	571.88
519.389	538.88
519.605	526.88
519.82	530.88
520.036	558.88
520.251	526.88
520.467	546.88
520.682	542.88
520.898	557.88
521.113	563.88
521.329	550.88
521.544	578.88
521.76	669.88
521.975	950.88
522.19	943.88
522.406	617.88
522.621	542.88
522.836	492.88
523.052	504.88
523.267	497.88
523.482	476.88
523.698	475.88
523.913	464.88
524.128	460.88
524.343	472.88
524.559	446.88
524.774	454.88
524.989	461.88
525.204	468.88
525.419	449.88
525.634	468.88
525.849	444.88
526.064	457.88
526.28	456.88
526.495	445.88
526.71	452.88
526.925	434.88
527.14	452.88
527.355	433.88
527.57	437.88
527.785	448.88
527.999	423.88
528.214	457.88
528.429	448.88
528.644	425.88
528.859	456.88
529.074	452.88
529.289	462.88
529.503	473.88
529.718	474.88
529.933	470.88
530.148	436.88
530.363	442.88
530.577	433.88
530.792	445.88
531.007	441.88
531.221	432.88
531.436	450.88
531.651	453.88
531.865	441.88
532.08	417.88
532.295	447.88
532.509	438.88
532.724	456.88
532.938	446.88
533.153	448.88
533.367	412.88
533.582	456.88
533.796	451.88
534.011	438.88
534.225	445.88
534.44	405.88
534.654	434.88
534.868	430.88
535.083	423.88
535.297	429.88
535.511	416.88
535.726	431.88
535.94	429.88
536.154	389.88
536.369	425.88
536.583	414.88
536.797	416.88
537.011	429.88
537.225	416.88
537.44	420.88
537.654	432.88
537.868	395.88
538.082	421.88
538.296	418.88
538.51	415.88
538.724	405.88
538.938	416.88
539.153	424.88
539.367	415.88
539.581	415.88
539.795	423.88
540.009	395.88
540.222	409.88
540.436	412.88
540.65	398.88
540.864	431.88
541.078	406.88
541.292	425.88
541.506	418.88
541.72	405.88
541.934	442.88
542.147	436.88
542.361	414.88
542.575	421.88
542.789	407.88
543.002	421.88
543.216	400.88
543.43	414.88
543.644	421.88
543.857	389.88
544.071	418.88
544.285	413.88
544.498	416.88
544.712	442.88
544.925	416.88
545.139	420.88
545.352	400.88
545.566	426.88
545.779	416.88
545.993	433.88
546.206	418.88
546.42	420.88
546.633	421.88
546.847	401.88
547.06	420.88
547.274	414.88
547.487	409.88
547.7	424.88
547.914	419.88
548.127	430.88
548.34	410.88
548.554	416.88
548.767	416.88
548.98	421.88
549.193	420.88
549.407	438.88
549.62	440.88
549.833	425.88
550.046	436.88
550.259	419.88
550.473	418.88
550.686	429.88
550.899	429.88
551.112	402.88
551.325	414.88
551.538	413.88
551.751	411.88
551.964	415.88
552.177	438.88
552.39	388.88
552.603	424.88
552.816	425.88
553.029	433.88
553.242	449.88
553.455	422.88
553.667	468.88
553.88	451.88
554.093	448.88
554.306	449.88
554.519	415.88
554.732	434.88
554.944	396.88
555.157	401.88
555.37	409.88
555.583	406.88
555.795	398.88
556.008	392.88
556.221	393.88
556.433	373.88
556.646	369.88
556.859	390.88
557.071	376.88
557.284	380.88
557.496	366.88
557.709	376.88
557.921	368.88
558.134	361.88
558.346	360.88
558.559	384.88
558.771	370.88
558.984	370.88
559.196	365.88
559.409	350.88
559.621	367.88
559.833	352.88
560.046	352.88
560.258	360.88
560.47	370.88
560.683	362.88
560.895	352.88
561.107	334.88
561.32	348.88
561.532	352.88
561.744	368.88
561.956	345.88
562.168	362.88
562.381	368.88
562.593	359.88
562.805	368.88
563.017	354.88
563.229	366.88
563.441	366.88
563.653	361.88
563.865	367.88
564.077	382.88
564.289	360.88
564.501	356.88
564.713	379.88
564.925	399.88
565.137	405.88
565.349	412.88
565.561	418.88
565.773	428.88
565.985	417.88
566.197	444.88
566.408	466.88
566.62	493.88
566.832	472.88
567.044	524.88
567.255	536.88
567.467	534.88
567.679	551.88
567.891	573.88
568.102	578.88
568.314	569.88
568.526	537.88
568.737	470.88
568.949	452.88
569.161	433.88
569.372	404.88
569.584	419.88
569.795	381.88
570.007	377.88
570.218	400.88
570.43	370.88
570.641	372.88
570.853	384.88
571.064	353.88
571.276	364.88
571.487	358.88
571.698	351.88
571.91	358.88
572.121	336.88
572.333	334.88
572.544	325.88
572.755	325.88
572.966	323.88
573.178	328.88
573.389	316.88
573.6	320.88
573.811	313.88
574.023	308.88
574.234	306.88
574.445	320.88
574.656	297.88
574.867	300.88
575.078	326.88
575.289	308.88
575.501	326.88
575.712	293.88
575.923	317.88
576.134	303.88
576.345	307.88
576.556	309.88
576.767	298.88
576.978	300.88
577.188	272.88
577.399	298.88
577.61	294.88
577.821	287.88
578.032	295.88
578.243	303.88
578.454	388.88
578.665	336.88
578.875	303.88
579.086	296.88
579.297	290.88
579.508	281.88
579.718	284.88
579.929	292.88
580.14	281.88
580.35	271.88
580.561	260.88
580.772	277.88
580.982	280.88
581.193	275.88
581.403	279.88
581.614	284.88
581.825	270.88
582.035	269.88
582.246	276.88
582.456	277.88
582.667	284.88
582.877	274.88
583.087	281.88
583.298	275.88
583.508	266.88
583.719	267.88
583.929	277.88
584.139	272.88
584.35	271.88
584.56	277.88
584.77	268.88
584.981	263.88
585.191	269.88
585.401	280.88
585.611	253.88
585.821	265.88
586.032	257.88
586.242	273.88
586.452	272.88
586.662	272.88
586.872	274.88
587.082	268.88
587.292	279.88
587.502	249.88
587.713	257.88
587.923	253.88
588.133	259.88
588.343	284.88
588.553	279.88
588.762	274.88
588.972	296.88
589.182	334.88
589.392	338.88
589.602	277.88
589.812	306.88
590.022	303.88
590.232	271.88
590.441	270.88
590.651	269.88
590.861	272.88
591.071	297.88
591.281	271.88
591.49	273.88
591.7	272.88
591.91	260.88
592.119	276.88
592.329	272.88
592.539	280.88
592.748	305.88
592.958	296.88
593.167	321.88
593.377	306.88
593.587	319.88
593.796	331.88
594.006	336.88
594.215	312.88
594.424	314.88
594.634	310.88
594.843	297.88
595.053	312.88
595.262	299.88
595.472	281.88
595.681	282.88
595.89	274.88
596.1	268.88
596.309	272.88
596.518	262.88
596.727	262.88
596.937	240.88
597.146	236.88
597.355	260.88
597.564	250.88
597.774	238.88
597.983	232.88
598.192	230.88
598.401	223.88
598.61	240.88
598.819	232.88
599.028	250.88
599.237	238.88
599.446	244.88
599.655	242.88
599.864	234.88
600.073	248.88
600.282	228.88
600.491	233.88
600.7	234.88
600.909	233.88
601.118	243.88
601.327	243.88
601.536	244.88
601.745	244.88
601.953	246.88
602.162	236.88
602.371	227.88
602.58	247.88
602.789	218.88
602.997	230.88
603.206	242.88
603.415	242.88
603.623	206.88
603.832	215.88
604.041	216.88
604.249	221.88
604.458	237.88
604.666	230.88
604.875	220.88
605.084	213.88
605.292	227.88
605.501	241.88
605.709	215.88
605.918	221.88
606.126	234.88
606.334	230.88
606.543	232.88
606.751	216.88
606.96	224.88
607.168	207.88
607.376	230.88
607.585	224.88
607.793	235.88
608.001	230.88
608.21	224.88
608.418	209.88
608.626	221.88
608.834	217.88
609.043	226.88
609.251	238.88
609.459	228.88
609.667	219.88
609.875	214.88
610.083	218.88
610.291	225.88
610.499	225.88
610.707	240.88
610.916	223.88
611.124	218.88
611.332	210.88
611.54	226.88
611.748	215.88
611.955	219.88
612.163	222.88
612.371	223.88
612.579	239.88
612.787	231.88
612.995	222.88
613.203	233.88
613.411	213.88
613.618	217.88
613.826	217.88
614.034	228.88
614.242	234.88
614.449	211.88
614.657	210.88
614.865	202.88
615.072	209.88
615.28	240.88
615.488	227.88
615.695	228.88
615.903	213.88
616.111	230.88
616.318	230.88
616.526	241.88
616.733	235.88
616.941	219.88
617.148	203.88
617.356	225.88
617.563	220.88
617.771	212.88
617.978	227.88
618.185	223.88
618.393	215.88
618.6	230.88
618.807	217.88
619.015	215.88
619.222	198.88
619.429	217.88
619.637	222.88
619.844	204.88
620.051	212.88
620.258	222.88
620.466	199.88
620.673	213.88
620.88	202.88
621.087	218.88
621.294	209.88
621.501	201.88
621.708	202.88
621.915	200.88
622.122	208.88
622.329	209.88
622.536	191.88
622.743	206.88
622.95	182.88
623.157	196.88
623.364	188.88
623.571	204.88
623.778	189.88
623.985	190.88
624.192	194.88
624.399	218.88
624.606	214.88
624.812	206.88
625.019	204.88
625.226	188.88
625.433	188.88
625.639	181.88
625.846	189.88
626.053	198.88
626.259	181.88
626.466	194.88
626.673	185.88
626.879	180.88
627.086	175.88
627.293	190.88
627.499	188.88
627.706	191.88
627.912	198.88
628.119	209.88
628.325	192.88
628.532	166.88
628.738	192.88
628.945	181.88
629.151	183.88
629.357	180.88
629.564	190.88
629.77	185.88
629.976	183.88
630.183	178.88
630.389	183.88
630.595	178.88
630.802	186.88
631.008	192.88
631.214	192.88
631.42	168.88
631.627	169.88
631.833	168.88
632.039	173.88
632.245	182.88
632.451	191.88
632.657	149.88
632.863	163.88
633.069	187.88
633.275	168.88
633.481	168.88
633.688	166.88
633.893	156.88
634.099	158.88
634.305	162.88
634.511	167.88
634.717	174.88
634.923	165.88
635.129	174.88
635.335	174.88
635.541	164.88
635.747	146.88
635.952	154.88
636.158	178.88
636.364	170.88
636.57	184.88
636.775	164.88
636.981	158.88
637.187	180.88
637.392	160.88
637.598	159.88
637.804	179.88
638.009	168.88
638.215	174.88
638.421	176.88
638.626	179.88
638.832	167.88
639.037	172.88
639.243	164.88
639.448	158.88
639.654	166.88
639.859	141.88
640.065	157.88
640.27	174.88
640.475	173.88
640.681	173.88
640.886	148.88
641.091	173.88
641.297	170.88
641.502	153.88
641.707	171.88
641.913	169.88
642.118	170.88
642.323	154.88
642.528	157.88
642.733	159.88
642.939	155.88
643.144	171.88
643.349	174.88
643.554	158.88
643.759	172.88
643.964	160.88
644.169	161.88
644.374	172.88
644.579	174.88
644.784	165.88
644.989	157.88
645.194	154.88
645.399	162.88
645.604	166.88
645.809	151.88
646.014	160.88
646.219	166.88
646.423	157.88
646.628	167.88
646.833	172.88
647.038	153.88
647.243	154.88
647.447	151.88
647.652	158.88
647.857	164.88
648.062	159.88
648.266	170.88
648.471	181.88
648.676	159.88
648.88	176.88
649.085	173.88
649.289	157.88
649.494	157.88
649.698	157.88
649.903	163.88
650.107	158.88
650.312	174.88
650.516	149.88
650.721	156.88
650.925	157.88
651.13	145.88
651.334	151.88
651.539	153.88
651.743	134.88
651.947	134.88
652.152	149.88
652.356	160.88
652.56	156.88
652.764	141.88
652.969	139.88
653.173	145.88
653.377	150.88
653.581	136.88
653.785	136.88
653.99	140.88
654.194	140.88
654.398	144.88
654.602	142.88
654.806	147.88
655.01	145.88
655.214	139.88
655.418	140.88
655.622	136.88
655.826	136.88
656.03	143.88
656.234	145.88
656.438	144.88
656.642	158.88
656.846	165.88
657.049	129.88
657.253	144.88
657.457	115.88
657.661	120.88
657.865	112.88
658.068	121.88
658.272	118.88
658.476	113.88
658.68	109.88
658.883	87.88
659.087	110.88
659.291	92.88
659.494	108.88
659.698	104.88
659.901	103.88
660.105	103.88
660.309	102.88
660.512	93.88
660.716	87.88
660.919	88.88
661.123	81.88
661.326	70.88
661.53	89.88
661.733	100.88
661.936	91.88
662.14	93.88
662.343	94.88
662.546	88.88
662.75	82.88
662.953	92.88
663.156	97.88
663.36	88.88
663.563	85.88
663.766	90.88
663.969	82.88
664.173	79.88
664.376	80.88
664.579	80.88
664.782	78.88
664.985	82.88
665.188	68.88
665.391	78.88
665.594	77.88
665.797	75.88
666	99.88
666.203	84.88
666.406	68.88
666.609	77.88
666.812	69.88
667.015	69.88
667.218	80.88
667.421	74.88
667.624	79.88
667.827	72.88
668.03	63.88
668.232	71.88
668.435	85.88
668.638	78.88
668.841	82.88
669.043	82.88
669.246	79.88
669.449	88.88
669.651	90.88
669.854	72.88
670.057	84.88
670.259	85.88
670.462	73.88
670.665	87.88
670.867	82.88
671.07	88.88
671.272	89.88
671.475	90.88
671.677	82.88
671.88	89.88
672.082	97.88
672.284	96.88
672.487	88.88
672.689	82.88
672.892	79.88
