Data from 1960PennyLincolnUp.LampE5.5.200Scan.07172019.P1.ChangedAngle_HRD10591_13-15-11-822.txt Node
Date: Thu Jul 18 13:15:11 EDT 2019
User: cochatt
Spectrometer: HR+D1059
Trigger mode: 1
Integration Time (sec): 1.000000E-1
Scans to average: 1
Electric dark correction enabled: true
Nonlinearity correction enabled: false
Boxcar width: 0
XAxis mode: Wavelengths
Number of Pixels in Spectrum: 2048
>>>>>Begin Spectral Data<<<<<
223.165	-19.62
223.4	-19.62
223.635	-19.62
223.869	-18.62
224.104	-17.62
224.338	-38.62
224.573	-9.62
224.808	-14.62
225.042	8.38
225.277	14.38
225.511	-2.62
225.746	6.38
225.98	0.38
226.215	9.38
226.449	14.38
226.683	4.38
226.918	26.38
227.152	37.38
227.387	23.38
227.621	37.38
227.856	35.38
228.09	27.38
228.324	35.38
228.559	47.38
228.793	71.38
229.027	73.38
229.262	89.38
229.496	97.38
229.73	110.38
229.964	115.38
230.199	107.38
230.433	114.38
230.667	101.38
230.901	111.38
231.136	110.38
231.37	112.38
231.604	117.38
231.838	107.38
232.072	103.38
232.306	114.38
232.541	111.38
232.775	111.38
233.009	98.38
233.243	109.38
233.477	119.38
233.711	113.38
233.945	101.38
234.179	108.38
234.413	139.38
234.647	107.38
234.881	109.38
235.115	143.38
235.349	111.38
235.583	123.38
235.817	101.38
236.051	112.38
236.285	124.38
236.519	122.38
236.753	128.38
236.987	112.38
237.221	140.38
237.455	172.38
237.689	146.38
237.922	125.38
238.156	117.38
238.39	110.38
238.624	111.38
238.858	130.38
239.091	116.38
239.325	115.38
239.559	113.38
239.793	127.38
240.027	121.38
240.26	117.38
240.494	132.38
240.728	153.38
240.961	109.38
241.195	129.38
241.429	134.38
241.662	123.38
241.896	138.38
242.13	119.38
242.363	131.38
242.597	135.38
242.83	128.38
243.064	123.38
243.298	128.38
243.531	129.38
243.765	134.38
243.998	144.38
244.232	134.38
244.465	126.38
244.699	147.38
244.932	139.38
245.166	140.38
245.399	160.38
245.633	147.38
245.866	137.38
246.099	151.38
246.333	132.38
246.566	138.38
246.8	149.38
247.033	149.38
247.266	144.38
247.5	154.38
247.733	158.38
247.966	157.38
248.2	154.38
248.433	155.38
248.666	166.38
248.899	162.38
249.133	174.38
249.366	177.38
249.599	172.38
249.832	152.38
250.066	192.38
250.299	183.38
250.532	166.38
250.765	176.38
250.998	201.38
251.231	215.38
251.465	193.38
251.698	179.38
251.931	175.38
252.164	185.38
252.397	188.38
252.63	173.38
252.863	204.38
253.096	191.38
253.329	199.38
253.562	196.38
253.795	193.38
254.028	197.38
254.261	194.38
254.494	196.38
254.727	214.38
254.96	240.38
255.193	226.38
255.426	221.38
255.659	202.38
255.892	212.38
256.124	219.38
256.357	208.38
256.59	211.38
256.823	199.38
257.056	196.38
257.289	200.38
257.521	209.38
257.754	228.38
257.987	190.38
258.22	184.38
258.452	185.38
258.685	194.38
258.918	199.38
259.151	203.38
259.383	203.38
259.616	208.38
259.849	188.38
260.081	206.38
260.314	239.38
260.547	228.38
260.779	218.38
261.012	238.38
261.244	201.38
261.477	214.38
261.71	213.38
261.942	209.38
262.175	214.38
262.407	223.38
262.64	212.38
262.872	208.38
263.105	189.38
263.337	208.38
263.57	201.38
263.802	212.38
264.035	200.38
264.267	198.38
264.499	207.38
264.732	221.38
264.964	210.38
265.197	186.38
265.429	211.38
265.661	204.38
265.894	213.38
266.126	231.38
266.358	208.38
266.591	216.38
266.823	227.38
267.055	218.38
267.287	231.38
267.52	213.38
267.752	236.38
267.984	221.38
268.216	218.38
268.448	221.38
268.681	216.38
268.913	256.38
269.145	230.38
269.377	254.38
269.609	247.38
269.841	252.38
270.073	258.38
270.306	254.38
270.538	273.38
270.77	298.38
271.002	288.38
271.234	258.38
271.466	272.38
271.698	296.38
271.93	288.38
272.162	308.38
272.394	295.38
272.626	291.38
272.858	258.38
273.09	261.38
273.322	273.38
273.553	257.38
273.785	268.38
274.017	243.38
274.249	275.38
274.481	269.38
274.713	252.38
274.945	248.38
275.176	257.38
275.408	251.38
275.64	260.38
275.872	252.38
276.104	249.38
276.335	263.38
276.567	275.38
276.799	264.38
277.031	291.38
277.262	274.38
277.494	292.38
277.726	279.38
277.957	272.38
278.189	274.38
278.421	267.38
278.652	278.38
278.884	271.38
279.115	279.38
279.347	276.38
279.579	275.38
279.81	264.38
280.042	267.38
280.273	275.38
280.505	271.38
280.736	274.38
280.968	298.38
281.199	267.38
281.431	266.38
281.662	266.38
281.894	266.38
282.125	262.38
282.356	262.38
282.588	272.38
282.819	276.38
283.051	275.38
283.282	267.38
283.513	277.38
283.745	281.38
283.976	296.38
284.207	253.38
284.439	268.38
284.67	301.38
284.901	281.38
285.132	270.38
285.364	272.38
285.595	288.38
285.826	289.38
286.057	276.38
286.288	298.38
286.52	281.38
286.751	307.38
286.982	289.38
287.213	293.38
287.444	283.38
287.675	276.38
287.906	270.38
288.138	291.38
288.369	305.38
288.6	308.38
288.831	289.38
289.062	283.38
289.293	276.38
289.524	321.38
289.755	294.38
289.986	280.38
290.217	287.38
290.448	281.38
290.679	292.38
290.91	302.38
291.141	287.38
291.371	287.38
291.602	277.38
291.833	301.38
292.064	291.38
292.295	294.38
292.526	291.38
292.757	295.38
292.987	280.38
293.218	286.38
293.449	282.38
293.68	278.38
293.91	289.38
294.141	283.38
294.372	292.38
294.603	298.38
294.833	295.38
295.064	296.38
295.295	286.38
295.525	298.38
295.756	310.38
295.987	297.38
296.217	301.38
296.448	312.38
296.679	305.38
296.909	299.38
297.14	300.38
297.37	311.38
297.601	307.38
297.831	296.38
298.062	288.38
298.292	305.38
298.523	299.38
298.753	320.38
298.984	319.38
299.214	335.38
299.445	326.38
299.675	312.38
299.905	320.38
300.136	316.38
300.366	306.38
300.597	330.38
300.827	301.38
301.057	320.38
301.288	330.38
301.518	324.38
301.748	307.38
301.979	341.38
302.209	339.38
302.439	331.38
302.669	320.38
302.9	319.38
303.13	313.38
303.36	311.38
303.59	315.38
303.82	323.38
304.051	344.38
304.281	324.38
304.511	339.38
304.741	328.38
304.971	331.38
305.201	307.38
305.431	328.38
305.661	340.38
305.891	313.38
306.121	347.38
306.352	344.38
306.582	324.38
306.812	337.38
307.042	346.38
307.272	340.38
307.502	335.38
307.731	348.38
307.961	340.38
308.191	344.38
308.421	346.38
308.651	337.38
308.881	347.38
309.111	348.38
309.341	327.38
309.571	345.38
309.8	331.38
310.03	353.38
310.26	344.38
310.49	347.38
310.72	355.38
310.949	375.38
311.179	371.38
311.409	349.38
311.639	363.38
311.868	363.38
312.098	372.38
312.328	376.38
312.557	375.38
312.787	381.38
313.017	380.38
313.246	369.38
313.476	361.38
313.706	358.38
313.935	373.38
314.165	374.38
314.394	403.38
314.624	376.38
314.853	367.38
315.083	362.38
315.312	369.38
315.542	381.38
315.771	371.38
316.001	366.38
316.23	391.38
316.46	353.38
316.689	375.38
316.919	366.38
317.148	394.38
317.377	388.38
317.607	369.38
317.836	370.38
318.065	374.38
318.295	367.38
318.524	364.38
318.753	368.38
318.983	364.38
319.212	374.38
319.441	366.38
319.67	363.38
319.9	377.38
320.129	396.38
320.358	384.38
320.587	373.38
320.816	377.38
321.046	396.38
321.275	364.38
321.504	380.38
321.733	379.38
321.962	385.38
322.191	403.38
322.42	414.38
322.649	397.38
322.878	408.38
323.108	399.38
323.337	431.38
323.566	461.38
323.795	477.38
324.024	496.38
324.253	582.38
324.482	777.38
324.71	1085.38
324.939	1477.38
325.168	1234.38
325.397	698.38
325.626	545.38
325.855	487.38
326.084	448.38
326.313	455.38
326.542	453.38
326.77	476.38
326.999	575.38
327.228	697.38
327.457	992.38
327.686	1123.38
327.914	770.38
328.143	569.38
328.372	549.38
328.6	463.38
328.829	481.38
329.058	507.38
329.287	483.38
329.515	467.38
329.744	447.38
329.972	460.38
330.201	477.38
330.43	487.38
330.658	483.38
330.887	517.38
331.115	526.38
331.344	465.38
331.572	444.38
331.801	444.38
332.03	455.38
332.258	434.38
332.486	431.38
332.715	442.38
332.943	428.38
333.172	431.38
333.4	454.38
333.629	443.38
333.857	459.38
334.085	467.38
334.314	451.38
334.542	488.38
334.771	507.38
334.999	454.38
335.227	461.38
335.455	463.38
335.684	446.38
335.912	431.38
336.14	416.38
336.369	441.38
336.597	442.38
336.825	428.38
337.053	445.38
337.281	415.38
337.51	422.38
337.738	421.38
337.966	443.38
338.194	434.38
338.422	436.38
338.65	420.38
338.878	429.38
339.106	401.38
339.334	400.38
339.562	419.38
339.79	407.38
340.018	412.38
340.246	401.38
340.474	417.38
340.702	414.38
340.93	415.38
341.158	398.38
341.386	417.38
341.614	410.38
341.842	414.38
342.07	386.38
342.298	417.38
342.526	406.38
342.754	405.38
342.981	403.38
343.209	400.38
343.437	428.38
343.665	402.38
343.893	414.38
344.12	445.38
344.348	444.38
344.576	435.38
344.804	419.38
345.031	400.38
345.259	410.38
345.487	415.38
345.714	409.38
345.942	410.38
346.17	403.38
346.397	392.38
346.625	389.38
346.853	395.38
347.08	382.38
347.308	394.38
347.535	401.38
347.763	417.38
347.99	388.38
348.218	390.38
348.445	379.38
348.673	385.38
348.9	398.38
349.128	383.38
349.355	384.38
349.583	391.38
349.81	381.38
350.037	387.38
350.265	365.38
350.492	373.38
350.72	381.38
350.947	389.38
351.174	399.38
351.402	384.38
351.629	384.38
351.856	375.38
352.083	385.38
352.311	380.38
352.538	375.38
352.765	384.38
352.992	398.38
353.22	411.38
353.447	380.38
353.674	384.38
353.901	361.38
354.128	364.38
354.355	373.38
354.583	385.38
354.81	368.38
355.037	350.38
355.264	366.38
355.491	351.38
355.718	372.38
355.945	358.38
356.172	375.38
356.399	357.38
356.626	357.38
356.853	372.38
357.08	372.38
357.307	347.38
357.534	373.38
357.761	367.38
357.988	362.38
358.215	335.38
358.441	374.38
358.668	374.38
358.895	357.38
359.122	368.38
359.349	394.38
359.576	385.38
359.802	393.38
360.029	399.38
360.256	401.38
360.483	399.38
360.709	365.38
360.936	385.38
361.163	371.38
361.39	369.38
361.616	381.38
361.843	372.38
362.07	392.38
362.296	373.38
362.523	380.38
362.749	354.38
362.976	368.38
363.203	386.38
363.429	363.38
363.656	366.38
363.882	375.38
364.109	386.38
364.335	367.38
364.562	367.38
364.788	372.38
365.015	367.38
365.241	372.38
365.468	367.38
365.694	360.38
365.92	359.38
366.147	351.38
366.373	379.38
366.599	355.38
366.826	361.38
367.052	352.38
367.278	346.38
367.505	360.38
367.731	379.38
367.957	350.38
368.184	367.38
368.41	383.38
368.636	359.38
368.862	373.38
369.089	359.38
369.315	372.38
369.541	357.38
369.767	373.38
369.993	360.38
370.219	364.38
370.445	352.38
370.672	359.38
370.898	359.38
371.124	367.38
371.35	363.38
371.576	342.38
371.802	361.38
372.028	368.38
372.254	365.38
372.48	373.38
372.706	366.38
372.932	388.38
373.158	377.38
373.384	366.38
373.61	371.38
373.835	353.38
374.061	355.38
374.287	363.38
374.513	367.38
374.739	380.38
374.965	358.38
375.191	381.38
375.416	364.38
375.642	362.38
375.868	367.38
376.094	367.38
376.319	371.38
376.545	372.38
376.771	359.38
376.997	375.38
377.222	371.38
377.448	368.38
377.674	360.38
377.899	364.38
378.125	376.38
378.35	362.38
378.576	360.38
378.802	345.38
379.027	360.38
379.253	361.38
379.478	352.38
379.704	360.38
379.929	372.38
380.155	369.38
380.38	349.38
380.606	373.38
380.831	352.38
381.057	357.38
381.282	355.38
381.507	348.38
381.733	359.38
381.958	371.38
382.184	348.38
382.409	352.38
382.634	356.38
382.86	363.38
383.085	371.38
383.31	372.38
383.535	365.38
383.761	365.38
383.986	374.38
384.211	381.38
384.436	380.38
384.662	364.38
384.887	375.38
385.112	368.38
385.337	374.38
385.562	383.38
385.787	386.38
386.013	397.38
386.238	403.38
386.463	411.38
386.688	388.38
386.913	402.38
387.138	389.38
387.363	394.38
387.588	390.38
387.813	403.38
388.038	385.38
388.263	399.38
388.488	398.38
388.713	392.38
388.938	391.38
389.163	392.38
389.387	407.38
389.612	385.38
389.837	377.38
390.062	376.38
390.287	376.38
390.512	368.38
390.736	387.38
390.961	382.38
391.186	381.38
391.411	395.38
391.636	391.38
391.86	407.38
392.085	397.38
392.31	408.38
392.534	395.38
392.759	404.38
392.984	401.38
393.208	406.38
393.433	390.38
393.658	396.38
393.882	398.38
394.107	406.38
394.331	381.38
394.556	391.38
394.78	396.38
395.005	393.38
395.229	373.38
395.454	407.38
395.678	411.38
395.903	389.38
396.127	406.38
396.352	400.38
396.576	403.38
396.801	392.38
397.025	409.38
397.249	409.38
397.474	416.38
397.698	396.38
397.922	408.38
398.147	419.38
398.371	448.38
398.595	425.38
398.82	419.38
399.044	430.38
399.268	445.38
399.492	468.38
399.717	503.38
399.941	531.38
400.165	525.38
400.389	561.38
400.613	500.38
400.837	459.38
401.062	445.38
401.286	450.38
401.51	443.38
401.734	443.38
401.958	427.38
402.182	426.38
402.406	427.38
402.63	438.38
402.854	443.38
403.078	430.38
403.302	451.38
403.526	439.38
403.75	430.38
403.974	460.38
404.198	422.38
404.422	441.38
404.645	441.38
404.869	463.38
405.093	476.38
405.317	501.38
405.541	514.38
405.765	477.38
405.988	473.38
406.212	478.38
406.436	479.38
406.66	488.38
406.883	478.38
407.107	490.38
407.331	499.38
407.555	565.38
407.778	560.38
408.002	527.38
408.226	467.38
408.449	499.38
408.673	459.38
408.896	504.38
409.12	538.38
409.344	486.38
409.567	471.38
409.791	455.38
410.014	446.38
410.238	433.38
410.461	430.38
410.685	455.38
410.908	462.38
411.132	489.38
411.355	466.38
411.578	484.38
411.802	444.38
412.025	446.38
412.249	458.38
412.472	458.38
412.695	480.38
412.919	489.38
413.142	447.38
413.365	416.38
413.589	415.38
413.812	427.38
414.035	421.38
414.258	423.38
414.482	422.38
414.705	437.38
414.928	432.38
415.151	399.38
415.374	413.38
415.597	421.38
415.821	410.38
416.044	431.38
416.267	421.38
416.49	399.38
416.713	408.38
416.936	391.38
417.159	409.38
417.382	404.38
417.605	418.38
417.828	398.38
418.051	413.38
418.274	408.38
418.497	442.38
418.72	411.38
418.943	398.38
419.166	431.38
419.389	464.38
419.611	433.38
419.834	431.38
420.057	432.38
420.28	438.38
420.503	430.38
420.726	445.38
420.948	460.38
421.171	468.38
421.394	479.38
421.617	449.38
421.839	451.38
422.062	425.38
422.285	429.38
422.507	481.38
422.73	530.38
422.953	504.38
423.175	444.38
423.398	463.38
423.621	447.38
423.843	456.38
424.066	436.38
424.288	448.38
424.511	448.38
424.733	504.38
424.956	553.38
425.178	552.38
425.401	509.38
425.623	540.38
425.846	488.38
426.068	434.38
426.291	445.38
426.513	445.38
426.735	441.38
426.958	496.38
427.18	525.38
427.402	631.38
427.625	664.38
427.847	585.38
428.069	525.38
428.292	477.38
428.514	457.38
428.736	423.38
428.958	446.38
429.181	430.38
429.403	405.38
429.625	421.38
429.847	429.38
430.069	491.38
430.292	503.38
430.514	422.38
430.736	423.38
430.958	396.38
431.18	396.38
431.402	393.38
431.624	376.38
431.846	373.38
432.068	393.38
432.29	385.38
432.512	392.38
432.734	386.38
432.956	391.38
433.178	400.38
433.4	409.38
433.622	389.38
433.844	391.38
434.066	399.38
434.287	403.38
434.509	407.38
434.731	414.38
434.953	413.38
435.175	428.38
435.397	424.38
435.618	457.38
435.84	460.38
436.062	526.38
436.284	576.38
436.505	498.38
436.727	480.38
436.949	409.38
437.17	427.38
437.392	405.38
437.614	431.38
437.835	450.38
438.057	485.38
438.278	556.38
438.5	575.38
438.721	600.38
438.943	586.38
439.165	492.38
439.386	432.38
439.608	424.38
439.829	423.38
440.05	439.38
440.272	501.38
440.493	468.38
440.715	466.38
440.936	443.38
441.158	436.38
441.379	436.38
441.6	411.38
441.822	422.38
442.043	480.38
442.264	524.38
442.486	554.38
442.707	483.38
442.928	467.38
443.149	449.38
443.371	462.38
443.592	495.38
443.813	552.38
444.034	597.38
444.255	519.38
444.476	437.38
444.698	439.38
444.919	458.38
445.14	530.38
445.361	483.38
445.582	447.38
445.803	495.38
446.024	576.38
446.245	577.38
446.466	516.38
446.687	471.38
446.908	425.38
447.129	426.38
447.35	418.38
447.571	415.38
447.792	398.38
448.013	413.38
448.234	425.38
448.455	454.38
448.675	535.38
448.896	608.38
449.117	521.38
449.338	520.38
449.559	559.38
449.779	631.38
450	492.38
450.221	424.38
450.442	400.38
450.662	387.38
450.883	384.38
451.104	381.38
451.324	415.38
451.545	381.38
451.766	380.38
451.986	365.38
452.207	357.38
452.428	373.38
452.648	366.38
452.869	369.38
453.089	362.38
453.31	377.38
453.53	376.38
453.751	351.38
453.971	375.38
454.192	385.38
454.412	377.38
454.633	366.38
454.853	360.38
455.073	350.38
455.294	394.38
455.514	429.38
455.734	425.38
455.955	375.38
456.175	358.38
456.395	342.38
456.616	345.38
456.836	353.38
457.056	364.38
457.276	344.38
457.497	355.38
457.717	362.38
457.937	364.38
458.157	364.38
458.377	370.38
458.598	373.38
458.818	404.38
459.038	465.38
459.258	448.38
459.478	416.38
459.698	400.38
459.918	404.38
460.138	378.38
460.358	385.38
460.578	402.38
460.798	403.38
461.018	401.38
461.238	391.38
461.458	397.38
461.678	395.38
461.898	407.38
462.118	401.38
462.338	420.38
462.558	403.38
462.777	425.38
462.997	425.38
463.217	436.38
463.437	444.38
463.657	437.38
463.876	423.38
464.096	435.38
464.316	435.38
464.536	439.38
464.755	415.38
464.975	428.38
465.195	439.38
465.414	483.38
465.634	437.38
465.854	408.38
466.073	392.38
466.293	378.38
466.512	377.38
466.732	363.38
466.951	377.38
467.171	389.38
467.391	375.38
467.61	384.38
467.829	375.38
468.049	392.38
468.268	397.38
468.488	359.38
468.707	379.38
468.927	369.38
469.146	376.38
469.365	372.38
469.585	370.38
469.804	375.38
470.023	390.38
470.243	382.38
470.462	387.38
470.681	406.38
470.901	392.38
471.12	383.38
471.339	371.38
471.558	389.38
471.777	370.38
471.997	393.38
472.216	391.38
472.435	395.38
472.654	423.38
472.873	372.38
473.092	379.38
473.311	368.38
473.53	382.38
473.749	397.38
473.968	405.38
474.187	458.38
474.406	482.38
474.625	429.38
474.844	425.38
475.063	379.38
475.282	387.38
475.501	391.38
475.72	384.38
475.939	399.38
476.158	396.38
476.377	400.38
476.596	392.38
476.814	413.38
477.033	415.38
477.252	404.38
477.471	421.38
477.69	404.38
477.908	420.38
478.127	407.38
478.346	421.38
478.564	431.38
478.783	431.38
479.002	431.38
479.22	438.38
479.439	451.38
479.658	463.38
479.876	453.38
480.095	475.38
480.313	460.38
480.532	475.38
480.751	456.38
480.969	471.38
481.188	490.38
481.406	501.38
481.624	469.38
481.843	434.38
482.061	441.38
482.28	449.38
482.498	450.38
482.717	449.38
482.935	445.38
483.153	455.38
483.372	451.38
483.59	451.38
483.808	437.38
484.027	422.38
484.245	441.38
484.463	430.38
484.681	440.38
484.9	459.38
485.118	444.38
485.336	449.38
485.554	445.38
485.772	449.38
485.99	463.38
486.209	484.38
486.427	466.38
486.645	472.38
486.863	471.38
487.081	489.38
487.299	483.38
487.517	476.38
487.735	469.38
487.953	476.38
488.171	470.38
488.389	462.38
488.607	472.38
488.825	460.38
489.043	477.38
489.261	463.38
489.479	471.38
489.696	468.38
489.914	473.38
490.132	487.38
490.35	480.38
490.568	481.38
490.786	477.38
491.003	499.38
491.221	499.38
491.439	513.38
491.657	506.38
491.874	524.38
492.092	537.38
492.31	523.38
492.527	528.38
492.745	539.38
492.963	518.38
493.18	520.38
493.398	540.38
493.615	531.38
493.833	558.38
494.05	534.38
494.268	536.38
494.485	545.38
494.703	553.38
494.92	559.38
495.138	535.38
495.355	538.38
495.573	541.38
495.79	540.38
496.008	550.38
496.225	543.38
496.442	543.38
496.66	528.38
496.877	554.38
497.094	569.38
497.312	557.38
497.529	573.38
497.746	574.38
497.963	588.38
498.181	578.38
498.398	586.38
498.615	585.38
498.832	648.38
499.049	652.38
499.267	655.38
499.484	654.38
499.701	691.38
499.918	728.38
500.135	758.38
500.352	773.38
500.569	795.38
500.786	782.38
501.003	766.38
501.22	762.38
501.437	738.38
501.654	717.38
501.871	689.38
502.088	672.38
502.305	635.38
502.522	617.38
502.739	603.38
502.956	599.38
503.172	572.38
503.389	576.38
503.606	583.38
503.823	564.38
504.04	560.38
504.256	569.38
504.473	576.38
504.69	556.38
504.907	542.38
505.123	542.38
505.34	526.38
505.557	532.38
505.773	553.38
505.99	520.38
506.207	499.38
506.423	503.38
506.64	504.38
506.856	517.38
507.073	514.38
507.289	520.38
507.506	515.38
507.722	511.38
507.939	492.38
508.155	518.38
508.372	496.38
508.588	493.38
508.805	525.38
509.021	492.38
509.238	486.38
509.454	499.38
509.67	514.38
509.887	503.38
510.103	488.38
510.319	501.38
510.536	551.38
510.752	808.38
510.968	669.38
511.184	506.38
511.401	484.38
511.617	459.38
511.833	443.38
512.049	450.38
512.265	473.38
512.481	461.38
512.698	461.38
512.914	463.38
513.13	470.38
513.346	452.38
513.562	450.38
513.778	473.38
513.994	468.38
514.21	462.38
514.426	485.38
514.642	499.38
514.858	511.38
515.074	536.38
515.29	591.38
515.506	791.38
515.721	655.38
515.937	527.38
516.153	484.38
516.369	499.38
516.585	491.38
516.801	476.38
517.016	485.38
517.232	465.38
517.448	490.38
517.664	487.38
517.879	496.38
518.095	478.38
518.311	471.38
518.527	480.38
518.742	487.38
518.958	458.38
519.173	486.38
519.389	469.38
519.605	489.38
519.82	485.38
520.036	470.38
520.251	489.38
520.467	467.38
520.682	483.38
520.898	485.38
521.113	479.38
521.329	515.38
521.544	569.38
521.76	661.38
521.975	965.38
522.19	957.38
522.406	622.38
522.621	469.38
522.836	447.38
523.052	443.38
523.267	452.38
523.482	461.38
523.698	419.38
523.913	451.38
524.128	405.38
524.343	409.38
524.559	422.38
524.774	413.38
524.989	417.38
525.204	427.38
525.419	404.38
525.634	413.38
525.849	399.38
526.064	382.38
526.28	414.38
526.495	400.38
526.71	403.38
526.925	396.38
527.14	378.38
527.355	391.38
527.57	384.38
527.785	399.38
527.999	403.38
528.214	373.38
528.429	395.38
528.644	406.38
528.859	385.38
529.074	383.38
529.289	397.38
529.503	455.38
529.718	430.38
529.933	412.38
530.148	386.38
530.363	377.38
530.577	384.38
530.792	379.38
531.007	367.38
531.221	385.38
531.436	381.38
531.651	375.38
531.865	390.38
532.08	369.38
532.295	378.38
532.509	380.38
532.724	394.38
532.938	364.38
533.153	381.38
533.367	379.38
533.582	380.38
533.796	381.38
534.011	369.38
534.225	353.38
534.44	389.38
534.654	378.38
534.868	363.38
535.083	365.38
535.297	375.38
535.511	366.38
535.726	385.38
535.94	374.38
536.154	382.38
536.369	363.38
536.583	351.38
536.797	376.38
537.011	362.38
537.225	357.38
537.44	364.38
537.654	358.38
537.868	365.38
538.082	359.38
538.296	362.38
538.51	377.38
538.724	371.38
538.938	356.38
539.153	358.38
539.367	377.38
539.581	370.38
539.795	352.38
540.009	347.38
540.222	370.38
540.436	345.38
540.65	359.38
540.864	363.38
541.078	367.38
541.292	380.38
541.506	360.38
541.72	360.38
541.934	381.38
542.147	373.38
542.361	360.38
542.575	369.38
542.789	355.38
543.002	365.38
543.216	382.38
543.43	365.38
543.644	355.38
543.857	355.38
544.071	355.38
544.285	364.38
544.498	363.38
544.712	365.38
544.925	379.38
545.139	361.38
545.352	352.38
545.566	347.38
545.779	344.38
545.993	375.38
546.206	377.38
546.42	362.38
546.633	364.38
546.847	351.38
547.06	341.38
547.274	355.38
547.487	355.38
547.7	341.38
547.914	346.38
548.127	357.38
548.34	335.38
548.554	337.38
548.767	336.38
548.98	359.38
549.193	331.38
549.407	333.38
549.62	350.38
549.833	347.38
550.046	343.38
550.259	342.38
550.473	336.38
550.686	358.38
550.899	352.38
551.112	362.38
551.325	338.38
551.538	352.38
551.751	334.38
551.964	329.38
552.177	327.38
552.39	348.38
552.603	347.38
552.816	348.38
553.029	347.38
553.242	349.38
553.455	366.38
553.667	359.38
553.88	362.38
554.093	361.38
554.306	337.38
554.519	344.38
554.732	352.38
554.944	341.38
555.157	331.38
555.37	337.38
555.583	333.38
555.795	334.38
556.008	339.38
556.221	344.38
556.433	331.38
556.646	335.38
556.859	326.38
557.071	305.38
557.284	315.38
557.496	311.38
557.709	297.38
557.921	312.38
558.134	317.38
558.346	327.38
558.559	321.38
558.771	300.38
558.984	318.38
559.196	303.38
559.409	298.38
559.621	303.38
559.833	312.38
560.046	315.38
560.258	300.38
560.47	315.38
560.683	307.38
560.895	311.38
561.107	293.38
561.32	315.38
561.532	316.38
561.744	303.38
561.956	313.38
562.168	311.38
562.381	314.38
562.593	321.38
562.805	305.38
563.017	329.38
563.229	317.38
563.441	312.38
563.653	308.38
563.865	308.38
564.077	318.38
564.289	317.38
564.501	335.38
564.713	303.38
564.925	317.38
565.137	327.38
565.349	328.38
565.561	336.38
565.773	347.38
565.985	333.38
566.197	336.38
566.408	364.38
566.62	337.38
566.832	386.38
567.044	379.38
567.255	388.38
567.467	372.38
567.679	384.38
567.891	389.38
568.102	383.38
568.314	371.38
568.526	360.38
568.737	373.38
568.949	369.38
569.161	340.38
569.372	343.38
569.584	319.38
569.795	323.38
570.007	327.38
570.218	364.38
570.43	327.38
570.641	315.38
570.853	297.38
571.064	305.38
571.276	308.38
571.487	290.38
571.698	302.38
571.91	296.38
572.121	284.38
572.333	284.38
572.544	287.38
572.755	288.38
572.966	293.38
573.178	279.38
573.389	297.38
573.6	288.38
573.811	280.38
574.023	278.38
574.234	265.38
574.445	281.38
574.656	261.38
574.867	267.38
575.078	278.38
575.289	273.38
575.501	280.38
575.712	270.38
575.923	277.38
576.134	267.38
576.345	264.38
576.556	265.38
576.767	273.38
576.978	266.38
577.188	278.38
577.399	276.38
577.61	259.38
577.821	250.38
578.032	267.38
578.243	287.38
578.454	403.38
578.665	317.38
578.875	272.38
579.086	254.38
579.297	266.38
579.508	256.38
579.718	263.38
579.929	259.38
580.14	265.38
580.35	255.38
580.561	245.38
580.772	261.38
580.982	264.38
581.193	237.38
581.403	260.38
581.614	254.38
581.825	243.38
582.035	240.38
582.246	243.38
582.456	253.38
582.667	250.38
582.877	232.38
583.087	260.38
583.298	222.38
583.508	239.38
583.719	237.38
583.929	247.38
584.139	261.38
584.35	239.38
584.56	241.38
584.77	232.38
584.981	228.38
585.191	225.38
585.401	268.38
585.611	243.38
585.821	240.38
586.032	246.38
586.242	243.38
586.452	256.38
586.662	253.38
586.872	243.38
587.082	253.38
587.292	238.38
587.502	239.38
587.713	238.38
587.923	249.38
588.133	235.38
588.343	240.38
588.553	242.38
588.762	235.38
588.972	248.38
589.182	311.38
589.392	310.38
589.602	241.38
589.812	285.38
590.022	268.38
590.232	224.38
590.441	247.38
590.651	247.38
590.861	251.38
591.071	239.38
591.281	249.38
591.49	239.38
591.7	253.38
591.91	252.38
592.119	232.38
592.329	233.38
592.539	241.38
592.748	253.38
592.958	264.38
593.167	259.38
593.377	237.38
593.587	263.38
593.796	254.38
594.006	271.38
594.215	259.38
594.424	248.38
594.634	271.38
594.843	255.38
595.053	247.38
595.262	236.38
595.472	255.38
595.681	233.38
595.89	240.38
596.1	238.38
596.309	239.38
596.518	232.38
596.727	227.38
596.937	247.38
597.146	245.38
597.355	250.38
597.564	210.38
597.774	223.38
597.983	199.38
598.192	226.38
598.401	231.38
598.61	217.38
598.819	226.38
599.028	222.38
599.237	227.38
599.446	198.38
599.655	228.38
599.864	221.38
600.073	214.38
600.282	210.38
600.491	203.38
600.7	193.38
600.909	205.38
601.118	212.38
601.327	201.38
601.536	214.38
601.745	207.38
601.953	198.38
602.162	204.38
602.371	206.38
602.58	202.38
602.789	227.38
602.997	199.38
603.206	209.38
603.415	209.38
603.623	199.38
603.832	201.38
604.041	209.38
604.249	209.38
604.458	202.38
604.666	199.38
604.875	193.38
605.084	186.38
605.292	206.38
605.501	195.38
605.709	202.38
605.918	221.38
606.126	197.38
606.334	198.38
606.543	207.38
606.751	192.38
606.96	196.38
607.168	197.38
607.376	184.38
607.585	205.38
607.793	207.38
608.001	197.38
608.21	202.38
608.418	211.38
608.626	202.38
608.834	196.38
609.043	208.38
609.251	185.38
609.459	197.38
609.667	202.38
609.875	198.38
610.083	196.38
610.291	196.38
610.499	194.38
610.707	200.38
610.916	190.38
611.124	198.38
611.332	193.38
611.54	216.38
611.748	212.38
611.955	203.38
612.163	205.38
612.371	199.38
612.579	177.38
612.787	191.38
612.995	193.38
613.203	207.38
613.411	192.38
613.618	197.38
613.826	191.38
614.034	203.38
614.242	196.38
614.449	198.38
614.657	186.38
614.865	199.38
615.072	191.38
615.28	201.38
615.488	202.38
615.695	192.38
615.903	184.38
616.111	185.38
616.318	214.38
616.526	209.38
616.733	183.38
616.941	188.38
617.148	193.38
617.356	191.38
617.563	200.38
617.771	202.38
617.978	193.38
618.185	178.38
618.393	181.38
618.6	199.38
618.807	175.38
619.015	194.38
619.222	193.38
619.429	193.38
619.637	181.38
619.844	184.38
620.051	181.38
620.258	193.38
620.466	190.38
620.673	182.38
620.88	184.38
621.087	183.38
621.294	198.38
621.501	188.38
621.708	183.38
621.915	191.38
622.122	202.38
622.329	187.38
622.536	190.38
622.743	192.38
622.95	180.38
623.157	182.38
623.364	190.38
623.571	171.38
623.778	188.38
623.985	182.38
624.192	174.38
624.399	158.38
624.606	188.38
624.812	179.38
625.019	172.38
625.226	184.38
625.433	180.38
625.639	188.38
625.846	156.38
626.053	170.38
626.259	174.38
626.466	180.38
626.673	176.38
626.879	187.38
627.086	177.38
627.293	180.38
627.499	171.38
627.706	152.38
627.912	186.38
628.119	171.38
628.325	175.38
628.532	179.38
628.738	185.38
628.945	165.38
629.151	169.38
629.357	174.38
629.564	164.38
629.77	165.38
629.976	171.38
630.183	158.38
630.389	157.38
630.595	167.38
630.802	167.38
631.008	174.38
631.214	160.38
631.42	161.38
631.627	166.38
631.833	163.38
632.039	157.38
632.245	182.38
632.451	171.38
632.657	170.38
632.863	167.38
633.069	148.38
633.275	163.38
633.481	142.38
633.688	158.38
633.893	157.38
634.099	165.38
634.305	167.38
634.511	160.38
634.717	153.38
634.923	156.38
635.129	157.38
635.335	159.38
635.541	154.38
635.747	158.38
635.952	150.38
636.158	165.38
636.364	172.38
636.57	155.38
636.775	145.38
636.981	147.38
637.187	167.38
637.392	152.38
637.598	153.38
637.804	136.38
638.009	154.38
638.215	158.38
638.421	149.38
638.626	151.38
638.832	156.38
639.037	165.38
639.243	144.38
639.448	150.38
639.654	139.38
639.859	141.38
640.065	155.38
640.27	153.38
640.475	145.38
640.681	158.38
640.886	160.38
641.091	151.38
641.297	165.38
641.502	148.38
641.707	160.38
641.913	144.38
642.118	145.38
642.323	164.38
642.528	148.38
642.733	142.38
642.939	137.38
643.144	137.38
643.349	158.38
643.554	147.38
643.759	147.38
643.964	139.38
644.169	146.38
644.374	149.38
644.579	149.38
644.784	150.38
644.989	155.38
645.194	152.38
645.399	143.38
645.604	141.38
645.809	149.38
646.014	151.38
646.219	156.38
646.423	150.38
646.628	138.38
646.833	139.38
647.038	141.38
647.243	126.38
647.447	134.38
647.652	146.38
647.857	128.38
648.062	163.38
648.266	141.38
648.471	145.38
648.676	156.38
648.88	152.38
649.085	155.38
649.289	147.38
649.494	144.38
649.698	155.38
649.903	165.38
650.107	145.38
650.312	156.38
650.516	150.38
650.721	151.38
650.925	140.38
651.13	151.38
651.334	146.38
651.539	140.38
651.743	126.38
651.947	138.38
652.152	135.38
652.356	133.38
652.56	135.38
652.764	128.38
652.969	113.38
653.173	123.38
653.377	112.38
653.581	126.38
653.785	135.38
653.99	141.38
654.194	136.38
654.398	120.38
654.602	131.38
654.806	119.38
655.01	127.38
655.214	140.38
655.418	135.38
655.622	129.38
655.826	140.38
656.03	125.38
656.234	140.38
656.438	136.38
656.642	121.38
656.846	120.38
657.049	137.38
657.253	115.38
657.457	115.38
657.661	117.38
657.865	128.38
658.068	117.38
658.272	125.38
658.476	107.38
658.68	101.38
658.883	107.38
659.087	106.38
659.291	104.38
659.494	91.38
659.698	99.38
659.901	95.38
660.105	93.38
660.309	96.38
660.512	86.38
660.716	97.38
660.919	108.38
661.123	82.38
661.326	89.38
661.53	100.38
661.733	89.38
661.936	102.38
662.14	90.38
662.343	89.38
662.546	78.38
662.75	99.38
662.953	99.38
663.156	82.38
663.36	86.38
663.563	95.38
663.766	87.38
663.969	83.38
664.173	69.38
664.376	94.38
664.579	76.38
664.782	89.38
664.985	77.38
665.188	80.38
665.391	77.38
665.594	80.38
665.797	88.38
666	88.38
666.203	96.38
666.406	96.38
666.609	92.38
666.812	83.38
667.015	79.38
667.218	77.38
667.421	91.38
667.624	77.38
667.827	88.38
668.03	86.38
668.232	84.38
668.435	85.38
668.638	84.38
668.841	84.38
669.043	84.38
669.246	83.38
669.449	84.38
669.651	89.38
669.854	80.38
670.057	92.38
670.259	80.38
670.462	73.38
670.665	90.38
670.867	85.38
671.07	84.38
671.272	92.38
671.475	89.38
671.677	68.38
671.88	78.38
672.082	78.38
672.284	87.38
672.487	70.38
672.689	94.38
672.892	82.38
