Data from 1960PennyLincolnUp.LampE5.5.200Scan.07172019.P1.ChangedAngle_HRD10591_13-14-45-821.txt Node
Date: Thu Jul 18 13:14:45 EDT 2019
User: cochatt
Spectrometer: HR+D1059
Trigger mode: 1
Integration Time (sec): 1.000000E-1
Scans to average: 1
Electric dark correction enabled: true
Nonlinearity correction enabled: false
Boxcar width: 0
XAxis mode: Wavelengths
Number of Pixels in Spectrum: 2048
>>>>>Begin Spectral Data<<<<<
223.165	-5.25
223.4	-5.25
223.635	-5.25
223.869	-13.25
224.104	-23.25
224.338	-29.25
224.573	-16.25
224.808	-7.25
225.042	-8.25
225.277	-3.25
225.511	-6.25
225.746	-2.25
225.98	7.75
226.215	11.75
226.449	16.75
226.683	22.75
226.918	26.75
227.152	28.75
227.387	36.75
227.621	32.75
227.856	40.75
228.09	56.75
228.324	54.75
228.559	59.75
228.793	48.75
229.027	88.75
229.262	92.75
229.496	95.75
229.73	104.75
229.964	120.75
230.199	105.75
230.433	99.75
230.667	98.75
230.901	95.75
231.136	107.75
231.37	107.75
231.604	102.75
231.838	100.75
232.072	111.75
232.306	109.75
232.541	103.75
232.775	111.75
233.009	118.75
233.243	118.75
233.477	93.75
233.711	109.75
233.945	110.75
234.179	98.75
234.413	120.75
234.647	106.75
234.881	114.75
235.115	110.75
235.349	110.75
235.583	121.75
235.817	118.75
236.051	107.75
236.285	113.75
236.519	125.75
236.753	101.75
236.987	127.75
237.221	160.75
237.455	177.75
237.689	137.75
237.922	116.75
238.156	120.75
238.39	120.75
238.624	120.75
238.858	110.75
239.091	117.75
239.325	124.75
239.559	121.75
239.793	125.75
240.027	121.75
240.26	138.75
240.494	147.75
240.728	134.75
240.961	139.75
241.195	127.75
241.429	128.75
241.662	123.75
241.896	116.75
242.13	126.75
242.363	135.75
242.597	114.75
242.83	124.75
243.064	128.75
243.298	127.75
243.531	120.75
243.765	146.75
243.998	120.75
244.232	139.75
244.465	140.75
244.699	127.75
244.932	124.75
245.166	126.75
245.399	132.75
245.633	146.75
245.866	144.75
246.099	146.75
246.333	144.75
246.566	139.75
246.8	143.75
247.033	141.75
247.266	136.75
247.5	160.75
247.733	145.75
247.966	158.75
248.2	141.75
248.433	155.75
248.666	165.75
248.899	158.75
249.133	178.75
249.366	183.75
249.599	168.75
249.832	160.75
250.066	175.75
250.299	161.75
250.532	183.75
250.765	174.75
250.998	209.75
251.231	200.75
251.465	204.75
251.698	189.75
251.931	183.75
252.164	192.75
252.397	178.75
252.63	189.75
252.863	202.75
253.096	193.75
253.329	216.75
253.562	190.75
253.795	192.75
254.028	194.75
254.261	201.75
254.494	204.75
254.727	221.75
254.96	252.75
255.193	209.75
255.426	211.75
255.659	199.75
255.892	205.75
256.124	202.75
256.357	207.75
256.59	182.75
256.823	193.75
257.056	194.75
257.289	192.75
257.521	210.75
257.754	194.75
257.987	201.75
258.22	182.75
258.452	183.75
258.685	197.75
258.918	206.75
259.151	201.75
259.383	200.75
259.616	209.75
259.849	204.75
260.081	216.75
260.314	214.75
260.547	212.75
260.779	209.75
261.012	225.75
261.244	219.75
261.477	206.75
261.71	200.75
261.942	201.75
262.175	216.75
262.407	219.75
262.64	199.75
262.872	206.75
263.105	187.75
263.337	190.75
263.57	192.75
263.802	214.75
264.035	202.75
264.267	197.75
264.499	210.75
264.732	197.75
264.964	216.75
265.197	209.75
265.429	218.75
265.661	202.75
265.894	211.75
266.126	226.75
266.358	204.75
266.591	211.75
266.823	210.75
267.055	218.75
267.287	222.75
267.52	211.75
267.752	218.75
267.984	237.75
268.216	231.75
268.448	225.75
268.681	231.75
268.913	225.75
269.145	247.75
269.377	255.75
269.609	251.75
269.841	238.75
270.073	234.75
270.306	252.75
270.538	281.75
270.77	273.75
271.002	279.75
271.234	272.75
271.466	253.75
271.698	280.75
271.93	280.75
272.162	273.75
272.394	271.75
272.626	278.75
272.858	274.75
273.09	264.75
273.322	261.75
273.553	251.75
273.785	250.75
274.017	263.75
274.249	240.75
274.481	272.75
274.713	237.75
274.945	248.75
275.176	260.75
275.408	256.75
275.64	250.75
275.872	263.75
276.104	256.75
276.335	266.75
276.567	265.75
276.799	254.75
277.031	262.75
277.262	277.75
277.494	296.75
277.726	276.75
277.957	269.75
278.189	260.75
278.421	254.75
278.652	251.75
278.884	266.75
279.115	272.75
279.347	264.75
279.579	266.75
279.81	247.75
280.042	260.75
280.273	254.75
280.505	273.75
280.736	259.75
280.968	263.75
281.199	262.75
281.431	261.75
281.662	257.75
281.894	263.75
282.125	270.75
282.356	263.75
282.588	297.75
282.819	272.75
283.051	281.75
283.282	290.75
283.513	271.75
283.745	269.75
283.976	273.75
284.207	266.75
284.439	290.75
284.67	264.75
284.901	268.75
285.132	272.75
285.364	264.75
285.595	265.75
285.826	276.75
286.057	282.75
286.288	281.75
286.52	269.75
286.751	278.75
286.982	280.75
287.213	296.75
287.444	292.75
287.675	290.75
287.906	286.75
288.138	284.75
288.369	295.75
288.6	287.75
288.831	284.75
289.062	297.75
289.293	288.75
289.524	313.75
289.755	297.75
289.986	292.75
290.217	280.75
290.448	294.75
290.679	298.75
290.91	285.75
291.141	295.75
291.371	291.75
291.602	273.75
291.833	301.75
292.064	277.75
292.295	275.75
292.526	292.75
292.757	287.75
292.987	285.75
293.218	281.75
293.449	300.75
293.68	283.75
293.91	300.75
294.141	283.75
294.372	282.75
294.603	288.75
294.833	292.75
295.064	289.75
295.295	284.75
295.525	284.75
295.756	294.75
295.987	333.75
296.217	304.75
296.448	309.75
296.679	302.75
296.909	297.75
297.14	292.75
297.37	291.75
297.601	303.75
297.831	292.75
298.062	296.75
298.292	270.75
298.523	302.75
298.753	305.75
298.984	309.75
299.214	316.75
299.445	319.75
299.675	304.75
299.905	313.75
300.136	314.75
300.366	314.75
300.597	323.75
300.827	324.75
301.057	322.75
301.288	337.75
301.518	324.75
301.748	330.75
301.979	336.75
302.209	325.75
302.439	324.75
302.669	332.75
302.9	321.75
303.13	325.75
303.36	328.75
303.59	348.75
303.82	327.75
304.051	318.75
304.281	329.75
304.511	323.75
304.741	295.75
304.971	332.75
305.201	316.75
305.431	336.75
305.661	342.75
305.891	338.75
306.121	313.75
306.352	320.75
306.582	325.75
306.812	324.75
307.042	322.75
307.272	333.75
307.502	327.75
307.731	342.75
307.961	327.75
308.191	312.75
308.421	341.75
308.651	330.75
308.881	347.75
309.111	351.75
309.341	331.75
309.571	343.75
309.8	344.75
310.03	356.75
310.26	346.75
310.49	358.75
310.72	345.75
310.949	362.75
311.179	380.75
311.409	340.75
311.639	348.75
311.868	353.75
312.098	358.75
312.328	365.75
312.557	348.75
312.787	370.75
313.017	366.75
313.246	376.75
313.476	361.75
313.706	375.75
313.935	376.75
314.165	370.75
314.394	369.75
314.624	376.75
314.853	373.75
315.083	378.75
315.312	356.75
315.542	376.75
315.771	364.75
316.001	366.75
316.23	366.75
316.46	367.75
316.689	372.75
316.919	347.75
317.148	356.75
317.377	371.75
317.607	390.75
317.836	383.75
318.065	378.75
318.295	369.75
318.524	384.75
318.753	385.75
318.983	343.75
319.212	352.75
319.441	365.75
319.67	360.75
319.9	379.75
320.129	369.75
320.358	361.75
320.587	372.75
320.816	368.75
321.046	370.75
321.275	368.75
321.504	361.75
321.733	395.75
321.962	383.75
322.191	387.75
322.42	396.75
322.649	386.75
322.878	401.75
323.108	400.75
323.337	417.75
323.566	453.75
323.795	460.75
324.024	462.75
324.253	567.75
324.482	731.75
324.71	1026.75
324.939	1423.75
325.168	1197.75
325.397	678.75
325.626	519.75
325.855	453.75
326.084	442.75
326.313	444.75
326.542	459.75
326.77	467.75
326.999	526.75
327.228	688.75
327.457	940.75
327.686	1070.75
327.914	758.75
328.143	544.75
328.372	495.75
328.6	504.75
328.829	456.75
329.058	482.75
329.287	498.75
329.515	465.75
329.744	437.75
329.972	457.75
330.201	473.75
330.43	489.75
330.658	470.75
330.887	509.75
331.115	477.75
331.344	450.75
331.572	414.75
331.801	437.75
332.03	436.75
332.258	417.75
332.486	427.75
332.715	438.75
332.943	440.75
333.172	449.75
333.4	430.75
333.629	455.75
333.857	449.75
334.085	457.75
334.314	476.75
334.542	477.75
334.771	486.75
334.999	460.75
335.227	425.75
335.455	449.75
335.684	454.75
335.912	432.75
336.14	432.75
336.369	441.75
336.597	442.75
336.825	431.75
337.053	406.75
337.281	411.75
337.51	419.75
337.738	412.75
337.966	426.75
338.194	432.75
338.422	437.75
338.65	436.75
338.878	412.75
339.106	430.75
339.334	420.75
339.562	399.75
339.79	415.75
340.018	404.75
340.246	377.75
340.474	422.75
340.702	412.75
340.93	397.75
341.158	406.75
341.386	418.75
341.614	403.75
341.842	396.75
342.07	385.75
342.298	386.75
342.526	405.75
342.754	387.75
342.981	386.75
343.209	408.75
343.437	407.75
343.665	431.75
343.893	420.75
344.12	433.75
344.348	426.75
344.576	434.75
344.804	420.75
345.031	410.75
345.259	420.75
345.487	392.75
345.714	403.75
345.942	412.75
346.17	400.75
346.397	391.75
346.625	375.75
346.853	387.75
347.08	401.75
347.308	369.75
347.535	401.75
347.763	398.75
347.99	392.75
348.218	366.75
348.445	376.75
348.673	389.75
348.9	392.75
349.128	392.75
349.355	374.75
349.583	376.75
349.81	374.75
350.037	368.75
350.265	374.75
350.492	370.75
350.72	391.75
350.947	377.75
351.174	374.75
351.402	400.75
351.629	377.75
351.856	363.75
352.083	393.75
352.311	388.75
352.538	382.75
352.765	386.75
352.992	383.75
353.22	383.75
353.447	373.75
353.674	382.75
353.901	350.75
354.128	380.75
354.355	377.75
354.583	368.75
354.81	364.75
355.037	349.75
355.264	363.75
355.491	350.75
355.718	356.75
355.945	360.75
356.172	347.75
356.399	340.75
356.626	370.75
356.853	367.75
357.08	369.75
357.307	349.75
357.534	353.75
357.761	367.75
357.988	364.75
358.215	365.75
358.441	363.75
358.668	353.75
358.895	364.75
359.122	370.75
359.349	385.75
359.576	376.75
359.802	368.75
360.029	392.75
360.256	414.75
360.483	387.75
360.709	364.75
360.936	384.75
361.163	368.75
361.39	369.75
361.616	377.75
361.843	374.75
362.07	371.75
362.296	376.75
362.523	374.75
362.749	368.75
362.976	376.75
363.203	368.75
363.429	367.75
363.656	385.75
363.882	356.75
364.109	363.75
364.335	351.75
364.562	368.75
364.788	362.75
365.015	360.75
365.241	379.75
365.468	363.75
365.694	365.75
365.92	366.75
366.147	367.75
366.373	365.75
366.599	352.75
366.826	342.75
367.052	365.75
367.278	374.75
367.505	372.75
367.731	381.75
367.957	363.75
368.184	356.75
368.41	385.75
368.636	366.75
368.862	365.75
369.089	382.75
369.315	352.75
369.541	340.75
369.767	363.75
369.993	356.75
370.219	350.75
370.445	372.75
370.672	372.75
370.898	340.75
371.124	362.75
371.35	380.75
371.576	374.75
371.802	371.75
372.028	378.75
372.254	369.75
372.48	383.75
372.706	363.75
372.932	360.75
373.158	370.75
373.384	350.75
373.61	380.75
373.835	354.75
374.061	368.75
374.287	374.75
374.513	349.75
374.739	352.75
374.965	367.75
375.191	356.75
375.416	400.75
375.642	356.75
375.868	365.75
376.094	354.75
376.319	366.75
376.545	355.75
376.771	361.75
376.997	342.75
377.222	368.75
377.448	358.75
377.674	374.75
377.899	349.75
378.125	338.75
378.35	366.75
378.576	364.75
378.802	351.75
379.027	360.75
379.253	356.75
379.478	332.75
379.704	358.75
379.929	382.75
380.155	362.75
380.38	366.75
380.606	366.75
380.831	339.75
381.057	365.75
381.282	358.75
381.507	364.75
381.733	354.75
381.958	355.75
382.184	344.75
382.409	372.75
382.634	372.75
382.86	369.75
383.085	366.75
383.31	366.75
383.535	343.75
383.761	377.75
383.986	336.75
384.211	378.75
384.436	364.75
384.662	366.75
384.887	361.75
385.112	373.75
385.337	367.75
385.562	380.75
385.787	389.75
386.013	400.75
386.238	383.75
386.463	402.75
386.688	386.75
386.913	403.75
387.138	388.75
387.363	397.75
387.588	387.75
387.813	382.75
388.038	372.75
388.263	391.75
388.488	374.75
388.713	391.75
388.938	383.75
389.163	373.75
389.387	371.75
389.612	386.75
389.837	370.75
390.062	366.75
390.287	369.75
390.512	363.75
390.736	391.75
390.961	381.75
391.186	380.75
391.411	372.75
391.636	387.75
391.86	396.75
392.085	398.75
392.31	389.75
392.534	387.75
392.759	404.75
392.984	390.75
393.208	387.75
393.433	395.75
393.658	398.75
393.882	399.75
394.107	382.75
394.331	372.75
394.556	377.75
394.78	390.75
395.005	374.75
395.229	378.75
395.454	374.75
395.678	397.75
395.903	401.75
396.127	439.75
396.352	415.75
396.576	416.75
396.801	418.75
397.025	413.75
397.249	395.75
397.474	408.75
397.698	408.75
397.922	408.75
398.147	410.75
398.371	436.75
398.595	431.75
398.82	427.75
399.044	454.75
399.268	456.75
399.492	485.75
399.717	484.75
399.941	531.75
400.165	527.75
400.389	514.75
400.613	464.75
400.837	468.75
401.062	454.75
401.286	446.75
401.51	453.75
401.734	453.75
401.958	444.75
402.182	472.75
402.406	439.75
402.63	427.75
402.854	429.75
403.078	434.75
403.302	438.75
403.526	459.75
403.75	448.75
403.974	434.75
404.198	454.75
404.422	448.75
404.645	449.75
404.869	451.75
405.093	476.75
405.317	480.75
405.541	510.75
405.765	462.75
405.988	466.75
406.212	450.75
406.436	471.75
406.66	479.75
406.883	460.75
407.107	482.75
407.331	513.75
407.555	558.75
407.778	521.75
408.002	516.75
408.226	489.75
408.449	470.75
408.673	470.75
408.896	488.75
409.12	514.75
409.344	470.75
409.567	468.75
409.791	460.75
410.014	445.75
410.238	428.75
410.461	439.75
410.685	438.75
410.908	449.75
411.132	475.75
411.355	464.75
411.578	468.75
411.802	461.75
412.025	432.75
412.249	457.75
412.472	467.75
412.695	482.75
412.919	473.75
413.142	439.75
413.365	434.75
413.589	430.75
413.812	424.75
414.035	408.75
414.258	414.75
414.482	407.75
414.705	430.75
414.928	410.75
415.151	422.75
415.374	409.75
415.597	416.75
415.821	423.75
416.044	407.75
416.267	415.75
416.49	403.75
416.713	406.75
416.936	429.75
417.159	390.75
417.382	381.75
417.605	402.75
417.828	405.75
418.051	415.75
418.274	409.75
418.497	392.75
418.72	423.75
418.943	427.75
419.166	441.75
419.389	456.75
419.611	440.75
419.834	446.75
420.057	436.75
420.28	438.75
420.503	429.75
420.726	432.75
420.948	422.75
421.171	448.75
421.394	479.75
421.617	450.75
421.839	421.75
422.062	415.75
422.285	409.75
422.507	454.75
422.73	492.75
422.953	494.75
423.175	445.75
423.398	429.75
423.621	448.75
423.843	443.75
424.066	461.75
424.288	430.75
424.511	445.75
424.733	477.75
424.956	549.75
425.178	530.75
425.401	523.75
425.623	535.75
425.846	477.75
426.068	439.75
426.291	452.75
426.513	413.75
426.735	460.75
426.958	470.75
427.18	504.75
427.402	605.75
427.625	649.75
427.847	565.75
428.069	508.75
428.292	446.75
428.514	430.75
428.736	421.75
428.958	426.75
429.181	421.75
429.403	412.75
429.625	424.75
429.847	450.75
430.069	470.75
430.292	466.75
430.514	438.75
430.736	423.75
430.958	414.75
431.18	398.75
431.402	402.75
431.624	359.75
431.846	399.75
432.068	404.75
432.29	393.75
432.512	379.75
432.734	382.75
432.956	394.75
433.178	384.75
433.4	405.75
433.622	387.75
433.844	403.75
434.066	390.75
434.287	378.75
434.509	385.75
434.731	415.75
434.953	428.75
435.175	438.75
435.397	444.75
435.618	422.75
435.84	470.75
436.062	532.75
436.284	546.75
436.505	481.75
436.727	445.75
436.949	422.75
437.17	403.75
437.392	417.75
437.614	415.75
437.835	421.75
438.057	486.75
438.278	549.75
438.5	549.75
438.721	599.75
438.943	569.75
439.165	472.75
439.386	450.75
439.608	416.75
439.829	423.75
440.05	460.75
440.272	458.75
440.493	443.75
440.715	413.75
440.936	417.75
441.158	414.75
441.379	405.75
441.6	413.75
441.822	424.75
442.043	448.75
442.264	507.75
442.486	565.75
442.707	463.75
442.928	428.75
443.149	438.75
443.371	428.75
443.592	492.75
443.813	531.75
444.034	566.75
444.255	488.75
444.476	470.75
444.698	441.75
444.919	449.75
445.14	533.75
445.361	478.75
445.582	464.75
445.803	518.75
446.024	565.75
446.245	550.75
446.466	520.75
446.687	429.75
446.908	432.75
447.129	404.75
447.35	392.75
447.571	417.75
447.792	400.75
448.013	415.75
448.234	392.75
448.455	453.75
448.675	509.75
448.896	588.75
449.117	504.75
449.338	489.75
449.559	557.75
449.779	605.75
450	505.75
450.221	436.75
450.442	417.75
450.662	376.75
450.883	386.75
451.104	387.75
451.324	391.75
451.545	381.75
451.766	367.75
451.986	369.75
452.207	366.75
452.428	368.75
452.648	369.75
452.869	356.75
453.089	379.75
453.31	376.75
453.53	365.75
453.751	359.75
453.971	382.75
454.192	375.75
454.412	380.75
454.633	372.75
454.853	344.75
455.073	371.75
455.294	400.75
455.514	418.75
455.734	400.75
455.955	351.75
456.175	336.75
456.395	356.75
456.616	357.75
456.836	361.75
457.056	360.75
457.276	332.75
457.497	344.75
457.717	349.75
457.937	360.75
458.157	368.75
458.377	359.75
458.598	362.75
458.818	410.75
459.038	452.75
459.258	465.75
459.478	412.75
459.698	402.75
459.918	396.75
460.138	409.75
460.358	392.75
460.578	396.75
460.798	406.75
461.018	401.75
461.238	414.75
461.458	394.75
461.678	405.75
461.898	405.75
462.118	410.75
462.338	405.75
462.558	421.75
462.777	429.75
462.997	435.75
463.217	429.75
463.437	441.75
463.657	420.75
463.876	444.75
464.096	433.75
464.316	432.75
464.536	412.75
464.755	434.75
464.975	414.75
465.195	424.75
465.414	458.75
465.634	438.75
465.854	388.75
466.073	380.75
466.293	364.75
466.512	372.75
466.732	369.75
466.951	368.75
467.171	369.75
467.391	398.75
467.61	365.75
467.829	379.75
468.049	370.75
468.268	401.75
468.488	379.75
468.707	374.75
468.927	369.75
469.146	377.75
469.365	394.75
469.585	366.75
469.804	386.75
470.023	368.75
470.243	391.75
470.462	379.75
470.681	394.75
470.901	399.75
471.12	372.75
471.339	388.75
471.558	381.75
471.777	372.75
471.997	376.75
472.216	384.75
472.435	400.75
472.654	377.75
472.873	368.75
473.092	374.75
473.311	382.75
473.53	363.75
473.749	385.75
473.968	403.75
474.187	481.75
474.406	468.75
474.625	402.75
474.844	393.75
475.063	395.75
475.282	386.75
475.501	382.75
475.72	378.75
475.939	370.75
476.158	390.75
476.377	380.75
476.596	381.75
476.814	392.75
477.033	390.75
477.252	410.75
477.471	408.75
477.69	407.75
477.908	400.75
478.127	397.75
478.346	401.75
478.564	426.75
478.783	411.75
479.002	423.75
479.22	430.75
479.439	441.75
479.658	457.75
479.876	465.75
480.095	441.75
480.313	463.75
480.532	465.75
480.751	455.75
480.969	480.75
481.188	508.75
481.406	512.75
481.624	440.75
481.843	430.75
482.061	467.75
482.28	425.75
482.498	444.75
482.717	438.75
482.935	464.75
483.153	438.75
483.372	430.75
483.59	428.75
483.808	436.75
484.027	417.75
484.245	439.75
484.463	423.75
484.681	461.75
484.9	458.75
485.118	447.75
485.336	473.75
485.554	460.75
485.772	434.75
485.99	449.75
486.209	465.75
486.427	436.75
486.645	450.75
486.863	487.75
487.081	462.75
487.299	454.75
487.517	449.75
487.735	468.75
487.953	483.75
488.171	484.75
488.389	468.75
488.607	465.75
488.825	472.75
489.043	448.75
489.261	477.75
489.479	493.75
489.696	480.75
489.914	501.75
490.132	471.75
490.35	486.75
490.568	472.75
490.786	487.75
491.003	486.75
491.221	492.75
491.439	514.75
491.657	494.75
491.874	511.75
492.092	532.75
492.31	526.75
492.527	493.75
492.745	511.75
492.963	517.75
493.18	556.75
493.398	534.75
493.615	528.75
493.833	516.75
494.05	524.75
494.268	546.75
494.485	513.75
494.703	508.75
494.92	529.75
495.138	516.75
495.355	538.75
495.573	548.75
495.79	567.75
496.008	570.75
496.225	529.75
496.442	532.75
496.66	563.75
496.877	535.75
497.094	564.75
497.312	554.75
497.529	550.75
497.746	573.75
497.963	580.75
498.181	602.75
498.398	613.75
498.615	618.75
498.832	621.75
499.049	625.75
499.267	669.75
499.484	643.75
499.701	685.75
499.918	721.75
500.135	741.75
500.352	759.75
500.569	793.75
500.786	796.75
501.003	767.75
501.22	761.75
501.437	720.75
501.654	722.75
501.871	698.75
502.088	669.75
502.305	657.75
502.522	639.75
502.739	615.75
502.956	604.75
503.172	593.75
503.389	578.75
503.606	576.75
503.823	538.75
504.04	552.75
504.256	550.75
504.473	556.75
504.69	540.75
504.907	550.75
505.123	538.75
505.34	523.75
505.557	521.75
505.773	509.75
505.99	510.75
506.207	513.75
506.423	527.75
506.64	495.75
506.856	525.75
507.073	525.75
507.289	495.75
507.506	498.75
507.722	488.75
507.939	506.75
508.155	492.75
508.372	479.75
508.588	497.75
508.805	479.75
509.021	476.75
509.238	480.75
509.454	475.75
509.67	484.75
509.887	505.75
510.103	487.75
510.319	451.75
510.536	532.75
510.752	786.75
510.968	625.75
511.184	497.75
511.401	474.75
511.617	440.75
511.833	452.75
512.049	448.75
512.265	468.75
512.481	465.75
512.698	445.75
512.914	431.75
513.13	450.75
513.346	438.75
513.562	449.75
513.778	468.75
513.994	464.75
514.21	451.75
514.426	471.75
514.642	489.75
514.858	491.75
515.074	510.75
515.29	605.75
515.506	776.75
515.721	655.75
515.937	524.75
516.153	475.75
516.369	470.75
516.585	495.75
516.801	484.75
517.016	481.75
517.232	470.75
517.448	470.75
517.664	489.75
517.879	466.75
518.095	502.75
518.311	470.75
518.527	465.75
518.742	474.75
518.958	468.75
519.173	442.75
519.389	444.75
519.605	458.75
519.82	468.75
520.036	449.75
520.251	444.75
520.467	470.75
520.682	469.75
520.898	480.75
521.113	477.75
521.329	503.75
521.544	542.75
521.76	624.75
521.975	936.75
522.19	916.75
522.406	569.75
522.621	485.75
522.836	443.75
523.052	447.75
523.267	435.75
523.482	443.75
523.698	421.75
523.913	396.75
524.128	412.75
524.343	425.75
524.559	407.75
524.774	393.75
524.989	397.75
525.204	421.75
525.419	396.75
525.634	408.75
525.849	394.75
526.064	408.75
526.28	379.75
526.495	384.75
526.71	400.75
526.925	386.75
527.14	377.75
527.355	380.75
527.57	380.75
527.785	394.75
527.999	380.75
528.214	383.75
528.429	395.75
528.644	392.75
528.859	379.75
529.074	398.75
529.289	406.75
529.503	441.75
529.718	420.75
529.933	392.75
530.148	378.75
530.363	393.75
530.577	385.75
530.792	379.75
531.007	404.75
531.221	377.75
531.436	381.75
531.651	368.75
531.865	384.75
532.08	365.75
532.295	374.75
532.509	362.75
532.724	380.75
532.938	374.75
533.153	374.75
533.367	368.75
533.582	374.75
533.796	368.75
534.011	370.75
534.225	367.75
534.44	365.75
534.654	375.75
534.868	360.75
535.083	363.75
535.297	376.75
535.511	382.75
535.726	378.75
535.94	369.75
536.154	373.75
536.369	359.75
536.583	356.75
536.797	368.75
537.011	363.75
537.225	364.75
537.44	352.75
537.654	366.75
537.868	349.75
538.082	362.75
538.296	374.75
538.51	351.75
538.724	360.75
538.938	346.75
539.153	357.75
539.367	368.75
539.581	362.75
539.795	344.75
540.009	358.75
540.222	364.75
540.436	378.75
540.65	360.75
540.864	355.75
541.078	378.75
541.292	360.75
541.506	368.75
541.72	362.75
541.934	373.75
542.147	367.75
542.361	371.75
542.575	350.75
542.789	351.75
543.002	349.75
543.216	351.75
543.43	361.75
543.644	359.75
543.857	360.75
544.071	376.75
544.285	372.75
544.498	367.75
544.712	362.75
544.925	341.75
545.139	362.75
545.352	341.75
545.566	342.75
545.779	359.75
545.993	330.75
546.206	343.75
546.42	363.75
546.633	360.75
546.847	367.75
547.06	369.75
547.274	338.75
547.487	348.75
547.7	334.75
547.914	363.75
548.127	352.75
548.34	364.75
548.554	356.75
548.767	321.75
548.98	334.75
549.193	348.75
549.407	360.75
549.62	333.75
549.833	356.75
550.046	338.75
550.259	349.75
550.473	326.75
550.686	347.75
550.899	349.75
551.112	360.75
551.325	346.75
551.538	328.75
551.751	343.75
551.964	337.75
552.177	334.75
552.39	342.75
552.603	340.75
552.816	336.75
553.029	346.75
553.242	351.75
553.455	353.75
553.667	360.75
553.88	376.75
554.093	366.75
554.306	363.75
554.519	353.75
554.732	345.75
554.944	338.75
555.157	333.75
555.37	325.75
555.583	330.75
555.795	354.75
556.008	322.75
556.221	330.75
556.433	320.75
556.646	325.75
556.859	317.75
557.071	327.75
557.284	319.75
557.496	323.75
557.709	309.75
557.921	309.75
558.134	302.75
558.346	330.75
558.559	327.75
558.771	310.75
558.984	318.75
559.196	319.75
559.409	324.75
559.621	308.75
559.833	335.75
560.046	310.75
560.258	310.75
560.47	287.75
560.683	299.75
560.895	310.75
561.107	294.75
561.32	288.75
561.532	330.75
561.744	327.75
561.956	306.75
562.168	318.75
562.381	286.75
562.593	305.75
562.805	300.75
563.017	325.75
563.229	343.75
563.441	310.75
563.653	317.75
563.865	317.75
564.077	304.75
564.289	320.75
564.501	313.75
564.713	320.75
564.925	320.75
565.137	335.75
565.349	348.75
565.561	346.75
565.773	336.75
565.985	334.75
566.197	345.75
566.408	374.75
566.62	380.75
566.832	368.75
567.044	388.75
567.255	384.75
567.467	391.75
567.679	406.75
567.891	407.75
568.102	400.75
568.314	393.75
568.526	380.75
568.737	386.75
568.949	346.75
569.161	353.75
569.372	335.75
569.584	326.75
569.795	319.75
570.007	323.75
570.218	345.75
570.43	320.75
570.641	310.75
570.853	295.75
571.064	312.75
571.276	317.75
571.487	294.75
571.698	289.75
571.91	270.75
572.121	284.75
572.333	282.75
572.544	277.75
572.755	294.75
572.966	279.75
573.178	264.75
573.389	284.75
573.6	261.75
573.811	296.75
574.023	268.75
574.234	290.75
574.445	264.75
574.656	281.75
574.867	272.75
575.078	262.75
575.289	268.75
575.501	281.75
575.712	270.75
575.923	271.75
576.134	275.75
576.345	256.75
576.556	270.75
576.767	274.75
576.978	268.75
577.188	269.75
577.399	265.75
577.61	265.75
577.821	258.75
578.032	255.75
578.243	278.75
578.454	383.75
578.665	308.75
578.875	258.75
579.086	253.75
579.297	257.75
579.508	266.75
579.718	264.75
579.929	262.75
580.14	252.75
580.35	241.75
580.561	262.75
580.772	257.75
580.982	264.75
581.193	249.75
581.403	239.75
581.614	245.75
581.825	266.75
582.035	250.75
582.246	270.75
582.456	233.75
582.667	240.75
582.877	258.75
583.087	250.75
583.298	233.75
583.508	245.75
583.719	241.75
583.929	233.75
584.139	256.75
584.35	219.75
584.56	232.75
584.77	270.75
584.981	257.75
585.191	260.75
585.401	260.75
585.611	249.75
585.821	253.75
586.032	255.75
586.242	226.75
586.452	233.75
586.662	239.75
586.872	263.75
587.082	257.75
587.292	237.75
587.502	245.75
587.713	247.75
587.923	241.75
588.133	238.75
588.343	237.75
588.553	230.75
588.762	237.75
588.972	270.75
589.182	309.75
589.392	304.75
589.602	257.75
589.812	289.75
590.022	262.75
590.232	257.75
590.441	250.75
590.651	252.75
590.861	242.75
591.071	248.75
591.281	230.75
591.49	229.75
591.7	228.75
591.91	253.75
592.119	252.75
592.329	257.75
592.539	245.75
592.748	245.75
592.958	241.75
593.167	242.75
593.377	254.75
593.587	276.75
593.796	272.75
594.006	249.75
594.215	251.75
594.424	266.75
594.634	252.75
594.843	255.75
595.053	253.75
595.262	252.75
595.472	229.75
595.681	255.75
595.89	256.75
596.1	232.75
596.309	223.75
596.518	223.75
596.727	231.75
596.937	248.75
597.146	224.75
597.355	228.75
597.564	244.75
597.774	230.75
597.983	215.75
598.192	225.75
598.401	230.75
598.61	263.75
598.819	212.75
599.028	207.75
599.237	223.75
599.446	224.75
599.655	217.75
599.864	210.75
600.073	221.75
600.282	196.75
600.491	223.75
600.7	220.75
600.909	228.75
601.118	204.75
601.327	214.75
601.536	206.75
601.745	206.75
601.953	210.75
602.162	210.75
602.371	204.75
602.58	209.75
602.789	213.75
602.997	212.75
603.206	202.75
603.415	210.75
603.623	219.75
603.832	217.75
604.041	213.75
604.249	209.75
604.458	216.75
604.666	189.75
604.875	188.75
605.084	195.75
605.292	199.75
605.501	197.75
605.709	203.75
605.918	193.75
606.126	202.75
606.334	207.75
606.543	208.75
606.751	208.75
606.96	203.75
607.168	194.75
607.376	192.75
607.585	219.75
607.793	214.75
608.001	209.75
608.21	205.75
608.418	190.75
608.626	195.75
608.834	204.75
609.043	202.75
609.251	220.75
609.459	189.75
609.667	205.75
609.875	193.75
610.083	203.75
610.291	193.75
610.499	207.75
610.707	199.75
610.916	204.75
611.124	194.75
611.332	184.75
611.54	199.75
611.748	208.75
611.955	194.75
612.163	207.75
612.371	191.75
612.579	206.75
612.787	188.75
612.995	212.75
613.203	211.75
613.411	178.75
613.618	193.75
613.826	198.75
614.034	217.75
614.242	203.75
614.449	189.75
614.657	182.75
614.865	189.75
615.072	193.75
615.28	203.75
615.488	180.75
615.695	187.75
615.903	190.75
616.111	199.75
616.318	212.75
616.526	199.75
616.733	204.75
616.941	187.75
617.148	198.75
617.356	209.75
617.563	191.75
617.771	195.75
617.978	196.75
618.185	192.75
618.393	192.75
618.6	187.75
618.807	178.75
619.015	186.75
619.222	193.75
619.429	189.75
619.637	190.75
619.844	178.75
620.051	182.75
620.258	186.75
620.466	191.75
620.673	179.75
620.88	175.75
621.087	201.75
621.294	185.75
621.501	171.75
621.708	188.75
621.915	185.75
622.122	202.75
622.329	189.75
622.536	186.75
622.743	191.75
622.95	190.75
623.157	181.75
623.364	182.75
623.571	174.75
623.778	171.75
623.985	173.75
624.192	196.75
624.399	191.75
624.606	178.75
624.812	192.75
625.019	175.75
625.226	190.75
625.433	193.75
625.639	186.75
625.846	187.75
626.053	185.75
626.259	172.75
626.466	181.75
626.673	180.75
626.879	169.75
627.086	177.75
627.293	174.75
627.499	165.75
627.706	175.75
627.912	170.75
628.119	169.75
628.325	143.75
628.532	162.75
628.738	171.75
628.945	177.75
629.151	172.75
629.357	171.75
629.564	179.75
629.77	177.75
629.976	187.75
630.183	147.75
630.389	163.75
630.595	170.75
630.802	154.75
631.008	162.75
631.214	171.75
631.42	155.75
631.627	175.75
631.833	164.75
632.039	167.75
632.245	162.75
632.451	178.75
632.657	157.75
632.863	145.75
633.069	159.75
633.275	175.75
633.481	176.75
633.688	152.75
633.893	162.75
634.099	169.75
634.305	158.75
634.511	150.75
634.717	178.75
634.923	157.75
635.129	144.75
635.335	176.75
635.541	157.75
635.747	152.75
635.952	143.75
636.158	142.75
636.364	174.75
636.57	150.75
636.775	168.75
636.981	143.75
637.187	164.75
637.392	166.75
637.598	151.75
637.804	159.75
638.009	157.75
638.215	147.75
638.421	161.75
638.626	160.75
638.832	166.75
639.037	155.75
639.243	163.75
639.448	151.75
639.654	157.75
639.859	144.75
640.065	152.75
640.27	161.75
640.475	157.75
640.681	156.75
640.886	151.75
641.091	160.75
641.297	165.75
641.502	154.75
641.707	143.75
641.913	148.75
642.118	138.75
642.323	151.75
642.528	158.75
642.733	147.75
642.939	152.75
643.144	133.75
643.349	140.75
643.554	136.75
643.759	144.75
643.964	150.75
644.169	142.75
644.374	142.75
644.579	150.75
644.784	159.75
644.989	149.75
645.194	148.75
645.399	145.75
645.604	129.75
645.809	141.75
646.014	144.75
646.219	139.75
646.423	152.75
646.628	138.75
646.833	144.75
647.038	138.75
647.243	152.75
647.447	141.75
647.652	148.75
647.857	143.75
648.062	153.75
648.266	166.75
648.471	154.75
648.676	152.75
648.88	158.75
649.085	152.75
649.289	145.75
649.494	152.75
649.698	168.75
649.903	159.75
650.107	156.75
650.312	148.75
650.516	149.75
650.721	138.75
650.925	154.75
651.13	130.75
651.334	140.75
651.539	124.75
651.743	133.75
651.947	121.75
652.152	146.75
652.356	127.75
652.56	129.75
652.764	120.75
652.969	137.75
653.173	156.75
653.377	128.75
653.581	140.75
653.785	126.75
653.99	148.75
654.194	131.75
654.398	136.75
654.602	126.75
654.806	126.75
655.01	130.75
655.214	120.75
655.418	141.75
655.622	136.75
655.826	143.75
656.03	147.75
656.234	127.75
656.438	134.75
656.642	132.75
656.846	121.75
657.049	130.75
657.253	125.75
657.457	128.75
657.661	110.75
657.865	106.75
658.068	114.75
658.272	114.75
658.476	107.75
658.68	124.75
658.883	125.75
659.087	95.75
659.291	96.75
659.494	90.75
659.698	104.75
659.901	94.75
660.105	100.75
660.309	105.75
660.512	102.75
660.716	102.75
660.919	100.75
661.123	101.75
661.326	85.75
661.53	80.75
661.733	90.75
661.936	100.75
662.14	100.75
662.343	101.75
662.546	88.75
662.75	87.75
662.953	89.75
663.156	84.75
663.36	86.75
663.563	89.75
663.766	79.75
663.969	85.75
664.173	93.75
664.376	101.75
664.579	86.75
664.782	76.75
664.985	90.75
665.188	88.75
665.391	74.75
665.594	85.75
665.797	98.75
666	84.75
666.203	103.75
666.406	86.75
666.609	91.75
666.812	73.75
667.015	91.75
667.218	90.75
667.421	94.75
667.624	94.75
667.827	89.75
668.03	84.75
668.232	76.75
668.435	90.75
668.638	81.75
668.841	77.75
669.043	87.75
669.246	76.75
669.449	100.75
669.651	98.75
669.854	88.75
670.057	86.75
670.259	90.75
670.462	84.75
670.665	85.75
670.867	89.75
671.07	75.75
671.272	95.75
671.475	94.75
671.677	92.75
671.88	88.75
672.082	89.75
672.284	93.75
672.487	91.75
672.689	75.75
672.892	87.75
