Data from 1960PennyLincolnUp.LampE6.200Scan.07172019.P1_HRD10591_13-05-28-002.txt Node
Date: Thu Jul 18 13:05:28 EDT 2019
User: cochatt
Spectrometer: HR+D1059
Trigger mode: 1
Integration Time (sec): 1.000000E-1
Scans to average: 1
Electric dark correction enabled: true
Nonlinearity correction enabled: false
Boxcar width: 0
XAxis mode: Wavelengths
Number of Pixels in Spectrum: 2048
>>>>>Begin Spectral Data<<<<<
223.165	-15.25
223.4	-15.25
223.635	-15.25
223.869	-15.25
224.104	-9.25
224.338	-11.25
224.573	-12.25
224.808	-8.25
225.042	-7.25
225.277	-14.25
225.511	-11.25
225.746	6.75
225.98	0.75
226.215	10.75
226.449	2.75
226.683	14.75
226.918	26.75
227.152	41.75
227.387	30.75
227.621	36.75
227.856	37.75
228.09	41.75
228.324	37.75
228.559	41.75
228.793	66.75
229.027	83.75
229.262	94.75
229.496	94.75
229.73	107.75
229.964	112.75
230.199	91.75
230.433	107.75
230.667	95.75
230.901	104.75
231.136	104.75
231.37	93.75
231.604	102.75
231.838	113.75
232.072	112.75
232.306	115.75
232.541	120.75
232.775	114.75
233.009	99.75
233.243	105.75
233.477	124.75
233.711	100.75
233.945	115.75
234.179	108.75
234.413	93.75
234.647	117.75
234.881	102.75
235.115	98.75
235.349	119.75
235.583	102.75
235.817	111.75
236.051	118.75
236.285	106.75
236.519	123.75
236.753	126.75
236.987	125.75
237.221	140.75
237.455	159.75
237.689	132.75
237.922	122.75
238.156	111.75
238.39	137.75
238.624	110.75
238.858	114.75
239.091	118.75
239.325	93.75
239.559	114.75
239.793	110.75
240.027	118.75
240.26	132.75
240.494	131.75
240.728	128.75
240.961	146.75
241.195	126.75
241.429	124.75
241.662	127.75
241.896	127.75
242.13	115.75
242.363	115.75
242.597	133.75
242.83	128.75
243.064	114.75
243.298	125.75
243.531	123.75
243.765	133.75
243.998	144.75
244.232	146.75
244.465	135.75
244.699	139.75
244.932	129.75
245.166	134.75
245.399	127.75
245.633	141.75
245.866	142.75
246.099	140.75
246.333	134.75
246.566	142.75
246.8	127.75
247.033	144.75
247.266	139.75
247.5	147.75
247.733	161.75
247.966	143.75
248.2	154.75
248.433	148.75
248.666	160.75
248.899	152.75
249.133	171.75
249.366	170.75
249.599	165.75
249.832	175.75
250.066	165.75
250.299	163.75
250.532	156.75
250.765	167.75
250.998	176.75
251.231	169.75
251.465	166.75
251.698	162.75
251.931	180.75
252.164	179.75
252.397	170.75
252.63	170.75
252.863	169.75
253.096	167.75
253.329	185.75
253.562	188.75
253.795	182.75
254.028	174.75
254.261	177.75
254.494	196.75
254.727	209.75
254.96	211.75
255.193	207.75
255.426	189.75
255.659	196.75
255.892	190.75
256.124	190.75
256.357	201.75
256.59	198.75
256.823	182.75
257.056	190.75
257.289	177.75
257.521	166.75
257.754	198.75
257.987	187.75
258.22	198.75
258.452	183.75
258.685	191.75
258.918	181.75
259.151	198.75
259.383	212.75
259.616	199.75
259.849	212.75
260.081	199.75
260.314	211.75
260.547	212.75
260.779	204.75
261.012	208.75
261.244	204.75
261.477	194.75
261.71	198.75
261.942	181.75
262.175	192.75
262.407	192.75
262.64	192.75
262.872	203.75
263.105	197.75
263.337	187.75
263.57	197.75
263.802	200.75
264.035	191.75
264.267	191.75
264.499	192.75
264.732	196.75
264.964	215.75
265.197	190.75
265.429	194.75
265.661	192.75
265.894	211.75
266.126	203.75
266.358	189.75
266.591	206.75
266.823	205.75
267.055	200.75
267.287	204.75
267.52	206.75
267.752	208.75
267.984	221.75
268.216	218.75
268.448	210.75
268.681	207.75
268.913	210.75
269.145	215.75
269.377	244.75
269.609	244.75
269.841	206.75
270.073	225.75
270.306	246.75
270.538	261.75
270.77	260.75
271.002	244.75
271.234	253.75
271.466	260.75
271.698	262.75
271.93	265.75
272.162	275.75
272.394	260.75
272.626	263.75
272.858	243.75
273.09	236.75
273.322	231.75
273.553	241.75
273.785	237.75
274.017	234.75
274.249	260.75
274.481	234.75
274.713	234.75
274.945	236.75
275.176	240.75
275.408	244.75
275.64	236.75
275.872	250.75
276.104	249.75
276.335	246.75
276.567	269.75
276.799	242.75
277.031	272.75
277.262	267.75
277.494	274.75
277.726	254.75
277.957	266.75
278.189	243.75
278.421	247.75
278.652	246.75
278.884	256.75
279.115	261.75
279.347	253.75
279.579	242.75
279.81	260.75
280.042	270.75
280.273	252.75
280.505	266.75
280.736	262.75
280.968	252.75
281.199	267.75
281.431	262.75
281.662	266.75
281.894	279.75
282.125	266.75
282.356	265.75
282.588	280.75
282.819	286.75
283.051	254.75
283.282	280.75
283.513	264.75
283.745	261.75
283.976	262.75
284.207	258.75
284.439	271.75
284.67	273.75
284.901	286.75
285.132	268.75
285.364	271.75
285.595	264.75
285.826	277.75
286.057	265.75
286.288	263.75
286.52	275.75
286.751	269.75
286.982	269.75
287.213	264.75
287.444	279.75
287.675	293.75
287.906	290.75
288.138	280.75
288.369	300.75
288.6	296.75
288.831	287.75
289.062	293.75
289.293	284.75
289.524	288.75
289.755	273.75
289.986	294.75
290.217	287.75
290.448	290.75
290.679	296.75
290.91	290.75
291.141	292.75
291.371	291.75
291.602	291.75
291.833	286.75
292.064	291.75
292.295	297.75
292.526	300.75
292.757	304.75
292.987	277.75
293.218	289.75
293.449	286.75
293.68	295.75
293.91	295.75
294.141	295.75
294.372	289.75
294.603	290.75
294.833	276.75
295.064	293.75
295.295	303.75
295.525	294.75
295.756	293.75
295.987	300.75
296.217	282.75
296.448	314.75
296.679	301.75
296.909	300.75
297.14	314.75
297.37	305.75
297.601	315.75
297.831	290.75
298.062	318.75
298.292	315.75
298.523	309.75
298.753	336.75
298.984	326.75
299.214	306.75
299.445	305.75
299.675	302.75
299.905	318.75
300.136	310.75
300.366	320.75
300.597	310.75
300.827	330.75
301.057	311.75
301.288	350.75
301.518	339.75
301.748	335.75
301.979	335.75
302.209	334.75
302.439	328.75
302.669	334.75
302.9	327.75
303.13	311.75
303.36	317.75
303.59	349.75
303.82	322.75
304.051	336.75
304.281	333.75
304.511	306.75
304.741	357.75
304.971	324.75
305.201	333.75
305.431	338.75
305.661	328.75
305.891	335.75
306.121	339.75
306.352	346.75
306.582	341.75
306.812	327.75
307.042	323.75
307.272	312.75
307.502	318.75
307.731	349.75
307.961	335.75
308.191	322.75
308.421	332.75
308.651	336.75
308.881	336.75
309.111	326.75
309.341	343.75
309.571	335.75
309.8	346.75
310.03	340.75
310.26	346.75
310.49	332.75
310.72	338.75
310.949	346.75
311.179	360.75
311.409	387.75
311.639	368.75
311.868	330.75
312.098	343.75
312.328	358.75
312.557	346.75
312.787	375.75
313.017	343.75
313.246	354.75
313.476	358.75
313.706	341.75
313.935	388.75
314.165	357.75
314.394	377.75
314.624	364.75
314.853	364.75
315.083	367.75
315.312	362.75
315.542	364.75
315.771	350.75
316.001	348.75
316.23	351.75
316.46	372.75
316.689	394.75
316.919	355.75
317.148	368.75
317.377	372.75
317.607	360.75
317.836	365.75
318.065	368.75
318.295	347.75
318.524	363.75
318.753	358.75
318.983	348.75
319.212	349.75
319.441	364.75
319.67	351.75
319.9	388.75
320.129	366.75
320.358	382.75
320.587	387.75
320.816	386.75
321.046	362.75
321.275	394.75
321.504	353.75
321.733	364.75
321.962	353.75
322.191	355.75
322.42	377.75
322.649	406.75
322.878	397.75
323.108	400.75
323.337	418.75
323.566	385.75
323.795	432.75
324.024	447.75
324.253	496.75
324.482	615.75
324.71	885.75
324.939	1165.75
325.168	993.75
325.397	580.75
325.626	456.75
325.855	450.75
326.084	440.75
326.313	419.75
326.542	440.75
326.77	433.75
326.999	481.75
327.228	623.75
327.457	800.75
327.686	918.75
327.914	676.75
328.143	507.75
328.372	462.75
328.6	467.75
328.829	443.75
329.058	454.75
329.287	456.75
329.515	455.75
329.744	416.75
329.972	428.75
330.201	432.75
330.43	487.75
330.658	470.75
330.887	474.75
331.115	488.75
331.344	447.75
331.572	426.75
331.801	422.75
332.03	427.75
332.258	443.75
332.486	442.75
332.715	478.75
332.943	472.75
333.172	458.75
333.4	478.75
333.629	482.75
333.857	496.75
334.085	511.75
334.314	501.75
334.542	518.75
334.771	541.75
334.999	502.75
335.227	503.75
335.455	484.75
335.684	463.75
335.912	470.75
336.14	464.75
336.369	468.75
336.597	448.75
336.825	449.75
337.053	423.75
337.281	444.75
337.51	435.75
337.738	435.75
337.966	431.75
338.194	444.75
338.422	448.75
338.65	423.75
338.878	400.75
339.106	436.75
339.334	436.75
339.562	411.75
339.79	427.75
340.018	418.75
340.246	412.75
340.474	396.75
340.702	406.75
340.93	410.75
341.158	413.75
341.386	422.75
341.614	393.75
341.842	406.75
342.07	401.75
342.298	409.75
342.526	382.75
342.754	406.75
342.981	405.75
343.209	402.75
343.437	437.75
343.665	435.75
343.893	468.75
344.12	479.75
344.348	471.75
344.576	453.75
344.804	432.75
345.031	416.75
345.259	444.75
345.487	409.75
345.714	419.75
345.942	415.75
346.17	406.75
346.397	388.75
346.625	400.75
346.853	416.75
347.08	384.75
347.308	401.75
347.535	382.75
347.763	392.75
347.99	382.75
348.218	406.75
348.445	395.75
348.673	408.75
348.9	394.75
349.128	397.75
349.355	381.75
349.583	408.75
349.81	415.75
350.037	395.75
350.265	388.75
350.492	390.75
350.72	409.75
350.947	392.75
351.174	385.75
351.402	388.75
351.629	401.75
351.856	403.75
352.083	381.75
352.311	402.75
352.538	403.75
352.765	384.75
352.992	404.75
353.22	388.75
353.447	399.75
353.674	391.75
353.901	403.75
354.128	382.75
354.355	378.75
354.583	384.75
354.81	374.75
355.037	395.75
355.264	372.75
355.491	379.75
355.718	383.75
355.945	375.75
356.172	384.75
356.399	374.75
356.626	371.75
356.853	391.75
357.08	385.75
357.307	384.75
357.534	382.75
357.761	389.75
357.988	402.75
358.215	375.75
358.441	383.75
358.668	399.75
358.895	384.75
359.122	393.75
359.349	402.75
359.576	413.75
359.802	386.75
360.029	402.75
360.256	421.75
360.483	390.75
360.709	407.75
360.936	399.75
361.163	360.75
361.39	405.75
361.616	404.75
361.843	389.75
362.07	387.75
362.296	397.75
362.523	394.75
362.749	403.75
362.976	399.75
363.203	396.75
363.429	391.75
363.656	413.75
363.882	396.75
364.109	370.75
364.335	382.75
364.562	405.75
364.788	376.75
365.015	384.75
365.241	401.75
365.468	400.75
365.694	384.75
365.92	403.75
366.147	397.75
366.373	380.75
366.599	378.75
366.826	365.75
367.052	390.75
367.278	389.75
367.505	396.75
367.731	386.75
367.957	366.75
368.184	377.75
368.41	391.75
368.636	403.75
368.862	404.75
369.089	422.75
369.315	383.75
369.541	405.75
369.767	405.75
369.993	388.75
370.219	396.75
370.445	396.75
370.672	391.75
370.898	394.75
371.124	404.75
371.35	418.75
371.576	399.75
371.802	399.75
372.028	405.75
372.254	422.75
372.48	400.75
372.706	394.75
372.932	387.75
373.158	427.75
373.384	399.75
373.61	415.75
373.835	404.75
374.061	427.75
374.287	426.75
374.513	436.75
374.739	427.75
374.965	436.75
375.191	421.75
375.416	432.75
375.642	435.75
375.868	410.75
376.094	432.75
376.319	394.75
376.545	398.75
376.771	414.75
376.997	399.75
377.222	397.75
377.448	421.75
377.674	404.75
377.899	412.75
378.125	412.75
378.35	396.75
378.576	393.75
378.802	404.75
379.027	388.75
379.253	399.75
379.478	408.75
379.704	373.75
379.929	409.75
380.155	395.75
380.38	392.75
380.606	399.75
380.831	416.75
381.057	418.75
381.282	398.75
381.507	414.75
381.733	428.75
381.958	415.75
382.184	397.75
382.409	412.75
382.634	404.75
382.86	398.75
383.085	415.75
383.31	421.75
383.535	434.75
383.761	455.75
383.986	428.75
384.211	447.75
384.436	449.75
384.662	457.75
384.887	477.75
385.112	468.75
385.337	464.75
385.562	477.75
385.787	470.75
386.013	460.75
386.238	459.75
386.463	455.75
386.688	480.75
386.913	463.75
387.138	468.75
387.363	450.75
387.588	454.75
387.813	469.75
388.038	448.75
388.263	455.75
388.488	453.75
388.713	441.75
388.938	445.75
389.163	462.75
389.387	440.75
389.612	431.75
389.837	468.75
390.062	454.75
390.287	470.75
390.512	457.75
390.736	462.75
390.961	466.75
391.186	459.75
391.411	485.75
391.636	484.75
391.86	510.75
392.085	508.75
392.31	495.75
392.534	490.75
392.759	477.75
392.984	470.75
393.208	483.75
393.433	496.75
393.658	468.75
393.882	455.75
394.107	477.75
394.331	489.75
394.556	472.75
394.78	480.75
395.005	467.75
395.229	486.75
395.454	511.75
395.678	494.75
395.903	519.75
396.127	510.75
396.352	512.75
396.576	507.75
396.801	493.75
397.025	483.75
397.249	503.75
397.474	513.75
397.698	510.75
397.922	517.75
398.147	490.75
398.371	540.75
398.595	535.75
398.82	528.75
399.044	573.75
399.268	616.75
399.492	691.75
399.717	734.75
399.941	756.75
400.165	701.75
400.389	684.75
400.613	624.75
400.837	587.75
401.062	566.75
401.286	528.75
401.51	556.75
401.734	552.75
401.958	528.75
402.182	576.75
402.406	594.75
402.63	574.75
402.854	576.75
403.078	589.75
403.302	596.75
403.526	598.75
403.75	622.75
403.974	605.75
404.198	582.75
404.422	620.75
404.645	615.75
404.869	612.75
405.093	613.75
405.317	661.75
405.541	647.75
405.765	622.75
405.988	605.75
406.212	599.75
406.436	620.75
406.66	618.75
406.883	632.75
407.107	654.75
407.331	703.75
407.555	733.75
407.778	710.75
408.002	660.75
408.226	623.75
408.449	624.75
408.673	641.75
408.896	621.75
409.12	666.75
409.344	635.75
409.567	602.75
409.791	586.75
410.014	567.75
410.238	584.75
410.461	559.75
410.685	588.75
410.908	593.75
411.132	595.75
411.355	613.75
411.578	585.75
411.802	576.75
412.025	572.75
412.249	552.75
412.472	581.75
412.695	619.75
412.919	570.75
413.142	567.75
413.365	572.75
413.589	552.75
413.812	571.75
414.035	531.75
414.258	561.75
414.482	540.75
414.705	532.75
414.928	550.75
415.151	551.75
415.374	543.75
415.597	555.75
415.821	539.75
416.044	538.75
416.267	522.75
416.49	535.75
416.713	534.75
416.936	538.75
417.159	511.75
417.382	540.75
417.605	549.75
417.828	553.75
418.051	564.75
418.274	546.75
418.497	533.75
418.72	521.75
418.943	527.75
419.166	575.75
419.389	590.75
419.611	611.75
419.834	597.75
420.057	588.75
420.28	573.75
420.503	559.75
420.726	536.75
420.948	555.75
421.171	558.75
421.394	596.75
421.617	561.75
421.839	542.75
422.062	578.75
422.285	562.75
422.507	584.75
422.73	611.75
422.953	623.75
423.175	591.75
423.398	566.75
423.621	573.75
423.843	577.75
424.066	571.75
424.288	572.75
424.511	588.75
424.733	623.75
424.956	612.75
425.178	618.75
425.401	615.75
425.623	646.75
425.846	586.75
426.068	533.75
426.291	546.75
426.513	532.75
426.735	542.75
426.958	565.75
427.18	596.75
427.402	679.75
427.625	712.75
427.847	629.75
428.069	584.75
428.292	555.75
428.514	538.75
428.736	525.75
428.958	523.75
429.181	511.75
429.403	490.75
429.625	503.75
429.847	532.75
430.069	566.75
430.292	530.75
430.514	503.75
430.736	500.75
430.958	491.75
431.18	498.75
431.402	491.75
431.624	487.75
431.846	510.75
432.068	498.75
432.29	475.75
432.512	510.75
432.734	515.75
432.956	504.75
433.178	514.75
433.4	496.75
433.622	490.75
433.844	508.75
434.066	508.75
434.287	517.75
434.509	517.75
434.731	527.75
434.953	526.75
435.175	533.75
435.397	556.75
435.618	560.75
435.84	565.75
436.062	596.75
436.284	613.75
436.505	565.75
436.727	536.75
436.949	514.75
437.17	488.75
437.392	507.75
437.614	502.75
437.835	526.75
438.057	572.75
438.278	596.75
438.5	598.75
438.721	678.75
438.943	643.75
439.165	519.75
439.386	512.75
439.608	526.75
439.829	541.75
440.05	523.75
440.272	561.75
440.493	540.75
440.715	533.75
440.936	538.75
441.158	531.75
441.379	545.75
441.6	548.75
441.822	579.75
442.043	583.75
442.264	614.75
442.486	605.75
442.707	572.75
442.928	563.75
443.149	539.75
443.371	599.75
443.592	596.75
443.813	652.75
444.034	672.75
444.255	623.75
444.476	591.75
444.698	618.75
444.919	608.75
445.14	686.75
445.361	610.75
445.582	597.75
445.803	600.75
446.024	627.75
446.245	626.75
446.466	588.75
446.687	559.75
446.908	539.75
447.129	499.75
447.35	507.75
447.571	491.75
447.792	467.75
448.013	465.75
448.234	497.75
448.455	510.75
448.675	592.75
448.896	636.75
449.117	553.75
449.338	534.75
449.559	607.75
449.779	632.75
450	541.75
450.221	498.75
450.442	486.75
450.662	465.75
450.883	449.75
451.104	488.75
451.324	459.75
451.545	461.75
451.766	471.75
451.986	475.75
452.207	463.75
452.428	451.75
452.648	462.75
452.869	440.75
453.089	438.75
453.31	452.75
453.53	444.75
453.751	422.75
453.971	437.75
454.192	441.75
454.412	478.75
454.633	428.75
454.853	419.75
455.073	431.75
455.294	452.75
455.514	483.75
455.734	450.75
455.955	446.75
456.175	422.75
456.395	422.75
456.616	405.75
456.836	431.75
457.056	416.75
457.276	421.75
457.497	411.75
457.717	425.75
457.937	436.75
458.157	413.75
458.377	424.75
458.598	462.75
458.818	466.75
459.038	505.75
459.258	527.75
459.478	507.75
459.698	504.75
459.918	509.75
460.138	502.75
460.358	529.75
460.578	525.75
460.798	523.75
461.018	540.75
461.238	532.75
461.458	523.75
461.678	511.75
461.898	519.75
462.118	540.75
462.338	535.75
462.558	565.75
462.777	579.75
462.997	612.75
463.217	650.75
463.437	646.75
463.657	609.75
463.876	577.75
464.096	598.75
464.316	589.75
464.536	613.75
464.755	574.75
464.975	583.75
465.195	563.75
465.414	582.75
465.634	508.75
465.854	490.75
466.073	476.75
466.293	484.75
466.512	488.75
466.732	453.75
466.951	453.75
467.171	461.75
467.391	463.75
467.61	446.75
467.829	478.75
468.049	469.75
468.268	470.75
468.488	458.75
468.707	452.75
468.927	460.75
469.146	437.75
469.365	455.75
469.585	459.75
469.804	482.75
470.023	486.75
470.243	475.75
470.462	504.75
470.681	492.75
470.901	498.75
471.12	481.75
471.339	475.75
471.558	477.75
471.777	487.75
471.997	453.75
472.216	459.75
472.435	487.75
472.654	460.75
472.873	444.75
473.092	452.75
473.311	444.75
473.53	456.75
473.749	458.75
473.968	463.75
474.187	536.75
474.406	524.75
474.625	465.75
474.844	465.75
475.063	462.75
475.282	459.75
475.501	450.75
475.72	455.75
475.939	418.75
476.158	475.75
476.377	472.75
476.596	469.75
476.814	497.75
477.033	463.75
477.252	483.75
477.471	504.75
477.69	518.75
477.908	512.75
478.127	530.75
478.346	508.75
478.564	536.75
478.783	539.75
479.002	544.75
479.22	549.75
479.439	543.75
479.658	522.75
479.876	556.75
480.095	542.75
480.313	590.75
480.532	587.75
480.751	579.75
480.969	574.75
481.188	604.75
481.406	609.75
481.624	542.75
481.843	556.75
482.061	516.75
482.28	540.75
482.498	488.75
482.717	519.75
482.935	536.75
483.153	516.75
483.372	509.75
483.59	536.75
483.808	530.75
484.027	521.75
484.245	517.75
484.463	505.75
484.681	523.75
484.9	548.75
485.118	527.75
485.336	534.75
485.554	542.75
485.772	585.75
485.99	538.75
486.209	536.75
486.427	542.75
486.645	550.75
486.863	570.75
487.081	547.75
487.299	563.75
487.517	565.75
487.735	540.75
487.953	572.75
488.171	568.75
488.389	560.75
488.607	529.75
488.825	540.75
489.043	582.75
489.261	573.75
489.479	561.75
489.696	583.75
489.914	581.75
490.132	564.75
490.35	586.75
490.568	581.75
490.786	570.75
491.003	591.75
491.221	595.75
491.439	595.75
491.657	603.75
491.874	599.75
492.092	590.75
492.31	613.75
492.527	620.75
492.745	624.75
492.963	622.75
493.18	634.75
493.398	619.75
493.615	630.75
493.833	627.75
494.05	650.75
494.268	623.75
494.485	638.75
494.703	632.75
494.92	628.75
495.138	631.75
495.355	615.75
495.573	627.75
495.79	611.75
496.008	619.75
496.225	621.75
496.442	629.75
496.66	650.75
496.877	631.75
497.094	647.75
497.312	650.75
497.529	661.75
497.746	672.75
497.963	684.75
498.181	697.75
498.398	724.75
498.615	731.75
498.832	758.75
499.049	811.75
499.267	870.75
499.484	911.75
499.701	952.75
499.918	1049.75
500.135	1138.75
500.352	1249.75
500.569	1268.75
500.786	1276.75
501.003	1238.75
501.22	1109.75
501.437	1019.75
501.654	1002.75
501.871	949.75
502.088	838.75
502.305	800.75
502.522	787.75
502.739	756.75
502.956	742.75
503.172	707.75
503.389	702.75
503.606	665.75
503.823	650.75
504.04	654.75
504.256	650.75
504.473	681.75
504.69	691.75
504.907	664.75
505.123	640.75
505.34	594.75
505.557	618.75
505.773	599.75
505.99	587.75
506.207	590.75
506.423	587.75
506.64	591.75
506.856	585.75
507.073	589.75
507.289	558.75
507.506	553.75
507.722	558.75
507.939	566.75
508.155	524.75
508.372	536.75
508.588	548.75
508.805	545.75
509.021	557.75
509.238	525.75
509.454	540.75
509.67	528.75
509.887	534.75
510.103	527.75
510.319	535.75
510.536	573.75
510.752	831.75
510.968	690.75
511.184	534.75
511.401	507.75
511.617	502.75
511.833	533.75
512.049	520.75
512.265	513.75
512.481	496.75
512.698	498.75
512.914	515.75
513.13	501.75
513.346	518.75
513.562	500.75
513.778	511.75
513.994	505.75
514.21	501.75
514.426	518.75
514.642	561.75
514.858	570.75
515.074	564.75
515.29	629.75
515.506	843.75
515.721	734.75
515.937	560.75
516.153	529.75
516.369	570.75
516.585	573.75
516.801	562.75
517.016	573.75
517.232	607.75
517.448	612.75
517.664	636.75
517.879	616.75
518.095	611.75
518.311	640.75
518.527	602.75
518.742	575.75
518.958	554.75
519.173	530.75
519.389	543.75
519.605	534.75
519.82	528.75
520.036	520.75
520.251	535.75
520.467	541.75
520.682	547.75
520.898	527.75
521.113	550.75
521.329	549.75
521.544	570.75
521.76	636.75
521.975	967.75
522.19	958.75
522.406	615.75
522.621	526.75
522.836	512.75
523.052	488.75
523.267	479.75
523.482	477.75
523.698	460.75
523.913	464.75
524.128	465.75
524.343	437.75
524.559	450.75
524.774	448.75
524.989	459.75
525.204	466.75
525.419	462.75
525.634	440.75
525.849	444.75
526.064	437.75
526.28	431.75
526.495	448.75
526.71	436.75
526.925	433.75
527.14	442.75
527.355	424.75
527.57	439.75
527.785	448.75
527.999	447.75
528.214	440.75
528.429	428.75
528.644	428.75
528.859	447.75
529.074	436.75
529.289	440.75
529.503	499.75
529.718	460.75
529.933	462.75
530.148	439.75
530.363	428.75
530.577	429.75
530.792	455.75
531.007	448.75
531.221	440.75
531.436	416.75
531.651	427.75
531.865	423.75
532.08	431.75
532.295	430.75
532.509	429.75
532.724	430.75
532.938	414.75
533.153	415.75
533.367	452.75
533.582	434.75
533.796	430.75
534.011	418.75
534.225	422.75
534.44	430.75
534.654	438.75
534.868	406.75
535.083	413.75
535.297	417.75
535.511	423.75
535.726	435.75
535.94	434.75
536.154	419.75
536.369	412.75
536.583	417.75
536.797	418.75
537.011	427.75
537.225	415.75
537.44	412.75
537.654	405.75
537.868	386.75
538.082	415.75
538.296	403.75
538.51	398.75
538.724	386.75
538.938	403.75
539.153	414.75
539.367	396.75
539.581	420.75
539.795	389.75
540.009	415.75
540.222	402.75
540.436	416.75
540.65	395.75
540.864	406.75
541.078	392.75
541.292	417.75
541.506	394.75
541.72	414.75
541.934	417.75
542.147	411.75
542.361	399.75
542.575	405.75
542.789	390.75
543.002	413.75
543.216	399.75
543.43	404.75
543.644	389.75
543.857	390.75
544.071	401.75
544.285	414.75
544.498	394.75
544.712	398.75
544.925	396.75
545.139	402.75
545.352	409.75
545.566	418.75
545.779	409.75
545.993	404.75
546.206	410.75
546.42	406.75
546.633	409.75
546.847	406.75
547.06	414.75
547.274	392.75
547.487	407.75
547.7	418.75
547.914	420.75
548.127	406.75
548.34	405.75
548.554	419.75
548.767	428.75
548.98	409.75
549.193	418.75
549.407	407.75
549.62	441.75
549.833	432.75
550.046	416.75
550.259	401.75
550.473	399.75
550.686	437.75
550.899	406.75
551.112	403.75
551.325	389.75
551.538	394.75
551.751	390.75
551.964	394.75
552.177	388.75
552.39	411.75
552.603	399.75
552.816	438.75
553.029	431.75
553.242	435.75
553.455	431.75
553.667	446.75
553.88	461.75
554.093	438.75
554.306	424.75
554.519	421.75
554.732	412.75
554.944	391.75
555.157	386.75
555.37	368.75
555.583	381.75
555.795	393.75
556.008	384.75
556.221	392.75
556.433	397.75
556.646	386.75
556.859	369.75
557.071	362.75
557.284	370.75
557.496	376.75
557.709	373.75
557.921	356.75
558.134	358.75
558.346	371.75
558.559	360.75
558.771	350.75
558.984	354.75
559.196	338.75
559.409	371.75
559.621	353.75
559.833	320.75
560.046	362.75
560.258	354.75
560.47	366.75
560.683	375.75
560.895	367.75
561.107	348.75
561.32	340.75
561.532	355.75
561.744	356.75
561.956	361.75
562.168	356.75
562.381	368.75
562.593	373.75
562.805	360.75
563.017	356.75
563.229	353.75
563.441	361.75
563.653	361.75
563.865	371.75
564.077	358.75
564.289	356.75
564.501	357.75
564.713	358.75
564.925	381.75
565.137	384.75
565.349	401.75
565.561	388.75
565.773	401.75
565.985	442.75
566.197	432.75
566.408	455.75
566.62	477.75
566.832	517.75
567.044	525.75
567.255	502.75
567.467	525.75
567.679	539.75
567.891	601.75
568.102	567.75
568.314	546.75
568.526	518.75
568.737	463.75
568.949	453.75
569.161	419.75
569.372	406.75
569.584	400.75
569.795	390.75
570.007	379.75
570.218	381.75
570.43	398.75
570.641	334.75
570.853	357.75
571.064	376.75
571.276	349.75
571.487	343.75
571.698	354.75
571.91	335.75
572.121	341.75
572.333	339.75
572.544	333.75
572.755	334.75
572.966	320.75
573.178	303.75
573.389	329.75
573.6	293.75
573.811	304.75
574.023	299.75
574.234	311.75
574.445	300.75
574.656	307.75
574.867	313.75
575.078	306.75
575.289	288.75
575.501	285.75
575.712	280.75
575.923	276.75
576.134	283.75
576.345	304.75
576.556	308.75
576.767	303.75
576.978	299.75
577.188	288.75
577.399	302.75
577.61	295.75
577.821	295.75
578.032	262.75
578.243	280.75
578.454	400.75
578.665	336.75
578.875	279.75
579.086	291.75
579.297	283.75
579.508	280.75
579.718	279.75
579.929	274.75
580.14	277.75
580.35	277.75
580.561	264.75
580.772	283.75
580.982	279.75
581.193	272.75
581.403	261.75
581.614	261.75
581.825	289.75
582.035	264.75
582.246	274.75
582.456	271.75
582.667	276.75
582.877	264.75
583.087	268.75
583.298	262.75
583.508	278.75
583.719	254.75
583.929	269.75
584.139	269.75
584.35	280.75
584.56	255.75
584.77	256.75
584.981	274.75
585.191	270.75
585.401	266.75
585.611	268.75
585.821	256.75
586.032	282.75
586.242	251.75
586.452	258.75
586.662	254.75
586.872	255.75
587.082	250.75
587.292	267.75
587.502	255.75
587.713	258.75
587.923	263.75
588.133	260.75
588.343	266.75
588.553	253.75
588.762	265.75
588.972	271.75
589.182	299.75
589.392	320.75
589.602	267.75
589.812	315.75
590.022	286.75
590.232	264.75
590.441	277.75
590.651	270.75
590.861	253.75
591.071	273.75
591.281	262.75
591.49	259.75
591.7	282.75
591.91	266.75
592.119	274.75
592.329	290.75
592.539	284.75
592.748	291.75
592.958	297.75
593.167	304.75
593.377	308.75
593.587	321.75
593.796	310.75
594.006	316.75
594.215	314.75
594.424	320.75
594.634	296.75
594.843	308.75
595.053	283.75
595.262	287.75
595.472	289.75
595.681	272.75
595.89	260.75
596.1	258.75
596.309	251.75
596.518	266.75
596.727	265.75
596.937	249.75
597.146	245.75
597.355	246.75
597.564	255.75
597.774	239.75
597.983	224.75
598.192	237.75
598.401	244.75
598.61	242.75
598.819	228.75
599.028	233.75
599.237	232.75
599.446	239.75
599.655	221.75
599.864	240.75
600.073	220.75
600.282	233.75
600.491	228.75
600.7	236.75
600.909	250.75
601.118	226.75
601.327	214.75
601.536	236.75
601.745	230.75
601.953	237.75
602.162	247.75
602.371	226.75
602.58	200.75
602.789	226.75
602.997	228.75
603.206	246.75
603.415	221.75
603.623	222.75
603.832	249.75
604.041	226.75
604.249	210.75
604.458	238.75
604.666	215.75
604.875	234.75
605.084	241.75
605.292	205.75
605.501	232.75
605.709	235.75
605.918	216.75
606.126	222.75
606.334	231.75
606.543	221.75
606.751	235.75
606.96	229.75
607.168	211.75
607.376	218.75
607.585	220.75
607.793	225.75
608.001	211.75
608.21	215.75
608.418	194.75
608.626	228.75
608.834	214.75
609.043	210.75
609.251	203.75
609.459	211.75
609.667	209.75
609.875	237.75
610.083	216.75
610.291	196.75
610.499	208.75
610.707	230.75
610.916	218.75
611.124	234.75
611.332	230.75
611.54	223.75
611.748	221.75
611.955	198.75
612.163	226.75
612.371	211.75
612.579	200.75
612.787	220.75
612.995	204.75
613.203	212.75
613.411	216.75
613.618	199.75
613.826	208.75
614.034	222.75
614.242	211.75
614.449	191.75
614.657	224.75
614.865	195.75
615.072	213.75
615.28	221.75
615.488	224.75
615.695	204.75
615.903	211.75
616.111	223.75
616.318	222.75
616.526	209.75
616.733	218.75
616.941	221.75
617.148	237.75
617.356	221.75
617.563	222.75
617.771	223.75
617.978	202.75
618.185	216.75
618.393	213.75
618.6	238.75
618.807	211.75
619.015	207.75
619.222	194.75
619.429	206.75
619.637	218.75
619.844	217.75
620.051	205.75
620.258	213.75
620.466	194.75
620.673	201.75
620.88	199.75
621.087	198.75
621.294	205.75
621.501	191.75
621.708	198.75
621.915	209.75
622.122	183.75
622.329	204.75
622.536	210.75
622.743	201.75
622.95	193.75
623.157	184.75
623.364	195.75
623.571	180.75
623.778	194.75
623.985	193.75
624.192	197.75
624.399	196.75
624.606	188.75
624.812	204.75
625.019	191.75
625.226	205.75
625.433	191.75
625.639	182.75
625.846	187.75
626.053	176.75
626.259	198.75
626.466	199.75
626.673	175.75
626.879	194.75
627.086	186.75
627.293	172.75
627.499	199.75
627.706	187.75
627.912	176.75
628.119	188.75
628.325	181.75
628.532	186.75
628.738	175.75
628.945	187.75
629.151	197.75
629.357	177.75
629.564	160.75
629.77	186.75
629.976	172.75
630.183	183.75
630.389	180.75
630.595	171.75
630.802	179.75
631.008	181.75
631.214	165.75
631.42	171.75
631.627	183.75
631.833	191.75
632.039	175.75
632.245	171.75
632.451	167.75
632.657	170.75
632.863	150.75
633.069	166.75
633.275	162.75
633.481	177.75
633.688	170.75
633.893	163.75
634.099	173.75
634.305	159.75
634.511	170.75
634.717	176.75
634.923	160.75
635.129	166.75
635.335	169.75
635.541	174.75
635.747	167.75
635.952	150.75
636.158	152.75
636.364	184.75
636.57	180.75
636.775	168.75
636.981	169.75
637.187	161.75
637.392	176.75
637.598	163.75
637.804	180.75
638.009	164.75
638.215	185.75
638.421	165.75
638.626	164.75
638.832	155.75
639.037	167.75
639.243	150.75
639.448	151.75
639.654	158.75
639.859	155.75
640.065	151.75
640.27	166.75
640.475	143.75
640.681	148.75
640.886	154.75
641.091	173.75
641.297	164.75
641.502	162.75
641.707	154.75
641.913	157.75
642.118	149.75
642.323	145.75
642.528	144.75
642.733	163.75
642.939	128.75
643.144	143.75
643.349	140.75
643.554	159.75
643.759	154.75
643.964	165.75
644.169	156.75
644.374	155.75
644.579	157.75
644.784	149.75
644.989	149.75
645.194	137.75
645.399	165.75
645.604	162.75
645.809	160.75
646.014	155.75
646.219	158.75
646.423	160.75
646.628	158.75
646.833	158.75
647.038	166.75
647.243	167.75
647.447	149.75
647.652	157.75
647.857	155.75
648.062	161.75
648.266	157.75
648.471	163.75
648.676	171.75
648.88	171.75
649.085	149.75
649.289	160.75
649.494	140.75
649.698	158.75
649.903	179.75
650.107	139.75
650.312	147.75
650.516	160.75
650.721	148.75
650.925	138.75
651.13	144.75
651.334	152.75
651.539	140.75
651.743	146.75
651.947	125.75
652.152	145.75
652.356	141.75
652.56	161.75
652.764	129.75
652.969	139.75
653.173	135.75
653.377	145.75
653.581	150.75
653.785	138.75
653.99	128.75
654.194	135.75
654.398	121.75
654.602	139.75
654.806	132.75
655.01	138.75
655.214	138.75
655.418	139.75
655.622	139.75
655.826	125.75
656.03	150.75
656.234	146.75
656.438	162.75
656.642	160.75
656.846	142.75
657.049	130.75
657.253	142.75
657.457	118.75
657.661	114.75
657.865	126.75
658.068	110.75
658.272	106.75
658.476	117.75
658.68	103.75
658.883	116.75
659.087	103.75
659.291	107.75
659.494	92.75
659.698	98.75
659.901	89.75
660.105	99.75
660.309	79.75
660.512	79.75
660.716	99.75
660.919	92.75
661.123	98.75
661.326	106.75
661.53	81.75
661.733	83.75
661.936	78.75
662.14	76.75
662.343	94.75
662.546	91.75
662.75	102.75
662.953	75.75
663.156	86.75
663.36	88.75
663.563	81.75
663.766	81.75
663.969	82.75
664.173	96.75
664.376	86.75
664.579	69.75
664.782	80.75
664.985	87.75
665.188	82.75
665.391	75.75
665.594	77.75
665.797	77.75
666	87.75
666.203	83.75
666.406	77.75
666.609	78.75
666.812	62.75
667.015	87.75
667.218	84.75
667.421	78.75
667.624	75.75
667.827	86.75
668.03	75.75
668.232	80.75
668.435	81.75
668.638	79.75
668.841	79.75
669.043	84.75
669.246	102.75
669.449	95.75
669.651	61.75
669.854	66.75
670.057	81.75
670.259	85.75
670.462	80.75
670.665	87.75
670.867	88.75
671.07	83.75
671.272	81.75
671.475	82.75
671.677	73.75
671.88	99.75
672.082	75.75
672.284	78.75
672.487	80.75
672.689	81.75
672.892	82.75
