Data from 1960PennyLincolnUp.LampE6.200Scan.07172019.P1_HRD10591_13-06-35-002.txt Node
Date: Thu Jul 18 13:06:35 EDT 2019
User: cochatt
Spectrometer: HR+D1059
Trigger mode: 1
Integration Time (sec): 1.000000E-1
Scans to average: 1
Electric dark correction enabled: true
Nonlinearity correction enabled: false
Boxcar width: 0
XAxis mode: Wavelengths
Number of Pixels in Spectrum: 2048
>>>>>Begin Spectral Data<<<<<
223.165	-3.19
223.4	-3.19
223.635	-3.19
223.869	-28.19
224.104	-18.19
224.338	-15.19
224.573	-10.19
224.808	-18.19
225.042	-6.19
225.277	6.81
225.511	-11.19
225.746	1.81
225.98	4.81
226.215	12.81
226.449	7.81
226.683	20.81
226.918	15.81
227.152	39.81
227.387	31.81
227.621	29.81
227.856	34.81
228.09	51.81
228.324	50.81
228.559	56.81
228.793	62.81
229.027	91.81
229.262	92.81
229.496	92.81
229.73	106.81
229.964	121.81
230.199	114.81
230.433	108.81
230.667	81.81
230.901	107.81
231.136	126.81
231.37	103.81
231.604	99.81
231.838	105.81
232.072	115.81
232.306	101.81
232.541	118.81
232.775	107.81
233.009	108.81
233.243	121.81
233.477	117.81
233.711	130.81
233.945	118.81
234.179	108.81
234.413	124.81
234.647	117.81
234.881	104.81
235.115	120.81
235.349	114.81
235.583	129.81
235.817	111.81
236.051	105.81
236.285	135.81
236.519	124.81
236.753	133.81
236.987	129.81
237.221	157.81
237.455	169.81
237.689	151.81
237.922	136.81
238.156	129.81
238.39	116.81
238.624	137.81
238.858	111.81
239.091	139.81
239.325	126.81
239.559	131.81
239.793	134.81
240.027	123.81
240.26	113.81
240.494	145.81
240.728	133.81
240.961	147.81
241.195	135.81
241.429	136.81
241.662	132.81
241.896	126.81
242.13	129.81
242.363	138.81
242.597	145.81
242.83	143.81
243.064	131.81
243.298	136.81
243.531	124.81
243.765	136.81
243.998	152.81
244.232	139.81
244.465	155.81
244.699	134.81
244.932	139.81
245.166	148.81
245.399	147.81
245.633	155.81
245.866	139.81
246.099	138.81
246.333	146.81
246.566	160.81
246.8	150.81
247.033	143.81
247.266	140.81
247.5	139.81
247.733	151.81
247.966	162.81
248.2	160.81
248.433	168.81
248.666	162.81
248.899	182.81
249.133	178.81
249.366	184.81
249.599	181.81
249.832	167.81
250.066	150.81
250.299	174.81
250.532	171.81
250.765	187.81
250.998	193.81
251.231	206.81
251.465	193.81
251.698	169.81
251.931	189.81
252.164	183.81
252.397	183.81
252.63	177.81
252.863	183.81
253.096	198.81
253.329	207.81
253.562	197.81
253.795	189.81
254.028	191.81
254.261	193.81
254.494	207.81
254.727	214.81
254.96	233.81
255.193	231.81
255.426	214.81
255.659	214.81
255.892	205.81
256.124	209.81
256.357	199.81
256.59	207.81
256.823	202.81
257.056	195.81
257.289	186.81
257.521	183.81
257.754	169.81
257.987	193.81
258.22	197.81
258.452	198.81
258.685	203.81
258.918	185.81
259.151	199.81
259.383	213.81
259.616	194.81
259.849	201.81
260.081	211.81
260.314	215.81
260.547	232.81
260.779	228.81
261.012	210.81
261.244	207.81
261.477	211.81
261.71	208.81
261.942	202.81
262.175	201.81
262.407	197.81
262.64	192.81
262.872	206.81
263.105	201.81
263.337	192.81
263.57	212.81
263.802	216.81
264.035	213.81
264.267	190.81
264.499	198.81
264.732	203.81
264.964	198.81
265.197	201.81
265.429	212.81
265.661	194.81
265.894	220.81
266.126	212.81
266.358	225.81
266.591	204.81
266.823	204.81
267.055	212.81
267.287	243.81
267.52	219.81
267.752	222.81
267.984	217.81
268.216	217.81
268.448	219.81
268.681	235.81
268.913	233.81
269.145	225.81
269.377	259.81
269.609	244.81
269.841	227.81
270.073	248.81
270.306	271.81
270.538	281.81
270.77	287.81
271.002	245.81
271.234	241.81
271.466	278.81
271.698	278.81
271.93	294.81
272.162	284.81
272.394	284.81
272.626	264.81
272.858	261.81
273.09	265.81
273.322	257.81
273.553	249.81
273.785	253.81
274.017	231.81
274.249	274.81
274.481	257.81
274.713	248.81
274.945	264.81
275.176	242.81
275.408	257.81
275.64	262.81
275.872	254.81
276.104	261.81
276.335	259.81
276.567	257.81
276.799	285.81
277.031	287.81
277.262	297.81
277.494	292.81
277.726	284.81
277.957	270.81
278.189	270.81
278.421	266.81
278.652	268.81
278.884	269.81
279.115	259.81
279.347	254.81
279.579	250.81
279.81	251.81
280.042	280.81
280.273	281.81
280.505	264.81
280.736	255.81
280.968	258.81
281.199	261.81
281.431	265.81
281.662	272.81
281.894	272.81
282.125	289.81
282.356	279.81
282.588	287.81
282.819	305.81
283.051	266.81
283.282	277.81
283.513	291.81
283.745	279.81
283.976	276.81
284.207	292.81
284.439	259.81
284.67	283.81
284.901	285.81
285.132	286.81
285.364	288.81
285.595	280.81
285.826	279.81
286.057	273.81
286.288	280.81
286.52	283.81
286.751	308.81
286.982	319.81
287.213	295.81
287.444	287.81
287.675	315.81
287.906	307.81
288.138	299.81
288.369	299.81
288.6	280.81
288.831	303.81
289.062	291.81
289.293	301.81
289.524	309.81
289.755	321.81
289.986	303.81
290.217	322.81
290.448	315.81
290.679	305.81
290.91	306.81
291.141	307.81
291.371	297.81
291.602	305.81
291.833	300.81
292.064	304.81
292.295	308.81
292.526	302.81
292.757	296.81
292.987	293.81
293.218	308.81
293.449	314.81
293.68	303.81
293.91	312.81
294.141	313.81
294.372	316.81
294.603	301.81
294.833	315.81
295.064	305.81
295.295	293.81
295.525	295.81
295.756	317.81
295.987	309.81
296.217	329.81
296.448	316.81
296.679	321.81
296.909	317.81
297.14	324.81
297.37	316.81
297.601	323.81
297.831	315.81
298.062	308.81
298.292	327.81
298.523	324.81
298.753	321.81
298.984	313.81
299.214	334.81
299.445	338.81
299.675	330.81
299.905	322.81
300.136	329.81
300.366	331.81
300.597	343.81
300.827	339.81
301.057	339.81
301.288	334.81
301.518	338.81
301.748	329.81
301.979	357.81
302.209	342.81
302.439	348.81
302.669	345.81
302.9	334.81
303.13	341.81
303.36	334.81
303.59	342.81
303.82	353.81
304.051	355.81
304.281	330.81
304.511	335.81
304.741	353.81
304.971	329.81
305.201	330.81
305.431	357.81
305.661	325.81
305.891	332.81
306.121	336.81
306.352	345.81
306.582	331.81
306.812	346.81
307.042	316.81
307.272	352.81
307.502	342.81
307.731	323.81
307.961	339.81
308.191	360.81
308.421	359.81
308.651	339.81
308.881	340.81
309.111	347.81
309.341	344.81
309.571	353.81
309.8	357.81
310.03	368.81
310.26	362.81
310.49	361.81
310.72	363.81
310.949	380.81
311.179	384.81
311.409	365.81
311.639	367.81
311.868	357.81
312.098	361.81
312.328	373.81
312.557	381.81
312.787	408.81
313.017	398.81
313.246	373.81
313.476	365.81
313.706	369.81
313.935	363.81
314.165	388.81
314.394	374.81
314.624	399.81
314.853	392.81
315.083	388.81
315.312	372.81
315.542	370.81
315.771	367.81
316.001	364.81
316.23	371.81
316.46	370.81
316.689	359.81
316.919	383.81
317.148	393.81
317.377	387.81
317.607	389.81
317.836	370.81
318.065	366.81
318.295	374.81
318.524	386.81
318.753	378.81
318.983	367.81
319.212	360.81
319.441	377.81
319.67	366.81
319.9	386.81
320.129	373.81
320.358	372.81
320.587	362.81
320.816	393.81
321.046	373.81
321.275	385.81
321.504	379.81
321.733	402.81
321.962	398.81
322.191	389.81
322.42	396.81
322.649	406.81
322.878	427.81
323.108	433.81
323.337	434.81
323.566	444.81
323.795	460.81
324.024	475.81
324.253	568.81
324.482	719.81
324.71	1029.81
324.939	1358.81
325.168	1161.81
325.397	648.81
325.626	511.81
325.855	466.81
326.084	449.81
326.313	441.81
326.542	450.81
326.77	458.81
326.999	532.81
327.228	669.81
327.457	921.81
327.686	1090.81
327.914	732.81
328.143	560.81
328.372	503.81
328.6	499.81
328.829	465.81
329.058	484.81
329.287	515.81
329.515	474.81
329.744	469.81
329.972	470.81
330.201	476.81
330.43	508.81
330.658	517.81
330.887	526.81
331.115	505.81
331.344	472.81
331.572	456.81
331.801	466.81
332.03	454.81
332.258	476.81
332.486	464.81
332.715	468.81
332.943	506.81
333.172	506.81
333.4	498.81
333.629	507.81
333.857	507.81
334.085	531.81
334.314	545.81
334.542	545.81
334.771	558.81
334.999	543.81
335.227	485.81
335.455	505.81
335.684	506.81
335.912	468.81
336.14	458.81
336.369	479.81
336.597	483.81
336.825	496.81
337.053	483.81
337.281	455.81
337.51	433.81
337.738	450.81
337.966	451.81
338.194	448.81
338.422	446.81
338.65	468.81
338.878	451.81
339.106	439.81
339.334	457.81
339.562	461.81
339.79	421.81
340.018	411.81
340.246	421.81
340.474	417.81
340.702	431.81
340.93	431.81
341.158	437.81
341.386	439.81
341.614	431.81
341.842	424.81
342.07	450.81
342.298	405.81
342.526	427.81
342.754	436.81
342.981	421.81
343.209	426.81
343.437	454.81
343.665	469.81
343.893	445.81
344.12	507.81
344.348	459.81
344.576	464.81
344.804	480.81
345.031	445.81
345.259	462.81
345.487	462.81
345.714	429.81
345.942	428.81
346.17	446.81
346.397	397.81
346.625	433.81
346.853	433.81
347.08	404.81
347.308	435.81
347.535	420.81
347.763	428.81
347.99	406.81
348.218	419.81
348.445	435.81
348.673	413.81
348.9	429.81
349.128	406.81
349.355	426.81
349.583	415.81
349.81	416.81
350.037	397.81
350.265	383.81
350.492	410.81
350.72	408.81
350.947	392.81
351.174	429.81
351.402	425.81
351.629	406.81
351.856	412.81
352.083	422.81
352.311	416.81
352.538	426.81
352.765	431.81
352.992	413.81
353.22	425.81
353.447	417.81
353.674	401.81
353.901	407.81
354.128	392.81
354.355	387.81
354.583	401.81
354.81	402.81
355.037	392.81
355.264	382.81
355.491	376.81
355.718	397.81
355.945	396.81
356.172	398.81
356.399	388.81
356.626	397.81
356.853	390.81
357.08	394.81
357.307	405.81
357.534	406.81
357.761	415.81
357.988	415.81
358.215	411.81
358.441	403.81
358.668	405.81
358.895	386.81
359.122	400.81
359.349	407.81
359.576	413.81
359.802	411.81
360.029	453.81
360.256	424.81
360.483	439.81
360.709	438.81
360.936	432.81
361.163	419.81
361.39	412.81
361.616	422.81
361.843	407.81
362.07	401.81
362.296	436.81
362.523	413.81
362.749	418.81
362.976	418.81
363.203	404.81
363.429	421.81
363.656	412.81
363.882	408.81
364.109	404.81
364.335	428.81
364.562	392.81
364.788	387.81
365.015	414.81
365.241	403.81
365.468	427.81
365.694	411.81
365.92	414.81
366.147	387.81
366.373	387.81
366.599	397.81
366.826	404.81
367.052	391.81
367.278	408.81
367.505	384.81
367.731	406.81
367.957	428.81
368.184	401.81
368.41	423.81
368.636	416.81
368.862	431.81
369.089	400.81
369.315	408.81
369.541	415.81
369.767	405.81
369.993	422.81
370.219	414.81
370.445	411.81
370.672	420.81
370.898	417.81
371.124	421.81
371.35	424.81
371.576	409.81
371.802	419.81
372.028	415.81
372.254	434.81
372.48	430.81
372.706	450.81
372.932	438.81
373.158	440.81
373.384	402.81
373.61	429.81
373.835	417.81
374.061	427.81
374.287	420.81
374.513	436.81
374.739	439.81
374.965	455.81
375.191	462.81
375.416	437.81
375.642	443.81
375.868	436.81
376.094	426.81
376.319	443.81
376.545	433.81
376.771	419.81
376.997	403.81
377.222	422.81
377.448	433.81
377.674	418.81
377.899	410.81
378.125	431.81
378.35	421.81
378.576	422.81
378.802	409.81
379.027	425.81
379.253	445.81
379.478	409.81
379.704	411.81
379.929	411.81
380.155	427.81
380.38	422.81
380.606	428.81
380.831	421.81
381.057	425.81
381.282	427.81
381.507	423.81
381.733	426.81
381.958	441.81
382.184	418.81
382.409	436.81
382.634	438.81
382.86	451.81
383.085	425.81
383.31	435.81
383.535	439.81
383.761	445.81
383.986	452.81
384.211	464.81
384.436	472.81
384.662	453.81
384.887	475.81
385.112	501.81
385.337	484.81
385.562	477.81
385.787	490.81
386.013	485.81
386.238	464.81
386.463	488.81
386.688	479.81
386.913	491.81
387.138	479.81
387.363	494.81
387.588	464.81
387.813	493.81
388.038	475.81
388.263	480.81
388.488	479.81
388.713	473.81
388.938	456.81
389.163	471.81
389.387	460.81
389.612	472.81
389.837	499.81
390.062	487.81
390.287	465.81
390.512	477.81
390.736	465.81
390.961	491.81
391.186	476.81
391.411	501.81
391.636	519.81
391.86	526.81
392.085	512.81
392.31	528.81
392.534	520.81
392.759	506.81
392.984	507.81
393.208	507.81
393.433	504.81
393.658	492.81
393.882	496.81
394.107	498.81
394.331	497.81
394.556	497.81
394.78	501.81
395.005	500.81
395.229	527.81
395.454	513.81
395.678	530.81
395.903	504.81
396.127	528.81
396.352	535.81
396.576	502.81
396.801	493.81
397.025	510.81
397.249	510.81
397.474	506.81
397.698	512.81
397.922	537.81
398.147	535.81
398.371	534.81
398.595	540.81
398.82	550.81
399.044	571.81
399.268	632.81
399.492	693.81
399.717	728.81
399.941	753.81
400.165	717.81
400.389	688.81
400.613	623.81
400.837	597.81
401.062	603.81
401.286	596.81
401.51	567.81
401.734	569.81
401.958	564.81
402.182	589.81
402.406	581.81
402.63	616.81
402.854	616.81
403.078	594.81
403.302	574.81
403.526	624.81
403.75	625.81
403.974	602.81
404.198	635.81
404.422	631.81
404.645	615.81
404.869	610.81
405.093	645.81
405.317	657.81
405.541	674.81
405.765	635.81
405.988	623.81
406.212	639.81
406.436	661.81
406.66	645.81
406.883	659.81
407.107	661.81
407.331	699.81
407.555	762.81
407.778	737.81
408.002	684.81
408.226	645.81
408.449	643.81
408.673	639.81
408.896	648.81
409.12	678.81
409.344	664.81
409.567	596.81
409.791	613.81
410.014	598.81
410.238	610.81
410.461	603.81
410.685	574.81
410.908	612.81
411.132	647.81
411.355	639.81
411.578	613.81
411.802	594.81
412.025	587.81
412.249	595.81
412.472	603.81
412.695	644.81
412.919	617.81
413.142	556.81
413.365	561.81
413.589	563.81
413.812	566.81
414.035	558.81
414.258	584.81
414.482	563.81
414.705	579.81
414.928	563.81
415.151	560.81
415.374	564.81
415.597	573.81
415.821	558.81
416.044	559.81
416.267	551.81
416.49	558.81
416.713	544.81
416.936	558.81
417.159	569.81
417.382	557.81
417.605	547.81
417.828	562.81
418.051	599.81
418.274	565.81
418.497	570.81
418.72	588.81
418.943	572.81
419.166	597.81
419.389	613.81
419.611	605.81
419.834	579.81
420.057	604.81
420.28	590.81
420.503	578.81
420.726	583.81
420.948	594.81
421.171	576.81
421.394	627.81
421.617	601.81
421.839	574.81
422.062	563.81
422.285	594.81
422.507	612.81
422.73	667.81
422.953	625.81
423.175	617.81
423.398	604.81
423.621	596.81
423.843	590.81
424.066	639.81
424.288	608.81
424.511	594.81
424.733	663.81
424.956	689.81
425.178	641.81
425.401	659.81
425.623	669.81
425.846	622.81
426.068	595.81
426.291	577.81
426.513	576.81
426.735	579.81
426.958	593.81
427.18	644.81
427.402	732.81
427.625	783.81
427.847	695.81
428.069	630.81
428.292	594.81
428.514	563.81
428.736	553.81
428.958	558.81
429.181	538.81
429.403	526.81
429.625	544.81
429.847	560.81
430.069	588.81
430.292	574.81
430.514	531.81
430.736	520.81
430.958	522.81
431.18	509.81
431.402	515.81
431.624	511.81
431.846	525.81
432.068	507.81
432.29	518.81
432.512	545.81
432.734	523.81
432.956	515.81
433.178	526.81
433.4	505.81
433.622	517.81
433.844	509.81
434.066	507.81
434.287	533.81
434.509	534.81
434.731	521.81
434.953	553.81
435.175	581.81
435.397	595.81
435.618	576.81
435.84	577.81
436.062	626.81
436.284	655.81
436.505	602.81
436.727	569.81
436.949	532.81
437.17	523.81
437.392	526.81
437.614	527.81
437.835	547.81
438.057	581.81
438.278	640.81
438.5	654.81
438.721	708.81
438.943	679.81
439.165	557.81
439.386	551.81
439.608	582.81
439.829	543.81
440.05	564.81
440.272	593.81
440.493	580.81
440.715	551.81
440.936	550.81
441.158	539.81
441.379	547.81
441.6	545.81
441.822	585.81
442.043	618.81
442.264	625.81
442.486	669.81
442.707	610.81
442.928	608.81
443.149	610.81
443.371	591.81
443.592	613.81
443.813	684.81
444.034	737.81
444.255	634.81
444.476	602.81
444.698	633.81
444.919	637.81
445.14	701.81
445.361	654.81
445.582	613.81
445.803	652.81
446.024	697.81
446.245	661.81
446.466	647.81
446.687	569.81
446.908	523.81
447.129	505.81
447.35	513.81
447.571	513.81
447.792	474.81
448.013	519.81
448.234	555.81
448.455	560.81
448.675	623.81
448.896	675.81
449.117	595.81
449.338	568.81
449.559	658.81
449.779	693.81
450	592.81
450.221	507.81
450.442	501.81
450.662	493.81
450.883	496.81
451.104	515.81
451.324	490.81
451.545	467.81
451.766	462.81
451.986	455.81
452.207	461.81
452.428	445.81
452.648	454.81
452.869	447.81
453.089	474.81
453.31	465.81
453.53	470.81
453.751	473.81
453.971	448.81
454.192	459.81
454.412	445.81
454.633	442.81
454.853	449.81
455.073	434.81
455.294	486.81
455.514	506.81
455.734	493.81
455.955	456.81
456.175	434.81
456.395	439.81
456.616	435.81
456.836	424.81
457.056	415.81
457.276	429.81
457.497	460.81
457.717	449.81
457.937	439.81
458.157	460.81
458.377	422.81
458.598	479.81
458.818	493.81
459.038	559.81
459.258	570.81
459.478	517.81
459.698	496.81
459.918	496.81
460.138	523.81
460.358	539.81
460.578	533.81
460.798	539.81
461.018	556.81
461.238	551.81
461.458	550.81
461.678	532.81
461.898	555.81
462.118	551.81
462.338	564.81
462.558	592.81
462.777	588.81
462.997	629.81
463.217	675.81
463.437	660.81
463.657	639.81
463.876	609.81
464.096	588.81
464.316	573.81
464.536	593.81
464.755	621.81
464.975	595.81
465.195	570.81
465.414	630.81
465.634	577.81
465.854	532.81
466.073	510.81
466.293	497.81
466.512	514.81
466.732	477.81
466.951	488.81
467.171	480.81
467.391	477.81
467.61	484.81
467.829	499.81
468.049	475.81
468.268	474.81
468.488	479.81
468.707	455.81
468.927	456.81
469.146	458.81
469.365	459.81
469.585	467.81
469.804	459.81
470.023	487.81
470.243	498.81
470.462	504.81
470.681	505.81
470.901	492.81
471.12	495.81
471.339	499.81
471.558	459.81
471.777	461.81
471.997	473.81
472.216	476.81
472.435	512.81
472.654	477.81
472.873	471.81
473.092	463.81
473.311	458.81
473.53	462.81
473.749	469.81
473.968	473.81
474.187	559.81
474.406	538.81
474.625	506.81
474.844	453.81
475.063	464.81
475.282	463.81
475.501	487.81
475.72	473.81
475.939	472.81
476.158	480.81
476.377	473.81
476.596	460.81
476.814	473.81
477.033	499.81
477.252	497.81
477.471	510.81
477.69	513.81
477.908	531.81
478.127	533.81
478.346	526.81
478.564	544.81
478.783	540.81
479.002	559.81
479.22	563.81
479.439	569.81
479.658	565.81
479.876	569.81
480.095	566.81
480.313	598.81
480.532	608.81
480.751	589.81
480.969	592.81
481.188	649.81
481.406	635.81
481.624	559.81
481.843	566.81
482.061	529.81
482.28	540.81
482.498	531.81
482.717	513.81
482.935	524.81
483.153	523.81
483.372	543.81
483.59	512.81
483.808	551.81
484.027	532.81
484.245	543.81
484.463	551.81
484.681	565.81
484.9	568.81
485.118	577.81
485.336	522.81
485.554	561.81
485.772	583.81
485.99	563.81
486.209	555.81
486.427	585.81
486.645	588.81
486.863	568.81
487.081	583.81
487.299	578.81
487.517	568.81
487.735	571.81
487.953	577.81
488.171	567.81
488.389	572.81
488.607	552.81
488.825	573.81
489.043	575.81
489.261	570.81
489.479	588.81
489.696	599.81
489.914	591.81
490.132	582.81
490.35	586.81
490.568	568.81
490.786	612.81
491.003	627.81
491.221	616.81
491.439	644.81
491.657	655.81
491.874	630.81
492.092	643.81
492.31	652.81
492.527	662.81
492.745	632.81
492.963	655.81
493.18	657.81
493.398	655.81
493.615	674.81
493.833	645.81
494.05	645.81
494.268	681.81
494.485	673.81
494.703	640.81
494.92	651.81
495.138	643.81
495.355	662.81
495.573	651.81
495.79	668.81
496.008	672.81
496.225	663.81
496.442	635.81
496.66	687.81
496.877	688.81
497.094	653.81
497.312	673.81
497.529	700.81
497.746	707.81
497.963	710.81
498.181	747.81
498.398	761.81
498.615	773.81
498.832	799.81
499.049	855.81
499.267	893.81
499.484	937.81
499.701	992.81
499.918	1045.81
500.135	1150.81
500.352	1270.81
500.569	1287.81
500.786	1331.81
501.003	1226.81
501.22	1159.81
501.437	1069.81
501.654	1019.81
501.871	927.81
502.088	911.81
502.305	871.81
502.522	820.81
502.739	775.81
502.956	778.81
503.172	760.81
503.389	716.81
503.606	705.81
503.823	726.81
504.04	690.81
504.256	692.81
504.473	709.81
504.69	701.81
504.907	700.81
505.123	695.81
505.34	638.81
505.557	639.81
505.773	660.81
505.99	617.81
506.207	596.81
506.423	619.81
506.64	619.81
506.856	578.81
507.073	587.81
507.289	625.81
507.506	589.81
507.722	593.81
507.939	586.81
508.155	587.81
508.372	573.81
508.588	579.81
508.805	584.81
509.021	555.81
509.238	568.81
509.454	575.81
509.67	577.81
509.887	557.81
510.103	565.81
510.319	553.81
510.536	603.81
510.752	900.81
510.968	749.81
511.184	573.81
511.401	540.81
511.617	557.81
511.833	526.81
512.049	536.81
512.265	540.81
512.481	517.81
512.698	519.81
512.914	541.81
513.13	525.81
513.346	543.81
513.562	549.81
513.778	535.81
513.994	549.81
514.21	536.81
514.426	559.81
514.642	578.81
514.858	577.81
515.074	601.81
515.29	681.81
515.506	939.81
515.721	833.81
515.937	630.81
516.153	573.81
516.369	574.81
516.585	569.81
516.801	603.81
517.016	631.81
517.232	618.81
517.448	628.81
517.664	657.81
517.879	644.81
518.095	642.81
518.311	630.81
518.527	629.81
518.742	587.81
518.958	588.81
519.173	591.81
519.389	558.81
519.605	575.81
519.82	541.81
520.036	580.81
520.251	537.81
520.467	579.81
520.682	559.81
520.898	554.81
521.113	550.81
521.329	575.81
521.544	607.81
521.76	724.81
521.975	1139.81
522.19	1176.81
522.406	696.81
522.621	575.81
522.836	537.81
523.052	499.81
523.267	490.81
523.482	491.81
523.698	481.81
523.913	507.81
524.128	492.81
524.343	490.81
524.559	471.81
524.774	461.81
524.989	463.81
525.204	473.81
525.419	460.81
525.634	469.81
525.849	483.81
526.064	460.81
526.28	473.81
526.495	444.81
526.71	457.81
526.925	452.81
527.14	448.81
527.355	464.81
527.57	443.81
527.785	443.81
527.999	454.81
528.214	454.81
528.429	462.81
528.644	452.81
528.859	456.81
529.074	450.81
529.289	466.81
529.503	507.81
529.718	497.81
529.933	462.81
530.148	466.81
530.363	471.81
530.577	436.81
530.792	443.81
531.007	444.81
531.221	442.81
531.436	457.81
531.651	445.81
531.865	465.81
532.08	455.81
532.295	422.81
532.509	454.81
532.724	466.81
532.938	449.81
533.153	447.81
533.367	445.81
533.582	471.81
533.796	452.81
534.011	446.81
534.225	441.81
534.44	446.81
534.654	431.81
534.868	444.81
535.083	433.81
535.297	450.81
535.511	435.81
535.726	445.81
535.94	424.81
536.154	419.81
536.369	411.81
536.583	411.81
536.797	406.81
537.011	418.81
537.225	421.81
537.44	407.81
537.654	445.81
537.868	433.81
538.082	433.81
538.296	430.81
538.51	432.81
538.724	435.81
538.938	447.81
539.153	447.81
539.367	435.81
539.581	432.81
539.795	414.81
540.009	423.81
540.222	413.81
540.436	410.81
540.65	417.81
540.864	427.81
541.078	429.81
541.292	423.81
541.506	425.81
541.72	411.81
541.934	429.81
542.147	420.81
542.361	410.81
542.575	417.81
542.789	417.81
543.002	405.81
543.216	399.81
543.43	407.81
543.644	432.81
543.857	406.81
544.071	416.81
544.285	417.81
544.498	418.81
544.712	424.81
544.925	400.81
545.139	433.81
545.352	439.81
545.566	394.81
545.779	427.81
545.993	410.81
546.206	429.81
546.42	423.81
546.633	426.81
546.847	433.81
547.06	433.81
547.274	423.81
547.487	389.81
547.7	410.81
547.914	419.81
548.127	399.81
548.34	421.81
548.554	403.81
548.767	436.81
548.98	440.81
549.193	415.81
549.407	406.81
549.62	411.81
549.833	423.81
550.046	442.81
550.259	428.81
550.473	420.81
550.686	416.81
550.899	432.81
551.112	404.81
551.325	408.81
551.538	419.81
551.751	419.81
551.964	387.81
552.177	405.81
552.39	410.81
552.603	438.81
552.816	439.81
553.029	453.81
553.242	468.81
553.455	453.81
553.667	469.81
553.88	449.81
554.093	451.81
554.306	463.81
554.519	412.81
554.732	398.81
554.944	416.81
555.157	421.81
555.37	411.81
555.583	413.81
555.795	418.81
556.008	408.81
556.221	392.81
556.433	380.81
556.646	376.81
556.859	383.81
557.071	387.81
557.284	385.81
557.496	384.81
557.709	374.81
557.921	357.81
558.134	371.81
558.346	375.81
558.559	370.81
558.771	355.81
558.984	358.81
559.196	370.81
559.409	352.81
559.621	373.81
559.833	353.81
560.046	340.81
560.258	337.81
560.47	341.81
560.683	356.81
560.895	363.81
561.107	358.81
561.32	365.81
561.532	374.81
561.744	376.81
561.956	371.81
562.168	365.81
562.381	380.81
562.593	353.81
562.805	367.81
563.017	376.81
563.229	365.81
563.441	373.81
563.653	368.81
563.865	372.81
564.077	363.81
564.289	369.81
564.501	376.81
564.713	371.81
564.925	372.81
565.137	395.81
565.349	413.81
565.561	411.81
565.773	436.81
565.985	424.81
566.197	442.81
566.408	454.81
566.62	475.81
566.832	494.81
567.044	527.81
567.255	527.81
567.467	544.81
567.679	551.81
567.891	571.81
568.102	582.81
568.314	561.81
568.526	533.81
568.737	524.81
568.949	460.81
569.161	446.81
569.372	410.81
569.584	393.81
569.795	379.81
570.007	398.81
570.218	392.81
570.43	390.81
570.641	383.81
570.853	372.81
571.064	360.81
571.276	352.81
571.487	382.81
571.698	352.81
571.91	324.81
572.121	319.81
572.333	343.81
572.544	317.81
572.755	327.81
572.966	319.81
573.178	316.81
573.389	315.81
573.6	326.81
573.811	304.81
574.023	312.81
574.234	304.81
574.445	315.81
574.656	328.81
574.867	312.81
575.078	299.81
575.289	308.81
575.501	313.81
575.712	307.81
575.923	292.81
576.134	291.81
576.345	312.81
576.556	297.81
576.767	307.81
576.978	305.81
577.188	296.81
577.399	303.81
577.61	296.81
577.821	294.81
578.032	312.81
578.243	315.81
578.454	450.81
578.665	335.81
578.875	293.81
579.086	286.81
579.297	292.81
579.508	279.81
579.718	290.81
579.929	279.81
580.14	280.81
580.35	276.81
580.561	287.81
580.772	268.81
580.982	260.81
581.193	285.81
581.403	289.81
581.614	265.81
581.825	277.81
582.035	281.81
582.246	272.81
582.456	272.81
582.667	278.81
582.877	264.81
583.087	261.81
583.298	264.81
583.508	279.81
583.719	278.81
583.929	272.81
584.139	281.81
584.35	282.81
584.56	257.81
584.77	279.81
584.981	279.81
585.191	275.81
585.401	277.81
585.611	263.81
585.821	269.81
586.032	273.81
586.242	267.81
586.452	277.81
586.662	256.81
586.872	270.81
587.082	244.81
587.292	263.81
587.502	271.81
587.713	274.81
587.923	264.81
588.133	260.81
588.343	265.81
588.553	257.81
588.762	263.81
588.972	265.81
589.182	285.81
589.392	279.81
589.602	271.81
589.812	287.81
590.022	263.81
590.232	251.81
590.441	261.81
590.651	264.81
590.861	247.81
591.071	268.81
591.281	272.81
591.49	282.81
591.7	278.81
591.91	291.81
592.119	285.81
592.329	278.81
592.539	307.81
592.748	302.81
592.958	301.81
593.167	302.81
593.377	295.81
593.587	319.81
593.796	288.81
594.006	307.81
594.215	309.81
594.424	311.81
594.634	322.81
594.843	302.81
595.053	289.81
595.262	308.81
595.472	295.81
595.681	271.81
595.89	257.81
596.1	260.81
596.309	260.81
596.518	243.81
596.727	261.81
596.937	247.81
597.146	251.81
597.355	246.81
597.564	249.81
597.774	263.81
597.983	241.81
598.192	251.81
598.401	245.81
598.61	248.81
598.819	252.81
599.028	239.81
599.237	248.81
599.446	243.81
599.655	244.81
599.864	241.81
600.073	245.81
600.282	220.81
600.491	233.81
600.7	228.81
600.909	231.81
601.118	245.81
601.327	219.81
601.536	239.81
601.745	229.81
601.953	222.81
602.162	230.81
602.371	226.81
602.58	243.81
602.789	227.81
602.997	234.81
603.206	223.81
603.415	218.81
603.623	212.81
603.832	230.81
604.041	243.81
604.249	227.81
604.458	225.81
604.666	215.81
604.875	216.81
605.084	219.81
605.292	219.81
605.501	240.81
605.709	235.81
605.918	216.81
606.126	221.81
606.334	228.81
606.543	206.81
606.751	226.81
606.96	215.81
607.168	228.81
607.376	216.81
607.585	235.81
607.793	228.81
608.001	224.81
608.21	211.81
608.418	217.81
608.626	216.81
608.834	229.81
609.043	207.81
609.251	217.81
609.459	223.81
609.667	209.81
609.875	226.81
610.083	235.81
610.291	228.81
610.499	210.81
610.707	212.81
610.916	227.81
611.124	217.81
611.332	226.81
611.54	223.81
611.748	221.81
611.955	227.81
612.163	234.81
612.371	225.81
612.579	201.81
612.787	214.81
612.995	224.81
613.203	235.81
613.411	204.81
613.618	197.81
613.826	223.81
614.034	226.81
614.242	205.81
614.449	217.81
614.657	202.81
614.865	221.81
615.072	201.81
615.28	225.81
615.488	234.81
615.695	220.81
615.903	206.81
616.111	215.81
616.318	237.81
616.526	227.81
616.733	224.81
616.941	212.81
617.148	227.81
617.356	245.81
617.563	224.81
617.771	209.81
617.978	223.81
618.185	233.81
618.393	228.81
618.6	230.81
618.807	205.81
619.015	210.81
619.222	213.81
619.429	204.81
619.637	209.81
619.844	193.81
620.051	201.81
620.258	209.81
620.466	215.81
620.673	212.81
620.88	194.81
621.087	193.81
621.294	195.81
621.501	223.81
621.708	202.81
621.915	207.81
622.122	212.81
622.329	212.81
622.536	203.81
622.743	209.81
622.95	197.81
623.157	202.81
623.364	204.81
623.571	191.81
623.778	209.81
623.985	200.81
624.192	211.81
624.399	202.81
624.606	189.81
624.812	195.81
625.019	203.81
625.226	190.81
625.433	187.81
625.639	191.81
625.846	186.81
626.053	203.81
626.259	201.81
626.466	199.81
626.673	204.81
626.879	191.81
627.086	186.81
627.293	181.81
627.499	191.81
627.706	167.81
627.912	177.81
628.119	196.81
628.325	187.81
628.532	204.81
628.738	188.81
628.945	189.81
629.151	193.81
629.357	177.81
629.564	192.81
629.77	188.81
629.976	196.81
630.183	186.81
630.389	177.81
630.595	175.81
630.802	175.81
631.008	185.81
631.214	186.81
631.42	169.81
631.627	175.81
631.833	184.81
632.039	180.81
632.245	186.81
632.451	189.81
632.657	163.81
632.863	170.81
633.069	157.81
633.275	175.81
633.481	181.81
633.688	183.81
633.893	173.81
634.099	188.81
634.305	186.81
634.511	169.81
634.717	182.81
634.923	174.81
635.129	182.81
635.335	167.81
635.541	167.81
635.747	165.81
635.952	163.81
636.158	179.81
636.364	191.81
636.57	187.81
636.775	162.81
636.981	187.81
637.187	173.81
637.392	165.81
637.598	160.81
637.804	157.81
638.009	181.81
638.215	171.81
638.421	170.81
638.626	159.81
638.832	165.81
639.037	160.81
639.243	155.81
639.448	161.81
639.654	165.81
639.859	176.81
640.065	154.81
640.27	150.81
640.475	156.81
640.681	156.81
640.886	158.81
641.091	178.81
641.297	164.81
641.502	156.81
641.707	163.81
641.913	159.81
642.118	154.81
642.323	151.81
642.528	161.81
642.733	152.81
642.939	143.81
643.144	149.81
643.349	169.81
643.554	159.81
643.759	161.81
643.964	162.81
644.169	148.81
644.374	159.81
644.579	160.81
644.784	160.81
644.989	146.81
645.194	164.81
645.399	161.81
645.604	166.81
645.809	176.81
646.014	153.81
646.219	156.81
646.423	166.81
646.628	152.81
646.833	171.81
647.038	150.81
647.243	165.81
647.447	150.81
647.652	166.81
647.857	163.81
648.062	159.81
648.266	150.81
648.471	152.81
648.676	172.81
648.88	161.81
649.085	158.81
649.289	165.81
649.494	174.81
649.698	180.81
649.903	163.81
650.107	166.81
650.312	133.81
650.516	163.81
650.721	157.81
650.925	116.81
651.13	146.81
651.334	141.81
651.539	149.81
651.743	149.81
651.947	154.81
652.152	143.81
652.356	137.81
652.56	148.81
652.764	132.81
652.969	131.81
653.173	132.81
653.377	132.81
653.581	120.81
653.785	147.81
653.99	135.81
654.194	133.81
654.398	141.81
654.602	139.81
654.806	137.81
655.01	133.81
655.214	131.81
655.418	136.81
655.622	135.81
655.826	126.81
656.03	145.81
656.234	146.81
656.438	138.81
656.642	147.81
656.846	125.81
657.049	127.81
657.253	131.81
657.457	112.81
657.661	117.81
657.865	117.81
658.068	122.81
658.272	107.81
658.476	107.81
658.68	105.81
658.883	104.81
659.087	104.81
659.291	97.81
659.494	110.81
659.698	92.81
659.901	100.81
660.105	98.81
660.309	94.81
660.512	89.81
660.716	94.81
660.919	90.81
661.123	99.81
661.326	99.81
661.53	92.81
661.733	104.81
661.936	99.81
662.14	85.81
662.343	103.81
662.546	67.81
662.75	73.81
662.953	82.81
663.156	82.81
663.36	92.81
663.563	94.81
663.766	74.81
663.969	78.81
664.173	90.81
664.376	83.81
664.579	84.81
664.782	86.81
664.985	87.81
665.188	81.81
665.391	85.81
665.594	86.81
665.797	76.81
666	84.81
666.203	87.81
666.406	75.81
666.609	90.81
666.812	85.81
667.015	93.81
667.218	72.81
667.421	81.81
667.624	82.81
667.827	81.81
668.03	95.81
668.232	80.81
668.435	83.81
668.638	72.81
668.841	81.81
669.043	84.81
669.246	72.81
669.449	93.81
669.651	92.81
669.854	84.81
670.057	99.81
670.259	82.81
670.462	81.81
670.665	86.81
670.867	76.81
671.07	91.81
671.272	96.81
671.475	82.81
671.677	95.81
671.88	81.81
672.082	84.81
672.284	79.81
672.487	84.81
672.689	73.81
672.892	85.81
