Data from 1960PennyLincolnUp.LampE6.200Scan.07172019.P1_HRD10591_13-05-49-001.txt Node
Date: Thu Jul 18 13:05:49 EDT 2019
User: cochatt
Spectrometer: HR+D1059
Trigger mode: 1
Integration Time (sec): 1.000000E-1
Scans to average: 1
Electric dark correction enabled: true
Nonlinearity correction enabled: false
Boxcar width: 0
XAxis mode: Wavelengths
Number of Pixels in Spectrum: 2048
>>>>>Begin Spectral Data<<<<<
223.165	-3.31
223.4	-3.31
223.635	-3.31
223.869	-19.31
224.104	-30.31
224.338	-23.31
224.573	-15.31
224.808	-21.31
225.042	3.69
225.277	11.69
225.511	-6.31
225.746	4.69
225.98	11.69
226.215	19.69
226.449	13.69
226.683	19.69
226.918	13.69
227.152	20.69
227.387	39.69
227.621	38.69
227.856	47.69
228.09	44.69
228.324	62.69
228.559	57.69
228.793	59.69
229.027	92.69
229.262	99.69
229.496	110.69
229.73	115.69
229.964	138.69
230.199	104.69
230.433	107.69
230.667	111.69
230.901	122.69
231.136	110.69
231.37	107.69
231.604	110.69
231.838	119.69
232.072	116.69
232.306	113.69
232.541	110.69
232.775	121.69
233.009	113.69
233.243	113.69
233.477	107.69
233.711	109.69
233.945	105.69
234.179	127.69
234.413	110.69
234.647	110.69
234.881	108.69
235.115	114.69
235.349	111.69
235.583	117.69
235.817	108.69
236.051	125.69
236.285	122.69
236.519	119.69
236.753	122.69
236.987	132.69
237.221	163.69
237.455	165.69
237.689	140.69
237.922	133.69
238.156	119.69
238.39	110.69
238.624	118.69
238.858	107.69
239.091	118.69
239.325	110.69
239.559	124.69
239.793	134.69
240.027	115.69
240.26	126.69
240.494	138.69
240.728	135.69
240.961	143.69
241.195	143.69
241.429	137.69
241.662	135.69
241.896	113.69
242.13	134.69
242.363	129.69
242.597	124.69
242.83	130.69
243.064	140.69
243.298	120.69
243.531	153.69
243.765	153.69
243.998	152.69
244.232	137.69
244.465	142.69
244.699	137.69
244.932	151.69
245.166	155.69
245.399	147.69
245.633	142.69
245.866	151.69
246.099	127.69
246.333	150.69
246.566	131.69
246.8	162.69
247.033	160.69
247.266	174.69
247.5	166.69
247.733	172.69
247.966	160.69
248.2	166.69
248.433	165.69
248.666	173.69
248.899	177.69
249.133	186.69
249.366	190.69
249.599	197.69
249.832	171.69
250.066	182.69
250.299	174.69
250.532	176.69
250.765	185.69
250.998	204.69
251.231	194.69
251.465	181.69
251.698	192.69
251.931	201.69
252.164	183.69
252.397	178.69
252.63	179.69
252.863	176.69
253.096	195.69
253.329	210.69
253.562	204.69
253.795	195.69
254.028	188.69
254.261	198.69
254.494	184.69
254.727	206.69
254.96	234.69
255.193	210.69
255.426	208.69
255.659	198.69
255.892	207.69
256.124	206.69
256.357	229.69
256.59	202.69
256.823	208.69
257.056	191.69
257.289	180.69
257.521	199.69
257.754	202.69
257.987	186.69
258.22	197.69
258.452	206.69
258.685	199.69
258.918	206.69
259.151	204.69
259.383	205.69
259.616	194.69
259.849	196.69
260.081	212.69
260.314	220.69
260.547	231.69
260.779	224.69
261.012	208.69
261.244	215.69
261.477	206.69
261.71	198.69
261.942	211.69
262.175	227.69
262.407	215.69
262.64	202.69
262.872	197.69
263.105	210.69
263.337	216.69
263.57	204.69
263.802	216.69
264.035	196.69
264.267	203.69
264.499	200.69
264.732	208.69
264.964	202.69
265.197	210.69
265.429	207.69
265.661	226.69
265.894	202.69
266.126	210.69
266.358	238.69
266.591	217.69
266.823	243.69
267.055	215.69
267.287	206.69
267.52	208.69
267.752	227.69
267.984	235.69
268.216	226.69
268.448	228.69
268.681	235.69
268.913	234.69
269.145	251.69
269.377	263.69
269.609	246.69
269.841	242.69
270.073	238.69
270.306	265.69
270.538	273.69
270.77	262.69
271.002	278.69
271.234	246.69
271.466	279.69
271.698	272.69
271.93	276.69
272.162	281.69
272.394	288.69
272.626	268.69
272.858	261.69
273.09	256.69
273.322	252.69
273.553	263.69
273.785	252.69
274.017	252.69
274.249	257.69
274.481	248.69
274.713	260.69
274.945	249.69
275.176	265.69
275.408	250.69
275.64	242.69
275.872	256.69
276.104	264.69
276.335	261.69
276.567	263.69
276.799	270.69
277.031	268.69
277.262	297.69
277.494	303.69
277.726	280.69
277.957	268.69
278.189	283.69
278.421	242.69
278.652	260.69
278.884	243.69
279.115	244.69
279.347	270.69
279.579	253.69
279.81	256.69
280.042	242.69
280.273	282.69
280.505	296.69
280.736	264.69
280.968	274.69
281.199	271.69
281.431	259.69
281.662	288.69
281.894	267.69
282.125	283.69
282.356	273.69
282.588	295.69
282.819	300.69
283.051	266.69
283.282	271.69
283.513	277.69
283.745	274.69
283.976	297.69
284.207	297.69
284.439	289.69
284.67	284.69
284.901	290.69
285.132	294.69
285.364	296.69
285.595	296.69
285.826	302.69
286.057	287.69
286.288	269.69
286.52	277.69
286.751	279.69
286.982	297.69
287.213	305.69
287.444	298.69
287.675	313.69
287.906	292.69
288.138	296.69
288.369	308.69
288.6	310.69
288.831	328.69
289.062	306.69
289.293	314.69
289.524	309.69
289.755	305.69
289.986	303.69
290.217	281.69
290.448	306.69
290.679	299.69
290.91	281.69
291.141	312.69
291.371	298.69
291.602	308.69
291.833	314.69
292.064	304.69
292.295	302.69
292.526	293.69
292.757	292.69
292.987	297.69
293.218	313.69
293.449	312.69
293.68	307.69
293.91	316.69
294.141	288.69
294.372	295.69
294.603	312.69
294.833	306.69
295.064	292.69
295.295	307.69
295.525	313.69
295.756	318.69
295.987	320.69
296.217	351.69
296.448	324.69
296.679	346.69
296.909	324.69
297.14	319.69
297.37	338.69
297.601	336.69
297.831	326.69
298.062	336.69
298.292	327.69
298.523	327.69
298.753	335.69
298.984	322.69
299.214	334.69
299.445	337.69
299.675	338.69
299.905	321.69
300.136	334.69
300.366	337.69
300.597	324.69
300.827	348.69
301.057	331.69
301.288	344.69
301.518	346.69
301.748	343.69
301.979	335.69
302.209	330.69
302.439	356.69
302.669	345.69
302.9	356.69
303.13	343.69
303.36	347.69
303.59	362.69
303.82	343.69
304.051	335.69
304.281	330.69
304.511	331.69
304.741	346.69
304.971	345.69
305.201	360.69
305.431	339.69
305.661	357.69
305.891	332.69
306.121	331.69
306.352	355.69
306.582	318.69
306.812	337.69
307.042	350.69
307.272	338.69
307.502	337.69
307.731	351.69
307.961	350.69
308.191	337.69
308.421	331.69
308.651	368.69
308.881	372.69
309.111	348.69
309.341	356.69
309.571	341.69
309.8	356.69
310.03	368.69
310.26	363.69
310.49	380.69
310.72	369.69
310.949	388.69
311.179	371.69
311.409	375.69
311.639	376.69
311.868	377.69
312.098	374.69
312.328	402.69
312.557	378.69
312.787	386.69
313.017	394.69
313.246	375.69
313.476	377.69
313.706	380.69
313.935	387.69
314.165	398.69
314.394	413.69
314.624	395.69
314.853	403.69
315.083	364.69
315.312	377.69
315.542	386.69
315.771	392.69
316.001	375.69
316.23	394.69
316.46	364.69
316.689	410.69
316.919	395.69
317.148	381.69
317.377	395.69
317.607	377.69
317.836	371.69
318.065	391.69
318.295	386.69
318.524	374.69
318.753	380.69
318.983	394.69
319.212	396.69
319.441	393.69
319.67	378.69
319.9	369.69
320.129	369.69
320.358	380.69
320.587	396.69
320.816	382.69
321.046	387.69
321.275	388.69
321.504	384.69
321.733	383.69
321.962	392.69
322.191	420.69
322.42	405.69
322.649	411.69
322.878	400.69
323.108	405.69
323.337	429.69
323.566	446.69
323.795	451.69
324.024	465.69
324.253	535.69
324.482	739.69
324.71	1047.69
324.939	1362.69
325.168	1128.69
325.397	630.69
325.626	490.69
325.855	463.69
326.084	443.69
326.313	433.69
326.542	432.69
326.77	487.69
326.999	542.69
327.228	699.69
327.457	942.69
327.686	1082.69
327.914	729.69
328.143	549.69
328.372	508.69
328.6	517.69
328.829	486.69
329.058	494.69
329.287	499.69
329.515	505.69
329.744	479.69
329.972	474.69
330.201	479.69
330.43	502.69
330.658	530.69
330.887	525.69
331.115	508.69
331.344	500.69
331.572	475.69
331.801	484.69
332.03	479.69
332.258	481.69
332.486	496.69
332.715	486.69
332.943	478.69
333.172	483.69
333.4	505.69
333.629	533.69
333.857	526.69
334.085	540.69
334.314	532.69
334.542	566.69
334.771	575.69
334.999	520.69
335.227	520.69
335.455	485.69
335.684	501.69
335.912	502.69
336.14	463.69
336.369	477.69
336.597	484.69
336.825	473.69
337.053	467.69
337.281	472.69
337.51	440.69
337.738	472.69
337.966	443.69
338.194	471.69
338.422	482.69
338.65	461.69
338.878	462.69
339.106	452.69
339.334	447.69
339.562	447.69
339.79	444.69
340.018	424.69
340.246	454.69
340.474	454.69
340.702	438.69
340.93	447.69
341.158	432.69
341.386	421.69
341.614	455.69
341.842	448.69
342.07	424.69
342.298	430.69
342.526	424.69
342.754	432.69
342.981	428.69
343.209	460.69
343.437	468.69
343.665	445.69
343.893	477.69
344.12	504.69
344.348	480.69
344.576	465.69
344.804	471.69
345.031	452.69
345.259	472.69
345.487	462.69
345.714	443.69
345.942	434.69
346.17	434.69
346.397	427.69
346.625	421.69
346.853	410.69
347.08	417.69
347.308	409.69
347.535	418.69
347.763	428.69
347.99	459.69
348.218	417.69
348.445	414.69
348.673	424.69
348.9	441.69
349.128	412.69
349.355	420.69
349.583	401.69
349.81	402.69
350.037	404.69
350.265	398.69
350.492	403.69
350.72	422.69
350.947	421.69
351.174	428.69
351.402	429.69
351.629	416.69
351.856	410.69
352.083	448.69
352.311	443.69
352.538	423.69
352.765	431.69
352.992	431.69
353.22	420.69
353.447	418.69
353.674	434.69
353.901	433.69
354.128	408.69
354.355	414.69
354.583	415.69
354.81	407.69
355.037	407.69
355.264	388.69
355.491	424.69
355.718	386.69
355.945	389.69
356.172	395.69
356.399	405.69
356.626	416.69
356.853	398.69
357.08	410.69
357.307	423.69
357.534	391.69
357.761	396.69
357.988	410.69
358.215	392.69
358.441	400.69
358.668	444.69
358.895	404.69
359.122	431.69
359.349	419.69
359.576	422.69
359.802	428.69
360.029	434.69
360.256	428.69
360.483	435.69
360.709	435.69
360.936	426.69
361.163	420.69
361.39	418.69
361.616	430.69
361.843	412.69
362.07	439.69
362.296	420.69
362.523	418.69
362.749	430.69
362.976	405.69
363.203	424.69
363.429	396.69
363.656	386.69
363.882	407.69
364.109	420.69
364.335	403.69
364.562	411.69
364.788	411.69
365.015	424.69
365.241	423.69
365.468	403.69
365.694	428.69
365.92	405.69
366.147	390.69
366.373	416.69
366.599	397.69
366.826	387.69
367.052	410.69
367.278	397.69
367.505	433.69
367.731	410.69
367.957	393.69
368.184	398.69
368.41	436.69
368.636	423.69
368.862	438.69
369.089	415.69
369.315	401.69
369.541	408.69
369.767	409.69
369.993	417.69
370.219	395.69
370.445	413.69
370.672	433.69
370.898	416.69
371.124	419.69
371.35	430.69
371.576	424.69
371.802	426.69
372.028	407.69
372.254	442.69
372.48	420.69
372.706	434.69
372.932	449.69
373.158	439.69
373.384	432.69
373.61	439.69
373.835	447.69
374.061	413.69
374.287	452.69
374.513	469.69
374.739	422.69
374.965	443.69
375.191	460.69
375.416	450.69
375.642	454.69
375.868	425.69
376.094	440.69
376.319	433.69
376.545	429.69
376.771	416.69
376.997	437.69
377.222	418.69
377.448	434.69
377.674	431.69
377.899	423.69
378.125	411.69
378.35	423.69
378.576	420.69
378.802	400.69
379.027	422.69
379.253	426.69
379.478	420.69
379.704	420.69
379.929	429.69
380.155	430.69
380.38	437.69
380.606	421.69
380.831	423.69
381.057	421.69
381.282	429.69
381.507	433.69
381.733	419.69
381.958	428.69
382.184	425.69
382.409	450.69
382.634	442.69
382.86	462.69
383.085	441.69
383.31	456.69
383.535	450.69
383.761	453.69
383.986	475.69
384.211	459.69
384.436	462.69
384.662	471.69
384.887	470.69
385.112	503.69
385.337	491.69
385.562	500.69
385.787	489.69
386.013	518.69
386.238	495.69
386.463	491.69
386.688	497.69
386.913	487.69
387.138	497.69
387.363	493.69
387.588	485.69
387.813	478.69
388.038	489.69
388.263	479.69
388.488	468.69
388.713	480.69
388.938	481.69
389.163	471.69
389.387	475.69
389.612	459.69
389.837	497.69
390.062	471.69
390.287	479.69
390.512	464.69
390.736	477.69
390.961	491.69
391.186	495.69
391.411	503.69
391.636	502.69
391.86	520.69
392.085	527.69
392.31	520.69
392.534	519.69
392.759	504.69
392.984	524.69
393.208	494.69
393.433	518.69
393.658	492.69
393.882	499.69
394.107	506.69
394.331	492.69
394.556	494.69
394.78	502.69
395.005	495.69
395.229	514.69
395.454	514.69
395.678	531.69
395.903	547.69
396.127	520.69
396.352	526.69
396.576	518.69
396.801	501.69
397.025	523.69
397.249	547.69
397.474	546.69
397.698	516.69
397.922	528.69
398.147	564.69
398.371	538.69
398.595	555.69
398.82	545.69
399.044	587.69
399.268	631.69
399.492	707.69
399.717	790.69
399.941	768.69
400.165	724.69
400.389	694.69
400.613	650.69
400.837	611.69
401.062	607.69
401.286	595.69
401.51	587.69
401.734	609.69
401.958	562.69
402.182	586.69
402.406	596.69
402.63	618.69
402.854	604.69
403.078	614.69
403.302	628.69
403.526	606.69
403.75	639.69
403.974	636.69
404.198	644.69
404.422	623.69
404.645	626.69
404.869	625.69
405.093	654.69
405.317	676.69
405.541	682.69
405.765	632.69
405.988	619.69
406.212	621.69
406.436	619.69
406.66	671.69
406.883	658.69
407.107	694.69
407.331	702.69
407.555	772.69
407.778	754.69
408.002	696.69
408.226	681.69
408.449	655.69
408.673	667.69
408.896	681.69
409.12	665.69
409.344	659.69
409.567	616.69
409.791	633.69
410.014	608.69
410.238	607.69
410.461	590.69
410.685	594.69
410.908	600.69
411.132	602.69
411.355	649.69
411.578	628.69
411.802	603.69
412.025	609.69
412.249	597.69
412.472	634.69
412.695	634.69
412.919	599.69
413.142	585.69
413.365	585.69
413.589	584.69
413.812	564.69
414.035	570.69
414.258	563.69
414.482	568.69
414.705	572.69
414.928	550.69
415.151	586.69
415.374	574.69
415.597	560.69
415.821	559.69
416.044	555.69
416.267	557.69
416.49	553.69
416.713	576.69
416.936	564.69
417.159	581.69
417.382	550.69
417.605	562.69
417.828	583.69
418.051	596.69
418.274	572.69
418.497	577.69
418.72	570.69
418.943	595.69
419.166	611.69
419.389	612.69
419.611	636.69
419.834	614.69
420.057	610.69
420.28	601.69
420.503	595.69
420.726	563.69
420.948	571.69
421.171	593.69
421.394	609.69
421.617	571.69
421.839	574.69
422.062	579.69
422.285	582.69
422.507	629.69
422.73	649.69
422.953	637.69
423.175	608.69
423.398	612.69
423.621	593.69
423.843	641.69
424.066	620.69
424.288	604.69
424.511	624.69
424.733	637.69
424.956	696.69
425.178	673.69
425.401	664.69
425.623	681.69
425.846	624.69
426.068	584.69
426.291	578.69
426.513	553.69
426.735	557.69
426.958	603.69
427.18	632.69
427.402	742.69
427.625	768.69
427.847	682.69
428.069	606.69
428.292	576.69
428.514	559.69
428.736	556.69
428.958	550.69
429.181	524.69
429.403	528.69
429.625	529.69
429.847	532.69
430.069	583.69
430.292	594.69
430.514	539.69
430.736	514.69
430.958	551.69
431.18	528.69
431.402	522.69
431.624	514.69
431.846	518.69
432.068	502.69
432.29	516.69
432.512	521.69
432.734	550.69
432.956	518.69
433.178	528.69
433.4	533.69
433.622	508.69
433.844	528.69
434.066	505.69
434.287	534.69
434.509	551.69
434.731	552.69
434.953	550.69
435.175	570.69
435.397	583.69
435.618	599.69
435.84	590.69
436.062	632.69
436.284	670.69
436.505	594.69
436.727	570.69
436.949	525.69
437.17	532.69
437.392	513.69
437.614	536.69
437.835	550.69
438.057	597.69
438.278	654.69
438.5	637.69
438.721	702.69
438.943	672.69
439.165	572.69
439.386	554.69
439.608	548.69
439.829	585.69
440.05	582.69
440.272	599.69
440.493	566.69
440.715	565.69
440.936	537.69
441.158	544.69
441.379	514.69
441.6	531.69
441.822	603.69
442.043	617.69
442.264	661.69
442.486	687.69
442.707	586.69
442.928	571.69
443.149	594.69
443.371	613.69
443.592	622.69
443.813	681.69
444.034	729.69
444.255	646.69
444.476	611.69
444.698	647.69
444.919	655.69
445.14	744.69
445.361	666.69
445.582	624.69
445.803	639.69
446.024	687.69
446.245	693.69
446.466	636.69
446.687	572.69
446.908	553.69
447.129	530.69
447.35	503.69
447.571	497.69
447.792	489.69
448.013	522.69
448.234	510.69
448.455	548.69
448.675	623.69
448.896	664.69
449.117	614.69
449.338	570.69
449.559	616.69
449.779	686.69
450	572.69
450.221	506.69
450.442	494.69
450.662	519.69
450.883	495.69
451.104	498.69
451.324	523.69
451.545	467.69
451.766	459.69
451.986	482.69
452.207	468.69
452.428	461.69
452.648	495.69
452.869	479.69
453.089	466.69
453.31	487.69
453.53	491.69
453.751	478.69
453.971	472.69
454.192	462.69
454.412	462.69
454.633	445.69
454.853	446.69
455.073	436.69
455.294	483.69
455.514	492.69
455.734	512.69
455.955	471.69
456.175	450.69
456.395	422.69
456.616	440.69
456.836	420.69
457.056	447.69
457.276	454.69
457.497	440.69
457.717	438.69
457.937	455.69
458.157	451.69
458.377	449.69
458.598	474.69
458.818	500.69
459.038	590.69
459.258	586.69
459.478	538.69
459.698	516.69
459.918	528.69
460.138	526.69
460.358	544.69
460.578	538.69
460.798	567.69
461.018	546.69
461.238	560.69
461.458	580.69
461.678	560.69
461.898	561.69
462.118	576.69
462.338	582.69
462.558	603.69
462.777	590.69
462.997	658.69
463.217	667.69
463.437	676.69
463.657	628.69
463.876	630.69
464.096	603.69
464.316	586.69
464.536	623.69
464.755	603.69
464.975	618.69
465.195	618.69
465.414	617.69
465.634	557.69
465.854	544.69
466.073	536.69
466.293	507.69
466.512	501.69
466.732	472.69
466.951	479.69
467.171	481.69
467.391	502.69
467.61	497.69
467.829	498.69
468.049	479.69
468.268	505.69
468.488	473.69
468.707	482.69
468.927	473.69
469.146	469.69
469.365	471.69
469.585	464.69
469.804	498.69
470.023	502.69
470.243	493.69
470.462	510.69
470.681	520.69
470.901	502.69
471.12	511.69
471.339	475.69
471.558	468.69
471.777	473.69
471.997	462.69
472.216	488.69
472.435	494.69
472.654	499.69
472.873	485.69
473.092	468.69
473.311	488.69
473.53	472.69
473.749	491.69
473.968	499.69
474.187	561.69
474.406	562.69
474.625	504.69
474.844	496.69
475.063	463.69
475.282	491.69
475.501	480.69
475.72	487.69
475.939	494.69
476.158	499.69
476.377	506.69
476.596	483.69
476.814	494.69
477.033	500.69
477.252	509.69
477.471	496.69
477.69	533.69
477.908	513.69
478.127	541.69
478.346	557.69
478.564	544.69
478.783	548.69
479.002	570.69
479.22	568.69
479.439	553.69
479.658	559.69
479.876	592.69
480.095	597.69
480.313	625.69
480.532	628.69
480.751	612.69
480.969	631.69
481.188	661.69
481.406	680.69
481.624	600.69
481.843	554.69
482.061	583.69
482.28	535.69
482.498	547.69
482.717	540.69
482.935	520.69
483.153	548.69
483.372	570.69
483.59	548.69
483.808	558.69
484.027	558.69
484.245	566.69
484.463	550.69
484.681	536.69
484.9	538.69
485.118	544.69
485.336	576.69
485.554	587.69
485.772	576.69
485.99	557.69
486.209	578.69
486.427	586.69
486.645	569.69
486.863	587.69
487.081	585.69
487.299	588.69
487.517	581.69
487.735	597.69
487.953	588.69
488.171	576.69
488.389	598.69
488.607	581.69
488.825	578.69
489.043	579.69
489.261	564.69
489.479	583.69
489.696	574.69
489.914	583.69
490.132	597.69
490.35	599.69
490.568	583.69
490.786	614.69
491.003	618.69
491.221	632.69
491.439	623.69
491.657	616.69
491.874	654.69
492.092	637.69
492.31	663.69
492.527	661.69
492.745	655.69
492.963	672.69
493.18	649.69
493.398	672.69
493.615	678.69
493.833	659.69
494.05	650.69
494.268	661.69
494.485	675.69
494.703	656.69
494.92	685.69
495.138	673.69
495.355	690.69
495.573	670.69
495.79	652.69
496.008	672.69
496.225	654.69
496.442	666.69
496.66	657.69
496.877	680.69
497.094	685.69
497.312	695.69
497.529	677.69
497.746	721.69
497.963	707.69
498.181	729.69
498.398	751.69
498.615	772.69
498.832	831.69
499.049	851.69
499.267	901.69
499.484	955.69
499.701	1008.69
499.918	1079.69
500.135	1197.69
500.352	1260.69
500.569	1348.69
500.786	1327.69
501.003	1279.69
501.22	1179.69
501.437	1108.69
501.654	1021.69
501.871	972.69
502.088	871.69
502.305	855.69
502.522	816.69
502.739	790.69
502.956	799.69
503.172	764.69
503.389	711.69
503.606	724.69
503.823	724.69
504.04	705.69
504.256	696.69
504.473	716.69
504.69	713.69
504.907	700.69
505.123	686.69
505.34	661.69
505.557	642.69
505.773	628.69
505.99	629.69
506.207	649.69
506.423	610.69
506.64	591.69
506.856	601.69
507.073	598.69
507.289	619.69
507.506	588.69
507.722	592.69
507.939	616.69
508.155	585.69
508.372	594.69
508.588	570.69
508.805	563.69
509.021	590.69
509.238	576.69
509.454	586.69
509.67	566.69
509.887	565.69
510.103	573.69
510.319	582.69
510.536	611.69
510.752	936.69
510.968	741.69
511.184	558.69
511.401	557.69
511.617	550.69
511.833	556.69
512.049	528.69
512.265	534.69
512.481	534.69
512.698	545.69
512.914	527.69
513.13	524.69
513.346	514.69
513.562	535.69
513.778	531.69
513.994	522.69
514.21	558.69
514.426	554.69
514.642	579.69
514.858	579.69
515.074	627.69
515.29	694.69
515.506	976.69
515.721	846.69
515.937	635.69
516.153	595.69
516.369	568.69
516.585	595.69
516.801	588.69
517.016	617.69
517.232	610.69
517.448	643.69
517.664	636.69
517.879	653.69
518.095	664.69
518.311	635.69
518.527	630.69
518.742	618.69
518.958	592.69
519.173	570.69
519.389	572.69
519.605	579.69
519.82	560.69
520.036	556.69
520.251	583.69
520.467	603.69
520.682	569.69
520.898	569.69
521.113	553.69
521.329	592.69
521.544	607.69
521.76	753.69
521.975	1180.69
522.19	1158.69
522.406	706.69
522.621	558.69
522.836	520.69
523.052	525.69
523.267	513.69
523.482	497.69
523.698	494.69
523.913	486.69
524.128	474.69
524.343	496.69
524.559	486.69
524.774	475.69
524.989	498.69
525.204	477.69
525.419	491.69
525.634	453.69
525.849	473.69
526.064	480.69
526.28	452.69
526.495	468.69
526.71	461.69
526.925	473.69
527.14	468.69
527.355	459.69
527.57	465.69
527.785	460.69
527.999	458.69
528.214	464.69
528.429	479.69
528.644	469.69
528.859	441.69
529.074	473.69
529.289	474.69
529.503	527.69
529.718	498.69
529.933	455.69
530.148	463.69
530.363	445.69
530.577	468.69
530.792	446.69
531.007	460.69
531.221	437.69
531.436	426.69
531.651	446.69
531.865	432.69
532.08	443.69
532.295	460.69
532.509	449.69
532.724	426.69
532.938	483.69
533.153	472.69
533.367	449.69
533.582	453.69
533.796	438.69
534.011	448.69
534.225	447.69
534.44	456.69
534.654	441.69
534.868	465.69
535.083	433.69
535.297	428.69
535.511	441.69
535.726	453.69
535.94	454.69
536.154	436.69
536.369	446.69
536.583	428.69
536.797	447.69
537.011	414.69
537.225	444.69
537.44	411.69
537.654	424.69
537.868	432.69
538.082	450.69
538.296	421.69
538.51	438.69
538.724	422.69
538.938	407.69
539.153	437.69
539.367	428.69
539.581	420.69
539.795	442.69
540.009	415.69
540.222	429.69
540.436	424.69
540.65	434.69
540.864	426.69
541.078	458.69
541.292	439.69
541.506	453.69
541.72	422.69
541.934	410.69
542.147	428.69
542.361	433.69
542.575	435.69
542.789	424.69
543.002	411.69
543.216	434.69
543.43	438.69
543.644	412.69
543.857	417.69
544.071	432.69
544.285	421.69
544.498	428.69
544.712	422.69
544.925	413.69
545.139	435.69
545.352	417.69
545.566	418.69
545.779	438.69
545.993	423.69
546.206	417.69
546.42	444.69
546.633	430.69
546.847	427.69
547.06	435.69
547.274	426.69
547.487	430.69
547.7	414.69
547.914	439.69
548.127	443.69
548.34	434.69
548.554	421.69
548.767	432.69
548.98	426.69
549.193	437.69
549.407	435.69
549.62	439.69
549.833	444.69
550.046	432.69
550.259	419.69
550.473	436.69
550.686	412.69
550.899	429.69
551.112	403.69
551.325	422.69
551.538	424.69
551.751	431.69
551.964	421.69
552.177	434.69
552.39	407.69
552.603	427.69
552.816	433.69
553.029	457.69
553.242	434.69
553.455	448.69
553.667	459.69
553.88	472.69
554.093	474.69
554.306	474.69
554.519	439.69
554.732	449.69
554.944	420.69
555.157	408.69
555.37	411.69
555.583	404.69
555.795	392.69
556.008	397.69
556.221	373.69
556.433	391.69
556.646	386.69
556.859	380.69
557.071	351.69
557.284	371.69
557.496	389.69
557.709	379.69
557.921	369.69
558.134	370.69
558.346	377.69
558.559	362.69
558.771	363.69
558.984	355.69
559.196	357.69
559.409	362.69
559.621	367.69
559.833	370.69
560.046	359.69
560.258	379.69
560.47	359.69
560.683	350.69
560.895	359.69
561.107	371.69
561.32	362.69
561.532	381.69
561.744	364.69
561.956	381.69
562.168	358.69
562.381	370.69
562.593	391.69
562.805	350.69
563.017	387.69
563.229	364.69
563.441	377.69
563.653	378.69
563.865	381.69
564.077	348.69
564.289	381.69
564.501	406.69
564.713	408.69
564.925	400.69
565.137	416.69
565.349	417.69
565.561	402.69
565.773	436.69
565.985	430.69
566.197	456.69
566.408	481.69
566.62	488.69
566.832	518.69
567.044	531.69
567.255	546.69
567.467	553.69
567.679	549.69
567.891	602.69
568.102	600.69
568.314	575.69
568.526	521.69
568.737	521.69
568.949	471.69
569.161	460.69
569.372	421.69
569.584	388.69
569.795	392.69
570.007	381.69
570.218	390.69
570.43	401.69
570.641	384.69
570.853	356.69
571.064	371.69
571.276	351.69
571.487	369.69
571.698	360.69
571.91	345.69
572.121	332.69
572.333	359.69
572.544	357.69
572.755	337.69
572.966	345.69
573.178	320.69
573.389	334.69
573.6	318.69
573.811	319.69
574.023	298.69
574.234	315.69
574.445	311.69
574.656	327.69
574.867	324.69
575.078	311.69
575.289	313.69
575.501	310.69
575.712	315.69
575.923	303.69
576.134	319.69
576.345	305.69
576.556	307.69
576.767	289.69
576.978	305.69
577.188	291.69
577.399	302.69
577.61	298.69
577.821	308.69
578.032	300.69
578.243	310.69
578.454	442.69
578.665	361.69
578.875	324.69
579.086	294.69
579.297	293.69
579.508	281.69
579.718	286.69
579.929	284.69
580.14	282.69
580.35	292.69
580.561	284.69
580.772	267.69
580.982	281.69
581.193	275.69
581.403	281.69
581.614	278.69
581.825	289.69
582.035	268.69
582.246	265.69
582.456	295.69
582.667	275.69
582.877	277.69
583.087	259.69
583.298	277.69
583.508	269.69
583.719	277.69
583.929	270.69
584.139	280.69
584.35	286.69
584.56	292.69
584.77	289.69
584.981	263.69
585.191	290.69
585.401	260.69
585.611	284.69
585.821	273.69
586.032	278.69
586.242	282.69
586.452	277.69
586.662	270.69
586.872	286.69
587.082	258.69
587.292	271.69
587.502	260.69
587.713	272.69
587.923	268.69
588.133	265.69
588.343	278.69
588.553	255.69
588.762	274.69
588.972	260.69
589.182	299.69
589.392	318.69
589.602	300.69
589.812	288.69
590.022	282.69
590.232	274.69
590.441	278.69
590.651	273.69
590.861	271.69
591.071	262.69
591.281	283.69
591.49	278.69
591.7	291.69
591.91	294.69
592.119	283.69
592.329	290.69
592.539	310.69
592.748	304.69
592.958	308.69
593.167	294.69
593.377	283.69
593.587	315.69
593.796	337.69
594.006	351.69
594.215	319.69
594.424	310.69
594.634	313.69
594.843	303.69
595.053	293.69
595.262	298.69
595.472	308.69
595.681	296.69
595.89	290.69
596.1	276.69
596.309	275.69
596.518	254.69
596.727	272.69
596.937	270.69
597.146	258.69
597.355	264.69
597.564	256.69
597.774	258.69
597.983	265.69
598.192	255.69
598.401	246.69
598.61	243.69
598.819	229.69
599.028	260.69
599.237	244.69
599.446	240.69
599.655	244.69
599.864	247.69
600.073	243.69
600.282	225.69
600.491	238.69
600.7	251.69
600.909	236.69
601.118	247.69
601.327	239.69
601.536	243.69
601.745	249.69
601.953	244.69
602.162	238.69
602.371	235.69
602.58	229.69
602.789	240.69
602.997	252.69
603.206	246.69
603.415	219.69
603.623	218.69
603.832	211.69
604.041	244.69
604.249	225.69
604.458	231.69
604.666	233.69
604.875	217.69
605.084	228.69
605.292	216.69
605.501	242.69
605.709	238.69
605.918	225.69
606.126	224.69
606.334	226.69
606.543	230.69
606.751	217.69
606.96	218.69
607.168	226.69
607.376	231.69
607.585	245.69
607.793	235.69
608.001	228.69
608.21	237.69
608.418	237.69
608.626	212.69
608.834	220.69
609.043	211.69
609.251	228.69
609.459	230.69
609.667	236.69
609.875	218.69
610.083	199.69
610.291	237.69
610.499	227.69
610.707	223.69
610.916	204.69
611.124	230.69
611.332	245.69
611.54	215.69
611.748	224.69
611.955	228.69
612.163	244.69
612.371	210.69
612.579	235.69
612.787	228.69
612.995	235.69
613.203	234.69
613.411	224.69
613.618	229.69
613.826	206.69
614.034	214.69
614.242	211.69
614.449	215.69
614.657	225.69
614.865	218.69
615.072	221.69
615.28	227.69
615.488	228.69
615.695	216.69
615.903	231.69
616.111	223.69
616.318	240.69
616.526	210.69
616.733	226.69
616.941	222.69
617.148	223.69
617.356	222.69
617.563	228.69
617.771	217.69
617.978	209.69
618.185	222.69
618.393	216.69
618.6	229.69
618.807	226.69
619.015	200.69
619.222	224.69
619.429	218.69
619.637	224.69
619.844	223.69
620.051	208.69
620.258	202.69
620.466	202.69
620.673	211.69
620.88	214.69
621.087	207.69
621.294	206.69
621.501	215.69
621.708	195.69
621.915	209.69
622.122	208.69
622.329	204.69
622.536	194.69
622.743	188.69
622.95	198.69
623.157	197.69
623.364	202.69
623.571	184.69
623.778	200.69
623.985	212.69
624.192	199.69
624.399	205.69
624.606	202.69
624.812	191.69
625.019	187.69
625.226	190.69
625.433	193.69
625.639	183.69
625.846	194.69
626.053	203.69
626.259	187.69
626.466	208.69
626.673	188.69
626.879	193.69
627.086	174.69
627.293	202.69
627.499	195.69
627.706	194.69
627.912	197.69
628.119	197.69
628.325	204.69
628.532	190.69
628.738	201.69
628.945	184.69
629.151	201.69
629.357	191.69
629.564	191.69
629.77	172.69
629.976	194.69
630.183	185.69
630.389	196.69
630.595	192.69
630.802	178.69
631.008	205.69
631.214	185.69
631.42	196.69
631.627	168.69
631.833	179.69
632.039	171.69
632.245	177.69
632.451	185.69
632.657	186.69
632.863	182.69
633.069	171.69
633.275	167.69
633.481	168.69
633.688	179.69
633.893	186.69
634.099	166.69
634.305	180.69
634.511	176.69
634.717	178.69
634.923	160.69
635.129	163.69
635.335	187.69
635.541	174.69
635.747	178.69
635.952	174.69
636.158	173.69
636.364	183.69
636.57	159.69
636.775	168.69
636.981	191.69
637.187	159.69
637.392	164.69
637.598	173.69
637.804	168.69
638.009	167.69
638.215	163.69
638.421	178.69
638.626	158.69
638.832	173.69
639.037	174.69
639.243	152.69
639.448	158.69
639.654	166.69
639.859	166.69
640.065	173.69
640.27	173.69
640.475	160.69
640.681	159.69
640.886	170.69
641.091	151.69
641.297	167.69
641.502	172.69
641.707	147.69
641.913	183.69
642.118	163.69
642.323	161.69
642.528	170.69
642.733	148.69
642.939	156.69
643.144	171.69
643.349	161.69
643.554	141.69
643.759	147.69
643.964	154.69
644.169	154.69
644.374	164.69
644.579	156.69
644.784	156.69
644.989	167.69
645.194	164.69
645.399	178.69
645.604	176.69
645.809	151.69
646.014	161.69
646.219	146.69
646.423	159.69
646.628	155.69
646.833	159.69
647.038	168.69
647.243	155.69
647.447	164.69
647.652	155.69
647.857	164.69
648.062	166.69
648.266	171.69
648.471	196.69
648.676	192.69
648.88	164.69
649.085	179.69
649.289	162.69
649.494	175.69
649.698	188.69
649.903	162.69
650.107	172.69
650.312	169.69
650.516	156.69
650.721	165.69
650.925	161.69
651.13	137.69
651.334	146.69
651.539	160.69
651.743	152.69
651.947	144.69
652.152	135.69
652.356	140.69
652.56	150.69
652.764	140.69
652.969	148.69
653.173	146.69
653.377	128.69
653.581	131.69
653.785	153.69
653.99	151.69
654.194	144.69
654.398	135.69
654.602	133.69
654.806	136.69
655.01	152.69
655.214	134.69
655.418	155.69
655.622	150.69
655.826	138.69
656.03	145.69
656.234	142.69
656.438	149.69
656.642	158.69
656.846	139.69
657.049	161.69
657.253	130.69
657.457	133.69
657.661	130.69
657.865	121.69
658.068	123.69
658.272	118.69
658.476	115.69
658.68	112.69
658.883	123.69
659.087	117.69
659.291	102.69
659.494	107.69
659.698	103.69
659.901	108.69
660.105	94.69
660.309	108.69
660.512	110.69
660.716	102.69
660.919	102.69
661.123	91.69
661.326	89.69
661.53	103.69
661.733	84.69
661.936	92.69
662.14	88.69
662.343	97.69
662.546	78.69
662.75	100.69
662.953	95.69
663.156	87.69
663.36	88.69
663.563	83.69
663.766	94.69
663.969	86.69
664.173	81.69
664.376	81.69
664.579	76.69
664.782	77.69
664.985	77.69
665.188	63.69
665.391	103.69
665.594	74.69
665.797	77.69
666	81.69
666.203	80.69
666.406	84.69
666.609	95.69
666.812	86.69
667.015	89.69
667.218	75.69
667.421	84.69
667.624	71.69
667.827	64.69
668.03	86.69
668.232	76.69
668.435	68.69
668.638	72.69
668.841	76.69
669.043	76.69
669.246	68.69
669.449	101.69
669.651	79.69
669.854	78.69
670.057	83.69
670.259	84.69
670.462	87.69
670.665	76.69
670.867	86.69
671.07	82.69
671.272	82.69
671.475	80.69
671.677	101.69
671.88	91.69
672.082	83.69
672.284	85.69
672.487	90.69
672.689	89.69
672.892	67.69
