Data from 1960PennyLincolnUp.LampE5.5.200Scan.07172019.P1.ChangedAngle_HRD10591_13-15-00-822.txt Node
Date: Thu Jul 18 13:15:00 EDT 2019
User: cochatt
Spectrometer: HR+D1059
Trigger mode: 1
Integration Time (sec): 1.000000E-1
Scans to average: 1
Electric dark correction enabled: true
Nonlinearity correction enabled: false
Boxcar width: 0
XAxis mode: Wavelengths
Number of Pixels in Spectrum: 2048
>>>>>Begin Spectral Data<<<<<
223.165	-34.62
223.4	-34.62
223.635	-34.62
223.869	-16.62
224.104	-14.62
224.338	-5.62
224.573	-4.62
224.808	3.38
225.042	-15.62
225.277	-21.62
225.511	5.38
225.746	13.38
225.98	16.38
226.215	3.38
226.449	25.38
226.683	14.38
226.918	14.38
227.152	17.38
227.387	30.38
227.621	45.38
227.856	48.38
228.09	43.38
228.324	45.38
228.559	59.38
228.793	63.38
229.027	86.38
229.262	93.38
229.496	96.38
229.73	107.38
229.964	146.38
230.199	99.38
230.433	106.38
230.667	109.38
230.901	97.38
231.136	109.38
231.37	104.38
231.604	105.38
231.838	93.38
232.072	104.38
232.306	89.38
232.541	121.38
232.775	102.38
233.009	91.38
233.243	111.38
233.477	104.38
233.711	103.38
233.945	125.38
234.179	104.38
234.413	116.38
234.647	125.38
234.881	114.38
235.115	110.38
235.349	110.38
235.583	109.38
235.817	108.38
236.051	110.38
236.285	122.38
236.519	125.38
236.753	114.38
236.987	127.38
237.221	145.38
237.455	176.38
237.689	152.38
237.922	126.38
238.156	123.38
238.39	114.38
238.624	111.38
238.858	101.38
239.091	113.38
239.325	115.38
239.559	100.38
239.793	115.38
240.027	113.38
240.26	122.38
240.494	127.38
240.728	120.38
240.961	135.38
241.195	131.38
241.429	132.38
241.662	111.38
241.896	131.38
242.13	137.38
242.363	125.38
242.597	118.38
242.83	117.38
243.064	128.38
243.298	118.38
243.531	137.38
243.765	134.38
243.998	124.38
244.232	134.38
244.465	134.38
244.699	144.38
244.932	141.38
245.166	150.38
245.399	144.38
245.633	138.38
245.866	136.38
246.099	139.38
246.333	126.38
246.566	142.38
246.8	124.38
247.033	142.38
247.266	153.38
247.5	142.38
247.733	147.38
247.966	155.38
248.2	158.38
248.433	166.38
248.666	154.38
248.899	154.38
249.133	158.38
249.366	187.38
249.599	162.38
249.832	167.38
250.066	158.38
250.299	155.38
250.532	158.38
250.765	176.38
250.998	169.38
251.231	187.38
251.465	193.38
251.698	181.38
251.931	160.38
252.164	185.38
252.397	166.38
252.63	170.38
252.863	184.38
253.096	190.38
253.329	197.38
253.562	180.38
253.795	177.38
254.028	184.38
254.261	191.38
254.494	201.38
254.727	203.38
254.96	223.38
255.193	213.38
255.426	204.38
255.659	209.38
255.892	214.38
256.124	202.38
256.357	191.38
256.59	182.38
256.823	205.38
257.056	185.38
257.289	188.38
257.521	190.38
257.754	201.38
257.987	189.38
258.22	184.38
258.452	191.38
258.685	193.38
258.918	193.38
259.151	190.38
259.383	207.38
259.616	193.38
259.849	189.38
260.081	220.38
260.314	222.38
260.547	229.38
260.779	228.38
261.012	230.38
261.244	199.38
261.477	200.38
261.71	195.38
261.942	200.38
262.175	214.38
262.407	204.38
262.64	205.38
262.872	201.38
263.105	201.38
263.337	190.38
263.57	206.38
263.802	190.38
264.035	180.38
264.267	200.38
264.499	206.38
264.732	204.38
264.964	202.38
265.197	200.38
265.429	204.38
265.661	207.38
265.894	196.38
266.126	215.38
266.358	218.38
266.591	216.38
266.823	224.38
267.055	214.38
267.287	207.38
267.52	203.38
267.752	209.38
267.984	206.38
268.216	223.38
268.448	211.38
268.681	221.38
268.913	223.38
269.145	218.38
269.377	247.38
269.609	222.38
269.841	236.38
270.073	237.38
270.306	236.38
270.538	250.38
270.77	273.38
271.002	257.38
271.234	253.38
271.466	253.38
271.698	257.38
271.93	268.38
272.162	268.38
272.394	261.38
272.626	270.38
272.858	246.38
273.09	249.38
273.322	243.38
273.553	248.38
273.785	248.38
274.017	253.38
274.249	252.38
274.481	236.38
274.713	248.38
274.945	242.38
275.176	262.38
275.408	241.38
275.64	231.38
275.872	243.38
276.104	243.38
276.335	262.38
276.567	254.38
276.799	259.38
277.031	277.38
277.262	256.38
277.494	271.38
277.726	282.38
277.957	258.38
278.189	253.38
278.421	253.38
278.652	260.38
278.884	253.38
279.115	259.38
279.347	234.38
279.579	250.38
279.81	258.38
280.042	262.38
280.273	264.38
280.505	248.38
280.736	267.38
280.968	247.38
281.199	258.38
281.431	257.38
281.662	256.38
281.894	262.38
282.125	251.38
282.356	265.38
282.588	278.38
282.819	289.38
283.051	288.38
283.282	264.38
283.513	258.38
283.745	258.38
283.976	245.38
284.207	266.38
284.439	268.38
284.67	248.38
284.901	246.38
285.132	282.38
285.364	276.38
285.595	276.38
285.826	258.38
286.057	271.38
286.288	276.38
286.52	273.38
286.751	282.38
286.982	270.38
287.213	259.38
287.444	282.38
287.675	307.38
287.906	279.38
288.138	277.38
288.369	276.38
288.6	276.38
288.831	285.38
289.062	289.38
289.293	276.38
289.524	288.38
289.755	284.38
289.986	259.38
290.217	268.38
290.448	275.38
290.679	271.38
290.91	270.38
291.141	272.38
291.371	271.38
291.602	291.38
291.833	271.38
292.064	297.38
292.295	279.38
292.526	282.38
292.757	280.38
292.987	290.38
293.218	273.38
293.449	290.38
293.68	276.38
293.91	285.38
294.141	282.38
294.372	270.38
294.603	279.38
294.833	290.38
295.064	304.38
295.295	276.38
295.525	284.38
295.756	282.38
295.987	281.38
296.217	289.38
296.448	321.38
296.679	287.38
296.909	314.38
297.14	292.38
297.37	288.38
297.601	301.38
297.831	301.38
298.062	283.38
298.292	299.38
298.523	294.38
298.753	298.38
298.984	307.38
299.214	306.38
299.445	297.38
299.675	303.38
299.905	310.38
300.136	305.38
300.366	301.38
300.597	306.38
300.827	312.38
301.057	315.38
301.288	314.38
301.518	296.38
301.748	305.38
301.979	310.38
302.209	319.38
302.439	316.38
302.669	314.38
302.9	314.38
303.13	318.38
303.36	324.38
303.59	318.38
303.82	300.38
304.051	321.38
304.281	322.38
304.511	325.38
304.741	302.38
304.971	288.38
305.201	310.38
305.431	308.38
305.661	333.38
305.891	311.38
306.121	320.38
306.352	323.38
306.582	326.38
306.812	299.38
307.042	302.38
307.272	318.38
307.502	332.38
307.731	311.38
307.961	322.38
308.191	324.38
308.421	317.38
308.651	334.38
308.881	315.38
309.111	325.38
309.341	315.38
309.571	330.38
309.8	345.38
310.03	329.38
310.26	344.38
310.49	344.38
310.72	344.38
310.949	350.38
311.179	372.38
311.409	362.38
311.639	332.38
311.868	346.38
312.098	351.38
312.328	374.38
312.557	366.38
312.787	363.38
313.017	378.38
313.246	366.38
313.476	354.38
313.706	354.38
313.935	348.38
314.165	354.38
314.394	375.38
314.624	368.38
314.853	353.38
315.083	363.38
315.312	348.38
315.542	348.38
315.771	361.38
316.001	363.38
316.23	350.38
316.46	349.38
316.689	362.38
316.919	362.38
317.148	343.38
317.377	366.38
317.607	348.38
317.836	348.38
318.065	342.38
318.295	351.38
318.524	358.38
318.753	351.38
318.983	349.38
319.212	366.38
319.441	361.38
319.67	356.38
319.9	374.38
320.129	365.38
320.358	354.38
320.587	364.38
320.816	354.38
321.046	360.38
321.275	377.38
321.504	383.38
321.733	376.38
321.962	361.38
322.191	366.38
322.42	375.38
322.649	397.38
322.878	405.38
323.108	401.38
323.337	422.38
323.566	421.38
323.795	445.38
324.024	466.38
324.253	526.38
324.482	729.38
324.71	1021.38
324.939	1359.38
325.168	1164.38
325.397	662.38
325.626	518.38
325.855	436.38
326.084	421.38
326.313	429.38
326.542	420.38
326.77	468.38
326.999	542.38
327.228	656.38
327.457	890.38
327.686	1022.38
327.914	728.38
328.143	571.38
328.372	486.38
328.6	459.38
328.829	457.38
329.058	470.38
329.287	461.38
329.515	459.38
329.744	437.38
329.972	427.38
330.201	456.38
330.43	455.38
330.658	464.38
330.887	471.38
331.115	476.38
331.344	445.38
331.572	434.38
331.801	434.38
332.03	413.38
332.258	433.38
332.486	408.38
332.715	410.38
332.943	394.38
333.172	431.38
333.4	431.38
333.629	441.38
333.857	437.38
334.085	452.38
334.314	446.38
334.542	463.38
334.771	480.38
334.999	437.38
335.227	425.38
335.455	442.38
335.684	412.38
335.912	410.38
336.14	432.38
336.369	425.38
336.597	442.38
336.825	428.38
337.053	414.38
337.281	391.38
337.51	407.38
337.738	401.38
337.966	413.38
338.194	397.38
338.422	371.38
338.65	413.38
338.878	402.38
339.106	390.38
339.334	405.38
339.562	405.38
339.79	399.38
340.018	403.38
340.246	400.38
340.474	383.38
340.702	391.38
340.93	397.38
341.158	406.38
341.386	384.38
341.614	378.38
341.842	373.38
342.07	364.38
342.298	385.38
342.526	393.38
342.754	403.38
342.981	375.38
343.209	379.38
343.437	377.38
343.665	383.38
343.893	412.38
344.12	423.38
344.348	372.38
344.576	395.38
344.804	412.38
345.031	382.38
345.259	396.38
345.487	410.38
345.714	400.38
345.942	387.38
346.17	391.38
346.397	383.38
346.625	364.38
346.853	390.38
347.08	368.38
347.308	366.38
347.535	380.38
347.763	409.38
347.99	374.38
348.218	383.38
348.445	365.38
348.673	366.38
348.9	373.38
349.128	368.38
349.355	354.38
349.583	359.38
349.81	364.38
350.037	372.38
350.265	368.38
350.492	368.38
350.72	374.38
350.947	358.38
351.174	372.38
351.402	371.38
351.629	370.38
351.856	370.38
352.083	379.38
352.311	364.38
352.538	375.38
352.765	367.38
352.992	377.38
353.22	382.38
353.447	368.38
353.674	370.38
353.901	353.38
354.128	349.38
354.355	350.38
354.583	381.38
354.81	348.38
355.037	359.38
355.264	362.38
355.491	365.38
355.718	354.38
355.945	364.38
356.172	360.38
356.399	353.38
356.626	356.38
356.853	336.38
357.08	340.38
357.307	348.38
357.534	345.38
357.761	345.38
357.988	360.38
358.215	328.38
358.441	354.38
358.668	363.38
358.895	353.38
359.122	353.38
359.349	369.38
359.576	386.38
359.802	368.38
360.029	381.38
360.256	386.38
360.483	370.38
360.709	375.38
360.936	364.38
361.163	381.38
361.39	368.38
361.616	365.38
361.843	360.38
362.07	345.38
362.296	368.38
362.523	346.38
362.749	358.38
362.976	324.38
363.203	340.38
363.429	356.38
363.656	339.38
363.882	340.38
364.109	357.38
364.335	346.38
364.562	357.38
364.788	350.38
365.015	361.38
365.241	339.38
365.468	333.38
365.694	367.38
365.92	378.38
366.147	349.38
366.373	362.38
366.599	340.38
366.826	351.38
367.052	366.38
367.278	334.38
367.505	341.38
367.731	353.38
367.957	369.38
368.184	362.38
368.41	347.38
368.636	362.38
368.862	364.38
369.089	363.38
369.315	359.38
369.541	341.38
369.767	366.38
369.993	360.38
370.219	344.38
370.445	358.38
370.672	358.38
370.898	349.38
371.124	346.38
371.35	334.38
371.576	340.38
371.802	353.38
372.028	342.38
372.254	375.38
372.48	354.38
372.706	368.38
372.932	348.38
373.158	362.38
373.384	362.38
373.61	358.38
373.835	362.38
374.061	343.38
374.287	351.38
374.513	356.38
374.739	361.38
374.965	330.38
375.191	349.38
375.416	360.38
375.642	360.38
375.868	357.38
376.094	352.38
376.319	353.38
376.545	336.38
376.771	330.38
376.997	343.38
377.222	333.38
377.448	348.38
377.674	356.38
377.899	342.38
378.125	345.38
378.35	349.38
378.576	326.38
378.802	341.38
379.027	359.38
379.253	353.38
379.478	338.38
379.704	338.38
379.929	349.38
380.155	344.38
380.38	340.38
380.606	353.38
380.831	348.38
381.057	365.38
381.282	341.38
381.507	360.38
381.733	350.38
381.958	356.38
382.184	352.38
382.409	349.38
382.634	352.38
382.86	348.38
383.085	357.38
383.31	364.38
383.535	352.38
383.761	343.38
383.986	349.38
384.211	346.38
384.436	368.38
384.662	352.38
384.887	359.38
385.112	360.38
385.337	367.38
385.562	384.38
385.787	367.38
386.013	402.38
386.238	361.38
386.463	399.38
386.688	375.38
386.913	373.38
387.138	390.38
387.363	375.38
387.588	367.38
387.813	367.38
388.038	360.38
388.263	386.38
388.488	382.38
388.713	365.38
388.938	357.38
389.163	360.38
389.387	353.38
389.612	369.38
389.837	370.38
390.062	377.38
390.287	353.38
390.512	376.38
390.736	362.38
390.961	365.38
391.186	384.38
391.411	366.38
391.636	372.38
391.86	392.38
392.085	398.38
392.31	393.38
392.534	374.38
392.759	388.38
392.984	372.38
393.208	343.38
393.433	392.38
393.658	388.38
393.882	374.38
394.107	359.38
394.331	378.38
394.556	358.38
394.78	369.38
395.005	383.38
395.229	380.38
395.454	367.38
395.678	384.38
395.903	399.38
396.127	400.38
396.352	398.38
396.576	388.38
396.801	392.38
397.025	384.38
397.249	400.38
397.474	397.38
397.698	409.38
397.922	395.38
398.147	402.38
398.371	416.38
398.595	416.38
398.82	414.38
399.044	409.38
399.268	438.38
399.492	450.38
399.717	475.38
399.941	493.38
400.165	488.38
400.389	489.38
400.613	478.38
400.837	452.38
401.062	438.38
401.286	437.38
401.51	401.38
401.734	390.38
401.958	424.38
402.182	412.38
402.406	420.38
402.63	416.38
402.854	410.38
403.078	416.38
403.302	413.38
403.526	430.38
403.75	432.38
403.974	430.38
404.198	412.38
404.422	440.38
404.645	441.38
404.869	431.38
405.093	458.38
405.317	475.38
405.541	479.38
405.765	465.38
405.988	418.38
406.212	443.38
406.436	436.38
406.66	465.38
406.883	462.38
407.107	447.38
407.331	502.38
407.555	532.38
407.778	529.38
408.002	495.38
408.226	469.38
408.449	468.38
408.673	463.38
408.896	477.38
409.12	471.38
409.344	473.38
409.567	450.38
409.791	429.38
410.014	428.38
410.238	428.38
410.461	443.38
410.685	428.38
410.908	441.38
411.132	468.38
411.355	478.38
411.578	466.38
411.802	423.38
412.025	434.38
412.249	421.38
412.472	458.38
412.695	453.38
412.919	443.38
413.142	424.38
413.365	430.38
413.589	409.38
413.812	407.38
414.035	421.38
414.258	404.38
414.482	409.38
414.705	400.38
414.928	406.38
415.151	385.38
415.374	396.38
415.597	387.38
415.821	387.38
416.044	400.38
416.267	401.38
416.49	393.38
416.713	394.38
416.936	391.38
417.159	397.38
417.382	383.38
417.605	409.38
417.828	410.38
418.051	422.38
418.274	396.38
418.497	383.38
418.72	399.38
418.943	375.38
419.166	399.38
419.389	428.38
419.611	427.38
419.834	420.38
420.057	401.38
420.28	420.38
420.503	412.38
420.726	436.38
420.948	401.38
421.171	429.38
421.394	452.38
421.617	414.38
421.839	400.38
422.062	421.38
422.285	441.38
422.507	432.38
422.73	491.38
422.953	462.38
423.175	449.38
423.398	428.38
423.621	421.38
423.843	428.38
424.066	430.38
424.288	420.38
424.511	430.38
424.733	473.38
424.956	508.38
425.178	505.38
425.401	496.38
425.623	527.38
425.846	465.38
426.068	434.38
426.291	414.38
426.513	410.38
426.735	439.38
426.958	454.38
427.18	489.38
427.402	572.38
427.625	630.38
427.847	571.38
428.069	495.38
428.292	445.38
428.514	402.38
428.736	413.38
428.958	408.38
429.181	412.38
429.403	392.38
429.625	406.38
429.847	439.38
430.069	465.38
430.292	449.38
430.514	426.38
430.736	383.38
430.958	397.38
431.18	382.38
431.402	379.38
431.624	386.38
431.846	381.38
432.068	378.38
432.29	386.38
432.512	397.38
432.734	391.38
432.956	385.38
433.178	390.38
433.4	378.38
433.622	385.38
433.844	366.38
434.066	375.38
434.287	367.38
434.509	396.38
434.731	374.38
434.953	402.38
435.175	413.38
435.397	402.38
435.618	431.38
435.84	455.38
436.062	505.38
436.284	546.38
436.505	471.38
436.727	431.38
436.949	401.38
437.17	403.38
437.392	414.38
437.614	424.38
437.835	414.38
438.057	460.38
438.278	538.38
438.5	537.38
438.721	579.38
438.943	564.38
439.165	476.38
439.386	424.38
439.608	417.38
439.829	418.38
440.05	423.38
440.272	464.38
440.493	450.38
440.715	440.38
440.936	390.38
441.158	402.38
441.379	389.38
441.6	411.38
441.822	416.38
442.043	424.38
442.264	492.38
442.486	500.38
442.707	448.38
442.928	424.38
443.149	429.38
443.371	448.38
443.592	457.38
443.813	532.38
444.034	559.38
444.255	475.38
444.476	453.38
444.698	426.38
444.919	454.38
445.14	518.38
445.361	509.38
445.582	447.38
445.803	469.38
446.024	538.38
446.245	527.38
446.466	494.38
446.687	430.38
446.908	429.38
447.129	397.38
447.35	392.38
447.571	385.38
447.792	381.38
448.013	402.38
448.234	403.38
448.455	414.38
448.675	519.38
448.896	562.38
449.117	489.38
449.338	450.38
449.559	537.38
449.779	588.38
450	496.38
450.221	406.38
450.442	383.38
450.662	376.38
450.883	385.38
451.104	377.38
451.324	365.38
451.545	373.38
451.766	359.38
451.986	359.38
452.207	353.38
452.428	335.38
452.648	347.38
452.869	344.38
453.089	363.38
453.31	361.38
453.53	348.38
453.751	343.38
453.971	357.38
454.192	341.38
454.412	362.38
454.633	384.38
454.853	330.38
455.073	330.38
455.294	363.38
455.514	403.38
455.734	388.38
455.955	347.38
456.175	323.38
456.395	346.38
456.616	325.38
456.836	337.38
457.056	344.38
457.276	308.38
457.497	337.38
457.717	316.38
457.937	343.38
458.157	344.38
458.377	352.38
458.598	341.38
458.818	395.38
459.038	424.38
459.258	439.38
459.478	390.38
459.698	376.38
459.918	366.38
460.138	351.38
460.358	394.38
460.578	384.38
460.798	381.38
461.018	383.38
461.238	374.38
461.458	388.38
461.678	377.38
461.898	374.38
462.118	368.38
462.338	379.38
462.558	409.38
462.777	402.38
462.997	418.38
463.217	424.38
463.437	446.38
463.657	419.38
463.876	432.38
464.096	410.38
464.316	408.38
464.536	406.38
464.755	413.38
464.975	428.38
465.195	416.38
465.414	455.38
465.634	408.38
465.854	396.38
466.073	378.38
466.293	361.38
466.512	382.38
466.732	365.38
466.951	374.38
467.171	370.38
467.391	372.38
467.61	371.38
467.829	372.38
468.049	367.38
468.268	373.38
468.488	362.38
468.707	351.38
468.927	361.38
469.146	371.38
469.365	366.38
469.585	347.38
469.804	380.38
470.023	384.38
470.243	368.38
470.462	346.38
470.681	374.38
470.901	362.38
471.12	362.38
471.339	389.38
471.558	347.38
471.777	362.38
471.997	366.38
472.216	366.38
472.435	382.38
472.654	393.38
472.873	384.38
473.092	357.38
473.311	367.38
473.53	370.38
473.749	378.38
473.968	411.38
474.187	454.38
474.406	476.38
474.625	423.38
474.844	378.38
475.063	384.38
475.282	358.38
475.501	372.38
475.72	374.38
475.939	376.38
476.158	396.38
476.377	380.38
476.596	382.38
476.814	395.38
477.033	383.38
477.252	384.38
477.471	406.38
477.69	387.38
477.908	414.38
478.127	407.38
478.346	395.38
478.564	400.38
478.783	404.38
479.002	422.38
479.22	415.38
479.439	420.38
479.658	433.38
479.876	436.38
480.095	451.38
480.313	449.38
480.532	454.38
480.751	449.38
480.969	440.38
481.188	474.38
481.406	478.38
481.624	448.38
481.843	445.38
482.061	442.38
482.28	433.38
482.498	409.38
482.717	427.38
482.935	417.38
483.153	414.38
483.372	426.38
483.59	424.38
483.808	424.38
484.027	428.38
484.245	429.38
484.463	436.38
484.681	454.38
484.9	431.38
485.118	426.38
485.336	425.38
485.554	432.38
485.772	417.38
485.99	433.38
486.209	448.38
486.427	439.38
486.645	443.38
486.863	440.38
487.081	475.38
487.299	466.38
487.517	474.38
487.735	445.38
487.953	438.38
488.171	444.38
488.389	454.38
488.607	458.38
488.825	438.38
489.043	431.38
489.261	441.38
489.479	458.38
489.696	455.38
489.914	468.38
490.132	448.38
490.35	458.38
490.568	440.38
490.786	463.38
491.003	486.38
491.221	451.38
491.439	480.38
491.657	479.38
491.874	490.38
492.092	507.38
492.31	495.38
492.527	491.38
492.745	515.38
492.963	522.38
493.18	508.38
493.398	495.38
493.615	521.38
493.833	524.38
494.05	510.38
494.268	479.38
494.485	491.38
494.703	530.38
494.92	517.38
495.138	515.38
495.355	495.38
495.573	506.38
495.79	523.38
496.008	513.38
496.225	525.38
496.442	538.38
496.66	521.38
496.877	531.38
497.094	537.38
497.312	525.38
497.529	511.38
497.746	539.38
497.963	578.38
498.181	578.38
498.398	575.38
498.615	583.38
498.832	577.38
499.049	600.38
499.267	591.38
499.484	654.38
499.701	667.38
499.918	692.38
500.135	717.38
500.352	729.38
500.569	762.38
500.786	749.38
501.003	748.38
501.22	728.38
501.437	713.38
501.654	688.38
501.871	666.38
502.088	624.38
502.305	608.38
502.522	580.38
502.739	573.38
502.956	576.38
503.172	570.38
503.389	568.38
503.606	535.38
503.823	534.38
504.04	542.38
504.256	548.38
504.473	544.38
504.69	532.38
504.907	542.38
505.123	522.38
505.34	494.38
505.557	508.38
505.773	511.38
505.99	497.38
506.207	484.38
506.423	494.38
506.64	468.38
506.856	480.38
507.073	480.38
507.289	487.38
507.506	477.38
507.722	500.38
507.939	492.38
508.155	492.38
508.372	478.38
508.588	442.38
508.805	456.38
509.021	459.38
509.238	454.38
509.454	477.38
509.67	457.38
509.887	476.38
510.103	472.38
510.319	491.38
510.536	538.38
510.752	736.38
510.968	599.38
511.184	479.38
511.401	440.38
511.617	454.38
511.833	455.38
512.049	449.38
512.265	450.38
512.481	437.38
512.698	445.38
512.914	438.38
513.13	433.38
513.346	424.38
513.562	448.38
513.778	425.38
513.994	421.38
514.21	441.38
514.426	444.38
514.642	463.38
514.858	490.38
515.074	519.38
515.29	570.38
515.506	761.38
515.721	616.38
515.937	484.38
516.153	472.38
516.369	471.38
516.585	455.38
516.801	470.38
517.016	479.38
517.232	462.38
517.448	461.38
517.664	440.38
517.879	476.38
518.095	463.38
518.311	472.38
518.527	458.38
518.742	465.38
518.958	449.38
519.173	450.38
519.389	432.38
519.605	454.38
519.82	454.38
520.036	456.38
520.251	440.38
520.467	461.38
520.682	460.38
520.898	477.38
521.113	462.38
521.329	464.38
521.544	518.38
521.76	604.38
521.975	903.38
522.19	903.38
522.406	575.38
522.621	446.38
522.836	417.38
523.052	442.38
523.267	420.38
523.482	414.38
523.698	414.38
523.913	415.38
524.128	397.38
524.343	396.38
524.559	396.38
524.774	382.38
524.989	384.38
525.204	378.38
525.419	387.38
525.634	416.38
525.849	378.38
526.064	380.38
526.28	380.38
526.495	362.38
526.71	356.38
526.925	378.38
527.14	373.38
527.355	360.38
527.57	371.38
527.785	362.38
527.999	377.38
528.214	382.38
528.429	372.38
528.644	377.38
528.859	386.38
529.074	380.38
529.289	382.38
529.503	415.38
529.718	404.38
529.933	381.38
530.148	386.38
530.363	379.38
530.577	363.38
530.792	376.38
531.007	373.38
531.221	388.38
531.436	356.38
531.651	364.38
531.865	349.38
532.08	352.38
532.295	354.38
532.509	350.38
532.724	365.38
532.938	355.38
533.153	372.38
533.367	359.38
533.582	365.38
533.796	360.38
534.011	368.38
534.225	334.38
534.44	362.38
534.654	345.38
534.868	358.38
535.083	362.38
535.297	349.38
535.511	366.38
535.726	350.38
535.94	374.38
536.154	358.38
536.369	351.38
536.583	357.38
536.797	358.38
537.011	366.38
537.225	336.38
537.44	349.38
537.654	336.38
537.868	348.38
538.082	361.38
538.296	356.38
538.51	364.38
538.724	363.38
538.938	347.38
539.153	349.38
539.367	357.38
539.581	345.38
539.795	343.38
540.009	342.38
540.222	348.38
540.436	347.38
540.65	352.38
540.864	358.38
541.078	377.38
541.292	363.38
541.506	362.38
541.72	349.38
541.934	340.38
542.147	351.38
542.361	330.38
542.575	343.38
542.789	344.38
543.002	330.38
543.216	334.38
543.43	351.38
543.644	355.38
543.857	356.38
544.071	346.38
544.285	359.38
544.498	358.38
544.712	332.38
544.925	331.38
545.139	345.38
545.352	354.38
545.566	331.38
545.779	336.38
545.993	343.38
546.206	342.38
546.42	348.38
546.633	361.38
546.847	347.38
547.06	330.38
547.274	333.38
547.487	331.38
547.7	341.38
547.914	330.38
548.127	331.38
548.34	339.38
548.554	327.38
548.767	331.38
548.98	345.38
549.193	344.38
549.407	335.38
549.62	320.38
549.833	328.38
550.046	337.38
550.259	336.38
550.473	334.38
550.686	334.38
550.899	352.38
551.112	314.38
551.325	329.38
551.538	311.38
551.751	350.38
551.964	333.38
552.177	329.38
552.39	326.38
552.603	318.38
552.816	333.38
553.029	345.38
553.242	342.38
553.455	351.38
553.667	341.38
553.88	364.38
554.093	350.38
554.306	317.38
554.519	326.38
554.732	330.38
554.944	345.38
555.157	325.38
555.37	325.38
555.583	321.38
555.795	303.38
556.008	307.38
556.221	305.38
556.433	321.38
556.646	321.38
556.859	297.38
557.071	303.38
557.284	294.38
557.496	288.38
557.709	297.38
557.921	317.38
558.134	295.38
558.346	292.38
558.559	288.38
558.771	281.38
558.984	301.38
559.196	304.38
559.409	309.38
559.621	305.38
559.833	310.38
560.046	311.38
560.258	311.38
560.47	313.38
560.683	308.38
560.895	310.38
561.107	302.38
561.32	290.38
561.532	311.38
561.744	314.38
561.956	294.38
562.168	298.38
562.381	294.38
562.593	270.38
562.805	295.38
563.017	294.38
563.229	300.38
563.441	289.38
563.653	299.38
563.865	301.38
564.077	315.38
564.289	312.38
564.501	288.38
564.713	318.38
564.925	334.38
565.137	323.38
565.349	309.38
565.561	306.38
565.773	334.38
565.985	336.38
566.197	342.38
566.408	346.38
566.62	369.38
566.832	360.38
567.044	347.38
567.255	374.38
567.467	362.38
567.679	372.38
567.891	381.38
568.102	378.38
568.314	378.38
568.526	353.38
568.737	356.38
568.949	336.38
569.161	345.38
569.372	319.38
569.584	305.38
569.795	304.38
570.007	300.38
570.218	310.38
570.43	313.38
570.641	311.38
570.853	300.38
571.064	316.38
571.276	281.38
571.487	282.38
571.698	282.38
571.91	293.38
572.121	273.38
572.333	287.38
572.544	268.38
572.755	278.38
572.966	276.38
573.178	267.38
573.389	279.38
573.6	263.38
573.811	270.38
574.023	282.38
574.234	265.38
574.445	263.38
574.656	257.38
574.867	261.38
575.078	260.38
575.289	258.38
575.501	269.38
575.712	259.38
575.923	259.38
576.134	256.38
576.345	274.38
576.556	261.38
576.767	259.38
576.978	254.38
577.188	252.38
577.399	247.38
577.61	249.38
577.821	253.38
578.032	254.38
578.243	287.38
578.454	384.38
578.665	305.38
578.875	263.38
579.086	246.38
579.297	242.38
579.508	270.38
579.718	238.38
579.929	246.38
580.14	248.38
580.35	259.38
580.561	228.38
580.772	256.38
580.982	251.38
581.193	264.38
581.403	256.38
581.614	242.38
581.825	239.38
582.035	238.38
582.246	241.38
582.456	245.38
582.667	253.38
582.877	230.38
583.087	224.38
583.298	224.38
583.508	241.38
583.719	239.38
583.929	250.38
584.139	234.38
584.35	226.38
584.56	236.38
584.77	240.38
584.981	234.38
585.191	244.38
585.401	234.38
585.611	230.38
585.821	222.38
586.032	244.38
586.242	234.38
586.452	222.38
586.662	220.38
586.872	251.38
587.082	222.38
587.292	237.38
587.502	242.38
587.713	252.38
587.923	236.38
588.133	230.38
588.343	247.38
588.553	244.38
588.762	228.38
588.972	231.38
589.182	269.38
589.392	265.38
589.602	225.38
589.812	259.38
590.022	262.38
590.232	228.38
590.441	254.38
590.651	236.38
590.861	243.38
591.071	252.38
591.281	250.38
591.49	233.38
591.7	237.38
591.91	235.38
592.119	223.38
592.329	265.38
592.539	248.38
592.748	240.38
592.958	252.38
593.167	255.38
593.377	243.38
593.587	254.38
593.796	239.38
594.006	224.38
594.215	237.38
594.424	246.38
594.634	240.38
594.843	234.38
595.053	234.38
595.262	230.38
595.472	223.38
595.681	246.38
595.89	220.38
596.1	225.38
596.309	224.38
596.518	218.38
596.727	229.38
596.937	214.38
597.146	219.38
597.355	216.38
597.564	203.38
597.774	205.38
597.983	211.38
598.192	207.38
598.401	223.38
598.61	211.38
598.819	219.38
599.028	192.38
599.237	197.38
599.446	218.38
599.655	194.38
599.864	218.38
600.073	205.38
600.282	204.38
600.491	197.38
600.7	205.38
600.909	220.38
601.118	199.38
601.327	220.38
601.536	199.38
601.745	193.38
601.953	208.38
602.162	193.38
602.371	191.38
602.58	218.38
602.789	198.38
602.997	210.38
603.206	216.38
603.415	197.38
603.623	223.38
603.832	208.38
604.041	192.38
604.249	196.38
604.458	205.38
604.666	169.38
604.875	181.38
605.084	185.38
605.292	208.38
605.501	182.38
605.709	216.38
605.918	185.38
606.126	189.38
606.334	212.38
606.543	200.38
606.751	180.38
606.96	199.38
607.168	197.38
607.376	208.38
607.585	203.38
607.793	202.38
608.001	206.38
608.21	205.38
608.418	204.38
608.626	192.38
608.834	198.38
609.043	184.38
609.251	193.38
609.459	188.38
609.667	199.38
609.875	201.38
610.083	209.38
610.291	206.38
610.499	206.38
610.707	205.38
610.916	192.38
611.124	194.38
611.332	198.38
611.54	200.38
611.748	201.38
611.955	180.38
612.163	174.38
612.371	201.38
612.579	180.38
612.787	186.38
612.995	208.38
613.203	194.38
613.411	189.38
613.618	190.38
613.826	198.38
614.034	186.38
614.242	184.38
614.449	188.38
614.657	191.38
614.865	179.38
615.072	184.38
615.28	199.38
615.488	189.38
615.695	196.38
615.903	172.38
616.111	173.38
616.318	192.38
616.526	191.38
616.733	217.38
616.941	200.38
617.148	197.38
617.356	195.38
617.563	197.38
617.771	189.38
617.978	181.38
618.185	184.38
618.393	185.38
618.6	202.38
618.807	201.38
619.015	191.38
619.222	182.38
619.429	184.38
619.637	176.38
619.844	185.38
620.051	195.38
620.258	195.38
620.466	182.38
620.673	169.38
620.88	167.38
621.087	167.38
621.294	186.38
621.501	184.38
621.708	173.38
621.915	177.38
622.122	186.38
622.329	174.38
622.536	174.38
622.743	181.38
622.95	181.38
623.157	172.38
623.364	183.38
623.571	165.38
623.778	186.38
623.985	164.38
624.192	184.38
624.399	162.38
624.606	173.38
624.812	165.38
625.019	154.38
625.226	170.38
625.433	179.38
625.639	170.38
625.846	166.38
626.053	179.38
626.259	164.38
626.466	181.38
626.673	179.38
626.879	158.38
627.086	177.38
627.293	170.38
627.499	172.38
627.706	163.38
627.912	161.38
628.119	170.38
628.325	174.38
628.532	175.38
628.738	152.38
628.945	153.38
629.151	171.38
629.357	174.38
629.564	157.38
629.77	178.38
629.976	177.38
630.183	162.38
630.389	159.38
630.595	174.38
630.802	184.38
631.008	161.38
631.214	164.38
631.42	148.38
631.627	166.38
631.833	170.38
632.039	150.38
632.245	150.38
632.451	157.38
632.657	164.38
632.863	168.38
633.069	156.38
633.275	150.38
633.481	148.38
633.688	156.38
633.893	162.38
634.099	156.38
634.305	174.38
634.511	161.38
634.717	148.38
634.923	171.38
635.129	169.38
635.335	140.38
635.541	157.38
635.747	160.38
635.952	150.38
636.158	158.38
636.364	155.38
636.57	150.38
636.775	174.38
636.981	156.38
637.187	133.38
637.392	170.38
637.598	154.38
637.804	158.38
638.009	151.38
638.215	152.38
638.421	153.38
638.626	134.38
638.832	154.38
639.037	146.38
639.243	146.38
639.448	161.38
639.654	160.38
639.859	145.38
640.065	139.38
640.27	150.38
640.475	146.38
640.681	145.38
640.886	154.38
641.091	153.38
641.297	152.38
641.502	150.38
641.707	146.38
641.913	152.38
642.118	168.38
642.323	143.38
642.528	149.38
642.733	168.38
642.939	148.38
643.144	144.38
643.349	134.38
643.554	143.38
643.759	153.38
643.964	153.38
644.169	156.38
644.374	143.38
644.579	142.38
644.784	146.38
644.989	132.38
645.194	142.38
645.399	139.38
645.604	132.38
645.809	136.38
646.014	162.38
646.219	150.38
646.423	140.38
646.628	149.38
646.833	140.38
647.038	146.38
647.243	145.38
647.447	136.38
647.652	164.38
647.857	148.38
648.062	148.38
648.266	151.38
648.471	146.38
648.676	164.38
648.88	138.38
649.085	158.38
649.289	149.38
649.494	137.38
649.698	178.38
649.903	163.38
650.107	142.38
650.312	144.38
650.516	148.38
650.721	128.38
650.925	137.38
651.13	141.38
651.334	130.38
651.539	132.38
651.743	144.38
651.947	130.38
652.152	135.38
652.356	127.38
652.56	127.38
652.764	129.38
652.969	135.38
653.173	136.38
653.377	128.38
653.581	132.38
653.785	128.38
653.99	133.38
654.194	130.38
654.398	126.38
654.602	121.38
654.806	126.38
655.01	130.38
655.214	130.38
655.418	135.38
655.622	122.38
655.826	131.38
656.03	120.38
656.234	114.38
656.438	133.38
656.642	124.38
656.846	131.38
657.049	122.38
657.253	119.38
657.457	115.38
657.661	108.38
657.865	116.38
658.068	118.38
658.272	110.38
658.476	109.38
658.68	109.38
658.883	104.38
659.087	95.38
659.291	97.38
659.494	105.38
659.698	93.38
659.901	107.38
660.105	102.38
660.309	96.38
660.512	98.38
660.716	106.38
660.919	102.38
661.123	93.38
661.326	110.38
661.53	104.38
661.733	91.38
661.936	98.38
662.14	98.38
662.343	91.38
662.546	84.38
662.75	98.38
662.953	101.38
663.156	77.38
663.36	94.38
663.563	100.38
663.766	81.38
663.969	81.38
664.173	85.38
664.376	93.38
664.579	97.38
664.782	86.38
664.985	80.38
665.188	95.38
665.391	81.38
665.594	87.38
665.797	78.38
666	94.38
666.203	90.38
666.406	85.38
666.609	89.38
666.812	92.38
667.015	84.38
667.218	80.38
667.421	83.38
667.624	78.38
667.827	82.38
668.03	78.38
668.232	88.38
668.435	92.38
668.638	86.38
668.841	88.38
669.043	94.38
669.246	103.38
669.449	71.38
669.651	90.38
669.854	91.38
670.057	81.38
670.259	80.38
670.462	84.38
670.665	80.38
670.867	101.38
671.07	96.38
671.272	90.38
671.475	97.38
671.677	84.38
671.88	81.38
672.082	88.38
672.284	71.38
672.487	71.38
672.689	86.38
672.892	87.38
