Data from 1960PennyLincolnUp.LampE6.200Scan.07172019.P1_HRD10591_13-05-03-002.txt Node
Date: Thu Jul 18 13:05:03 EDT 2019
User: cochatt
Spectrometer: HR+D1059
Trigger mode: 1
Integration Time (sec): 1.000000E-1
Scans to average: 1
Electric dark correction enabled: true
Nonlinearity correction enabled: false
Boxcar width: 0
XAxis mode: Wavelengths
Number of Pixels in Spectrum: 2048
>>>>>Begin Spectral Data<<<<<
223.165	-10.25
223.4	-10.25
223.635	-10.25
223.869	-7.25
224.104	-14.25
224.338	-10.25
224.573	-14.25
224.808	-16.25
225.042	-13.25
225.277	-7.25
225.511	-2.25
225.746	-0.25
225.98	3.75
226.215	15.75
226.449	15.75
226.683	8.75
226.918	22.75
227.152	28.75
227.387	32.75
227.621	45.75
227.856	58.75
228.09	49.75
228.324	36.75
228.559	60.75
228.793	77.75
229.027	85.75
229.262	94.75
229.496	110.75
229.73	82.75
229.964	122.75
230.199	111.75
230.433	101.75
230.667	108.75
230.901	90.75
231.136	94.75
231.37	83.75
231.604	110.75
231.838	96.75
232.072	97.75
232.306	113.75
232.541	110.75
232.775	102.75
233.009	110.75
233.243	100.75
233.477	100.75
233.711	114.75
233.945	128.75
234.179	115.75
234.413	128.75
234.647	114.75
234.881	109.75
235.115	106.75
235.349	112.75
235.583	105.75
235.817	113.75
236.051	108.75
236.285	129.75
236.519	110.75
236.753	104.75
236.987	123.75
237.221	145.75
237.455	158.75
237.689	130.75
237.922	113.75
238.156	98.75
238.39	111.75
238.624	132.75
238.858	112.75
239.091	127.75
239.325	126.75
239.559	120.75
239.793	132.75
240.027	119.75
240.26	120.75
240.494	130.75
240.728	131.75
240.961	131.75
241.195	112.75
241.429	130.75
241.662	128.75
241.896	114.75
242.13	119.75
242.363	128.75
242.597	117.75
242.83	126.75
243.064	134.75
243.298	133.75
243.531	158.75
243.765	136.75
243.998	124.75
244.232	139.75
244.465	144.75
244.699	120.75
244.932	133.75
245.166	144.75
245.399	126.75
245.633	144.75
245.866	140.75
246.099	153.75
246.333	150.75
246.566	144.75
246.8	130.75
247.033	137.75
247.266	135.75
247.5	133.75
247.733	141.75
247.966	146.75
248.2	151.75
248.433	158.75
248.666	168.75
248.899	150.75
249.133	169.75
249.366	181.75
249.599	153.75
249.832	161.75
250.066	149.75
250.299	164.75
250.532	165.75
250.765	169.75
250.998	170.75
251.231	171.75
251.465	179.75
251.698	185.75
251.931	167.75
252.164	158.75
252.397	166.75
252.63	174.75
252.863	186.75
253.096	167.75
253.329	188.75
253.562	177.75
253.795	174.75
254.028	159.75
254.261	181.75
254.494	185.75
254.727	192.75
254.96	178.75
255.193	193.75
255.426	184.75
255.659	183.75
255.892	193.75
256.124	211.75
256.357	184.75
256.59	168.75
256.823	176.75
257.056	186.75
257.289	177.75
257.521	191.75
257.754	182.75
257.987	185.75
258.22	192.75
258.452	182.75
258.685	182.75
258.918	193.75
259.151	175.75
259.383	179.75
259.616	191.75
259.849	200.75
260.081	197.75
260.314	212.75
260.547	204.75
260.779	205.75
261.012	194.75
261.244	201.75
261.477	203.75
261.71	183.75
261.942	178.75
262.175	199.75
262.407	186.75
262.64	185.75
262.872	186.75
263.105	198.75
263.337	188.75
263.57	194.75
263.802	197.75
264.035	184.75
264.267	198.75
264.499	197.75
264.732	193.75
264.964	192.75
265.197	192.75
265.429	215.75
265.661	193.75
265.894	197.75
266.126	220.75
266.358	195.75
266.591	195.75
266.823	220.75
267.055	206.75
267.287	191.75
267.52	204.75
267.752	195.75
267.984	216.75
268.216	210.75
268.448	209.75
268.681	211.75
268.913	223.75
269.145	206.75
269.377	220.75
269.609	224.75
269.841	234.75
270.073	224.75
270.306	246.75
270.538	239.75
270.77	257.75
271.002	255.75
271.234	225.75
271.466	240.75
271.698	236.75
271.93	251.75
272.162	237.75
272.394	236.75
272.626	253.75
272.858	246.75
273.09	250.75
273.322	249.75
273.553	231.75
273.785	240.75
274.017	227.75
274.249	230.75
274.481	222.75
274.713	242.75
274.945	216.75
275.176	248.75
275.408	254.75
275.64	237.75
275.872	246.75
276.104	255.75
276.335	224.75
276.567	239.75
276.799	254.75
277.031	248.75
277.262	276.75
277.494	280.75
277.726	261.75
277.957	252.75
278.189	256.75
278.421	244.75
278.652	244.75
278.884	258.75
279.115	257.75
279.347	260.75
279.579	254.75
279.81	250.75
280.042	262.75
280.273	260.75
280.505	256.75
280.736	252.75
280.968	270.75
281.199	276.75
281.431	242.75
281.662	257.75
281.894	255.75
282.125	257.75
282.356	260.75
282.588	293.75
282.819	268.75
283.051	273.75
283.282	247.75
283.513	277.75
283.745	259.75
283.976	267.75
284.207	266.75
284.439	268.75
284.67	272.75
284.901	263.75
285.132	287.75
285.364	263.75
285.595	271.75
285.826	268.75
286.057	265.75
286.288	276.75
286.52	280.75
286.751	280.75
286.982	268.75
287.213	286.75
287.444	270.75
287.675	289.75
287.906	279.75
288.138	295.75
288.369	295.75
288.6	300.75
288.831	296.75
289.062	294.75
289.293	309.75
289.524	279.75
289.755	297.75
289.986	291.75
290.217	285.75
290.448	269.75
290.679	286.75
290.91	285.75
291.141	296.75
291.371	293.75
291.602	289.75
291.833	269.75
292.064	263.75
292.295	304.75
292.526	294.75
292.757	275.75
292.987	291.75
293.218	292.75
293.449	285.75
293.68	304.75
293.91	297.75
294.141	304.75
294.372	307.75
294.603	287.75
294.833	300.75
295.064	308.75
295.295	300.75
295.525	271.75
295.756	306.75
295.987	311.75
296.217	309.75
296.448	319.75
296.679	292.75
296.909	309.75
297.14	295.75
297.37	314.75
297.601	297.75
297.831	304.75
298.062	321.75
298.292	306.75
298.523	311.75
298.753	320.75
298.984	311.75
299.214	304.75
299.445	307.75
299.675	323.75
299.905	313.75
300.136	298.75
300.366	315.75
300.597	321.75
300.827	324.75
301.057	323.75
301.288	317.75
301.518	339.75
301.748	341.75
301.979	337.75
302.209	330.75
302.439	333.75
302.669	317.75
302.9	335.75
303.13	327.75
303.36	346.75
303.59	338.75
303.82	320.75
304.051	325.75
304.281	314.75
304.511	319.75
304.741	322.75
304.971	313.75
305.201	323.75
305.431	328.75
305.661	334.75
305.891	317.75
306.121	328.75
306.352	333.75
306.582	322.75
306.812	328.75
307.042	328.75
307.272	323.75
307.502	326.75
307.731	314.75
307.961	318.75
308.191	322.75
308.421	330.75
308.651	317.75
308.881	329.75
309.111	326.75
309.341	343.75
309.571	353.75
309.8	329.75
310.03	342.75
310.26	341.75
310.49	341.75
310.72	347.75
310.949	354.75
311.179	357.75
311.409	337.75
311.639	360.75
311.868	356.75
312.098	356.75
312.328	365.75
312.557	361.75
312.787	373.75
313.017	370.75
313.246	352.75
313.476	328.75
313.706	354.75
313.935	366.75
314.165	370.75
314.394	366.75
314.624	370.75
314.853	356.75
315.083	357.75
315.312	362.75
315.542	363.75
315.771	356.75
316.001	354.75
316.23	353.75
316.46	360.75
316.689	358.75
316.919	354.75
317.148	370.75
317.377	365.75
317.607	367.75
317.836	355.75
318.065	352.75
318.295	368.75
318.524	354.75
318.753	346.75
318.983	351.75
319.212	362.75
319.441	372.75
319.67	362.75
319.9	360.75
320.129	357.75
320.358	370.75
320.587	367.75
320.816	367.75
321.046	383.75
321.275	376.75
321.504	381.75
321.733	370.75
321.962	398.75
322.191	379.75
322.42	379.75
322.649	391.75
322.878	404.75
323.108	398.75
323.337	411.75
323.566	386.75
323.795	435.75
324.024	431.75
324.253	490.75
324.482	647.75
324.71	888.75
324.939	1212.75
325.168	1012.75
325.397	560.75
325.626	461.75
325.855	431.75
326.084	412.75
326.313	434.75
326.542	428.75
326.77	445.75
326.999	510.75
327.228	630.75
327.457	851.75
327.686	940.75
327.914	676.75
328.143	510.75
328.372	481.75
328.6	437.75
328.829	441.75
329.058	466.75
329.287	443.75
329.515	446.75
329.744	430.75
329.972	422.75
330.201	464.75
330.43	451.75
330.658	456.75
330.887	493.75
331.115	484.75
331.344	447.75
331.572	429.75
331.801	454.75
332.03	438.75
332.258	430.75
332.486	438.75
332.715	447.75
332.943	458.75
333.172	479.75
333.4	478.75
333.629	497.75
333.857	496.75
334.085	499.75
334.314	505.75
334.542	507.75
334.771	522.75
334.999	506.75
335.227	474.75
335.455	472.75
335.684	461.75
335.912	462.75
336.14	466.75
336.369	448.75
336.597	445.75
336.825	448.75
337.053	427.75
337.281	453.75
337.51	443.75
337.738	434.75
337.966	444.75
338.194	422.75
338.422	421.75
338.65	456.75
338.878	426.75
339.106	455.75
339.334	443.75
339.562	427.75
339.79	404.75
340.018	425.75
340.246	422.75
340.474	428.75
340.702	395.75
340.93	414.75
341.158	420.75
341.386	432.75
341.614	432.75
341.842	405.75
342.07	417.75
342.298	405.75
342.526	416.75
342.754	425.75
342.981	419.75
343.209	409.75
343.437	433.75
343.665	434.75
343.893	446.75
344.12	476.75
344.348	460.75
344.576	455.75
344.804	434.75
345.031	412.75
345.259	425.75
345.487	414.75
345.714	409.75
345.942	383.75
346.17	383.75
346.397	401.75
346.625	417.75
346.853	381.75
347.08	400.75
347.308	386.75
347.535	406.75
347.763	406.75
347.99	417.75
348.218	432.75
348.445	380.75
348.673	407.75
348.9	384.75
349.128	398.75
349.355	401.75
349.583	398.75
349.81	399.75
350.037	396.75
350.265	404.75
350.492	399.75
350.72	370.75
350.947	380.75
351.174	387.75
351.402	396.75
351.629	389.75
351.856	393.75
352.083	394.75
352.311	404.75
352.538	371.75
352.765	384.75
352.992	405.75
353.22	379.75
353.447	400.75
353.674	373.75
353.901	375.75
354.128	379.75
354.355	382.75
354.583	393.75
354.81	372.75
355.037	385.75
355.264	381.75
355.491	395.75
355.718	392.75
355.945	382.75
356.172	391.75
356.399	394.75
356.626	378.75
356.853	368.75
357.08	397.75
357.307	370.75
357.534	370.75
357.761	385.75
357.988	392.75
358.215	390.75
358.441	401.75
358.668	390.75
358.895	388.75
359.122	397.75
359.349	400.75
359.576	407.75
359.802	408.75
360.029	432.75
360.256	415.75
360.483	392.75
360.709	419.75
360.936	396.75
361.163	388.75
361.39	379.75
361.616	406.75
361.843	395.75
362.07	376.75
362.296	388.75
362.523	423.75
362.749	397.75
362.976	380.75
363.203	397.75
363.429	386.75
363.656	393.75
363.882	385.75
364.109	389.75
364.335	396.75
364.562	379.75
364.788	387.75
365.015	390.75
365.241	398.75
365.468	387.75
365.694	384.75
365.92	392.75
366.147	376.75
366.373	393.75
366.599	379.75
366.826	383.75
367.052	379.75
367.278	369.75
367.505	384.75
367.731	407.75
367.957	394.75
368.184	397.75
368.41	384.75
368.636	392.75
368.862	375.75
369.089	394.75
369.315	404.75
369.541	386.75
369.767	400.75
369.993	405.75
370.219	396.75
370.445	398.75
370.672	409.75
370.898	404.75
371.124	398.75
371.35	397.75
371.576	415.75
371.802	421.75
372.028	422.75
372.254	414.75
372.48	412.75
372.706	421.75
372.932	418.75
373.158	420.75
373.384	436.75
373.61	407.75
373.835	420.75
374.061	403.75
374.287	417.75
374.513	420.75
374.739	448.75
374.965	434.75
375.191	433.75
375.416	450.75
375.642	446.75
375.868	420.75
376.094	429.75
376.319	422.75
376.545	412.75
376.771	395.75
376.997	407.75
377.222	425.75
377.448	398.75
377.674	402.75
377.899	415.75
378.125	399.75
378.35	394.75
378.576	393.75
378.802	382.75
379.027	400.75
379.253	415.75
379.478	416.75
379.704	426.75
379.929	410.75
380.155	413.75
380.38	392.75
380.606	402.75
380.831	419.75
381.057	414.75
381.282	396.75
381.507	403.75
381.733	408.75
381.958	419.75
382.184	423.75
382.409	421.75
382.634	430.75
382.86	440.75
383.085	407.75
383.31	439.75
383.535	452.75
383.761	440.75
383.986	445.75
384.211	454.75
384.436	457.75
384.662	452.75
384.887	480.75
385.112	477.75
385.337	459.75
385.562	480.75
385.787	480.75
386.013	484.75
386.238	474.75
386.463	469.75
386.688	475.75
386.913	488.75
387.138	469.75
387.363	494.75
387.588	469.75
387.813	488.75
388.038	475.75
388.263	479.75
388.488	476.75
388.713	461.75
388.938	478.75
389.163	459.75
389.387	472.75
389.612	460.75
389.837	483.75
390.062	475.75
390.287	456.75
390.512	462.75
390.736	462.75
390.961	477.75
391.186	485.75
391.411	477.75
391.636	512.75
391.86	504.75
392.085	497.75
392.31	510.75
392.534	525.75
392.759	499.75
392.984	498.75
393.208	506.75
393.433	548.75
393.658	558.75
393.882	512.75
394.107	493.75
394.331	464.75
394.556	512.75
394.78	478.75
395.005	490.75
395.229	480.75
395.454	513.75
395.678	512.75
395.903	510.75
396.127	534.75
396.352	528.75
396.576	516.75
396.801	515.75
397.025	550.75
397.249	533.75
397.474	517.75
397.698	496.75
397.922	518.75
398.147	546.75
398.371	526.75
398.595	529.75
398.82	553.75
399.044	584.75
399.268	613.75
399.492	682.75
399.717	746.75
399.941	743.75
400.165	689.75
400.389	677.75
400.613	621.75
400.837	580.75
401.062	570.75
401.286	558.75
401.51	564.75
401.734	554.75
401.958	568.75
402.182	563.75
402.406	569.75
402.63	580.75
402.854	570.75
403.078	596.75
403.302	611.75
403.526	608.75
403.75	600.75
403.974	602.75
404.198	613.75
404.422	610.75
404.645	644.75
404.869	608.75
405.093	624.75
405.317	646.75
405.541	674.75
405.765	618.75
405.988	625.75
406.212	611.75
406.436	618.75
406.66	649.75
406.883	609.75
407.107	643.75
407.331	692.75
407.555	736.75
407.778	713.75
408.002	704.75
408.226	651.75
408.449	632.75
408.673	624.75
408.896	629.75
409.12	641.75
409.344	611.75
409.567	575.75
409.791	578.75
410.014	594.75
410.238	564.75
410.461	576.75
410.685	584.75
410.908	620.75
411.132	582.75
411.355	607.75
411.578	591.75
411.802	584.75
412.025	570.75
412.249	589.75
412.472	598.75
412.695	621.75
412.919	615.75
413.142	565.75
413.365	561.75
413.589	559.75
413.812	560.75
414.035	543.75
414.258	559.75
414.482	551.75
414.705	550.75
414.928	558.75
415.151	551.75
415.374	557.75
415.597	569.75
415.821	545.75
416.044	526.75
416.267	544.75
416.49	537.75
416.713	530.75
416.936	556.75
417.159	514.75
417.382	528.75
417.605	524.75
417.828	547.75
418.051	561.75
418.274	535.75
418.497	560.75
418.72	567.75
418.943	560.75
419.166	560.75
419.389	598.75
419.611	588.75
419.834	573.75
420.057	568.75
420.28	576.75
420.503	565.75
420.726	546.75
420.948	559.75
421.171	557.75
421.394	582.75
421.617	556.75
421.839	534.75
422.062	535.75
422.285	549.75
422.507	597.75
422.73	665.75
422.953	622.75
423.175	583.75
423.398	579.75
423.621	556.75
423.843	605.75
424.066	574.75
424.288	598.75
424.511	609.75
424.733	626.75
424.956	649.75
425.178	645.75
425.401	623.75
425.623	638.75
425.846	585.75
426.068	547.75
426.291	542.75
426.513	584.75
426.735	554.75
426.958	552.75
427.18	609.75
427.402	673.75
427.625	721.75
427.847	639.75
428.069	586.75
428.292	550.75
428.514	524.75
428.736	548.75
428.958	490.75
429.181	494.75
429.403	483.75
429.625	507.75
429.847	497.75
430.069	546.75
430.292	549.75
430.514	526.75
430.736	488.75
430.958	506.75
431.18	482.75
431.402	476.75
431.624	513.75
431.846	522.75
432.068	503.75
432.29	508.75
432.512	494.75
432.734	510.75
432.956	512.75
433.178	511.75
433.4	517.75
433.622	527.75
433.844	520.75
434.066	514.75
434.287	514.75
434.509	515.75
434.731	524.75
434.953	537.75
435.175	544.75
435.397	564.75
435.618	546.75
435.84	551.75
436.062	615.75
436.284	634.75
436.505	538.75
436.727	514.75
436.949	509.75
437.17	514.75
437.392	492.75
437.614	511.75
437.835	525.75
438.057	565.75
438.278	607.75
438.5	615.75
438.721	621.75
438.943	626.75
439.165	545.75
439.386	546.75
439.608	531.75
439.829	536.75
440.05	530.75
440.272	558.75
440.493	540.75
440.715	511.75
440.936	506.75
441.158	523.75
441.379	526.75
441.6	546.75
441.822	544.75
442.043	568.75
442.264	616.75
442.486	637.75
442.707	574.75
442.928	526.75
443.149	543.75
443.371	574.75
443.592	595.75
443.813	650.75
444.034	652.75
444.255	612.75
444.476	621.75
444.698	601.75
444.919	612.75
445.14	690.75
445.361	652.75
445.582	573.75
445.803	614.75
446.024	628.75
446.245	622.75
446.466	609.75
446.687	536.75
446.908	503.75
447.129	489.75
447.35	481.75
447.571	479.75
447.792	470.75
448.013	481.75
448.234	497.75
448.455	506.75
448.675	573.75
448.896	616.75
449.117	576.75
449.338	528.75
449.559	585.75
449.779	631.75
450	544.75
450.221	505.75
450.442	473.75
450.662	478.75
450.883	473.75
451.104	494.75
451.324	448.75
451.545	465.75
451.766	450.75
451.986	432.75
452.207	442.75
452.428	463.75
452.648	452.75
452.869	437.75
453.089	452.75
453.31	469.75
453.53	461.75
453.751	433.75
453.971	437.75
454.192	447.75
454.412	435.75
454.633	447.75
454.853	434.75
455.073	424.75
455.294	432.75
455.514	472.75
455.734	484.75
455.955	438.75
456.175	430.75
456.395	419.75
456.616	420.75
456.836	416.75
457.056	437.75
457.276	433.75
457.497	439.75
457.717	418.75
457.937	430.75
458.157	439.75
458.377	438.75
458.598	454.75
458.818	476.75
459.038	503.75
459.258	554.75
459.478	517.75
459.698	510.75
459.918	499.75
460.138	525.75
460.358	544.75
460.578	553.75
460.798	535.75
461.018	552.75
461.238	551.75
461.458	522.75
461.678	542.75
461.898	551.75
462.118	520.75
462.338	580.75
462.558	584.75
462.777	575.75
462.997	621.75
463.217	656.75
463.437	652.75
463.657	655.75
463.876	582.75
464.096	612.75
464.316	573.75
464.536	622.75
464.755	601.75
464.975	590.75
465.195	601.75
465.414	574.75
465.634	542.75
465.854	509.75
466.073	505.75
466.293	501.75
466.512	483.75
466.732	485.75
466.951	470.75
467.171	451.75
467.391	478.75
467.61	466.75
467.829	471.75
468.049	480.75
468.268	449.75
468.488	468.75
468.707	453.75
468.927	454.75
469.146	438.75
469.365	456.75
469.585	469.75
469.804	476.75
470.023	482.75
470.243	501.75
470.462	502.75
470.681	514.75
470.901	488.75
471.12	478.75
471.339	495.75
471.558	467.75
471.777	484.75
471.997	473.75
472.216	469.75
472.435	484.75
472.654	470.75
472.873	450.75
473.092	451.75
473.311	439.75
473.53	446.75
473.749	451.75
473.968	466.75
474.187	522.75
474.406	522.75
474.625	497.75
474.844	445.75
475.063	470.75
475.282	453.75
475.501	462.75
475.72	471.75
475.939	453.75
476.158	465.75
476.377	468.75
476.596	456.75
476.814	470.75
477.033	473.75
477.252	481.75
477.471	518.75
477.69	500.75
477.908	521.75
478.127	543.75
478.346	520.75
478.564	530.75
478.783	557.75
479.002	554.75
479.22	546.75
479.439	556.75
479.658	574.75
479.876	560.75
480.095	564.75
480.313	604.75
480.532	597.75
480.751	590.75
480.969	559.75
481.188	618.75
481.406	594.75
481.624	561.75
481.843	555.75
482.061	539.75
482.28	553.75
482.498	518.75
482.717	521.75
482.935	536.75
483.153	521.75
483.372	540.75
483.59	548.75
483.808	524.75
484.027	553.75
484.245	535.75
484.463	542.75
484.681	553.75
484.9	544.75
485.118	563.75
485.336	579.75
485.554	569.75
485.772	557.75
485.99	579.75
486.209	561.75
486.427	558.75
486.645	582.75
486.863	588.75
487.081	572.75
487.299	568.75
487.517	575.75
487.735	562.75
487.953	568.75
488.171	593.75
488.389	563.75
488.607	571.75
488.825	558.75
489.043	556.75
489.261	565.75
489.479	574.75
489.696	585.75
489.914	572.75
490.132	548.75
490.35	593.75
490.568	579.75
490.786	587.75
491.003	571.75
491.221	617.75
491.439	626.75
491.657	616.75
491.874	612.75
492.092	609.75
492.31	617.75
492.527	615.75
492.745	617.75
492.963	633.75
493.18	618.75
493.398	610.75
493.615	631.75
493.833	642.75
494.05	648.75
494.268	644.75
494.485	626.75
494.703	630.75
494.92	633.75
495.138	620.75
495.355	639.75
495.573	648.75
495.79	622.75
496.008	649.75
496.225	625.75
496.442	639.75
496.66	647.75
496.877	622.75
497.094	674.75
497.312	693.75
497.529	678.75
497.746	682.75
497.963	696.75
498.181	709.75
498.398	730.75
498.615	768.75
498.832	793.75
499.049	806.75
499.267	873.75
499.484	928.75
499.701	977.75
499.918	1076.75
500.135	1138.75
500.352	1276.75
500.569	1309.75
500.786	1292.75
501.003	1214.75
501.22	1154.75
501.437	1087.75
501.654	973.75
501.871	922.75
502.088	866.75
502.305	825.75
502.522	774.75
502.739	776.75
502.956	745.75
503.172	721.75
503.389	699.75
503.606	681.75
503.823	689.75
504.04	702.75
504.256	662.75
504.473	687.75
504.69	672.75
504.907	698.75
505.123	646.75
505.34	633.75
505.557	636.75
505.773	598.75
505.99	608.75
506.207	610.75
506.423	577.75
506.64	580.75
506.856	570.75
507.073	568.75
507.289	574.75
507.506	566.75
507.722	567.75
507.939	576.75
508.155	550.75
508.372	547.75
508.588	517.75
508.805	532.75
509.021	550.75
509.238	547.75
509.454	511.75
509.67	532.75
509.887	522.75
510.103	527.75
510.319	544.75
510.536	573.75
510.752	819.75
510.968	689.75
511.184	549.75
511.401	518.75
511.617	508.75
511.833	516.75
512.049	509.75
512.265	494.75
512.481	493.75
512.698	517.75
512.914	513.75
513.13	537.75
513.346	501.75
513.562	507.75
513.778	512.75
513.994	537.75
514.21	511.75
514.426	542.75
514.642	540.75
514.858	537.75
515.074	544.75
515.29	632.75
515.506	813.75
515.721	732.75
515.937	580.75
516.153	575.75
516.369	561.75
516.585	560.75
516.801	573.75
517.016	590.75
517.232	615.75
517.448	614.75
517.664	612.75
517.879	640.75
518.095	648.75
518.311	647.75
518.527	614.75
518.742	594.75
518.958	576.75
519.173	561.75
519.389	556.75
519.605	536.75
519.82	549.75
520.036	524.75
520.251	534.75
520.467	570.75
520.682	527.75
520.898	529.75
521.113	536.75
521.329	532.75
521.544	561.75
521.76	647.75
521.975	933.75
522.19	940.75
522.406	614.75
522.621	526.75
522.836	497.75
523.052	496.75
523.267	486.75
523.482	476.75
523.698	457.75
523.913	480.75
524.128	473.75
524.343	450.75
524.559	478.75
524.774	446.75
524.989	466.75
525.204	452.75
525.419	445.75
525.634	455.75
525.849	457.75
526.064	447.75
526.28	460.75
526.495	461.75
526.71	452.75
526.925	440.75
527.14	428.75
527.355	442.75
527.57	443.75
527.785	440.75
527.999	443.75
528.214	443.75
528.429	435.75
528.644	478.75
528.859	441.75
529.074	447.75
529.289	459.75
529.503	490.75
529.718	464.75
529.933	441.75
530.148	450.75
530.363	458.75
530.577	435.75
530.792	447.75
531.007	458.75
531.221	432.75
531.436	447.75
531.651	445.75
531.865	416.75
532.08	424.75
532.295	429.75
532.509	446.75
532.724	418.75
532.938	441.75
533.153	432.75
533.367	448.75
533.582	450.75
533.796	426.75
534.011	422.75
534.225	442.75
534.44	449.75
534.654	422.75
534.868	441.75
535.083	413.75
535.297	428.75
535.511	432.75
535.726	436.75
535.94	442.75
536.154	418.75
536.369	454.75
536.583	418.75
536.797	441.75
537.011	395.75
537.225	416.75
537.44	404.75
537.654	394.75
537.868	401.75
538.082	427.75
538.296	404.75
538.51	412.75
538.724	414.75
538.938	408.75
539.153	407.75
539.367	422.75
539.581	426.75
539.795	408.75
540.009	389.75
540.222	395.75
540.436	389.75
540.65	413.75
540.864	412.75
541.078	416.75
541.292	412.75
541.506	431.75
541.72	434.75
541.934	416.75
542.147	405.75
542.361	407.75
542.575	401.75
542.789	418.75
543.002	412.75
543.216	429.75
543.43	392.75
543.644	410.75
543.857	415.75
544.071	409.75
544.285	393.75
544.498	409.75
544.712	419.75
544.925	430.75
545.139	408.75
545.352	417.75
545.566	431.75
545.779	430.75
545.993	403.75
546.206	428.75
546.42	414.75
546.633	423.75
546.847	438.75
547.06	432.75
547.274	412.75
547.487	433.75
547.7	406.75
547.914	410.75
548.127	414.75
548.34	426.75
548.554	406.75
548.767	432.75
548.98	440.75
549.193	426.75
549.407	438.75
549.62	420.75
549.833	411.75
550.046	426.75
550.259	429.75
550.473	416.75
550.686	447.75
550.899	408.75
551.112	402.75
551.325	415.75
551.538	396.75
551.751	402.75
551.964	401.75
552.177	383.75
552.39	413.75
552.603	426.75
552.816	435.75
553.029	439.75
553.242	424.75
553.455	443.75
553.667	451.75
553.88	460.75
554.093	440.75
554.306	427.75
554.519	427.75
554.732	436.75
554.944	414.75
555.157	401.75
555.37	406.75
555.583	416.75
555.795	388.75
556.008	393.75
556.221	387.75
556.433	378.75
556.646	371.75
556.859	374.75
557.071	372.75
557.284	376.75
557.496	381.75
557.709	369.75
557.921	367.75
558.134	383.75
558.346	375.75
558.559	381.75
558.771	368.75
558.984	360.75
559.196	382.75
559.409	357.75
559.621	357.75
559.833	341.75
560.046	362.75
560.258	358.75
560.47	360.75
560.683	385.75
560.895	340.75
561.107	363.75
561.32	360.75
561.532	388.75
561.744	362.75
561.956	352.75
562.168	358.75
562.381	375.75
562.593	368.75
562.805	365.75
563.017	352.75
563.229	366.75
563.441	385.75
563.653	382.75
563.865	356.75
564.077	366.75
564.289	363.75
564.501	377.75
564.713	394.75
564.925	386.75
565.137	405.75
565.349	402.75
565.561	418.75
565.773	407.75
565.985	402.75
566.197	446.75
566.408	461.75
566.62	515.75
566.832	537.75
567.044	548.75
567.255	540.75
567.467	549.75
567.679	560.75
567.891	581.75
568.102	607.75
568.314	568.75
568.526	523.75
568.737	502.75
568.949	457.75
569.161	462.75
569.372	410.75
569.584	419.75
569.795	407.75
570.007	392.75
570.218	395.75
570.43	376.75
570.641	372.75
570.853	375.75
571.064	364.75
571.276	357.75
571.487	366.75
571.698	365.75
571.91	344.75
572.121	342.75
572.333	334.75
572.544	341.75
572.755	320.75
572.966	327.75
573.178	323.75
573.389	339.75
573.6	320.75
573.811	313.75
574.023	316.75
574.234	316.75
574.445	307.75
574.656	314.75
574.867	312.75
575.078	313.75
575.289	327.75
575.501	317.75
575.712	322.75
575.923	297.75
576.134	306.75
576.345	317.75
576.556	326.75
576.767	297.75
576.978	296.75
577.188	305.75
577.399	306.75
577.61	292.75
577.821	285.75
578.032	288.75
578.243	317.75
578.454	418.75
578.665	333.75
578.875	288.75
579.086	286.75
579.297	282.75
579.508	267.75
579.718	280.75
579.929	274.75
580.14	264.75
580.35	273.75
580.561	296.75
580.772	278.75
580.982	288.75
581.193	289.75
581.403	301.75
581.614	284.75
581.825	284.75
582.035	279.75
582.246	268.75
582.456	295.75
582.667	289.75
582.877	286.75
583.087	267.75
583.298	270.75
583.508	281.75
583.719	268.75
583.929	271.75
584.139	279.75
584.35	264.75
584.56	273.75
584.77	278.75
584.981	278.75
585.191	259.75
585.401	290.75
585.611	295.75
585.821	276.75
586.032	265.75
586.242	249.75
586.452	238.75
586.662	262.75
586.872	267.75
587.082	283.75
587.292	272.75
587.502	262.75
587.713	269.75
587.923	271.75
588.133	257.75
588.343	253.75
588.553	260.75
588.762	274.75
588.972	287.75
589.182	416.75
589.392	414.75
589.602	316.75
589.812	387.75
590.022	350.75
590.232	290.75
590.441	278.75
590.651	258.75
590.861	275.75
591.071	287.75
591.281	266.75
591.49	271.75
591.7	292.75
591.91	294.75
592.119	290.75
592.329	302.75
592.539	287.75
592.748	310.75
592.958	304.75
593.167	319.75
593.377	323.75
593.587	314.75
593.796	340.75
594.006	335.75
594.215	320.75
594.424	332.75
594.634	316.75
594.843	307.75
595.053	300.75
595.262	284.75
595.472	293.75
595.681	282.75
595.89	283.75
596.1	262.75
596.309	259.75
596.518	258.75
596.727	263.75
596.937	291.75
597.146	234.75
597.355	273.75
597.564	257.75
597.774	261.75
597.983	250.75
598.192	236.75
598.401	238.75
598.61	249.75
598.819	257.75
599.028	244.75
599.237	251.75
599.446	241.75
599.655	249.75
599.864	247.75
600.073	236.75
600.282	241.75
600.491	229.75
600.7	227.75
600.909	239.75
601.118	231.75
601.327	255.75
601.536	264.75
601.745	241.75
601.953	248.75
602.162	240.75
602.371	225.75
602.58	226.75
602.789	231.75
602.997	228.75
603.206	244.75
603.415	241.75
603.623	236.75
603.832	244.75
604.041	244.75
604.249	247.75
604.458	232.75
604.666	204.75
604.875	209.75
605.084	239.75
605.292	231.75
605.501	224.75
605.709	220.75
605.918	243.75
606.126	232.75
606.334	246.75
606.543	231.75
606.751	245.75
606.96	221.75
607.168	226.75
607.376	214.75
607.585	213.75
607.793	229.75
608.001	234.75
608.21	224.75
608.418	224.75
608.626	220.75
608.834	223.75
609.043	213.75
609.251	234.75
609.459	223.75
609.667	247.75
609.875	228.75
610.083	226.75
610.291	225.75
610.499	226.75
610.707	193.75
610.916	225.75
611.124	216.75
611.332	240.75
611.54	213.75
611.748	223.75
611.955	214.75
612.163	235.75
612.371	224.75
612.579	247.75
612.787	225.75
612.995	218.75
613.203	216.75
613.411	240.75
613.618	222.75
613.826	229.75
614.034	231.75
614.242	231.75
614.449	231.75
614.657	229.75
614.865	210.75
615.072	220.75
615.28	237.75
615.488	227.75
615.695	224.75
615.903	214.75
616.111	223.75
616.318	228.75
616.526	236.75
616.733	213.75
616.941	213.75
617.148	229.75
617.356	215.75
617.563	218.75
617.771	216.75
617.978	221.75
618.185	222.75
618.393	222.75
618.6	210.75
618.807	216.75
619.015	228.75
619.222	231.75
619.429	221.75
619.637	216.75
619.844	216.75
620.051	223.75
620.258	224.75
620.466	214.75
620.673	204.75
620.88	207.75
621.087	213.75
621.294	203.75
621.501	199.75
621.708	205.75
621.915	225.75
622.122	220.75
622.329	210.75
622.536	209.75
622.743	206.75
622.95	199.75
623.157	188.75
623.364	198.75
623.571	196.75
623.778	207.75
623.985	214.75
624.192	195.75
624.399	190.75
624.606	208.75
624.812	200.75
625.019	186.75
625.226	197.75
625.433	201.75
625.639	187.75
625.846	192.75
626.053	211.75
626.259	190.75
626.466	190.75
626.673	174.75
626.879	185.75
627.086	192.75
627.293	212.75
627.499	198.75
627.706	200.75
627.912	190.75
628.119	196.75
628.325	197.75
628.532	184.75
628.738	179.75
628.945	194.75
629.151	196.75
629.357	196.75
629.564	179.75
629.77	178.75
629.976	197.75
630.183	187.75
630.389	182.75
630.595	174.75
630.802	191.75
631.008	165.75
631.214	180.75
631.42	183.75
631.627	176.75
631.833	166.75
632.039	171.75
632.245	171.75
632.451	170.75
632.657	172.75
632.863	176.75
633.069	166.75
633.275	180.75
633.481	177.75
633.688	189.75
633.893	189.75
634.099	173.75
634.305	206.75
634.511	170.75
634.717	169.75
634.923	168.75
635.129	165.75
635.335	174.75
635.541	170.75
635.747	168.75
635.952	175.75
636.158	186.75
636.364	185.75
636.57	176.75
636.775	182.75
636.981	178.75
637.187	171.75
637.392	169.75
637.598	182.75
637.804	173.75
638.009	152.75
638.215	174.75
638.421	179.75
638.626	176.75
638.832	176.75
639.037	150.75
639.243	156.75
639.448	167.75
639.654	173.75
639.859	174.75
640.065	174.75
640.27	178.75
640.475	192.75
640.681	158.75
640.886	172.75
641.091	168.75
641.297	161.75
641.502	170.75
641.707	162.75
641.913	175.75
642.118	165.75
642.323	146.75
642.528	174.75
642.733	162.75
642.939	168.75
643.144	173.75
643.349	169.75
643.554	174.75
643.759	164.75
643.964	162.75
644.169	153.75
644.374	159.75
644.579	160.75
644.784	173.75
644.989	156.75
645.194	174.75
645.399	147.75
645.604	157.75
645.809	168.75
646.014	158.75
646.219	162.75
646.423	156.75
646.628	150.75
646.833	173.75
647.038	166.75
647.243	179.75
647.447	163.75
647.652	175.75
647.857	176.75
648.062	172.75
648.266	178.75
648.471	178.75
648.676	185.75
648.88	172.75
649.085	174.75
649.289	165.75
649.494	168.75
649.698	180.75
649.903	189.75
650.107	164.75
650.312	180.75
650.516	164.75
650.721	159.75
650.925	150.75
651.13	147.75
651.334	160.75
651.539	134.75
651.743	156.75
651.947	159.75
652.152	147.75
652.356	153.75
652.56	159.75
652.764	131.75
652.969	131.75
653.173	144.75
653.377	147.75
653.581	149.75
653.785	143.75
653.99	158.75
654.194	152.75
654.398	142.75
654.602	146.75
654.806	135.75
655.01	153.75
655.214	144.75
655.418	135.75
655.622	155.75
655.826	153.75
656.03	157.75
656.234	178.75
656.438	165.75
656.642	166.75
656.846	165.75
657.049	165.75
657.253	153.75
657.457	146.75
657.661	136.75
657.865	118.75
658.068	119.75
658.272	136.75
658.476	112.75
658.68	120.75
658.883	110.75
659.087	107.75
659.291	110.75
659.494	120.75
659.698	116.75
659.901	97.75
660.105	114.75
660.309	100.75
660.512	98.75
660.716	93.75
660.919	99.75
661.123	88.75
661.326	79.75
661.53	89.75
661.733	99.75
661.936	79.75
662.14	87.75
662.343	90.75
662.546	94.75
662.75	95.75
662.953	90.75
663.156	88.75
663.36	94.75
663.563	91.75
663.766	89.75
663.969	76.75
664.173	95.75
664.376	65.75
664.579	79.75
664.782	67.75
664.985	73.75
665.188	85.75
665.391	94.75
665.594	78.75
665.797	72.75
666	77.75
666.203	82.75
666.406	78.75
666.609	78.75
666.812	72.75
667.015	96.75
667.218	94.75
667.421	96.75
667.624	79.75
667.827	86.75
668.03	83.75
668.232	72.75
668.435	90.75
668.638	79.75
668.841	70.75
669.043	80.75
669.246	87.75
669.449	76.75
669.651	78.75
669.854	81.75
670.057	70.75
670.259	66.75
670.462	72.75
670.665	78.75
670.867	79.75
671.07	77.75
671.272	87.75
671.475	86.75
671.677	94.75
671.88	93.75
672.082	72.75
672.284	79.75
672.487	83.75
672.689	69.75
672.892	93.75
