Data from 1960PennyLincolnUp.LampE6.200Scan.07172019.P1_HRD10591_13-05-34-001.txt Node
Date: Thu Jul 18 13:05:34 EDT 2019
User: cochatt
Spectrometer: HR+D1059
Trigger mode: 1
Integration Time (sec): 1.000000E-1
Scans to average: 1
Electric dark correction enabled: true
Nonlinearity correction enabled: false
Boxcar width: 0
XAxis mode: Wavelengths
Number of Pixels in Spectrum: 2048
>>>>>Begin Spectral Data<<<<<
223.165	-9.25
223.4	-9.25
223.635	-9.25
223.869	-20.25
224.104	-15.25
224.338	-25.25
224.573	-20.25
224.808	-14.25
225.042	-11.25
225.277	-0.25
225.511	11.75
225.746	6.75
225.98	6.75
226.215	8.75
226.449	20.75
226.683	19.75
226.918	19.75
227.152	21.75
227.387	38.75
227.621	38.75
227.856	34.75
228.09	44.75
228.324	40.75
228.559	63.75
228.793	55.75
229.027	82.75
229.262	102.75
229.496	94.75
229.73	102.75
229.964	112.75
230.199	98.75
230.433	101.75
230.667	107.75
230.901	85.75
231.136	93.75
231.37	108.75
231.604	104.75
231.838	107.75
232.072	102.75
232.306	110.75
232.541	117.75
232.775	111.75
233.009	105.75
233.243	100.75
233.477	101.75
233.711	107.75
233.945	114.75
234.179	114.75
234.413	107.75
234.647	106.75
234.881	107.75
235.115	115.75
235.349	99.75
235.583	108.75
235.817	109.75
236.051	110.75
236.285	122.75
236.519	126.75
236.753	128.75
236.987	114.75
237.221	127.75
237.455	158.75
237.689	131.75
237.922	135.75
238.156	124.75
238.39	118.75
238.624	112.75
238.858	98.75
239.091	105.75
239.325	116.75
239.559	118.75
239.793	124.75
240.027	127.75
240.26	119.75
240.494	129.75
240.728	126.75
240.961	148.75
241.195	143.75
241.429	117.75
241.662	121.75
241.896	130.75
242.13	127.75
242.363	102.75
242.597	110.75
242.83	144.75
243.064	137.75
243.298	120.75
243.531	131.75
243.765	124.75
243.998	128.75
244.232	116.75
244.465	126.75
244.699	135.75
244.932	134.75
245.166	146.75
245.399	129.75
245.633	139.75
245.866	139.75
246.099	130.75
246.333	143.75
246.566	144.75
246.8	148.75
247.033	156.75
247.266	130.75
247.5	140.75
247.733	143.75
247.966	148.75
248.2	142.75
248.433	162.75
248.666	170.75
248.899	147.75
249.133	168.75
249.366	179.75
249.599	162.75
249.832	159.75
250.066	158.75
250.299	144.75
250.532	164.75
250.765	183.75
250.998	194.75
251.231	183.75
251.465	157.75
251.698	173.75
251.931	174.75
252.164	160.75
252.397	162.75
252.63	175.75
252.863	156.75
253.096	187.75
253.329	206.75
253.562	172.75
253.795	190.75
254.028	182.75
254.261	171.75
254.494	189.75
254.727	203.75
254.96	213.75
255.193	195.75
255.426	186.75
255.659	193.75
255.892	185.75
256.124	188.75
256.357	166.75
256.59	178.75
256.823	189.75
257.056	187.75
257.289	176.75
257.521	186.75
257.754	191.75
257.987	182.75
258.22	193.75
258.452	183.75
258.685	167.75
258.918	203.75
259.151	192.75
259.383	178.75
259.616	194.75
259.849	190.75
260.081	194.75
260.314	214.75
260.547	201.75
260.779	197.75
261.012	189.75
261.244	190.75
261.477	212.75
261.71	199.75
261.942	195.75
262.175	201.75
262.407	198.75
262.64	194.75
262.872	194.75
263.105	200.75
263.337	179.75
263.57	199.75
263.802	192.75
264.035	186.75
264.267	196.75
264.499	196.75
264.732	204.75
264.964	209.75
265.197	207.75
265.429	197.75
265.661	208.75
265.894	195.75
266.126	197.75
266.358	203.75
266.591	198.75
266.823	213.75
267.055	201.75
267.287	201.75
267.52	203.75
267.752	203.75
267.984	206.75
268.216	208.75
268.448	224.75
268.681	224.75
268.913	226.75
269.145	236.75
269.377	249.75
269.609	246.75
269.841	240.75
270.073	216.75
270.306	260.75
270.538	237.75
270.77	238.75
271.002	261.75
271.234	247.75
271.466	255.75
271.698	240.75
271.93	279.75
272.162	252.75
272.394	257.75
272.626	244.75
272.858	238.75
273.09	244.75
273.322	238.75
273.553	248.75
273.785	248.75
274.017	234.75
274.249	231.75
274.481	255.75
274.713	224.75
274.945	251.75
275.176	253.75
275.408	246.75
275.64	232.75
275.872	221.75
276.104	253.75
276.335	245.75
276.567	248.75
276.799	251.75
277.031	271.75
277.262	243.75
277.494	279.75
277.726	271.75
277.957	239.75
278.189	247.75
278.421	251.75
278.652	247.75
278.884	258.75
279.115	236.75
279.347	260.75
279.579	256.75
279.81	262.75
280.042	262.75
280.273	264.75
280.505	266.75
280.736	251.75
280.968	254.75
281.199	261.75
281.431	236.75
281.662	250.75
281.894	271.75
282.125	254.75
282.356	264.75
282.588	274.75
282.819	282.75
283.051	269.75
283.282	270.75
283.513	262.75
283.745	276.75
283.976	270.75
284.207	268.75
284.439	256.75
284.67	291.75
284.901	286.75
285.132	279.75
285.364	278.75
285.595	283.75
285.826	279.75
286.057	283.75
286.288	275.75
286.52	292.75
286.751	280.75
286.982	280.75
287.213	253.75
287.444	269.75
287.675	280.75
287.906	294.75
288.138	285.75
288.369	286.75
288.6	282.75
288.831	297.75
289.062	289.75
289.293	267.75
289.524	282.75
289.755	264.75
289.986	293.75
290.217	290.75
290.448	277.75
290.679	285.75
290.91	290.75
291.141	282.75
291.371	273.75
291.602	266.75
291.833	292.75
292.064	283.75
292.295	292.75
292.526	299.75
292.757	291.75
292.987	312.75
293.218	301.75
293.449	293.75
293.68	305.75
293.91	286.75
294.141	288.75
294.372	295.75
294.603	282.75
294.833	307.75
295.064	280.75
295.295	298.75
295.525	291.75
295.756	309.75
295.987	317.75
296.217	301.75
296.448	305.75
296.679	304.75
296.909	292.75
297.14	292.75
297.37	303.75
297.601	327.75
297.831	300.75
298.062	298.75
298.292	298.75
298.523	307.75
298.753	326.75
298.984	303.75
299.214	304.75
299.445	300.75
299.675	304.75
299.905	320.75
300.136	310.75
300.366	315.75
300.597	320.75
300.827	318.75
301.057	307.75
301.288	322.75
301.518	324.75
301.748	338.75
301.979	326.75
302.209	325.75
302.439	338.75
302.669	332.75
302.9	332.75
303.13	334.75
303.36	333.75
303.59	312.75
303.82	323.75
304.051	327.75
304.281	329.75
304.511	327.75
304.741	333.75
304.971	330.75
305.201	334.75
305.431	333.75
305.661	313.75
305.891	312.75
306.121	323.75
306.352	329.75
306.582	332.75
306.812	327.75
307.042	327.75
307.272	336.75
307.502	330.75
307.731	338.75
307.961	333.75
308.191	319.75
308.421	328.75
308.651	335.75
308.881	313.75
309.111	321.75
309.341	324.75
309.571	328.75
309.8	343.75
310.03	312.75
310.26	335.75
310.49	330.75
310.72	336.75
310.949	355.75
311.179	348.75
311.409	351.75
311.639	336.75
311.868	347.75
312.098	362.75
312.328	356.75
312.557	361.75
312.787	350.75
313.017	343.75
313.246	334.75
313.476	362.75
313.706	342.75
313.935	364.75
314.165	356.75
314.394	366.75
314.624	368.75
314.853	367.75
315.083	355.75
315.312	347.75
315.542	357.75
315.771	357.75
316.001	358.75
316.23	353.75
316.46	347.75
316.689	346.75
316.919	349.75
317.148	366.75
317.377	372.75
317.607	363.75
317.836	364.75
318.065	366.75
318.295	356.75
318.524	355.75
318.753	339.75
318.983	371.75
319.212	343.75
319.441	353.75
319.67	353.75
319.9	380.75
320.129	360.75
320.358	343.75
320.587	364.75
320.816	380.75
321.046	376.75
321.275	357.75
321.504	360.75
321.733	372.75
321.962	385.75
322.191	379.75
322.42	377.75
322.649	361.75
322.878	374.75
323.108	389.75
323.337	406.75
323.566	401.75
323.795	438.75
324.024	423.75
324.253	486.75
324.482	633.75
324.71	845.75
324.939	1145.75
325.168	940.75
325.397	567.75
325.626	466.75
325.855	426.75
326.084	402.75
326.313	403.75
326.542	442.75
326.77	434.75
326.999	504.75
327.228	610.75
327.457	833.75
327.686	895.75
327.914	642.75
328.143	494.75
328.372	462.75
328.6	433.75
328.829	436.75
329.058	467.75
329.287	444.75
329.515	432.75
329.744	443.75
329.972	435.75
330.201	439.75
330.43	437.75
330.658	477.75
330.887	487.75
331.115	452.75
331.344	436.75
331.572	415.75
331.801	460.75
332.03	427.75
332.258	437.75
332.486	451.75
332.715	448.75
332.943	451.75
333.172	467.75
333.4	467.75
333.629	501.75
333.857	493.75
334.085	479.75
334.314	503.75
334.542	518.75
334.771	523.75
334.999	468.75
335.227	470.75
335.455	456.75
335.684	438.75
335.912	437.75
336.14	460.75
336.369	461.75
336.597	452.75
336.825	421.75
337.053	414.75
337.281	434.75
337.51	430.75
337.738	436.75
337.966	418.75
338.194	439.75
338.422	420.75
338.65	438.75
338.878	425.75
339.106	436.75
339.334	419.75
339.562	406.75
339.79	396.75
340.018	383.75
340.246	416.75
340.474	417.75
340.702	423.75
340.93	398.75
341.158	421.75
341.386	419.75
341.614	412.75
341.842	404.75
342.07	408.75
342.298	395.75
342.526	398.75
342.754	407.75
342.981	399.75
343.209	415.75
343.437	439.75
343.665	408.75
343.893	444.75
344.12	444.75
344.348	455.75
344.576	447.75
344.804	432.75
345.031	411.75
345.259	429.75
345.487	411.75
345.714	398.75
345.942	397.75
346.17	379.75
346.397	415.75
346.625	392.75
346.853	402.75
347.08	396.75
347.308	392.75
347.535	422.75
347.763	424.75
347.99	421.75
348.218	387.75
348.445	394.75
348.673	396.75
348.9	401.75
349.128	389.75
349.355	360.75
349.583	374.75
349.81	389.75
350.037	415.75
350.265	388.75
350.492	382.75
350.72	388.75
350.947	387.75
351.174	387.75
351.402	380.75
351.629	389.75
351.856	396.75
352.083	390.75
352.311	396.75
352.538	401.75
352.765	381.75
352.992	382.75
353.22	396.75
353.447	383.75
353.674	375.75
353.901	386.75
354.128	375.75
354.355	385.75
354.583	382.75
354.81	366.75
355.037	385.75
355.264	380.75
355.491	389.75
355.718	370.75
355.945	374.75
356.172	388.75
356.399	374.75
356.626	380.75
356.853	372.75
357.08	404.75
357.307	369.75
357.534	379.75
357.761	383.75
357.988	384.75
358.215	381.75
358.441	381.75
358.668	384.75
358.895	373.75
359.122	381.75
359.349	393.75
359.576	393.75
359.802	382.75
360.029	403.75
360.256	420.75
360.483	410.75
360.709	390.75
360.936	376.75
361.163	420.75
361.39	402.75
361.616	393.75
361.843	392.75
362.07	400.75
362.296	420.75
362.523	405.75
362.749	399.75
362.976	388.75
363.203	404.75
363.429	383.75
363.656	376.75
363.882	383.75
364.109	385.75
364.335	390.75
364.562	400.75
364.788	396.75
365.015	392.75
365.241	404.75
365.468	396.75
365.694	392.75
365.92	387.75
366.147	397.75
366.373	393.75
366.599	384.75
366.826	385.75
367.052	381.75
367.278	385.75
367.505	398.75
367.731	385.75
367.957	381.75
368.184	403.75
368.41	406.75
368.636	404.75
368.862	388.75
369.089	381.75
369.315	387.75
369.541	402.75
369.767	392.75
369.993	391.75
370.219	389.75
370.445	405.75
370.672	375.75
370.898	394.75
371.124	383.75
371.35	386.75
371.576	427.75
371.802	426.75
372.028	391.75
372.254	400.75
372.48	402.75
372.706	407.75
372.932	425.75
373.158	413.75
373.384	414.75
373.61	414.75
373.835	402.75
374.061	403.75
374.287	408.75
374.513	413.75
374.739	443.75
374.965	432.75
375.191	439.75
375.416	456.75
375.642	416.75
375.868	426.75
376.094	435.75
376.319	402.75
376.545	394.75
376.771	404.75
376.997	374.75
377.222	383.75
377.448	399.75
377.674	397.75
377.899	422.75
378.125	403.75
378.35	394.75
378.576	404.75
378.802	400.75
379.027	394.75
379.253	408.75
379.478	405.75
379.704	412.75
379.929	404.75
380.155	384.75
380.38	411.75
380.606	397.75
380.831	413.75
381.057	403.75
381.282	410.75
381.507	418.75
381.733	416.75
381.958	398.75
382.184	420.75
382.409	440.75
382.634	423.75
382.86	402.75
383.085	410.75
383.31	426.75
383.535	437.75
383.761	419.75
383.986	418.75
384.211	461.75
384.436	465.75
384.662	451.75
384.887	450.75
385.112	448.75
385.337	458.75
385.562	470.75
385.787	459.75
386.013	442.75
386.238	468.75
386.463	486.75
386.688	463.75
386.913	462.75
387.138	458.75
387.363	472.75
387.588	447.75
387.813	458.75
388.038	453.75
388.263	460.75
388.488	453.75
388.713	451.75
388.938	447.75
389.163	450.75
389.387	454.75
389.612	456.75
389.837	464.75
390.062	435.75
390.287	449.75
390.512	452.75
390.736	449.75
390.961	463.75
391.186	475.75
391.411	472.75
391.636	475.75
391.86	487.75
392.085	508.75
392.31	495.75
392.534	481.75
392.759	488.75
392.984	490.75
393.208	481.75
393.433	488.75
393.658	476.75
393.882	482.75
394.107	480.75
394.331	476.75
394.556	473.75
394.78	483.75
395.005	477.75
395.229	486.75
395.454	499.75
395.678	496.75
395.903	500.75
396.127	499.75
396.352	500.75
396.576	508.75
396.801	464.75
397.025	490.75
397.249	494.75
397.474	491.75
397.698	505.75
397.922	512.75
398.147	511.75
398.371	523.75
398.595	532.75
398.82	548.75
399.044	586.75
399.268	594.75
399.492	676.75
399.717	739.75
399.941	747.75
400.165	685.75
400.389	658.75
400.613	631.75
400.837	582.75
401.062	558.75
401.286	561.75
401.51	565.75
401.734	538.75
401.958	553.75
402.182	551.75
402.406	552.75
402.63	582.75
402.854	575.75
403.078	568.75
403.302	607.75
403.526	602.75
403.75	587.75
403.974	597.75
404.198	630.75
404.422	598.75
404.645	594.75
404.869	595.75
405.093	613.75
405.317	628.75
405.541	625.75
405.765	612.75
405.988	578.75
406.212	618.75
406.436	637.75
406.66	640.75
406.883	590.75
407.107	640.75
407.331	692.75
407.555	721.75
407.778	693.75
408.002	659.75
408.226	653.75
408.449	633.75
408.673	639.75
408.896	615.75
409.12	634.75
409.344	650.75
409.567	590.75
409.791	589.75
410.014	572.75
410.238	579.75
410.461	573.75
410.685	549.75
410.908	576.75
411.132	584.75
411.355	575.75
411.578	589.75
411.802	581.75
412.025	559.75
412.249	578.75
412.472	565.75
412.695	573.75
412.919	570.75
413.142	563.75
413.365	567.75
413.589	562.75
413.812	567.75
414.035	530.75
414.258	533.75
414.482	539.75
414.705	559.75
414.928	568.75
415.151	554.75
415.374	554.75
415.597	540.75
415.821	524.75
416.044	545.75
416.267	546.75
416.49	525.75
416.713	526.75
416.936	530.75
417.159	515.75
417.382	519.75
417.605	540.75
417.828	554.75
418.051	560.75
418.274	534.75
418.497	539.75
418.72	570.75
418.943	562.75
419.166	560.75
419.389	575.75
419.611	583.75
419.834	564.75
420.057	574.75
420.28	568.75
420.503	524.75
420.726	522.75
420.948	549.75
421.171	576.75
421.394	573.75
421.617	556.75
421.839	536.75
422.062	550.75
422.285	542.75
422.507	590.75
422.73	613.75
422.953	619.75
423.175	551.75
423.398	556.75
423.621	571.75
423.843	573.75
424.066	595.75
424.288	562.75
424.511	569.75
424.733	598.75
424.956	640.75
425.178	619.75
425.401	623.75
425.623	627.75
425.846	575.75
426.068	521.75
426.291	536.75
426.513	550.75
426.735	547.75
426.958	557.75
427.18	597.75
427.402	669.75
427.625	710.75
427.847	632.75
428.069	600.75
428.292	562.75
428.514	518.75
428.736	514.75
428.958	512.75
429.181	500.75
429.403	518.75
429.625	512.75
429.847	526.75
430.069	560.75
430.292	556.75
430.514	481.75
430.736	512.75
430.958	492.75
431.18	491.75
431.402	497.75
431.624	482.75
431.846	497.75
432.068	498.75
432.29	487.75
432.512	476.75
432.734	500.75
432.956	496.75
433.178	509.75
433.4	509.75
433.622	504.75
433.844	502.75
434.066	501.75
434.287	490.75
434.509	522.75
434.731	520.75
434.953	534.75
435.175	539.75
435.397	566.75
435.618	551.75
435.84	562.75
436.062	583.75
436.284	614.75
436.505	542.75
436.727	517.75
436.949	514.75
437.17	507.75
437.392	485.75
437.614	500.75
437.835	509.75
438.057	570.75
438.278	594.75
438.5	606.75
438.721	639.75
438.943	630.75
439.165	538.75
439.386	530.75
439.608	547.75
439.829	531.75
440.05	507.75
440.272	541.75
440.493	551.75
440.715	515.75
440.936	527.75
441.158	514.75
441.379	517.75
441.6	527.75
441.822	539.75
442.043	563.75
442.264	625.75
442.486	617.75
442.707	575.75
442.928	565.75
443.149	554.75
443.371	554.75
443.592	577.75
443.813	629.75
444.034	656.75
444.255	622.75
444.476	580.75
444.698	600.75
444.919	618.75
445.14	710.75
445.361	628.75
445.582	586.75
445.803	606.75
446.024	635.75
446.245	618.75
446.466	592.75
446.687	540.75
446.908	532.75
447.129	498.75
447.35	487.75
447.571	463.75
447.792	482.75
448.013	475.75
448.234	476.75
448.455	495.75
448.675	567.75
448.896	612.75
449.117	555.75
449.338	509.75
449.559	579.75
449.779	631.75
450	558.75
450.221	451.75
450.442	476.75
450.662	486.75
450.883	467.75
451.104	488.75
451.324	465.75
451.545	442.75
451.766	458.75
451.986	456.75
452.207	470.75
452.428	449.75
452.648	447.75
452.869	428.75
453.089	454.75
453.31	467.75
453.53	447.75
453.751	450.75
453.971	438.75
454.192	438.75
454.412	444.75
454.633	421.75
454.853	436.75
455.073	430.75
455.294	434.75
455.514	469.75
455.734	470.75
455.955	439.75
456.175	416.75
456.395	423.75
456.616	415.75
456.836	413.75
457.056	406.75
457.276	412.75
457.497	422.75
457.717	410.75
457.937	398.75
458.157	411.75
458.377	447.75
458.598	438.75
458.818	477.75
459.038	506.75
459.258	531.75
459.478	492.75
459.698	493.75
459.918	487.75
460.138	512.75
460.358	522.75
460.578	519.75
460.798	517.75
461.018	532.75
461.238	528.75
461.458	519.75
461.678	502.75
461.898	532.75
462.118	532.75
462.338	552.75
462.558	554.75
462.777	566.75
462.997	602.75
463.217	655.75
463.437	635.75
463.657	620.75
463.876	576.75
464.096	593.75
464.316	581.75
464.536	588.75
464.755	591.75
464.975	566.75
465.195	590.75
465.414	584.75
465.634	527.75
465.854	478.75
466.073	494.75
466.293	464.75
466.512	476.75
466.732	475.75
466.951	462.75
467.171	450.75
467.391	465.75
467.61	443.75
467.829	447.75
468.049	457.75
468.268	431.75
468.488	435.75
468.707	436.75
468.927	459.75
469.146	433.75
469.365	435.75
469.585	441.75
469.804	451.75
470.023	478.75
470.243	465.75
470.462	492.75
470.681	491.75
470.901	471.75
471.12	474.75
471.339	482.75
471.558	455.75
471.777	479.75
471.997	456.75
472.216	482.75
472.435	495.75
472.654	472.75
472.873	442.75
473.092	442.75
473.311	450.75
473.53	460.75
473.749	451.75
473.968	470.75
474.187	522.75
474.406	520.75
474.625	474.75
474.844	473.75
475.063	454.75
475.282	452.75
475.501	491.75
475.72	458.75
475.939	459.75
476.158	459.75
476.377	470.75
476.596	464.75
476.814	460.75
477.033	470.75
477.252	484.75
477.471	486.75
477.69	488.75
477.908	511.75
478.127	525.75
478.346	502.75
478.564	515.75
478.783	549.75
479.002	544.75
479.22	552.75
479.439	547.75
479.658	542.75
479.876	548.75
480.095	561.75
480.313	580.75
480.532	577.75
480.751	593.75
480.969	588.75
481.188	593.75
481.406	612.75
481.624	546.75
481.843	539.75
482.061	523.75
482.28	511.75
482.498	493.75
482.717	508.75
482.935	496.75
483.153	518.75
483.372	531.75
483.59	528.75
483.808	528.75
484.027	522.75
484.245	524.75
484.463	500.75
484.681	548.75
484.9	511.75
485.118	523.75
485.336	545.75
485.554	527.75
485.772	504.75
485.99	528.75
486.209	535.75
486.427	540.75
486.645	549.75
486.863	563.75
487.081	542.75
487.299	540.75
487.517	550.75
487.735	533.75
487.953	559.75
488.171	540.75
488.389	547.75
488.607	551.75
488.825	529.75
489.043	558.75
489.261	530.75
489.479	548.75
489.696	548.75
489.914	568.75
490.132	556.75
490.35	562.75
490.568	565.75
490.786	583.75
491.003	592.75
491.221	594.75
491.439	583.75
491.657	591.75
491.874	598.75
492.092	598.75
492.31	605.75
492.527	614.75
492.745	637.75
492.963	596.75
493.18	626.75
493.398	632.75
493.615	610.75
493.833	622.75
494.05	604.75
494.268	641.75
494.485	627.75
494.703	608.75
494.92	649.75
495.138	640.75
495.355	624.75
495.573	635.75
495.79	592.75
496.008	623.75
496.225	642.75
496.442	620.75
496.66	638.75
496.877	656.75
497.094	642.75
497.312	641.75
497.529	661.75
497.746	682.75
497.963	687.75
498.181	712.75
498.398	700.75
498.615	723.75
498.832	784.75
499.049	799.75
499.267	843.75
499.484	902.75
499.701	976.75
499.918	1027.75
500.135	1118.75
500.352	1236.75
500.569	1272.75
500.786	1256.75
501.003	1202.75
501.22	1086.75
501.437	1052.75
501.654	936.75
501.871	896.75
502.088	867.75
502.305	835.75
502.522	761.75
502.739	760.75
502.956	716.75
503.172	685.75
503.389	671.75
503.606	643.75
503.823	652.75
504.04	646.75
504.256	654.75
504.473	682.75
504.69	678.75
504.907	657.75
505.123	632.75
505.34	626.75
505.557	595.75
505.773	608.75
505.99	595.75
506.207	601.75
506.423	595.75
506.64	577.75
506.856	557.75
507.073	568.75
507.289	547.75
507.506	560.75
507.722	546.75
507.939	559.75
508.155	542.75
508.372	556.75
508.588	550.75
508.805	524.75
509.021	524.75
509.238	540.75
509.454	544.75
509.67	542.75
509.887	502.75
510.103	542.75
510.319	528.75
510.536	579.75
510.752	807.75
510.968	679.75
511.184	548.75
511.401	499.75
511.617	496.75
511.833	504.75
512.049	469.75
512.265	484.75
512.481	516.75
512.698	489.75
512.914	510.75
513.13	519.75
513.346	506.75
513.562	496.75
513.778	508.75
513.994	502.75
514.21	491.75
514.426	535.75
514.642	532.75
514.858	530.75
515.074	547.75
515.29	587.75
515.506	835.75
515.721	750.75
515.937	574.75
516.153	543.75
516.369	551.75
516.585	543.75
516.801	559.75
517.016	604.75
517.232	564.75
517.448	572.75
517.664	600.75
517.879	613.75
518.095	619.75
518.311	620.75
518.527	604.75
518.742	566.75
518.958	551.75
519.173	525.75
519.389	543.75
519.605	522.75
519.82	491.75
520.036	526.75
520.251	535.75
520.467	522.75
520.682	511.75
520.898	531.75
521.113	513.75
521.329	536.75
521.544	569.75
521.76	622.75
521.975	946.75
522.19	993.75
522.406	623.75
522.621	508.75
522.836	489.75
523.052	474.75
523.267	476.75
523.482	459.75
523.698	457.75
523.913	450.75
524.128	451.75
524.343	469.75
524.559	459.75
524.774	443.75
524.989	447.75
525.204	452.75
525.419	462.75
525.634	437.75
525.849	443.75
526.064	441.75
526.28	442.75
526.495	431.75
526.71	441.75
526.925	420.75
527.14	438.75
527.355	423.75
527.57	417.75
527.785	420.75
527.999	437.75
528.214	418.75
528.429	435.75
528.644	434.75
528.859	431.75
529.074	445.75
529.289	419.75
529.503	469.75
529.718	460.75
529.933	436.75
530.148	433.75
530.363	411.75
530.577	434.75
530.792	428.75
531.007	428.75
531.221	436.75
531.436	425.75
531.651	436.75
531.865	440.75
532.08	422.75
532.295	408.75
532.509	436.75
532.724	436.75
532.938	435.75
533.153	430.75
533.367	413.75
533.582	436.75
533.796	437.75
534.011	412.75
534.225	419.75
534.44	421.75
534.654	429.75
534.868	432.75
535.083	423.75
535.297	427.75
535.511	430.75
535.726	425.75
535.94	398.75
536.154	407.75
536.369	393.75
536.583	411.75
536.797	396.75
537.011	388.75
537.225	420.75
537.44	403.75
537.654	419.75
537.868	403.75
538.082	411.75
538.296	402.75
538.51	396.75
538.724	412.75
538.938	414.75
539.153	418.75
539.367	400.75
539.581	396.75
539.795	391.75
540.009	390.75
540.222	391.75
540.436	418.75
540.65	400.75
540.864	390.75
541.078	401.75
541.292	410.75
541.506	417.75
541.72	404.75
541.934	408.75
542.147	403.75
542.361	395.75
542.575	406.75
542.789	386.75
543.002	392.75
543.216	408.75
543.43	397.75
543.644	394.75
543.857	399.75
544.071	410.75
544.285	405.75
544.498	402.75
544.712	394.75
544.925	418.75
545.139	399.75
545.352	417.75
545.566	402.75
545.779	413.75
545.993	391.75
546.206	405.75
546.42	402.75
546.633	423.75
546.847	420.75
547.06	412.75
547.274	386.75
547.487	402.75
547.7	407.75
547.914	416.75
548.127	412.75
548.34	411.75
548.554	411.75
548.767	404.75
548.98	424.75
549.193	408.75
549.407	435.75
549.62	413.75
549.833	422.75
550.046	437.75
550.259	409.75
550.473	400.75
550.686	388.75
550.899	396.75
551.112	396.75
551.325	429.75
551.538	395.75
551.751	394.75
551.964	389.75
552.177	410.75
552.39	397.75
552.603	425.75
552.816	424.75
553.029	437.75
553.242	440.75
553.455	434.75
553.667	447.75
553.88	439.75
554.093	428.75
554.306	426.75
554.519	413.75
554.732	418.75
554.944	402.75
555.157	417.75
555.37	392.75
555.583	401.75
555.795	387.75
556.008	360.75
556.221	389.75
556.433	386.75
556.646	372.75
556.859	370.75
557.071	371.75
557.284	353.75
557.496	351.75
557.709	369.75
557.921	348.75
558.134	362.75
558.346	349.75
558.559	355.75
558.771	351.75
558.984	370.75
559.196	354.75
559.409	351.75
559.621	358.75
559.833	354.75
560.046	342.75
560.258	338.75
560.47	356.75
560.683	352.75
560.895	352.75
561.107	341.75
561.32	358.75
561.532	354.75
561.744	336.75
561.956	348.75
562.168	333.75
562.381	355.75
562.593	361.75
562.805	364.75
563.017	336.75
563.229	344.75
563.441	351.75
563.653	367.75
563.865	349.75
564.077	355.75
564.289	354.75
564.501	367.75
564.713	366.75
564.925	376.75
565.137	377.75
565.349	376.75
565.561	391.75
565.773	404.75
565.985	403.75
566.197	450.75
566.408	467.75
566.62	499.75
566.832	486.75
567.044	499.75
567.255	524.75
567.467	515.75
567.679	552.75
567.891	559.75
568.102	568.75
568.314	550.75
568.526	511.75
568.737	479.75
568.949	423.75
569.161	416.75
569.372	390.75
569.584	388.75
569.795	379.75
570.007	367.75
570.218	387.75
570.43	386.75
570.641	340.75
570.853	335.75
571.064	342.75
571.276	346.75
571.487	339.75
571.698	332.75
571.91	347.75
572.121	349.75
572.333	326.75
572.544	319.75
572.755	342.75
572.966	296.75
573.178	309.75
573.389	310.75
573.6	310.75
573.811	310.75
574.023	310.75
574.234	291.75
574.445	296.75
574.656	312.75
574.867	307.75
575.078	304.75
575.289	313.75
575.501	289.75
575.712	304.75
575.923	300.75
576.134	296.75
576.345	287.75
576.556	284.75
576.767	284.75
576.978	295.75
577.188	288.75
577.399	297.75
577.61	277.75
577.821	274.75
578.032	268.75
578.243	311.75
578.454	404.75
578.665	327.75
578.875	294.75
579.086	263.75
579.297	281.75
579.508	273.75
579.718	280.75
579.929	304.75
580.14	268.75
580.35	269.75
580.561	254.75
580.772	275.75
580.982	275.75
581.193	270.75
581.403	258.75
581.614	267.75
581.825	282.75
582.035	272.75
582.246	266.75
582.456	262.75
582.667	262.75
582.877	267.75
583.087	262.75
583.298	262.75
583.508	255.75
583.719	258.75
583.929	285.75
584.139	266.75
584.35	277.75
584.56	250.75
584.77	276.75
584.981	267.75
585.191	255.75
585.401	255.75
585.611	237.75
585.821	255.75
586.032	246.75
586.242	255.75
586.452	268.75
586.662	255.75
586.872	263.75
587.082	262.75
587.292	248.75
587.502	249.75
587.713	264.75
587.923	239.75
588.133	265.75
588.343	249.75
588.553	265.75
588.762	256.75
588.972	263.75
589.182	297.75
589.392	290.75
589.602	278.75
589.812	280.75
590.022	286.75
590.232	252.75
590.441	270.75
590.651	287.75
590.861	261.75
591.071	272.75
591.281	271.75
591.49	276.75
591.7	260.75
591.91	285.75
592.119	277.75
592.329	268.75
592.539	279.75
592.748	301.75
592.958	273.75
593.167	300.75
593.377	304.75
593.587	319.75
593.796	292.75
594.006	307.75
594.215	300.75
594.424	311.75
594.634	310.75
594.843	311.75
595.053	292.75
595.262	296.75
595.472	280.75
595.681	277.75
595.89	290.75
596.1	248.75
596.309	265.75
596.518	248.75
596.727	243.75
596.937	252.75
597.146	249.75
597.355	238.75
597.564	243.75
597.774	251.75
597.983	228.75
598.192	219.75
598.401	242.75
598.61	229.75
598.819	219.75
599.028	238.75
599.237	234.75
599.446	235.75
599.655	221.75
599.864	211.75
600.073	225.75
600.282	237.75
600.491	233.75
600.7	232.75
600.909	226.75
601.118	247.75
601.327	242.75
601.536	219.75
601.745	229.75
601.953	231.75
602.162	237.75
602.371	228.75
602.58	222.75
602.789	227.75
602.997	236.75
603.206	223.75
603.415	221.75
603.623	226.75
603.832	228.75
604.041	230.75
604.249	208.75
604.458	212.75
604.666	218.75
604.875	217.75
605.084	210.75
605.292	226.75
605.501	213.75
605.709	226.75
605.918	218.75
606.126	209.75
606.334	214.75
606.543	231.75
606.751	222.75
606.96	208.75
607.168	237.75
607.376	225.75
607.585	221.75
607.793	189.75
608.001	214.75
608.21	236.75
608.418	208.75
608.626	222.75
608.834	219.75
609.043	220.75
609.251	217.75
609.459	208.75
609.667	205.75
609.875	214.75
610.083	204.75
610.291	227.75
610.499	206.75
610.707	215.75
610.916	225.75
611.124	212.75
611.332	230.75
611.54	227.75
611.748	222.75
611.955	202.75
612.163	223.75
612.371	202.75
612.579	203.75
612.787	224.75
612.995	221.75
613.203	205.75
613.411	201.75
613.618	231.75
613.826	220.75
614.034	218.75
614.242	207.75
614.449	206.75
614.657	227.75
614.865	208.75
615.072	207.75
615.28	220.75
615.488	218.75
615.695	186.75
615.903	209.75
616.111	208.75
616.318	220.75
616.526	210.75
616.733	214.75
616.941	222.75
617.148	208.75
617.356	201.75
617.563	203.75
617.771	223.75
617.978	215.75
618.185	208.75
618.393	200.75
618.6	210.75
618.807	226.75
619.015	215.75
619.222	206.75
619.429	209.75
619.637	202.75
619.844	218.75
620.051	210.75
620.258	210.75
620.466	199.75
620.673	212.75
620.88	207.75
621.087	197.75
621.294	190.75
621.501	190.75
621.708	188.75
621.915	182.75
622.122	205.75
622.329	211.75
622.536	199.75
622.743	190.75
622.95	193.75
623.157	198.75
623.364	219.75
623.571	196.75
623.778	203.75
623.985	184.75
624.192	205.75
624.399	189.75
624.606	203.75
624.812	187.75
625.019	201.75
625.226	186.75
625.433	197.75
625.639	192.75
625.846	195.75
626.053	186.75
626.259	182.75
626.466	168.75
626.673	173.75
626.879	183.75
627.086	183.75
627.293	196.75
627.499	192.75
627.706	187.75
627.912	176.75
628.119	182.75
628.325	180.75
628.532	179.75
628.738	177.75
628.945	170.75
629.151	175.75
629.357	194.75
629.564	171.75
629.77	179.75
629.976	187.75
630.183	175.75
630.389	169.75
630.595	160.75
630.802	170.75
631.008	167.75
631.214	183.75
631.42	171.75
631.627	181.75
631.833	179.75
632.039	186.75
632.245	162.75
632.451	160.75
632.657	185.75
632.863	168.75
633.069	183.75
633.275	168.75
633.481	149.75
633.688	171.75
633.893	175.75
634.099	157.75
634.305	169.75
634.511	165.75
634.717	157.75
634.923	164.75
635.129	166.75
635.335	167.75
635.541	168.75
635.747	153.75
635.952	164.75
636.158	166.75
636.364	155.75
636.57	179.75
636.775	183.75
636.981	170.75
637.187	170.75
637.392	169.75
637.598	151.75
637.804	165.75
638.009	164.75
638.215	178.75
638.421	152.75
638.626	178.75
638.832	173.75
639.037	152.75
639.243	155.75
639.448	179.75
639.654	155.75
639.859	136.75
640.065	148.75
640.27	170.75
640.475	156.75
640.681	167.75
640.886	160.75
641.091	156.75
641.297	160.75
641.502	151.75
641.707	160.75
641.913	148.75
642.118	151.75
642.323	156.75
642.528	138.75
642.733	154.75
642.939	161.75
643.144	136.75
643.349	154.75
643.554	156.75
643.759	152.75
643.964	157.75
644.169	170.75
644.374	154.75
644.579	164.75
644.784	156.75
644.989	161.75
645.194	161.75
645.399	148.75
645.604	119.75
645.809	156.75
646.014	149.75
646.219	141.75
646.423	141.75
646.628	155.75
646.833	147.75
647.038	159.75
647.243	135.75
647.447	149.75
647.652	151.75
647.857	163.75
648.062	148.75
648.266	169.75
648.471	173.75
648.676	158.75
648.88	161.75
649.085	133.75
649.289	150.75
649.494	148.75
649.698	171.75
649.903	160.75
650.107	164.75
650.312	153.75
650.516	140.75
650.721	142.75
650.925	137.75
651.13	149.75
651.334	145.75
651.539	156.75
651.743	127.75
651.947	137.75
652.152	142.75
652.356	130.75
652.56	140.75
652.764	138.75
652.969	142.75
653.173	132.75
653.377	134.75
653.581	136.75
653.785	141.75
653.99	130.75
654.194	118.75
654.398	126.75
654.602	143.75
654.806	135.75
655.01	132.75
655.214	127.75
655.418	133.75
655.622	127.75
655.826	130.75
656.03	138.75
656.234	141.75
656.438	164.75
656.642	148.75
656.846	135.75
657.049	134.75
657.253	120.75
657.457	142.75
657.661	124.75
657.865	117.75
658.068	104.75
658.272	128.75
658.476	110.75
658.68	94.75
658.883	98.75
659.087	96.75
659.291	76.75
659.494	114.75
659.698	99.75
659.901	94.75
660.105	100.75
660.309	81.75
660.512	98.75
660.716	86.75
660.919	102.75
661.123	94.75
661.326	85.75
661.53	82.75
661.733	81.75
661.936	93.75
662.14	95.75
662.343	92.75
662.546	94.75
662.75	96.75
662.953	83.75
663.156	83.75
663.36	74.75
663.563	82.75
663.766	78.75
663.969	73.75
664.173	83.75
664.376	79.75
664.579	75.75
664.782	77.75
664.985	72.75
665.188	86.75
665.391	93.75
665.594	81.75
665.797	85.75
666	75.75
666.203	74.75
666.406	88.75
666.609	79.75
666.812	81.75
667.015	85.75
667.218	84.75
667.421	76.75
667.624	81.75
667.827	84.75
668.03	73.75
668.232	75.75
668.435	83.75
668.638	86.75
668.841	83.75
669.043	74.75
669.246	90.75
669.449	86.75
669.651	72.75
669.854	75.75
670.057	78.75
670.259	100.75
670.462	74.75
670.665	78.75
670.867	87.75
671.07	81.75
671.272	75.75
671.475	76.75
671.677	82.75
671.88	84.75
672.082	85.75
672.284	87.75
672.487	87.75
672.689	70.75
672.892	79.75
