Data from 1960PennyLincolnUp.LampE5.5.200Scan.07172019.P1.ChangedAngle_HRD10591_13-15-35-821.txt Node
Date: Thu Jul 18 13:15:35 EDT 2019
User: cochatt
Spectrometer: HR+D1059
Trigger mode: 1
Integration Time (sec): 1.000000E-1
Scans to average: 1
Electric dark correction enabled: true
Nonlinearity correction enabled: false
Boxcar width: 0
XAxis mode: Wavelengths
Number of Pixels in Spectrum: 2048
>>>>>Begin Spectral Data<<<<<
223.165	-24.19
223.4	-24.19
223.635	-24.19
223.869	-12.19
224.104	-30.19
224.338	-12.19
224.573	-10.19
224.808	-10.19
225.042	-5.19
225.277	-18.19
225.511	-12.19
225.746	14.81
225.98	23.81
226.215	10.81
226.449	14.81
226.683	14.81
226.918	23.81
227.152	31.81
227.387	38.81
227.621	38.81
227.856	32.81
228.09	37.81
228.324	41.81
228.559	58.81
228.793	59.81
229.027	101.81
229.262	99.81
229.496	95.81
229.73	100.81
229.964	123.81
230.199	109.81
230.433	112.81
230.667	96.81
230.901	109.81
231.136	99.81
231.37	105.81
231.604	99.81
231.838	92.81
232.072	107.81
232.306	100.81
232.541	103.81
232.775	96.81
233.009	101.81
233.243	111.81
233.477	108.81
233.711	115.81
233.945	109.81
234.179	112.81
234.413	102.81
234.647	109.81
234.881	115.81
235.115	116.81
235.349	105.81
235.583	126.81
235.817	123.81
236.051	113.81
236.285	115.81
236.519	112.81
236.753	105.81
236.987	133.81
237.221	152.81
237.455	166.81
237.689	145.81
237.922	129.81
238.156	111.81
238.39	127.81
238.624	108.81
238.858	113.81
239.091	122.81
239.325	107.81
239.559	115.81
239.793	125.81
240.027	123.81
240.26	129.81
240.494	128.81
240.728	133.81
240.961	133.81
241.195	144.81
241.429	134.81
241.662	123.81
241.896	123.81
242.13	109.81
242.363	119.81
242.597	123.81
242.83	128.81
243.064	125.81
243.298	131.81
243.531	119.81
243.765	126.81
243.998	123.81
244.232	139.81
244.465	130.81
244.699	126.81
244.932	122.81
245.166	144.81
245.399	129.81
245.633	136.81
245.866	151.81
246.099	137.81
246.333	143.81
246.566	138.81
246.8	139.81
247.033	141.81
247.266	156.81
247.5	145.81
247.733	148.81
247.966	168.81
248.2	169.81
248.433	152.81
248.666	164.81
248.899	161.81
249.133	175.81
249.366	186.81
249.599	163.81
249.832	150.81
250.066	157.81
250.299	167.81
250.532	176.81
250.765	167.81
250.998	190.81
251.231	190.81
251.465	182.81
251.698	178.81
251.931	172.81
252.164	180.81
252.397	174.81
252.63	184.81
252.863	203.81
253.096	199.81
253.329	201.81
253.562	192.81
253.795	197.81
254.028	198.81
254.261	184.81
254.494	190.81
254.727	205.81
254.96	228.81
255.193	237.81
255.426	222.81
255.659	211.81
255.892	201.81
256.124	211.81
256.357	199.81
256.59	201.81
256.823	204.81
257.056	188.81
257.289	196.81
257.521	176.81
257.754	200.81
257.987	186.81
258.22	180.81
258.452	194.81
258.685	191.81
258.918	204.81
259.151	191.81
259.383	210.81
259.616	187.81
259.849	202.81
260.081	224.81
260.314	228.81
260.547	211.81
260.779	234.81
261.012	212.81
261.244	205.81
261.477	195.81
261.71	193.81
261.942	182.81
262.175	192.81
262.407	221.81
262.64	191.81
262.872	211.81
263.105	197.81
263.337	207.81
263.57	188.81
263.802	204.81
264.035	202.81
264.267	199.81
264.499	203.81
264.732	206.81
264.964	205.81
265.197	218.81
265.429	212.81
265.661	211.81
265.894	210.81
266.126	217.81
266.358	204.81
266.591	206.81
266.823	218.81
267.055	213.81
267.287	228.81
267.52	218.81
267.752	222.81
267.984	211.81
268.216	218.81
268.448	219.81
268.681	228.81
268.913	217.81
269.145	245.81
269.377	245.81
269.609	247.81
269.841	255.81
270.073	251.81
270.306	256.81
270.538	276.81
270.77	287.81
271.002	267.81
271.234	268.81
271.466	264.81
271.698	292.81
271.93	285.81
272.162	293.81
272.394	289.81
272.626	276.81
272.858	267.81
273.09	264.81
273.322	252.81
273.553	248.81
273.785	252.81
274.017	255.81
274.249	259.81
274.481	233.81
274.713	225.81
274.945	223.81
275.176	254.81
275.408	239.81
275.64	246.81
275.872	240.81
276.104	269.81
276.335	251.81
276.567	244.81
276.799	268.81
277.031	285.81
277.262	284.81
277.494	284.81
277.726	274.81
277.957	285.81
278.189	259.81
278.421	253.81
278.652	264.81
278.884	265.81
279.115	261.81
279.347	256.81
279.579	259.81
279.81	231.81
280.042	269.81
280.273	254.81
280.505	275.81
280.736	265.81
280.968	271.81
281.199	268.81
281.431	262.81
281.662	261.81
281.894	261.81
282.125	248.81
282.356	287.81
282.588	289.81
282.819	289.81
283.051	283.81
283.282	259.81
283.513	273.81
283.745	272.81
283.976	299.81
284.207	273.81
284.439	279.81
284.67	273.81
284.901	268.81
285.132	272.81
285.364	288.81
285.595	269.81
285.826	277.81
286.057	268.81
286.288	260.81
286.52	279.81
286.751	281.81
286.982	271.81
287.213	265.81
287.444	281.81
287.675	281.81
287.906	308.81
288.138	278.81
288.369	293.81
288.6	281.81
288.831	302.81
289.062	295.81
289.293	280.81
289.524	296.81
289.755	287.81
289.986	285.81
290.217	277.81
290.448	279.81
290.679	282.81
290.91	281.81
291.141	293.81
291.371	299.81
291.602	299.81
291.833	261.81
292.064	280.81
292.295	283.81
292.526	281.81
292.757	284.81
292.987	296.81
293.218	276.81
293.449	287.81
293.68	291.81
293.91	298.81
294.141	287.81
294.372	271.81
294.603	287.81
294.833	288.81
295.064	294.81
295.295	269.81
295.525	275.81
295.756	310.81
295.987	291.81
296.217	313.81
296.448	299.81
296.679	298.81
296.909	303.81
297.14	294.81
297.37	305.81
297.601	279.81
297.831	291.81
298.062	308.81
298.292	316.81
298.523	294.81
298.753	300.81
298.984	309.81
299.214	304.81
299.445	312.81
299.675	305.81
299.905	289.81
300.136	303.81
300.366	299.81
300.597	323.81
300.827	294.81
301.057	316.81
301.288	297.81
301.518	332.81
301.748	310.81
301.979	308.81
302.209	307.81
302.439	335.81
302.669	311.81
302.9	320.81
303.13	313.81
303.36	323.81
303.59	319.81
303.82	303.81
304.051	328.81
304.281	328.81
304.511	310.81
304.741	315.81
304.971	305.81
305.201	304.81
305.431	325.81
305.661	339.81
305.891	325.81
306.121	311.81
306.352	319.81
306.582	310.81
306.812	340.81
307.042	327.81
307.272	330.81
307.502	334.81
307.731	328.81
307.961	333.81
308.191	317.81
308.421	317.81
308.651	343.81
308.881	331.81
309.111	324.81
309.341	326.81
309.571	339.81
309.8	338.81
310.03	353.81
310.26	359.81
310.49	342.81
310.72	349.81
310.949	373.81
311.179	365.81
311.409	343.81
311.639	361.81
311.868	340.81
312.098	345.81
312.328	378.81
312.557	367.81
312.787	383.81
313.017	366.81
313.246	365.81
313.476	350.81
313.706	379.81
313.935	367.81
314.165	375.81
314.394	370.81
314.624	366.81
314.853	368.81
315.083	344.81
315.312	354.81
315.542	351.81
315.771	357.81
316.001	355.81
316.23	358.81
316.46	358.81
316.689	365.81
316.919	357.81
317.148	352.81
317.377	363.81
317.607	379.81
317.836	383.81
318.065	379.81
318.295	352.81
318.524	357.81
318.753	358.81
318.983	363.81
319.212	357.81
319.441	362.81
319.67	364.81
319.9	337.81
320.129	372.81
320.358	371.81
320.587	370.81
320.816	367.81
321.046	368.81
321.275	359.81
321.504	362.81
321.733	407.81
321.962	369.81
322.191	391.81
322.42	398.81
322.649	407.81
322.878	404.81
323.108	415.81
323.337	421.81
323.566	449.81
323.795	460.81
324.024	468.81
324.253	581.81
324.482	778.81
324.71	1117.81
324.939	1486.81
325.168	1275.81
325.397	736.81
325.626	523.81
325.855	465.81
326.084	447.81
326.313	436.81
326.542	441.81
326.77	489.81
326.999	546.81
327.228	711.81
327.457	983.81
327.686	1132.81
327.914	814.81
328.143	564.81
328.372	493.81
328.6	471.81
328.829	476.81
329.058	488.81
329.287	472.81
329.515	463.81
329.744	458.81
329.972	433.81
330.201	449.81
330.43	490.81
330.658	509.81
330.887	487.81
331.115	486.81
331.344	453.81
331.572	435.81
331.801	456.81
332.03	423.81
332.258	432.81
332.486	413.81
332.715	429.81
332.943	436.81
333.172	417.81
333.4	426.81
333.629	436.81
333.857	452.81
334.085	445.81
334.314	456.81
334.542	485.81
334.771	480.81
334.999	455.81
335.227	433.81
335.455	427.81
335.684	429.81
335.912	411.81
336.14	420.81
336.369	421.81
336.597	435.81
336.825	417.81
337.053	430.81
337.281	418.81
337.51	400.81
337.738	423.81
337.966	409.81
338.194	420.81
338.422	413.81
338.65	400.81
338.878	423.81
339.106	393.81
339.334	406.81
339.562	402.81
339.79	393.81
340.018	395.81
340.246	397.81
340.474	398.81
340.702	399.81
340.93	411.81
341.158	390.81
341.386	389.81
341.614	383.81
341.842	410.81
342.07	398.81
342.298	398.81
342.526	416.81
342.754	399.81
342.981	388.81
343.209	390.81
343.437	398.81
343.665	417.81
343.893	409.81
344.12	432.81
344.348	412.81
344.576	415.81
344.804	397.81
345.031	423.81
345.259	408.81
345.487	415.81
345.714	396.81
345.942	382.81
346.17	405.81
346.397	389.81
346.625	388.81
346.853	382.81
347.08	385.81
347.308	377.81
347.535	395.81
347.763	377.81
347.99	391.81
348.218	367.81
348.445	378.81
348.673	376.81
348.9	367.81
349.128	371.81
349.355	362.81
349.583	388.81
349.81	383.81
350.037	360.81
350.265	364.81
350.492	367.81
350.72	363.81
350.947	367.81
351.174	372.81
351.402	385.81
351.629	363.81
351.856	372.81
352.083	386.81
352.311	401.81
352.538	385.81
352.765	367.81
352.992	384.81
353.22	370.81
353.447	381.81
353.674	373.81
353.901	366.81
354.128	367.81
354.355	364.81
354.583	367.81
354.81	344.81
355.037	364.81
355.264	355.81
355.491	345.81
355.718	334.81
355.945	361.81
356.172	347.81
356.399	350.81
356.626	336.81
356.853	361.81
357.08	364.81
357.307	351.81
357.534	359.81
357.761	348.81
357.988	342.81
358.215	363.81
358.441	361.81
358.668	365.81
358.895	370.81
359.122	366.81
359.349	367.81
359.576	374.81
359.802	368.81
360.029	389.81
360.256	399.81
360.483	397.81
360.709	379.81
360.936	382.81
361.163	384.81
361.39	369.81
361.616	357.81
361.843	355.81
362.07	391.81
362.296	381.81
362.523	358.81
362.749	392.81
362.976	371.81
363.203	366.81
363.429	347.81
363.656	354.81
363.882	343.81
364.109	360.81
364.335	364.81
364.562	344.81
364.788	360.81
365.015	361.81
365.241	369.81
365.468	374.81
365.694	365.81
365.92	357.81
366.147	365.81
366.373	364.81
366.599	362.81
366.826	348.81
367.052	331.81
367.278	361.81
367.505	358.81
367.731	344.81
367.957	345.81
368.184	362.81
368.41	351.81
368.636	363.81
368.862	367.81
369.089	376.81
369.315	347.81
369.541	365.81
369.767	364.81
369.993	357.81
370.219	352.81
370.445	361.81
370.672	363.81
370.898	357.81
371.124	361.81
371.35	338.81
371.576	343.81
371.802	342.81
372.028	351.81
372.254	363.81
372.48	357.81
372.706	373.81
372.932	355.81
373.158	357.81
373.384	358.81
373.61	369.81
373.835	363.81
374.061	352.81
374.287	362.81
374.513	371.81
374.739	358.81
374.965	351.81
375.191	362.81
375.416	363.81
375.642	363.81
375.868	369.81
376.094	349.81
376.319	357.81
376.545	363.81
376.771	352.81
376.997	351.81
377.222	360.81
377.448	361.81
377.674	360.81
377.899	349.81
378.125	349.81
378.35	341.81
378.576	347.81
378.802	352.81
379.027	355.81
379.253	349.81
379.478	329.81
379.704	336.81
379.929	356.81
380.155	363.81
380.38	346.81
380.606	357.81
380.831	357.81
381.057	339.81
381.282	353.81
381.507	344.81
381.733	354.81
381.958	348.81
382.184	356.81
382.409	381.81
382.634	339.81
382.86	368.81
383.085	357.81
383.31	365.81
383.535	355.81
383.761	357.81
383.986	365.81
384.211	350.81
384.436	376.81
384.662	371.81
384.887	351.81
385.112	375.81
385.337	377.81
385.562	372.81
385.787	393.81
386.013	386.81
386.238	380.81
386.463	394.81
386.688	384.81
386.913	383.81
387.138	367.81
387.363	381.81
387.588	386.81
387.813	373.81
388.038	370.81
388.263	374.81
388.488	369.81
388.713	394.81
388.938	366.81
389.163	375.81
389.387	380.81
389.612	377.81
389.837	373.81
390.062	351.81
390.287	373.81
390.512	375.81
390.736	371.81
390.961	384.81
391.186	377.81
391.411	369.81
391.636	380.81
391.86	389.81
392.085	388.81
392.31	386.81
392.534	381.81
392.759	382.81
392.984	392.81
393.208	383.81
393.433	402.81
393.658	381.81
393.882	378.81
394.107	394.81
394.331	379.81
394.556	375.81
394.78	371.81
395.005	385.81
395.229	381.81
395.454	388.81
395.678	382.81
395.903	416.81
396.127	408.81
396.352	398.81
396.576	383.81
396.801	389.81
397.025	384.81
397.249	405.81
397.474	398.81
397.698	398.81
397.922	410.81
398.147	411.81
398.371	412.81
398.595	412.81
398.82	395.81
399.044	414.81
399.268	447.81
399.492	470.81
399.717	491.81
399.941	499.81
400.165	501.81
400.389	500.81
400.613	502.81
400.837	447.81
401.062	414.81
401.286	447.81
401.51	411.81
401.734	415.81
401.958	450.81
402.182	403.81
402.406	444.81
402.63	440.81
402.854	433.81
403.078	415.81
403.302	426.81
403.526	421.81
403.75	428.81
403.974	449.81
404.198	429.81
404.422	433.81
404.645	439.81
404.869	442.81
405.093	445.81
405.317	503.81
405.541	509.81
405.765	484.81
405.988	434.81
406.212	460.81
406.436	457.81
406.66	468.81
406.883	452.81
407.107	487.81
407.331	492.81
407.555	543.81
407.778	549.81
408.002	495.81
408.226	472.81
408.449	477.81
408.673	475.81
408.896	482.81
409.12	514.81
409.344	463.81
409.567	435.81
409.791	447.81
410.014	412.81
410.238	425.81
410.461	433.81
410.685	417.81
410.908	438.81
411.132	459.81
411.355	484.81
411.578	463.81
411.802	438.81
412.025	441.81
412.249	431.81
412.472	448.81
412.695	462.81
412.919	469.81
413.142	436.81
413.365	397.81
413.589	414.81
413.812	427.81
414.035	411.81
414.258	398.81
414.482	394.81
414.705	406.81
414.928	395.81
415.151	399.81
415.374	380.81
415.597	403.81
415.821	414.81
416.044	388.81
416.267	396.81
416.49	400.81
416.713	407.81
416.936	396.81
417.159	382.81
417.382	416.81
417.605	408.81
417.828	425.81
418.051	414.81
418.274	399.81
418.497	406.81
418.72	398.81
418.943	396.81
419.166	411.81
419.389	440.81
419.611	420.81
419.834	406.81
420.057	425.81
420.28	415.81
420.503	424.81
420.726	431.81
420.948	423.81
421.171	462.81
421.394	461.81
421.617	419.81
421.839	419.81
422.062	409.81
422.285	442.81
422.507	463.81
422.73	518.81
422.953	486.81
423.175	444.81
423.398	435.81
423.621	433.81
423.843	431.81
424.066	430.81
424.288	435.81
424.511	448.81
424.733	480.81
424.956	518.81
425.178	533.81
425.401	509.81
425.623	524.81
425.846	448.81
426.068	417.81
426.291	438.81
426.513	440.81
426.735	445.81
426.958	465.81
427.18	513.81
427.402	594.81
427.625	661.81
427.847	555.81
428.069	487.81
428.292	459.81
428.514	444.81
428.736	424.81
428.958	413.81
429.181	400.81
429.403	399.81
429.625	404.81
429.847	423.81
430.069	450.81
430.292	465.81
430.514	419.81
430.736	407.81
430.958	406.81
431.18	374.81
431.402	388.81
431.624	358.81
431.846	376.81
432.068	390.81
432.29	384.81
432.512	399.81
432.734	399.81
432.956	412.81
433.178	387.81
433.4	395.81
433.622	373.81
433.844	392.81
434.066	379.81
434.287	383.81
434.509	394.81
434.731	416.81
434.953	395.81
435.175	421.81
435.397	440.81
435.618	428.81
435.84	451.81
436.062	520.81
436.284	567.81
436.505	487.81
436.727	427.81
436.949	405.81
437.17	401.81
437.392	385.81
437.614	417.81
437.835	411.81
438.057	501.81
438.278	544.81
438.5	569.81
438.721	615.81
438.943	575.81
439.165	481.81
439.386	463.81
439.608	446.81
439.829	415.81
440.05	451.81
440.272	463.81
440.493	454.81
440.715	431.81
440.936	403.81
441.158	427.81
441.379	404.81
441.6	391.81
441.822	427.81
442.043	459.81
442.264	513.81
442.486	529.81
442.707	471.81
442.928	443.81
443.149	465.81
443.371	444.81
443.592	481.81
443.813	551.81
444.034	573.81
444.255	485.81
444.476	445.81
444.698	459.81
444.919	453.81
445.14	505.81
445.361	480.81
445.582	442.81
445.803	492.81
446.024	561.81
446.245	579.81
446.466	501.81
446.687	455.81
446.908	419.81
447.129	420.81
447.35	414.81
447.571	398.81
447.792	391.81
448.013	385.81
448.234	422.81
448.455	451.81
448.675	519.81
448.896	583.81
449.117	497.81
449.338	472.81
449.559	557.81
449.779	600.81
450	505.81
450.221	428.81
450.442	416.81
450.662	399.81
450.883	378.81
451.104	394.81
451.324	383.81
451.545	382.81
451.766	388.81
451.986	353.81
452.207	372.81
452.428	340.81
452.648	359.81
452.869	365.81
453.089	374.81
453.31	365.81
453.53	362.81
453.751	334.81
453.971	349.81
454.192	375.81
454.412	373.81
454.633	364.81
454.853	359.81
455.073	360.81
455.294	385.81
455.514	399.81
455.734	398.81
455.955	379.81
456.175	339.81
456.395	348.81
456.616	345.81
456.836	330.81
457.056	320.81
457.276	330.81
457.497	334.81
457.717	334.81
457.937	332.81
458.157	347.81
458.377	337.81
458.598	359.81
458.818	400.81
459.038	452.81
459.258	447.81
459.478	421.81
459.698	384.81
459.918	383.81
460.138	379.81
460.358	382.81
460.578	373.81
460.798	395.81
461.018	398.81
461.238	404.81
461.458	387.81
461.678	377.81
461.898	394.81
462.118	394.81
462.338	403.81
462.558	401.81
462.777	399.81
462.997	395.81
463.217	420.81
463.437	438.81
463.657	427.81
463.876	417.81
464.096	411.81
464.316	433.81
464.536	419.81
464.755	427.81
464.975	413.81
465.195	408.81
465.414	467.81
465.634	412.81
465.854	397.81
466.073	400.81
466.293	410.81
466.512	371.81
466.732	383.81
466.951	369.81
467.171	358.81
467.391	379.81
467.61	364.81
467.829	378.81
468.049	370.81
468.268	367.81
468.488	367.81
468.707	373.81
468.927	355.81
469.146	369.81
469.365	367.81
469.585	345.81
469.804	367.81
470.023	379.81
470.243	350.81
470.462	385.81
470.681	365.81
470.901	375.81
471.12	387.81
471.339	390.81
471.558	385.81
471.777	369.81
471.997	361.81
472.216	375.81
472.435	396.81
472.654	398.81
472.873	345.81
473.092	371.81
473.311	375.81
473.53	375.81
473.749	359.81
473.968	404.81
474.187	465.81
474.406	491.81
474.625	409.81
474.844	391.81
475.063	381.81
475.282	385.81
475.501	379.81
475.72	393.81
475.939	376.81
476.158	385.81
476.377	406.81
476.596	376.81
476.814	363.81
477.033	393.81
477.252	396.81
477.471	399.81
477.69	397.81
477.908	410.81
478.127	406.81
478.346	409.81
478.564	431.81
478.783	408.81
479.002	421.81
479.22	415.81
479.439	430.81
479.658	439.81
479.876	449.81
480.095	456.81
480.313	464.81
480.532	449.81
480.751	442.81
480.969	444.81
481.188	517.81
481.406	487.81
481.624	475.81
481.843	454.81
482.061	427.81
482.28	439.81
482.498	435.81
482.717	430.81
482.935	429.81
483.153	434.81
483.372	427.81
483.59	430.81
483.808	429.81
484.027	451.81
484.245	427.81
484.463	444.81
484.681	443.81
484.9	446.81
485.118	453.81
485.336	433.81
485.554	427.81
485.772	438.81
485.99	442.81
486.209	456.81
486.427	453.81
486.645	458.81
486.863	459.81
487.081	502.81
487.299	459.81
487.517	453.81
487.735	455.81
487.953	452.81
488.171	449.81
488.389	462.81
488.607	457.81
488.825	457.81
489.043	454.81
489.261	439.81
489.479	460.81
489.696	454.81
489.914	464.81
490.132	464.81
490.35	491.81
490.568	455.81
490.786	467.81
491.003	469.81
491.221	468.81
491.439	486.81
491.657	488.81
491.874	508.81
492.092	507.81
492.31	517.81
492.527	498.81
492.745	495.81
492.963	507.81
493.18	506.81
493.398	504.81
493.615	528.81
493.833	523.81
494.05	549.81
494.268	530.81
494.485	519.81
494.703	535.81
494.92	503.81
495.138	548.81
495.355	532.81
495.573	523.81
495.79	517.81
496.008	539.81
496.225	541.81
496.442	538.81
496.66	528.81
496.877	526.81
497.094	539.81
497.312	551.81
497.529	528.81
497.746	559.81
497.963	566.81
498.181	596.81
498.398	585.81
498.615	601.81
498.832	618.81
499.049	631.81
499.267	621.81
499.484	669.81
499.701	680.81
499.918	678.81
500.135	735.81
500.352	733.81
500.569	744.81
500.786	767.81
501.003	765.81
501.22	736.81
501.437	709.81
501.654	700.81
501.871	680.81
502.088	638.81
502.305	616.81
502.522	621.81
502.739	589.81
502.956	556.81
503.172	569.81
503.389	575.81
503.606	568.81
503.823	556.81
504.04	555.81
504.256	548.81
504.473	556.81
504.69	544.81
504.907	536.81
505.123	507.81
505.34	527.81
505.557	525.81
505.773	505.81
505.99	499.81
506.207	509.81
506.423	502.81
506.64	496.81
506.856	487.81
507.073	473.81
507.289	497.81
507.506	503.81
507.722	479.81
507.939	510.81
508.155	489.81
508.372	475.81
508.588	479.81
508.805	464.81
509.021	475.81
509.238	473.81
509.454	486.81
509.67	462.81
509.887	457.81
510.103	483.81
510.319	486.81
510.536	533.81
510.752	790.81
510.968	646.81
511.184	509.81
511.401	479.81
511.617	472.81
511.833	453.81
512.049	457.81
512.265	451.81
512.481	440.81
512.698	417.81
512.914	444.81
513.13	442.81
513.346	446.81
513.562	448.81
513.778	441.81
513.994	445.81
514.21	472.81
514.426	470.81
514.642	478.81
514.858	488.81
515.074	541.81
515.29	597.81
515.506	797.81
515.721	671.81
515.937	511.81
516.153	483.81
516.369	475.81
516.585	481.81
516.801	447.81
517.016	467.81
517.232	485.81
517.448	487.81
517.664	497.81
517.879	501.81
518.095	483.81
518.311	448.81
518.527	465.81
518.742	468.81
518.958	471.81
519.173	445.81
519.389	443.81
519.605	443.81
519.82	446.81
520.036	484.81
520.251	461.81
520.467	483.81
520.682	475.81
520.898	480.81
521.113	470.81
521.329	509.81
521.544	542.81
521.76	653.81
521.975	957.81
522.19	956.81
522.406	612.81
522.621	495.81
522.836	433.81
523.052	459.81
523.267	436.81
523.482	430.81
523.698	421.81
523.913	423.81
524.128	401.81
524.343	415.81
524.559	416.81
524.774	397.81
524.989	391.81
525.204	390.81
525.419	396.81
525.634	400.81
525.849	388.81
526.064	392.81
526.28	413.81
526.495	403.81
526.71	373.81
526.925	375.81
527.14	392.81
527.355	373.81
527.57	381.81
527.785	365.81
527.999	383.81
528.214	376.81
528.429	377.81
528.644	380.81
528.859	392.81
529.074	403.81
529.289	372.81
529.503	440.81
529.718	394.81
529.933	398.81
530.148	393.81
530.363	377.81
530.577	387.81
530.792	382.81
531.007	370.81
531.221	389.81
531.436	380.81
531.651	376.81
531.865	391.81
532.08	373.81
532.295	367.81
532.509	370.81
532.724	370.81
532.938	372.81
533.153	369.81
533.367	374.81
533.582	351.81
533.796	375.81
534.011	352.81
534.225	361.81
534.44	357.81
534.654	374.81
534.868	355.81
535.083	367.81
535.297	374.81
535.511	373.81
535.726	377.81
535.94	363.81
536.154	353.81
536.369	356.81
536.583	363.81
536.797	361.81
537.011	345.81
537.225	377.81
537.44	335.81
537.654	344.81
537.868	346.81
538.082	328.81
538.296	352.81
538.51	340.81
538.724	351.81
538.938	362.81
539.153	371.81
539.367	369.81
539.581	354.81
539.795	342.81
540.009	340.81
540.222	345.81
540.436	335.81
540.65	351.81
540.864	364.81
541.078	377.81
541.292	364.81
541.506	352.81
541.72	372.81
541.934	358.81
542.147	385.81
542.361	348.81
542.575	371.81
542.789	363.81
543.002	351.81
543.216	342.81
543.43	346.81
543.644	367.81
543.857	373.81
544.071	348.81
544.285	363.81
544.498	361.81
544.712	343.81
544.925	344.81
545.139	369.81
545.352	341.81
545.566	367.81
545.779	347.81
545.993	351.81
546.206	361.81
546.42	363.81
546.633	359.81
546.847	375.81
547.06	348.81
547.274	344.81
547.487	349.81
547.7	317.81
547.914	342.81
548.127	345.81
548.34	346.81
548.554	336.81
548.767	340.81
548.98	338.81
549.193	358.81
549.407	344.81
549.62	345.81
549.833	350.81
550.046	326.81
550.259	321.81
550.473	327.81
550.686	335.81
550.899	325.81
551.112	339.81
551.325	334.81
551.538	332.81
551.751	334.81
551.964	342.81
552.177	333.81
552.39	331.81
552.603	339.81
552.816	333.81
553.029	325.81
553.242	344.81
553.455	327.81
553.667	341.81
553.88	357.81
554.093	355.81
554.306	349.81
554.519	335.81
554.732	333.81
554.944	341.81
555.157	317.81
555.37	335.81
555.583	328.81
555.795	323.81
556.008	307.81
556.221	336.81
556.433	297.81
556.646	314.81
556.859	324.81
557.071	294.81
557.284	326.81
557.496	328.81
557.709	316.81
557.921	299.81
558.134	301.81
558.346	288.81
558.559	313.81
558.771	316.81
558.984	288.81
559.196	305.81
559.409	310.81
559.621	313.81
559.833	303.81
560.046	286.81
560.258	293.81
560.47	305.81
560.683	307.81
560.895	307.81
561.107	310.81
561.32	287.81
561.532	297.81
561.744	305.81
561.956	295.81
562.168	317.81
562.381	305.81
562.593	302.81
562.805	299.81
563.017	298.81
563.229	310.81
563.441	303.81
563.653	295.81
563.865	306.81
564.077	311.81
564.289	307.81
564.501	316.81
564.713	307.81
564.925	328.81
565.137	319.81
565.349	319.81
565.561	340.81
565.773	342.81
565.985	327.81
566.197	325.81
566.408	367.81
566.62	345.81
566.832	371.81
567.044	379.81
567.255	368.81
567.467	366.81
567.679	377.81
567.891	401.81
568.102	397.81
568.314	369.81
568.526	367.81
568.737	363.81
568.949	348.81
569.161	328.81
569.372	305.81
569.584	307.81
569.795	316.81
570.007	321.81
570.218	328.81
570.43	341.81
570.641	304.81
570.853	303.81
571.064	286.81
571.276	312.81
571.487	281.81
571.698	271.81
571.91	284.81
572.121	292.81
572.333	270.81
572.544	263.81
572.755	285.81
572.966	267.81
573.178	287.81
573.389	280.81
573.6	272.81
573.811	263.81
574.023	275.81
574.234	252.81
574.445	276.81
574.656	267.81
574.867	254.81
575.078	243.81
575.289	259.81
575.501	270.81
575.712	257.81
575.923	273.81
576.134	257.81
576.345	270.81
576.556	273.81
576.767	262.81
576.978	243.81
577.188	240.81
577.399	248.81
577.61	260.81
577.821	249.81
578.032	236.81
578.243	282.81
578.454	389.81
578.665	315.81
578.875	254.81
579.086	255.81
579.297	262.81
579.508	248.81
579.718	245.81
579.929	242.81
580.14	248.81
580.35	252.81
580.561	252.81
580.772	251.81
580.982	251.81
581.193	248.81
581.403	253.81
581.614	246.81
581.825	233.81
582.035	235.81
582.246	249.81
582.456	243.81
582.667	247.81
582.877	250.81
583.087	229.81
583.298	248.81
583.508	221.81
583.719	234.81
583.929	247.81
584.139	224.81
584.35	224.81
584.56	231.81
584.77	246.81
584.981	236.81
585.191	233.81
585.401	245.81
585.611	236.81
585.821	233.81
586.032	235.81
586.242	233.81
586.452	238.81
586.662	244.81
586.872	216.81
587.082	235.81
587.292	236.81
587.502	217.81
587.713	234.81
587.923	236.81
588.133	239.81
588.343	238.81
588.553	247.81
588.762	241.81
588.972	269.81
589.182	268.81
589.392	253.81
589.602	262.81
589.812	266.81
590.022	251.81
590.232	236.81
590.441	222.81
590.651	251.81
590.861	245.81
591.071	246.81
591.281	247.81
591.49	244.81
591.7	244.81
591.91	241.81
592.119	231.81
592.329	249.81
592.539	242.81
592.748	244.81
592.958	242.81
593.167	238.81
593.377	257.81
593.587	249.81
593.796	253.81
594.006	247.81
594.215	241.81
594.424	248.81
594.634	247.81
594.843	244.81
595.053	229.81
595.262	245.81
595.472	233.81
595.681	230.81
595.89	228.81
596.1	215.81
596.309	231.81
596.518	247.81
596.727	212.81
596.937	217.81
597.146	231.81
597.355	236.81
597.564	223.81
597.774	225.81
597.983	215.81
598.192	219.81
598.401	236.81
598.61	207.81
598.819	213.81
599.028	211.81
599.237	224.81
599.446	211.81
599.655	213.81
599.864	228.81
600.073	196.81
600.282	206.81
600.491	220.81
600.7	208.81
600.909	204.81
601.118	217.81
601.327	206.81
601.536	185.81
601.745	192.81
601.953	194.81
602.162	211.81
602.371	211.81
602.58	210.81
602.789	197.81
602.997	200.81
603.206	204.81
603.415	194.81
603.623	208.81
603.832	203.81
604.041	211.81
604.249	220.81
604.458	207.81
604.666	187.81
604.875	201.81
605.084	195.81
605.292	203.81
605.501	197.81
605.709	196.81
605.918	198.81
606.126	200.81
606.334	207.81
606.543	186.81
606.751	184.81
606.96	193.81
607.168	201.81
607.376	205.81
607.585	219.81
607.793	196.81
608.001	212.81
608.21	184.81
608.418	185.81
608.626	196.81
608.834	206.81
609.043	194.81
609.251	173.81
609.459	205.81
609.667	209.81
609.875	196.81
610.083	190.81
610.291	196.81
610.499	210.81
610.707	192.81
610.916	194.81
611.124	187.81
611.332	218.81
611.54	210.81
611.748	204.81
611.955	193.81
612.163	206.81
612.371	204.81
612.579	208.81
612.787	184.81
612.995	207.81
613.203	198.81
613.411	203.81
613.618	191.81
613.826	184.81
614.034	200.81
614.242	191.81
614.449	197.81
614.657	176.81
614.865	188.81
615.072	189.81
615.28	193.81
615.488	191.81
615.695	189.81
615.903	196.81
616.111	198.81
616.318	190.81
616.526	198.81
616.733	203.81
616.941	182.81
617.148	192.81
617.356	184.81
617.563	182.81
617.771	181.81
617.978	181.81
618.185	194.81
618.393	192.81
618.6	194.81
618.807	188.81
619.015	192.81
619.222	172.81
619.429	187.81
619.637	175.81
619.844	192.81
620.051	166.81
620.258	211.81
620.466	178.81
620.673	174.81
620.88	189.81
621.087	185.81
621.294	192.81
621.501	193.81
621.708	181.81
621.915	186.81
622.122	170.81
622.329	182.81
622.536	192.81
622.743	183.81
622.95	177.81
623.157	161.81
623.364	176.81
623.571	188.81
623.778	184.81
623.985	173.81
624.192	171.81
624.399	172.81
624.606	198.81
624.812	170.81
625.019	171.81
625.226	184.81
625.433	167.81
625.639	177.81
625.846	169.81
626.053	164.81
626.259	175.81
626.466	163.81
626.673	159.81
626.879	187.81
627.086	185.81
627.293	170.81
627.499	172.81
627.706	159.81
627.912	143.81
628.119	175.81
628.325	181.81
628.532	156.81
628.738	166.81
628.945	173.81
629.151	168.81
629.357	185.81
629.564	170.81
629.77	168.81
629.976	137.81
630.183	159.81
630.389	147.81
630.595	167.81
630.802	175.81
631.008	159.81
631.214	168.81
631.42	156.81
631.627	181.81
631.833	163.81
632.039	155.81
632.245	162.81
632.451	156.81
632.657	154.81
632.863	160.81
633.069	165.81
633.275	144.81
633.481	169.81
633.688	156.81
633.893	156.81
634.099	156.81
634.305	165.81
634.511	180.81
634.717	169.81
634.923	147.81
635.129	158.81
635.335	165.81
635.541	155.81
635.747	152.81
635.952	152.81
636.158	162.81
636.364	149.81
636.57	145.81
636.775	146.81
636.981	143.81
637.187	153.81
637.392	161.81
637.598	155.81
637.804	158.81
638.009	148.81
638.215	161.81
638.421	162.81
638.626	171.81
638.832	161.81
639.037	158.81
639.243	139.81
639.448	176.81
639.654	145.81
639.859	137.81
640.065	139.81
640.27	135.81
640.475	149.81
640.681	148.81
640.886	141.81
641.091	158.81
641.297	161.81
641.502	146.81
641.707	149.81
641.913	157.81
642.118	156.81
642.323	141.81
642.528	144.81
642.733	153.81
642.939	143.81
643.144	162.81
643.349	153.81
643.554	158.81
643.759	165.81
643.964	151.81
644.169	151.81
644.374	164.81
644.579	153.81
644.784	149.81
644.989	148.81
645.194	136.81
645.399	138.81
645.604	139.81
645.809	145.81
646.014	145.81
646.219	139.81
646.423	157.81
646.628	149.81
646.833	136.81
647.038	149.81
647.243	147.81
647.447	134.81
647.652	143.81
647.857	125.81
648.062	132.81
648.266	145.81
648.471	138.81
648.676	142.81
648.88	156.81
649.085	144.81
649.289	146.81
649.494	131.81
649.698	153.81
649.903	151.81
650.107	141.81
650.312	148.81
650.516	138.81
650.721	130.81
650.925	135.81
651.13	153.81
651.334	129.81
651.539	120.81
651.743	119.81
651.947	137.81
652.152	139.81
652.356	148.81
652.56	126.81
652.764	131.81
652.969	132.81
653.173	135.81
653.377	131.81
653.581	122.81
653.785	129.81
653.99	112.81
654.194	116.81
654.398	117.81
654.602	131.81
654.806	125.81
655.01	136.81
655.214	131.81
655.418	123.81
655.622	119.81
655.826	122.81
656.03	134.81
656.234	131.81
656.438	112.81
656.642	127.81
656.846	113.81
657.049	132.81
657.253	140.81
657.457	118.81
657.661	117.81
657.865	108.81
658.068	107.81
658.272	113.81
658.476	104.81
658.68	107.81
658.883	92.81
659.087	101.81
659.291	107.81
659.494	106.81
659.698	102.81
659.901	89.81
660.105	106.81
660.309	104.81
660.512	76.81
660.716	91.81
660.919	77.81
661.123	102.81
661.326	91.81
661.53	103.81
661.733	83.81
661.936	91.81
662.14	84.81
662.343	88.81
662.546	90.81
662.75	95.81
662.953	88.81
663.156	89.81
663.36	94.81
663.563	84.81
663.766	88.81
663.969	66.81
664.173	108.81
664.376	81.81
664.579	86.81
664.782	85.81
664.985	68.81
665.188	92.81
665.391	90.81
665.594	84.81
665.797	99.81
666	81.81
666.203	86.81
666.406	77.81
666.609	76.81
666.812	83.81
667.015	85.81
667.218	96.81
667.421	82.81
667.624	69.81
667.827	77.81
668.03	72.81
668.232	85.81
668.435	97.81
668.638	78.81
668.841	92.81
669.043	82.81
669.246	96.81
669.449	73.81
669.651	80.81
669.854	95.81
670.057	92.81
670.259	81.81
670.462	76.81
670.665	78.81
670.867	92.81
671.07	79.81
671.272	81.81
671.475	92.81
671.677	99.81
671.88	88.81
672.082	86.81
672.284	93.81
672.487	88.81
672.689	103.81
672.892	83.81
