Data from 1960PennyLincolnUp.LampE5.5.200Scan.07172019.P1.ChangedAngle_HRD10591_13-15-03-821.txt Node
Date: Thu Jul 18 13:15:03 EDT 2019
User: cochatt
Spectrometer: HR+D1059
Trigger mode: 1
Integration Time (sec): 1.000000E-1
Scans to average: 1
Electric dark correction enabled: true
Nonlinearity correction enabled: false
Boxcar width: 0
XAxis mode: Wavelengths
Number of Pixels in Spectrum: 2048
>>>>>Begin Spectral Data<<<<<
223.165	-10.62
223.4	-10.62
223.635	-10.62
223.869	-5.62
224.104	-29.62
224.338	-6.62
224.573	-28.62
224.808	-16.62
225.042	-13.62
225.277	2.38
225.511	10.38
225.746	11.38
225.98	12.38
226.215	9.38
226.449	17.38
226.683	7.38
226.918	13.38
227.152	27.38
227.387	30.38
227.621	41.38
227.856	51.38
228.09	39.38
228.324	49.38
228.559	42.38
228.793	59.38
229.027	103.38
229.262	83.38
229.496	102.38
229.73	107.38
229.964	122.38
230.199	106.38
230.433	108.38
230.667	91.38
230.901	96.38
231.136	91.38
231.37	111.38
231.604	107.38
231.838	103.38
232.072	113.38
232.306	101.38
232.541	112.38
232.775	114.38
233.009	108.38
233.243	105.38
233.477	103.38
233.711	93.38
233.945	111.38
234.179	121.38
234.413	116.38
234.647	117.38
234.881	121.38
235.115	135.38
235.349	127.38
235.583	109.38
235.817	112.38
236.051	106.38
236.285	121.38
236.519	121.38
236.753	126.38
236.987	145.38
237.221	168.38
237.455	164.38
237.689	149.38
237.922	124.38
238.156	126.38
238.39	108.38
238.624	112.38
238.858	101.38
239.091	119.38
239.325	119.38
239.559	109.38
239.793	119.38
240.027	121.38
240.26	138.38
240.494	143.38
240.728	142.38
240.961	136.38
241.195	129.38
241.429	124.38
241.662	133.38
241.896	135.38
242.13	127.38
242.363	116.38
242.597	141.38
242.83	131.38
243.064	131.38
243.298	126.38
243.531	140.38
243.765	136.38
243.998	147.38
244.232	149.38
244.465	116.38
244.699	135.38
244.932	134.38
245.166	148.38
245.399	141.38
245.633	135.38
245.866	138.38
246.099	135.38
246.333	154.38
246.566	133.38
246.8	127.38
247.033	143.38
247.266	158.38
247.5	149.38
247.733	145.38
247.966	170.38
248.2	150.38
248.433	171.38
248.666	158.38
248.899	179.38
249.133	185.38
249.366	184.38
249.599	179.38
249.832	164.38
250.066	151.38
250.299	160.38
250.532	164.38
250.765	184.38
250.998	194.38
251.231	196.38
251.465	188.38
251.698	190.38
251.931	179.38
252.164	182.38
252.397	164.38
252.63	191.38
252.863	190.38
253.096	197.38
253.329	183.38
253.562	184.38
253.795	204.38
254.028	191.38
254.261	187.38
254.494	227.38
254.727	215.38
254.96	230.38
255.193	239.38
255.426	231.38
255.659	190.38
255.892	203.38
256.124	201.38
256.357	210.38
256.59	200.38
256.823	200.38
257.056	201.38
257.289	196.38
257.521	194.38
257.754	197.38
257.987	215.38
258.22	211.38
258.452	206.38
258.685	201.38
258.918	209.38
259.151	201.38
259.383	207.38
259.616	185.38
259.849	201.38
260.081	219.38
260.314	239.38
260.547	232.38
260.779	224.38
261.012	225.38
261.244	208.38
261.477	230.38
261.71	204.38
261.942	199.38
262.175	209.38
262.407	218.38
262.64	209.38
262.872	211.38
263.105	220.38
263.337	212.38
263.57	221.38
263.802	193.38
264.035	200.38
264.267	200.38
264.499	206.38
264.732	201.38
264.964	218.38
265.197	204.38
265.429	206.38
265.661	209.38
265.894	216.38
266.126	218.38
266.358	197.38
266.591	211.38
266.823	222.38
267.055	203.38
267.287	223.38
267.52	219.38
267.752	232.38
267.984	241.38
268.216	223.38
268.448	229.38
268.681	238.38
268.913	246.38
269.145	250.38
269.377	240.38
269.609	254.38
269.841	250.38
270.073	267.38
270.306	255.38
270.538	273.38
270.77	266.38
271.002	268.38
271.234	260.38
271.466	284.38
271.698	296.38
271.93	288.38
272.162	289.38
272.394	275.38
272.626	248.38
272.858	260.38
273.09	273.38
273.322	263.38
273.553	255.38
273.785	249.38
274.017	253.38
274.249	261.38
274.481	256.38
274.713	263.38
274.945	257.38
275.176	257.38
275.408	257.38
275.64	267.38
275.872	257.38
276.104	253.38
276.335	224.38
276.567	263.38
276.799	259.38
277.031	273.38
277.262	279.38
277.494	293.38
277.726	307.38
277.957	293.38
278.189	292.38
278.421	291.38
278.652	264.38
278.884	275.38
279.115	260.38
279.347	265.38
279.579	261.38
279.81	262.38
280.042	274.38
280.273	278.38
280.505	275.38
280.736	267.38
280.968	286.38
281.199	272.38
281.431	293.38
281.662	255.38
281.894	254.38
282.125	263.38
282.356	280.38
282.588	299.38
282.819	287.38
283.051	269.38
283.282	275.38
283.513	271.38
283.745	264.38
283.976	270.38
284.207	282.38
284.439	273.38
284.67	271.38
284.901	290.38
285.132	303.38
285.364	284.38
285.595	293.38
285.826	279.38
286.057	277.38
286.288	275.38
286.52	280.38
286.751	283.38
286.982	287.38
287.213	295.38
287.444	297.38
287.675	283.38
287.906	303.38
288.138	310.38
288.369	303.38
288.6	287.38
288.831	314.38
289.062	303.38
289.293	295.38
289.524	282.38
289.755	288.38
289.986	296.38
290.217	279.38
290.448	283.38
290.679	305.38
290.91	309.38
291.141	272.38
291.371	295.38
291.602	294.38
291.833	294.38
292.064	309.38
292.295	275.38
292.526	294.38
292.757	288.38
292.987	291.38
293.218	277.38
293.449	278.38
293.68	291.38
293.91	318.38
294.141	300.38
294.372	286.38
294.603	297.38
294.833	285.38
295.064	293.38
295.295	283.38
295.525	293.38
295.756	287.38
295.987	288.38
296.217	311.38
296.448	320.38
296.679	304.38
296.909	313.38
297.14	317.38
297.37	303.38
297.601	307.38
297.831	298.38
298.062	291.38
298.292	306.38
298.523	307.38
298.753	302.38
298.984	331.38
299.214	305.38
299.445	318.38
299.675	317.38
299.905	321.38
300.136	317.38
300.366	314.38
300.597	303.38
300.827	317.38
301.057	328.38
301.288	330.38
301.518	332.38
301.748	324.38
301.979	336.38
302.209	335.38
302.439	334.38
302.669	321.38
302.9	330.38
303.13	329.38
303.36	312.38
303.59	342.38
303.82	334.38
304.051	325.38
304.281	332.38
304.511	350.38
304.741	315.38
304.971	315.38
305.201	342.38
305.431	328.38
305.661	332.38
305.891	332.38
306.121	333.38
306.352	332.38
306.582	331.38
306.812	319.38
307.042	341.38
307.272	345.38
307.502	327.38
307.731	336.38
307.961	327.38
308.191	324.38
308.421	344.38
308.651	339.38
308.881	326.38
309.111	328.38
309.341	348.38
309.571	347.38
309.8	348.38
310.03	342.38
310.26	366.38
310.49	350.38
310.72	364.38
310.949	377.38
311.179	363.38
311.409	362.38
311.639	355.38
311.868	354.38
312.098	366.38
312.328	386.38
312.557	378.38
312.787	389.38
313.017	390.38
313.246	349.38
313.476	370.38
313.706	382.38
313.935	378.38
314.165	392.38
314.394	380.38
314.624	383.38
314.853	376.38
315.083	373.38
315.312	362.38
315.542	375.38
315.771	365.38
316.001	390.38
316.23	361.38
316.46	389.38
316.689	377.38
316.919	368.38
317.148	390.38
317.377	371.38
317.607	395.38
317.836	377.38
318.065	379.38
318.295	385.38
318.524	367.38
318.753	377.38
318.983	366.38
319.212	366.38
319.441	385.38
319.67	374.38
319.9	371.38
320.129	390.38
320.358	374.38
320.587	377.38
320.816	376.38
321.046	385.38
321.275	369.38
321.504	402.38
321.733	378.38
321.962	398.38
322.191	407.38
322.42	417.38
322.649	405.38
322.878	395.38
323.108	437.38
323.337	427.38
323.566	432.38
323.795	470.38
324.024	499.38
324.253	577.38
324.482	776.38
324.71	1127.38
324.939	1472.38
325.168	1272.38
325.397	704.38
325.626	541.38
325.855	490.38
326.084	454.38
326.313	447.38
326.542	452.38
326.77	497.38
326.999	553.38
327.228	703.38
327.457	996.38
327.686	1116.38
327.914	804.38
328.143	583.38
328.372	511.38
328.6	525.38
328.829	511.38
329.058	475.38
329.287	508.38
329.515	497.38
329.744	449.38
329.972	445.38
330.201	447.38
330.43	489.38
330.658	507.38
330.887	512.38
331.115	469.38
331.344	460.38
331.572	458.38
331.801	448.38
332.03	444.38
332.258	440.38
332.486	445.38
332.715	431.38
332.943	420.38
333.172	424.38
333.4	462.38
333.629	445.38
333.857	449.38
334.085	465.38
334.314	479.38
334.542	491.38
334.771	484.38
334.999	479.38
335.227	444.38
335.455	439.38
335.684	435.38
335.912	423.38
336.14	436.38
336.369	436.38
336.597	466.38
336.825	423.38
337.053	425.38
337.281	435.38
337.51	431.38
337.738	419.38
337.966	428.38
338.194	431.38
338.422	422.38
338.65	409.38
338.878	407.38
339.106	416.38
339.334	405.38
339.562	416.38
339.79	405.38
340.018	412.38
340.246	430.38
340.474	415.38
340.702	404.38
340.93	399.38
341.158	405.38
341.386	423.38
341.614	405.38
341.842	401.38
342.07	394.38
342.298	413.38
342.526	397.38
342.754	376.38
342.981	406.38
343.209	403.38
343.437	423.38
343.665	424.38
343.893	414.38
344.12	408.38
344.348	403.38
344.576	438.38
344.804	433.38
345.031	412.38
345.259	419.38
345.487	408.38
345.714	413.38
345.942	401.38
346.17	399.38
346.397	397.38
346.625	386.38
346.853	394.38
347.08	407.38
347.308	396.38
347.535	398.38
347.763	419.38
347.99	413.38
348.218	398.38
348.445	411.38
348.673	386.38
348.9	383.38
349.128	397.38
349.355	384.38
349.583	375.38
349.81	373.38
350.037	385.38
350.265	383.38
350.492	394.38
350.72	383.38
350.947	377.38
351.174	403.38
351.402	390.38
351.629	377.38
351.856	391.38
352.083	389.38
352.311	384.38
352.538	401.38
352.765	413.38
352.992	396.38
353.22	392.38
353.447	384.38
353.674	366.38
353.901	395.38
354.128	365.38
354.355	364.38
354.583	377.38
354.81	367.38
355.037	363.38
355.264	380.38
355.491	371.38
355.718	368.38
355.945	355.38
356.172	369.38
356.399	386.38
356.626	379.38
356.853	375.38
357.08	358.38
357.307	358.38
357.534	364.38
357.761	372.38
357.988	364.38
358.215	340.38
358.441	371.38
358.668	377.38
358.895	371.38
359.122	365.38
359.349	387.38
359.576	389.38
359.802	402.38
360.029	394.38
360.256	403.38
360.483	373.38
360.709	392.38
360.936	379.38
361.163	371.38
361.39	381.38
361.616	370.38
361.843	365.38
362.07	377.38
362.296	364.38
362.523	343.38
362.749	367.38
362.976	363.38
363.203	384.38
363.429	370.38
363.656	371.38
363.882	367.38
364.109	362.38
364.335	360.38
364.562	368.38
364.788	382.38
365.015	377.38
365.241	364.38
365.468	342.38
365.694	375.38
365.92	365.38
366.147	350.38
366.373	362.38
366.599	353.38
366.826	352.38
367.052	360.38
367.278	386.38
367.505	369.38
367.731	362.38
367.957	370.38
368.184	354.38
368.41	349.38
368.636	354.38
368.862	387.38
369.089	376.38
369.315	354.38
369.541	380.38
369.767	367.38
369.993	362.38
370.219	359.38
370.445	370.38
370.672	368.38
370.898	361.38
371.124	366.38
371.35	363.38
371.576	365.38
371.802	342.38
372.028	363.38
372.254	367.38
372.48	373.38
372.706	350.38
372.932	365.38
373.158	342.38
373.384	365.38
373.61	376.38
373.835	357.38
374.061	375.38
374.287	373.38
374.513	378.38
374.739	368.38
374.965	374.38
375.191	382.38
375.416	368.38
375.642	381.38
375.868	361.38
376.094	349.38
376.319	355.38
376.545	365.38
376.771	369.38
376.997	363.38
377.222	350.38
377.448	355.38
377.674	367.38
377.899	361.38
378.125	343.38
378.35	370.38
378.576	364.38
378.802	351.38
379.027	350.38
379.253	351.38
379.478	345.38
379.704	347.38
379.929	354.38
380.155	367.38
380.38	357.38
380.606	372.38
380.831	339.38
381.057	368.38
381.282	346.38
381.507	375.38
381.733	385.38
381.958	364.38
382.184	375.38
382.409	371.38
382.634	398.38
382.86	379.38
383.085	367.38
383.31	369.38
383.535	357.38
383.761	377.38
383.986	365.38
384.211	379.38
384.436	355.38
384.662	391.38
384.887	373.38
385.112	374.38
385.337	380.38
385.562	388.38
385.787	385.38
386.013	403.38
386.238	387.38
386.463	396.38
386.688	392.38
386.913	383.38
387.138	382.38
387.363	405.38
387.588	372.38
387.813	400.38
388.038	393.38
388.263	375.38
388.488	382.38
388.713	390.38
388.938	399.38
389.163	385.38
389.387	390.38
389.612	401.38
389.837	404.38
390.062	382.38
390.287	389.38
390.512	370.38
390.736	366.38
390.961	371.38
391.186	391.38
391.411	379.38
391.636	390.38
391.86	396.38
392.085	407.38
392.31	402.38
392.534	399.38
392.759	379.38
392.984	386.38
393.208	379.38
393.433	397.38
393.658	407.38
393.882	390.38
394.107	383.38
394.331	393.38
394.556	399.38
394.78	384.38
395.005	393.38
395.229	376.38
395.454	396.38
395.678	387.38
395.903	413.38
396.127	441.38
396.352	408.38
396.576	393.38
396.801	408.38
397.025	412.38
397.249	398.38
397.474	406.38
397.698	417.38
397.922	432.38
398.147	431.38
398.371	456.38
398.595	429.38
398.82	443.38
399.044	456.38
399.268	480.38
399.492	475.38
399.717	516.38
399.941	529.38
400.165	540.38
400.389	517.38
400.613	498.38
400.837	457.38
401.062	446.38
401.286	446.38
401.51	427.38
401.734	442.38
401.958	411.38
402.182	439.38
402.406	433.38
402.63	421.38
402.854	424.38
403.078	414.38
403.302	448.38
403.526	434.38
403.75	463.38
403.974	428.38
404.198	446.38
404.422	466.38
404.645	452.38
404.869	457.38
405.093	482.38
405.317	497.38
405.541	508.38
405.765	505.38
405.988	460.38
406.212	475.38
406.436	474.38
406.66	484.38
406.883	472.38
407.107	485.38
407.331	525.38
407.555	562.38
407.778	549.38
408.002	513.38
408.226	491.38
408.449	483.38
408.673	477.38
408.896	505.38
409.12	506.38
409.344	527.38
409.567	470.38
409.791	467.38
410.014	445.38
410.238	419.38
410.461	429.38
410.685	444.38
410.908	473.38
411.132	481.38
411.355	503.38
411.578	474.38
411.802	453.38
412.025	432.38
412.249	459.38
412.472	480.38
412.695	473.38
412.919	463.38
413.142	445.38
413.365	431.38
413.589	426.38
413.812	423.38
414.035	421.38
414.258	435.38
414.482	409.38
414.705	403.38
414.928	423.38
415.151	419.38
415.374	411.38
415.597	438.38
415.821	407.38
416.044	410.38
416.267	419.38
416.49	409.38
416.713	391.38
416.936	410.38
417.159	401.38
417.382	422.38
417.605	433.38
417.828	413.38
418.051	427.38
418.274	417.38
418.497	430.38
418.72	448.38
418.943	412.38
419.166	427.38
419.389	444.38
419.611	465.38
419.834	439.38
420.057	427.38
420.28	441.38
420.503	423.38
420.726	436.38
420.948	412.38
421.171	453.38
421.394	477.38
421.617	430.38
421.839	415.38
422.062	429.38
422.285	436.38
422.507	502.38
422.73	529.38
422.953	508.38
423.175	446.38
423.398	445.38
423.621	441.38
423.843	458.38
424.066	439.38
424.288	430.38
424.511	456.38
424.733	503.38
424.956	547.38
425.178	513.38
425.401	515.38
425.623	549.38
425.846	484.38
426.068	444.38
426.291	441.38
426.513	406.38
426.735	459.38
426.958	473.38
427.18	525.38
427.402	606.38
427.625	666.38
427.847	570.38
428.069	518.38
428.292	493.38
428.514	444.38
428.736	428.38
428.958	420.38
429.181	406.38
429.403	402.38
429.625	420.38
429.847	421.38
430.069	484.38
430.292	456.38
430.514	415.38
430.736	412.38
430.958	385.38
431.18	419.38
431.402	395.38
431.624	390.38
431.846	406.38
432.068	381.38
432.29	390.38
432.512	401.38
432.734	387.38
432.956	422.38
433.178	419.38
433.4	411.38
433.622	389.38
433.844	393.38
434.066	398.38
434.287	398.38
434.509	398.38
434.731	384.38
434.953	406.38
435.175	403.38
435.397	427.38
435.618	446.38
435.84	470.38
436.062	506.38
436.284	570.38
436.505	475.38
436.727	464.38
436.949	431.38
437.17	423.38
437.392	421.38
437.614	449.38
437.835	448.38
438.057	499.38
438.278	555.38
438.5	586.38
438.721	630.38
438.943	583.38
439.165	483.38
439.386	427.38
439.608	441.38
439.829	430.38
440.05	455.38
440.272	484.38
440.493	448.38
440.715	439.38
440.936	442.38
441.158	404.38
441.379	409.38
441.6	434.38
441.822	436.38
442.043	460.38
442.264	509.38
442.486	545.38
442.707	459.38
442.928	458.38
443.149	462.38
443.371	445.38
443.592	495.38
443.813	556.38
444.034	584.38
444.255	529.38
444.476	454.38
444.698	436.38
444.919	440.38
445.14	512.38
445.361	484.38
445.582	472.38
445.803	502.38
446.024	580.38
446.245	591.38
446.466	544.38
446.687	458.38
446.908	425.38
447.129	412.38
447.35	413.38
447.571	415.38
447.792	423.38
448.013	407.38
448.234	440.38
448.455	461.38
448.675	535.38
448.896	607.38
449.117	519.38
449.338	515.38
449.559	587.38
449.779	618.38
450	498.38
450.221	432.38
450.442	419.38
450.662	398.38
450.883	395.38
451.104	408.38
451.324	381.38
451.545	396.38
451.766	385.38
451.986	351.38
452.207	364.38
452.428	366.38
452.648	376.38
452.869	386.38
453.089	352.38
453.31	379.38
453.53	350.38
453.751	361.38
453.971	375.38
454.192	370.38
454.412	378.38
454.633	366.38
454.853	355.38
455.073	361.38
455.294	384.38
455.514	409.38
455.734	411.38
455.955	365.38
456.175	358.38
456.395	346.38
456.616	353.38
456.836	356.38
457.056	331.38
457.276	352.38
457.497	347.38
457.717	361.38
457.937	359.38
458.157	348.38
458.377	377.38
458.598	400.38
458.818	403.38
459.038	445.38
459.258	483.38
459.478	418.38
459.698	398.38
459.918	397.38
460.138	400.38
460.358	391.38
460.578	405.38
460.798	405.38
461.018	397.38
461.238	401.38
461.458	411.38
461.678	405.38
461.898	404.38
462.118	403.38
462.338	405.38
462.558	413.38
462.777	432.38
462.997	419.38
463.217	435.38
463.437	433.38
463.657	439.38
463.876	430.38
464.096	421.38
464.316	421.38
464.536	420.38
464.755	445.38
464.975	446.38
465.195	446.38
465.414	459.38
465.634	455.38
465.854	405.38
466.073	413.38
466.293	388.38
466.512	384.38
466.732	388.38
466.951	383.38
467.171	391.38
467.391	377.38
467.61	390.38
467.829	389.38
468.049	406.38
468.268	382.38
468.488	384.38
468.707	368.38
468.927	369.38
469.146	393.38
469.365	373.38
469.585	352.38
469.804	373.38
470.023	384.38
470.243	374.38
470.462	386.38
470.681	385.38
470.901	381.38
471.12	374.38
471.339	385.38
471.558	385.38
471.777	389.38
471.997	397.38
472.216	397.38
472.435	400.38
472.654	397.38
472.873	386.38
473.092	380.38
473.311	379.38
473.53	383.38
473.749	372.38
473.968	447.38
474.187	485.38
474.406	501.38
474.625	433.38
474.844	400.38
475.063	381.38
475.282	372.38
475.501	378.38
475.72	382.38
475.939	383.38
476.158	391.38
476.377	401.38
476.596	384.38
476.814	399.38
477.033	417.38
477.252	423.38
477.471	416.38
477.69	403.38
477.908	407.38
478.127	425.38
478.346	424.38
478.564	443.38
478.783	441.38
479.002	427.38
479.22	449.38
479.439	457.38
479.658	434.38
479.876	462.38
480.095	439.38
480.313	470.38
480.532	459.38
480.751	459.38
480.969	456.38
481.188	503.38
481.406	514.38
481.624	459.38
481.843	470.38
482.061	450.38
482.28	459.38
482.498	441.38
482.717	456.38
482.935	459.38
483.153	441.38
483.372	458.38
483.59	467.38
483.808	426.38
484.027	438.38
484.245	435.38
484.463	466.38
484.681	460.38
484.9	465.38
485.118	433.38
485.336	445.38
485.554	431.38
485.772	477.38
485.99	479.38
486.209	468.38
486.427	450.38
486.645	494.38
486.863	488.38
487.081	445.38
487.299	469.38
487.517	473.38
487.735	454.38
487.953	456.38
488.171	492.38
488.389	503.38
488.607	491.38
488.825	473.38
489.043	457.38
489.261	455.38
489.479	480.38
489.696	474.38
489.914	488.38
490.132	475.38
490.35	477.38
490.568	476.38
490.786	493.38
491.003	510.38
491.221	494.38
491.439	507.38
491.657	501.38
491.874	524.38
492.092	512.38
492.31	513.38
492.527	499.38
492.745	504.38
492.963	517.38
493.18	521.38
493.398	528.38
493.615	545.38
493.833	552.38
494.05	531.38
494.268	530.38
494.485	518.38
494.703	528.38
494.92	535.38
495.138	535.38
495.355	549.38
495.573	524.38
495.79	540.38
496.008	557.38
496.225	549.38
496.442	553.38
496.66	550.38
496.877	567.38
497.094	550.38
497.312	565.38
497.529	569.38
497.746	565.38
497.963	568.38
498.181	610.38
498.398	603.38
498.615	623.38
498.832	611.38
499.049	624.38
499.267	625.38
499.484	679.38
499.701	712.38
499.918	716.38
500.135	748.38
500.352	776.38
500.569	833.38
500.786	816.38
501.003	784.38
501.22	752.38
501.437	741.38
501.654	703.38
501.871	712.38
502.088	651.38
502.305	669.38
502.522	631.38
502.739	611.38
502.956	595.38
503.172	606.38
503.389	570.38
503.606	583.38
503.823	601.38
504.04	570.38
504.256	572.38
504.473	570.38
504.69	568.38
504.907	570.38
505.123	529.38
505.34	556.38
505.557	550.38
505.773	532.38
505.99	505.38
506.207	510.38
506.423	522.38
506.64	532.38
506.856	526.38
507.073	522.38
507.289	512.38
507.506	490.38
507.722	490.38
507.939	499.38
508.155	485.38
508.372	471.38
508.588	475.38
508.805	481.38
509.021	488.38
509.238	491.38
509.454	508.38
509.67	488.38
509.887	500.38
510.103	467.38
510.319	483.38
510.536	554.38
510.752	803.38
510.968	657.38
511.184	510.38
511.401	473.38
511.617	479.38
511.833	471.38
512.049	459.38
512.265	469.38
512.481	448.38
512.698	456.38
512.914	453.38
513.13	460.38
513.346	440.38
513.562	462.38
513.778	456.38
513.994	470.38
514.21	476.38
514.426	503.38
514.642	485.38
514.858	509.38
515.074	539.38
515.29	584.38
515.506	798.38
515.721	677.38
515.937	521.38
516.153	496.38
516.369	502.38
516.585	494.38
516.801	482.38
517.016	478.38
517.232	495.38
517.448	492.38
517.664	478.38
517.879	478.38
518.095	499.38
518.311	496.38
518.527	481.38
518.742	505.38
518.958	484.38
519.173	486.38
519.389	464.38
519.605	464.38
519.82	470.38
520.036	476.38
520.251	476.38
520.467	511.38
520.682	476.38
520.898	499.38
521.113	502.38
521.329	519.38
521.544	526.38
521.76	650.38
521.975	988.38
522.19	960.38
522.406	608.38
522.621	516.38
522.836	474.38
523.052	461.38
523.267	449.38
523.482	425.38
523.698	425.38
523.913	424.38
524.128	424.38
524.343	432.38
524.559	416.38
524.774	405.38
524.989	431.38
525.204	406.38
525.419	410.38
525.634	396.38
525.849	399.38
526.064	408.38
526.28	399.38
526.495	404.38
526.71	400.38
526.925	397.38
527.14	371.38
527.355	384.38
527.57	385.38
527.785	408.38
527.999	368.38
528.214	385.38
528.429	388.38
528.644	398.38
528.859	389.38
529.074	403.38
529.289	430.38
529.503	435.38
529.718	432.38
529.933	424.38
530.148	413.38
530.363	400.38
530.577	399.38
530.792	392.38
531.007	384.38
531.221	390.38
531.436	387.38
531.651	388.38
531.865	378.38
532.08	375.38
532.295	384.38
532.509	375.38
532.724	387.38
532.938	376.38
533.153	400.38
533.367	376.38
533.582	383.38
533.796	385.38
534.011	364.38
534.225	365.38
534.44	368.38
534.654	390.38
534.868	397.38
535.083	379.38
535.297	371.38
535.511	372.38
535.726	382.38
535.94	376.38
536.154	346.38
536.369	376.38
536.583	365.38
536.797	346.38
537.011	373.38
537.225	362.38
537.44	356.38
537.654	365.38
537.868	367.38
538.082	367.38
538.296	358.38
538.51	359.38
538.724	363.38
538.938	362.38
539.153	344.38
539.367	371.38
539.581	359.38
539.795	378.38
540.009	359.38
540.222	371.38
540.436	359.38
540.65	370.38
540.864	359.38
541.078	364.38
541.292	371.38
541.506	362.38
541.72	353.38
541.934	367.38
542.147	361.38
542.361	355.38
542.575	355.38
542.789	350.38
543.002	365.38
543.216	373.38
543.43	377.38
543.644	349.38
543.857	363.38
544.071	359.38
544.285	351.38
544.498	353.38
544.712	352.38
544.925	360.38
545.139	373.38
545.352	358.38
545.566	355.38
545.779	347.38
545.993	343.38
546.206	372.38
546.42	360.38
546.633	352.38
546.847	341.38
547.06	339.38
547.274	348.38
547.487	363.38
547.7	350.38
547.914	351.38
548.127	360.38
548.34	360.38
548.554	344.38
548.767	348.38
548.98	352.38
549.193	352.38
549.407	330.38
549.62	360.38
549.833	341.38
550.046	346.38
550.259	362.38
550.473	352.38
550.686	341.38
550.899	347.38
551.112	360.38
551.325	340.38
551.538	346.38
551.751	342.38
551.964	348.38
552.177	345.38
552.39	357.38
552.603	338.38
552.816	365.38
553.029	325.38
553.242	364.38
553.455	367.38
553.667	353.38
553.88	359.38
554.093	332.38
554.306	343.38
554.519	344.38
554.732	352.38
554.944	337.38
555.157	341.38
555.37	321.38
555.583	340.38
555.795	321.38
556.008	325.38
556.221	334.38
556.433	314.38
556.646	336.38
556.859	319.38
557.071	317.38
557.284	320.38
557.496	332.38
557.709	320.38
557.921	317.38
558.134	318.38
558.346	311.38
558.559	321.38
558.771	327.38
558.984	324.38
559.196	311.38
559.409	316.38
559.621	324.38
559.833	311.38
560.046	319.38
560.258	332.38
560.47	299.38
560.683	300.38
560.895	323.38
561.107	300.38
561.32	319.38
561.532	311.38
561.744	297.38
561.956	309.38
562.168	324.38
562.381	315.38
562.593	321.38
562.805	318.38
563.017	324.38
563.229	321.38
563.441	307.38
563.653	317.38
563.865	326.38
564.077	330.38
564.289	318.38
564.501	328.38
564.713	318.38
564.925	342.38
565.137	350.38
565.349	340.38
565.561	345.38
565.773	343.38
565.985	347.38
566.197	347.38
566.408	366.38
566.62	367.38
566.832	372.38
567.044	390.38
567.255	386.38
567.467	383.38
567.679	387.38
567.891	412.38
568.102	405.38
568.314	393.38
568.526	371.38
568.737	375.38
568.949	382.38
569.161	343.38
569.372	339.38
569.584	334.38
569.795	324.38
570.007	321.38
570.218	335.38
570.43	347.38
570.641	312.38
570.853	306.38
571.064	315.38
571.276	312.38
571.487	301.38
571.698	289.38
571.91	301.38
572.121	294.38
572.333	287.38
572.544	277.38
572.755	278.38
572.966	265.38
573.178	295.38
573.389	288.38
573.6	296.38
573.811	275.38
574.023	287.38
574.234	287.38
574.445	287.38
574.656	271.38
574.867	266.38
575.078	265.38
575.289	266.38
575.501	255.38
575.712	261.38
575.923	262.38
576.134	262.38
576.345	264.38
576.556	267.38
576.767	255.38
576.978	269.38
577.188	269.38
577.399	273.38
577.61	255.38
577.821	265.38
578.032	276.38
578.243	275.38
578.454	403.38
578.665	315.38
578.875	282.38
579.086	273.38
579.297	227.38
579.508	262.38
579.718	256.38
579.929	253.38
580.14	271.38
580.35	251.38
580.561	250.38
580.772	257.38
580.982	263.38
581.193	244.38
581.403	261.38
581.614	249.38
581.825	248.38
582.035	257.38
582.246	250.38
582.456	247.38
582.667	266.38
582.877	246.38
583.087	255.38
583.298	234.38
583.508	262.38
583.719	260.38
583.929	244.38
584.139	268.38
584.35	254.38
584.56	247.38
584.77	240.38
584.981	249.38
585.191	239.38
585.401	250.38
585.611	257.38
585.821	245.38
586.032	243.38
586.242	236.38
586.452	236.38
586.662	233.38
586.872	239.38
587.082	237.38
587.292	234.38
587.502	269.38
587.713	247.38
587.923	245.38
588.133	243.38
588.343	246.38
588.553	231.38
588.762	268.38
588.972	263.38
589.182	302.38
589.392	307.38
589.602	263.38
589.812	289.38
590.022	269.38
590.232	251.38
590.441	235.38
590.651	223.38
590.861	235.38
591.071	240.38
591.281	260.38
591.49	256.38
591.7	258.38
591.91	232.38
592.119	244.38
592.329	275.38
592.539	256.38
592.748	255.38
592.958	265.38
593.167	262.38
593.377	261.38
593.587	250.38
593.796	245.38
594.006	254.38
594.215	239.38
594.424	231.38
594.634	248.38
594.843	251.38
595.053	250.38
595.262	258.38
595.472	243.38
595.681	225.38
595.89	227.38
596.1	222.38
596.309	237.38
596.518	215.38
596.727	228.38
596.937	248.38
597.146	234.38
597.355	223.38
597.564	224.38
597.774	220.38
597.983	221.38
598.192	203.38
598.401	222.38
598.61	211.38
598.819	205.38
599.028	206.38
599.237	216.38
599.446	234.38
599.655	213.38
599.864	218.38
600.073	227.38
600.282	231.38
600.491	227.38
600.7	239.38
600.909	217.38
601.118	217.38
601.327	217.38
601.536	220.38
601.745	216.38
601.953	199.38
602.162	212.38
602.371	212.38
602.58	211.38
602.789	205.38
602.997	207.38
603.206	203.38
603.415	205.38
603.623	212.38
603.832	217.38
604.041	214.38
604.249	196.38
604.458	191.38
604.666	209.38
604.875	208.38
605.084	200.38
605.292	206.38
605.501	215.38
605.709	231.38
605.918	204.38
606.126	188.38
606.334	203.38
606.543	185.38
606.751	190.38
606.96	194.38
607.168	187.38
607.376	211.38
607.585	200.38
607.793	212.38
608.001	208.38
608.21	200.38
608.418	205.38
608.626	185.38
608.834	202.38
609.043	201.38
609.251	205.38
609.459	205.38
609.667	221.38
609.875	205.38
610.083	205.38
610.291	204.38
610.499	215.38
610.707	212.38
610.916	222.38
611.124	198.38
611.332	206.38
611.54	224.38
611.748	214.38
611.955	186.38
612.163	204.38
612.371	202.38
612.579	211.38
612.787	203.38
612.995	199.38
613.203	189.38
613.411	199.38
613.618	203.38
613.826	200.38
614.034	205.38
614.242	190.38
614.449	192.38
614.657	211.38
614.865	205.38
615.072	200.38
615.28	198.38
615.488	195.38
615.695	198.38
615.903	192.38
616.111	211.38
616.318	199.38
616.526	208.38
616.733	194.38
616.941	203.38
617.148	195.38
617.356	202.38
617.563	203.38
617.771	199.38
617.978	184.38
618.185	182.38
618.393	175.38
618.6	198.38
618.807	177.38
619.015	183.38
619.222	177.38
619.429	203.38
619.637	190.38
619.844	173.38
620.051	184.38
620.258	180.38
620.466	183.38
620.673	181.38
620.88	177.38
621.087	198.38
621.294	189.38
621.501	193.38
621.708	187.38
621.915	171.38
622.122	190.38
622.329	179.38
622.536	174.38
622.743	180.38
622.95	187.38
623.157	184.38
623.364	179.38
623.571	185.38
623.778	187.38
623.985	174.38
624.192	172.38
624.399	190.38
624.606	173.38
624.812	180.38
625.019	187.38
625.226	191.38
625.433	174.38
625.639	175.38
625.846	178.38
626.053	171.38
626.259	163.38
626.466	188.38
626.673	178.38
626.879	169.38
627.086	169.38
627.293	165.38
627.499	168.38
627.706	178.38
627.912	163.38
628.119	168.38
628.325	188.38
628.532	170.38
628.738	164.38
628.945	152.38
629.151	156.38
629.357	175.38
629.564	160.38
629.77	157.38
629.976	175.38
630.183	156.38
630.389	169.38
630.595	167.38
630.802	158.38
631.008	149.38
631.214	188.38
631.42	165.38
631.627	164.38
631.833	169.38
632.039	151.38
632.245	160.38
632.451	169.38
632.657	172.38
632.863	162.38
633.069	165.38
633.275	164.38
633.481	166.38
633.688	171.38
633.893	173.38
634.099	163.38
634.305	158.38
634.511	159.38
634.717	169.38
634.923	180.38
635.129	153.38
635.335	144.38
635.541	170.38
635.747	155.38
635.952	170.38
636.158	167.38
636.364	159.38
636.57	176.38
636.775	168.38
636.981	148.38
637.187	153.38
637.392	152.38
637.598	168.38
637.804	166.38
638.009	152.38
638.215	161.38
638.421	158.38
638.626	155.38
638.832	144.38
639.037	154.38
639.243	150.38
639.448	151.38
639.654	159.38
639.859	144.38
640.065	133.38
640.27	157.38
640.475	144.38
640.681	143.38
640.886	163.38
641.091	143.38
641.297	139.38
641.502	157.38
641.707	152.38
641.913	161.38
642.118	150.38
642.323	155.38
642.528	156.38
642.733	150.38
642.939	158.38
643.144	147.38
643.349	151.38
643.554	145.38
643.759	137.38
643.964	143.38
644.169	122.38
644.374	149.38
644.579	154.38
644.784	151.38
644.989	151.38
645.194	137.38
645.399	156.38
645.604	148.38
645.809	146.38
646.014	143.38
646.219	141.38
646.423	149.38
646.628	152.38
646.833	138.38
647.038	138.38
647.243	151.38
647.447	144.38
647.652	146.38
647.857	153.38
648.062	147.38
648.266	157.38
648.471	157.38
648.676	147.38
648.88	138.38
649.085	155.38
649.289	169.38
649.494	157.38
649.698	176.38
649.903	156.38
650.107	152.38
650.312	134.38
650.516	155.38
650.721	140.38
650.925	140.38
651.13	122.38
651.334	123.38
651.539	135.38
651.743	123.38
651.947	131.38
652.152	134.38
652.356	129.38
652.56	127.38
652.764	123.38
652.969	151.38
653.173	147.38
653.377	134.38
653.581	128.38
653.785	140.38
653.99	122.38
654.194	128.38
654.398	115.38
654.602	138.38
654.806	125.38
655.01	138.38
655.214	121.38
655.418	123.38
655.622	134.38
655.826	129.38
656.03	129.38
656.234	136.38
656.438	126.38
656.642	135.38
656.846	131.38
657.049	124.38
657.253	115.38
657.457	119.38
657.661	117.38
657.865	119.38
658.068	113.38
658.272	101.38
658.476	118.38
658.68	103.38
658.883	105.38
659.087	91.38
659.291	91.38
659.494	92.38
659.698	102.38
659.901	109.38
660.105	80.38
660.309	87.38
660.512	88.38
660.716	96.38
660.919	102.38
661.123	103.38
661.326	93.38
661.53	90.38
661.733	93.38
661.936	86.38
662.14	71.38
662.343	87.38
662.546	81.38
662.75	87.38
662.953	87.38
663.156	71.38
663.36	79.38
663.563	79.38
663.766	79.38
663.969	85.38
664.173	91.38
664.376	86.38
664.579	85.38
664.782	88.38
664.985	95.38
665.188	77.38
665.391	77.38
665.594	88.38
665.797	87.38
666	71.38
666.203	84.38
666.406	85.38
666.609	71.38
666.812	84.38
667.015	83.38
667.218	83.38
667.421	78.38
667.624	84.38
667.827	92.38
668.03	81.38
668.232	70.38
668.435	80.38
668.638	81.38
668.841	85.38
669.043	90.38
669.246	81.38
669.449	83.38
669.651	86.38
669.854	92.38
670.057	81.38
670.259	84.38
670.462	84.38
670.665	85.38
670.867	86.38
671.07	88.38
671.272	80.38
671.475	89.38
671.677	90.38
671.88	88.38
672.082	88.38
672.284	84.38
672.487	87.38
672.689	81.38
672.892	79.38
