Data from 1960PennyLincolnUp.LampE6.200Scan.07172019.P1_HRD10591_13-05-26-002.txt Node
Date: Thu Jul 18 13:05:26 EDT 2019
User: cochatt
Spectrometer: HR+D1059
Trigger mode: 1
Integration Time (sec): 1.000000E-1
Scans to average: 1
Electric dark correction enabled: true
Nonlinearity correction enabled: false
Boxcar width: 0
XAxis mode: Wavelengths
Number of Pixels in Spectrum: 2048
>>>>>Begin Spectral Data<<<<<
223.165	-15.94
223.4	-15.94
223.635	-15.94
223.869	-17.94
224.104	-7.94
224.338	-9.94
224.573	-7.94
224.808	-6.94
225.042	-11.94
225.277	-6.94
225.511	-18.94
225.746	4.06
225.98	14.06
226.215	5.06
226.449	13.06
226.683	20.06
226.918	19.06
227.152	29.06
227.387	27.06
227.621	37.06
227.856	34.06
228.09	45.06
228.324	53.06
228.559	53.06
228.793	43.06
229.027	83.06
229.262	78.06
229.496	102.06
229.73	110.06
229.964	110.06
230.199	122.06
230.433	112.06
230.667	110.06
230.901	104.06
231.136	96.06
231.37	106.06
231.604	91.06
231.838	102.06
232.072	105.06
232.306	98.06
232.541	118.06
232.775	119.06
233.009	110.06
233.243	99.06
233.477	103.06
233.711	96.06
233.945	105.06
234.179	111.06
234.413	104.06
234.647	100.06
234.881	112.06
235.115	110.06
235.349	119.06
235.583	114.06
235.817	119.06
236.051	123.06
236.285	119.06
236.519	120.06
236.753	121.06
236.987	130.06
237.221	134.06
237.455	162.06
237.689	153.06
237.922	123.06
238.156	116.06
238.39	111.06
238.624	111.06
238.858	114.06
239.091	105.06
239.325	124.06
239.559	123.06
239.793	105.06
240.027	120.06
240.26	139.06
240.494	116.06
240.728	137.06
240.961	119.06
241.195	123.06
241.429	115.06
241.662	144.06
241.896	129.06
242.13	116.06
242.363	131.06
242.597	109.06
242.83	141.06
243.064	129.06
243.298	137.06
243.531	127.06
243.765	146.06
243.998	158.06
244.232	144.06
244.465	138.06
244.699	130.06
244.932	135.06
245.166	137.06
245.399	131.06
245.633	138.06
245.866	144.06
246.099	149.06
246.333	139.06
246.566	155.06
246.8	137.06
247.033	142.06
247.266	145.06
247.5	148.06
247.733	134.06
247.966	163.06
248.2	155.06
248.433	138.06
248.666	144.06
248.899	173.06
249.133	159.06
249.366	161.06
249.599	162.06
249.832	168.06
250.066	166.06
250.299	151.06
250.532	169.06
250.765	159.06
250.998	188.06
251.231	192.06
251.465	191.06
251.698	166.06
251.931	166.06
252.164	171.06
252.397	183.06
252.63	169.06
252.863	165.06
253.096	180.06
253.329	197.06
253.562	189.06
253.795	191.06
254.028	191.06
254.261	180.06
254.494	208.06
254.727	197.06
254.96	217.06
255.193	230.06
255.426	199.06
255.659	188.06
255.892	188.06
256.124	192.06
256.357	203.06
256.59	214.06
256.823	186.06
257.056	198.06
257.289	186.06
257.521	177.06
257.754	182.06
257.987	187.06
258.22	193.06
258.452	182.06
258.685	186.06
258.918	181.06
259.151	170.06
259.383	193.06
259.616	177.06
259.849	212.06
260.081	204.06
260.314	210.06
260.547	204.06
260.779	201.06
261.012	186.06
261.244	183.06
261.477	214.06
261.71	202.06
261.942	186.06
262.175	195.06
262.407	210.06
262.64	197.06
262.872	196.06
263.105	193.06
263.337	200.06
263.57	188.06
263.802	215.06
264.035	194.06
264.267	187.06
264.499	194.06
264.732	210.06
264.964	218.06
265.197	194.06
265.429	203.06
265.661	190.06
265.894	178.06
266.126	212.06
266.358	220.06
266.591	186.06
266.823	232.06
267.055	213.06
267.287	201.06
267.52	210.06
267.752	212.06
267.984	203.06
268.216	201.06
268.448	207.06
268.681	219.06
268.913	222.06
269.145	242.06
269.377	242.06
269.609	238.06
269.841	244.06
270.073	234.06
270.306	258.06
270.538	255.06
270.77	257.06
271.002	244.06
271.234	255.06
271.466	269.06
271.698	263.06
271.93	266.06
272.162	272.06
272.394	257.06
272.626	264.06
272.858	256.06
273.09	242.06
273.322	257.06
273.553	238.06
273.785	244.06
274.017	244.06
274.249	252.06
274.481	239.06
274.713	248.06
274.945	240.06
275.176	234.06
275.408	249.06
275.64	259.06
275.872	231.06
276.104	273.06
276.335	256.06
276.567	255.06
276.799	257.06
277.031	263.06
277.262	283.06
277.494	297.06
277.726	265.06
277.957	261.06
278.189	253.06
278.421	255.06
278.652	259.06
278.884	254.06
279.115	266.06
279.347	244.06
279.579	278.06
279.81	267.06
280.042	251.06
280.273	252.06
280.505	249.06
280.736	265.06
280.968	265.06
281.199	254.06
281.431	264.06
281.662	258.06
281.894	251.06
282.125	265.06
282.356	274.06
282.588	274.06
282.819	266.06
283.051	274.06
283.282	284.06
283.513	268.06
283.745	262.06
283.976	275.06
284.207	291.06
284.439	293.06
284.67	281.06
284.901	283.06
285.132	260.06
285.364	300.06
285.595	299.06
285.826	253.06
286.057	275.06
286.288	276.06
286.52	306.06
286.751	285.06
286.982	284.06
287.213	283.06
287.444	281.06
287.675	281.06
287.906	288.06
288.138	286.06
288.369	301.06
288.6	285.06
288.831	299.06
289.062	291.06
289.293	286.06
289.524	284.06
289.755	285.06
289.986	304.06
290.217	296.06
290.448	295.06
290.679	308.06
290.91	302.06
291.141	293.06
291.371	292.06
291.602	276.06
291.833	298.06
292.064	306.06
292.295	292.06
292.526	298.06
292.757	284.06
292.987	282.06
293.218	307.06
293.449	307.06
293.68	271.06
293.91	305.06
294.141	297.06
294.372	302.06
294.603	300.06
294.833	293.06
295.064	300.06
295.295	305.06
295.525	314.06
295.756	307.06
295.987	314.06
296.217	317.06
296.448	313.06
296.679	303.06
296.909	308.06
297.14	315.06
297.37	302.06
297.601	306.06
297.831	303.06
298.062	318.06
298.292	338.06
298.523	322.06
298.753	310.06
298.984	325.06
299.214	327.06
299.445	317.06
299.675	321.06
299.905	319.06
300.136	326.06
300.366	331.06
300.597	325.06
300.827	329.06
301.057	321.06
301.288	339.06
301.518	318.06
301.748	338.06
301.979	343.06
302.209	358.06
302.439	337.06
302.669	343.06
302.9	330.06
303.13	331.06
303.36	339.06
303.59	325.06
303.82	345.06
304.051	357.06
304.281	347.06
304.511	342.06
304.741	334.06
304.971	337.06
305.201	331.06
305.431	314.06
305.661	325.06
305.891	323.06
306.121	336.06
306.352	352.06
306.582	347.06
306.812	317.06
307.042	347.06
307.272	357.06
307.502	340.06
307.731	336.06
307.961	321.06
308.191	331.06
308.421	326.06
308.651	342.06
308.881	338.06
309.111	330.06
309.341	332.06
309.571	345.06
309.8	361.06
310.03	356.06
310.26	349.06
310.49	345.06
310.72	354.06
310.949	357.06
311.179	367.06
311.409	341.06
311.639	346.06
311.868	359.06
312.098	338.06
312.328	349.06
312.557	376.06
312.787	363.06
313.017	363.06
313.246	382.06
313.476	356.06
313.706	352.06
313.935	346.06
314.165	384.06
314.394	390.06
314.624	385.06
314.853	380.06
315.083	364.06
315.312	339.06
315.542	353.06
315.771	359.06
316.001	355.06
316.23	378.06
316.46	361.06
316.689	374.06
316.919	363.06
317.148	373.06
317.377	363.06
317.607	354.06
317.836	361.06
318.065	368.06
318.295	370.06
318.524	385.06
318.753	370.06
318.983	361.06
319.212	378.06
319.441	353.06
319.67	365.06
319.9	365.06
320.129	363.06
320.358	366.06
320.587	383.06
320.816	377.06
321.046	377.06
321.275	383.06
321.504	381.06
321.733	378.06
321.962	367.06
322.191	381.06
322.42	377.06
322.649	399.06
322.878	401.06
323.108	394.06
323.337	409.06
323.566	417.06
323.795	432.06
324.024	463.06
324.253	501.06
324.482	625.06
324.71	896.06
324.939	1214.06
325.168	1010.06
325.397	573.06
325.626	473.06
325.855	443.06
326.084	421.06
326.313	429.06
326.542	424.06
326.77	453.06
326.999	496.06
327.228	621.06
327.457	857.06
327.686	943.06
327.914	654.06
328.143	515.06
328.372	474.06
328.6	471.06
328.829	448.06
329.058	466.06
329.287	464.06
329.515	438.06
329.744	427.06
329.972	451.06
330.201	474.06
330.43	481.06
330.658	476.06
330.887	482.06
331.115	467.06
331.344	441.06
331.572	437.06
331.801	445.06
332.03	437.06
332.258	450.06
332.486	458.06
332.715	470.06
332.943	467.06
333.172	500.06
333.4	511.06
333.629	528.06
333.857	532.06
334.085	525.06
334.314	531.06
334.542	532.06
334.771	519.06
334.999	509.06
335.227	489.06
335.455	467.06
335.684	468.06
335.912	482.06
336.14	468.06
336.369	444.06
336.597	474.06
336.825	460.06
337.053	437.06
337.281	454.06
337.51	444.06
337.738	445.06
337.966	458.06
338.194	432.06
338.422	462.06
338.65	444.06
338.878	410.06
339.106	434.06
339.334	447.06
339.562	427.06
339.79	417.06
340.018	418.06
340.246	426.06
340.474	423.06
340.702	418.06
340.93	429.06
341.158	435.06
341.386	430.06
341.614	428.06
341.842	419.06
342.07	436.06
342.298	423.06
342.526	402.06
342.754	425.06
342.981	430.06
343.209	420.06
343.437	452.06
343.665	463.06
343.893	452.06
344.12	488.06
344.348	479.06
344.576	467.06
344.804	458.06
345.031	405.06
345.259	440.06
345.487	427.06
345.714	413.06
345.942	412.06
346.17	419.06
346.397	421.06
346.625	411.06
346.853	381.06
347.08	404.06
347.308	405.06
347.535	403.06
347.763	423.06
347.99	414.06
348.218	420.06
348.445	416.06
348.673	401.06
348.9	414.06
349.128	406.06
349.355	404.06
349.583	402.06
349.81	399.06
350.037	409.06
350.265	413.06
350.492	388.06
350.72	409.06
350.947	403.06
351.174	409.06
351.402	411.06
351.629	398.06
351.856	390.06
352.083	406.06
352.311	398.06
352.538	415.06
352.765	418.06
352.992	402.06
353.22	383.06
353.447	403.06
353.674	421.06
353.901	390.06
354.128	365.06
354.355	374.06
354.583	392.06
354.81	403.06
355.037	378.06
355.264	384.06
355.491	385.06
355.718	381.06
355.945	410.06
356.172	393.06
356.399	398.06
356.626	394.06
356.853	395.06
357.08	394.06
357.307	397.06
357.534	379.06
357.761	394.06
357.988	388.06
358.215	375.06
358.441	395.06
358.668	396.06
358.895	399.06
359.122	383.06
359.349	397.06
359.576	396.06
359.802	411.06
360.029	414.06
360.256	427.06
360.483	411.06
360.709	411.06
360.936	406.06
361.163	390.06
361.39	404.06
361.616	393.06
361.843	411.06
362.07	391.06
362.296	399.06
362.523	378.06
362.749	402.06
362.976	404.06
363.203	398.06
363.429	401.06
363.656	383.06
363.882	389.06
364.109	417.06
364.335	395.06
364.562	386.06
364.788	391.06
365.015	389.06
365.241	384.06
365.468	383.06
365.694	395.06
365.92	389.06
366.147	398.06
366.373	396.06
366.599	409.06
366.826	391.06
367.052	386.06
367.278	399.06
367.505	409.06
367.731	393.06
367.957	381.06
368.184	387.06
368.41	419.06
368.636	394.06
368.862	417.06
369.089	421.06
369.315	404.06
369.541	389.06
369.767	396.06
369.993	405.06
370.219	405.06
370.445	397.06
370.672	391.06
370.898	400.06
371.124	424.06
371.35	440.06
371.576	420.06
371.802	410.06
372.028	429.06
372.254	442.06
372.48	406.06
372.706	429.06
372.932	445.06
373.158	432.06
373.384	425.06
373.61	415.06
373.835	426.06
374.061	422.06
374.287	421.06
374.513	430.06
374.739	433.06
374.965	443.06
375.191	458.06
375.416	437.06
375.642	433.06
375.868	438.06
376.094	415.06
376.319	403.06
376.545	425.06
376.771	411.06
376.997	402.06
377.222	431.06
377.448	437.06
377.674	418.06
377.899	410.06
378.125	399.06
378.35	411.06
378.576	402.06
378.802	411.06
379.027	417.06
379.253	413.06
379.478	409.06
379.704	414.06
379.929	406.06
380.155	415.06
380.38	417.06
380.606	413.06
380.831	414.06
381.057	418.06
381.282	411.06
381.507	427.06
381.733	425.06
381.958	409.06
382.184	401.06
382.409	425.06
382.634	435.06
382.86	435.06
383.085	431.06
383.31	442.06
383.535	450.06
383.761	434.06
383.986	437.06
384.211	450.06
384.436	468.06
384.662	468.06
384.887	459.06
385.112	452.06
385.337	477.06
385.562	476.06
385.787	466.06
386.013	493.06
386.238	489.06
386.463	489.06
386.688	484.06
386.913	478.06
387.138	467.06
387.363	491.06
387.588	463.06
387.813	476.06
388.038	488.06
388.263	481.06
388.488	478.06
388.713	460.06
388.938	458.06
389.163	473.06
389.387	455.06
389.612	468.06
389.837	475.06
390.062	466.06
390.287	468.06
390.512	459.06
390.736	476.06
390.961	465.06
391.186	465.06
391.411	502.06
391.636	502.06
391.86	512.06
392.085	507.06
392.31	510.06
392.534	503.06
392.759	488.06
392.984	510.06
393.208	504.06
393.433	515.06
393.658	489.06
393.882	479.06
394.107	486.06
394.331	510.06
394.556	479.06
394.78	488.06
395.005	486.06
395.229	500.06
395.454	504.06
395.678	519.06
395.903	534.06
396.127	513.06
396.352	521.06
396.576	506.06
396.801	499.06
397.025	502.06
397.249	510.06
397.474	530.06
397.698	507.06
397.922	531.06
398.147	517.06
398.371	539.06
398.595	550.06
398.82	559.06
399.044	625.06
399.268	623.06
399.492	678.06
399.717	761.06
399.941	743.06
400.165	701.06
400.389	662.06
400.613	637.06
400.837	588.06
401.062	562.06
401.286	570.06
401.51	546.06
401.734	531.06
401.958	561.06
402.182	565.06
402.406	586.06
402.63	580.06
402.854	583.06
403.078	605.06
403.302	605.06
403.526	615.06
403.75	630.06
403.974	625.06
404.198	619.06
404.422	612.06
404.645	609.06
404.869	621.06
405.093	638.06
405.317	687.06
405.541	692.06
405.765	620.06
405.988	631.06
406.212	625.06
406.436	656.06
406.66	635.06
406.883	614.06
407.107	665.06
407.331	681.06
407.555	744.06
407.778	726.06
408.002	691.06
408.226	687.06
408.449	630.06
408.673	634.06
408.896	664.06
409.12	647.06
409.344	644.06
409.567	609.06
409.791	591.06
410.014	580.06
410.238	585.06
410.461	608.06
410.685	596.06
410.908	583.06
411.132	610.06
411.355	606.06
411.578	582.06
411.802	579.06
412.025	578.06
412.249	561.06
412.472	586.06
412.695	593.06
412.919	603.06
413.142	563.06
413.365	578.06
413.589	553.06
413.812	561.06
414.035	564.06
414.258	544.06
414.482	532.06
414.705	561.06
414.928	541.06
415.151	565.06
415.374	580.06
415.597	558.06
415.821	558.06
416.044	529.06
416.267	574.06
416.49	542.06
416.713	531.06
416.936	526.06
417.159	531.06
417.382	562.06
417.605	545.06
417.828	555.06
418.051	571.06
418.274	545.06
418.497	565.06
418.72	572.06
418.943	567.06
419.166	586.06
419.389	597.06
419.611	591.06
419.834	574.06
420.057	589.06
420.28	587.06
420.503	578.06
420.726	547.06
420.948	580.06
421.171	586.06
421.394	601.06
421.617	583.06
421.839	555.06
422.062	570.06
422.285	552.06
422.507	609.06
422.73	635.06
422.953	625.06
423.175	591.06
423.398	594.06
423.621	593.06
423.843	595.06
424.066	604.06
424.288	613.06
424.511	617.06
424.733	646.06
424.956	663.06
425.178	653.06
425.401	658.06
425.623	650.06
425.846	570.06
426.068	561.06
426.291	554.06
426.513	569.06
426.735	563.06
426.958	576.06
427.18	610.06
427.402	695.06
427.625	751.06
427.847	669.06
428.069	617.06
428.292	545.06
428.514	539.06
428.736	533.06
428.958	507.06
429.181	510.06
429.403	531.06
429.625	509.06
429.847	541.06
430.069	547.06
430.292	525.06
430.514	537.06
430.736	514.06
430.958	509.06
431.18	512.06
431.402	510.06
431.624	526.06
431.846	494.06
432.068	530.06
432.29	509.06
432.512	498.06
432.734	518.06
432.956	531.06
433.178	509.06
433.4	507.06
433.622	538.06
433.844	514.06
434.066	498.06
434.287	521.06
434.509	539.06
434.731	548.06
434.953	537.06
435.175	545.06
435.397	569.06
435.618	545.06
435.84	571.06
436.062	605.06
436.284	625.06
436.505	556.06
436.727	549.06
436.949	521.06
437.17	517.06
437.392	507.06
437.614	519.06
437.835	523.06
438.057	561.06
438.278	620.06
438.5	632.06
438.721	666.06
438.943	671.06
439.165	547.06
439.386	533.06
439.608	523.06
439.829	534.06
440.05	560.06
440.272	576.06
440.493	561.06
440.715	523.06
440.936	524.06
441.158	512.06
441.379	527.06
441.6	565.06
441.822	527.06
442.043	598.06
442.264	614.06
442.486	627.06
442.707	582.06
442.928	557.06
443.149	572.06
443.371	584.06
443.592	605.06
443.813	669.06
444.034	692.06
444.255	640.06
444.476	585.06
444.698	607.06
444.919	638.06
445.14	704.06
445.361	635.06
445.582	623.06
445.803	620.06
446.024	659.06
446.245	673.06
446.466	625.06
446.687	560.06
446.908	523.06
447.129	517.06
447.35	494.06
447.571	492.06
447.792	484.06
448.013	498.06
448.234	500.06
448.455	513.06
448.675	603.06
448.896	656.06
449.117	573.06
449.338	569.06
449.559	630.06
449.779	671.06
450	555.06
450.221	516.06
450.442	475.06
450.662	481.06
450.883	491.06
451.104	495.06
451.324	480.06
451.545	476.06
451.766	481.06
451.986	469.06
452.207	455.06
452.428	461.06
452.648	453.06
452.869	453.06
453.089	462.06
453.31	485.06
453.53	451.06
453.751	436.06
453.971	454.06
454.192	466.06
454.412	442.06
454.633	436.06
454.853	460.06
455.073	444.06
455.294	458.06
455.514	482.06
455.734	475.06
455.955	421.06
456.175	433.06
456.395	436.06
456.616	430.06
456.836	416.06
457.056	429.06
457.276	414.06
457.497	431.06
457.717	429.06
457.937	444.06
458.157	428.06
458.377	407.06
458.598	456.06
458.818	498.06
459.038	522.06
459.258	548.06
459.478	522.06
459.698	493.06
459.918	521.06
460.138	503.06
460.358	525.06
460.578	558.06
460.798	566.06
461.018	555.06
461.238	551.06
461.458	544.06
461.678	513.06
461.898	544.06
462.118	530.06
462.338	571.06
462.558	585.06
462.777	576.06
462.997	605.06
463.217	659.06
463.437	661.06
463.657	638.06
463.876	598.06
464.096	609.06
464.316	611.06
464.536	602.06
464.755	604.06
464.975	604.06
465.195	573.06
465.414	585.06
465.634	554.06
465.854	509.06
466.073	508.06
466.293	492.06
466.512	475.06
466.732	473.06
466.951	477.06
467.171	457.06
467.391	479.06
467.61	493.06
467.829	504.06
468.049	489.06
468.268	462.06
468.488	460.06
468.707	463.06
468.927	458.06
469.146	438.06
469.365	479.06
469.585	458.06
469.804	474.06
470.023	481.06
470.243	484.06
470.462	494.06
470.681	513.06
470.901	489.06
471.12	502.06
471.339	479.06
471.558	468.06
471.777	473.06
471.997	453.06
472.216	459.06
472.435	494.06
472.654	482.06
472.873	464.06
473.092	438.06
473.311	440.06
473.53	442.06
473.749	466.06
473.968	471.06
474.187	517.06
474.406	537.06
474.625	480.06
474.844	471.06
475.063	455.06
475.282	474.06
475.501	461.06
475.72	486.06
475.939	461.06
476.158	477.06
476.377	485.06
476.596	470.06
476.814	487.06
477.033	490.06
477.252	476.06
477.471	497.06
477.69	517.06
477.908	502.06
478.127	501.06
478.346	519.06
478.564	547.06
478.783	531.06
479.002	558.06
479.22	562.06
479.439	550.06
479.658	565.06
479.876	553.06
480.095	557.06
480.313	607.06
480.532	611.06
480.751	599.06
480.969	583.06
481.188	616.06
481.406	633.06
481.624	561.06
481.843	558.06
482.061	554.06
482.28	546.06
482.498	531.06
482.717	525.06
482.935	541.06
483.153	526.06
483.372	530.06
483.59	548.06
483.808	511.06
484.027	537.06
484.245	521.06
484.463	525.06
484.681	548.06
484.9	567.06
485.118	532.06
485.336	532.06
485.554	552.06
485.772	564.06
485.99	559.06
486.209	566.06
486.427	541.06
486.645	562.06
486.863	567.06
487.081	576.06
487.299	559.06
487.517	560.06
487.735	572.06
487.953	573.06
488.171	583.06
488.389	552.06
488.607	578.06
488.825	555.06
489.043	561.06
489.261	562.06
489.479	575.06
489.696	574.06
489.914	568.06
490.132	592.06
490.35	567.06
490.568	572.06
490.786	599.06
491.003	599.06
491.221	608.06
491.439	610.06
491.657	627.06
491.874	624.06
492.092	640.06
492.31	636.06
492.527	618.06
492.745	617.06
492.963	627.06
493.18	648.06
493.398	653.06
493.615	668.06
493.833	641.06
494.05	654.06
494.268	642.06
494.485	663.06
494.703	649.06
494.92	647.06
495.138	631.06
495.355	653.06
495.573	627.06
495.79	636.06
496.008	638.06
496.225	651.06
496.442	644.06
496.66	646.06
496.877	639.06
497.094	646.06
497.312	655.06
497.529	691.06
497.746	692.06
497.963	695.06
498.181	712.06
498.398	749.06
498.615	779.06
498.832	788.06
499.049	810.06
499.267	854.06
499.484	941.06
499.701	995.06
499.918	1073.06
500.135	1158.06
500.352	1274.06
500.569	1283.06
500.786	1293.06
501.003	1217.06
501.22	1147.06
501.437	1094.06
501.654	964.06
501.871	941.06
502.088	898.06
502.305	849.06
502.522	809.06
502.739	745.06
502.956	701.06
503.172	728.06
503.389	707.06
503.606	703.06
503.823	688.06
504.04	695.06
504.256	689.06
504.473	679.06
504.69	703.06
504.907	705.06
505.123	662.06
505.34	627.06
505.557	601.06
505.773	604.06
505.99	600.06
506.207	614.06
506.423	598.06
506.64	586.06
506.856	604.06
507.073	591.06
507.289	594.06
507.506	587.06
507.722	594.06
507.939	569.06
508.155	565.06
508.372	554.06
508.588	545.06
508.805	551.06
509.021	550.06
509.238	540.06
509.454	560.06
509.67	566.06
509.887	545.06
510.103	527.06
510.319	553.06
510.536	585.06
510.752	804.06
510.968	697.06
511.184	532.06
511.401	539.06
511.617	530.06
511.833	513.06
512.049	511.06
512.265	505.06
512.481	519.06
512.698	532.06
512.914	516.06
513.13	512.06
513.346	503.06
513.562	536.06
513.778	534.06
513.994	505.06
514.21	492.06
514.426	544.06
514.642	563.06
514.858	563.06
515.074	555.06
515.29	632.06
515.506	834.06
515.721	748.06
515.937	589.06
516.153	564.06
516.369	563.06
516.585	574.06
516.801	569.06
517.016	588.06
517.232	621.06
517.448	625.06
517.664	632.06
517.879	636.06
518.095	631.06
518.311	617.06
518.527	617.06
518.742	604.06
518.958	583.06
519.173	558.06
519.389	557.06
519.605	543.06
519.82	533.06
520.036	541.06
520.251	552.06
520.467	564.06
520.682	553.06
520.898	545.06
521.113	523.06
521.329	534.06
521.544	576.06
521.76	663.06
521.975	941.06
522.19	963.06
522.406	610.06
522.621	517.06
522.836	527.06
523.052	499.06
523.267	490.06
523.482	476.06
523.698	475.06
523.913	462.06
524.128	469.06
524.343	448.06
524.559	464.06
524.774	460.06
524.989	448.06
525.204	458.06
525.419	459.06
525.634	449.06
525.849	462.06
526.064	428.06
526.28	449.06
526.495	444.06
526.71	465.06
526.925	453.06
527.14	434.06
527.355	448.06
527.57	448.06
527.785	422.06
527.999	444.06
528.214	446.06
528.429	452.06
528.644	441.06
528.859	441.06
529.074	454.06
529.289	466.06
529.503	499.06
529.718	477.06
529.933	451.06
530.148	446.06
530.363	455.06
530.577	442.06
530.792	429.06
531.007	454.06
531.221	430.06
531.436	437.06
531.651	453.06
531.865	436.06
532.08	428.06
532.295	442.06
532.509	435.06
532.724	433.06
532.938	445.06
533.153	438.06
533.367	420.06
533.582	433.06
533.796	465.06
534.011	429.06
534.225	431.06
534.44	444.06
534.654	435.06
534.868	432.06
535.083	443.06
535.297	415.06
535.511	421.06
535.726	433.06
535.94	442.06
536.154	430.06
536.369	425.06
536.583	404.06
536.797	407.06
537.011	413.06
537.225	429.06
537.44	442.06
537.654	413.06
537.868	409.06
538.082	413.06
538.296	424.06
538.51	409.06
538.724	409.06
538.938	416.06
539.153	407.06
539.367	428.06
539.581	423.06
539.795	419.06
540.009	400.06
540.222	414.06
540.436	416.06
540.65	438.06
540.864	425.06
541.078	422.06
541.292	423.06
541.506	412.06
541.72	422.06
541.934	407.06
542.147	422.06
542.361	409.06
542.575	389.06
542.789	429.06
543.002	403.06
543.216	412.06
543.43	427.06
543.644	418.06
543.857	409.06
544.071	403.06
544.285	403.06
544.498	407.06
544.712	401.06
544.925	409.06
545.139	394.06
545.352	437.06
545.566	426.06
545.779	416.06
545.993	419.06
546.206	418.06
546.42	425.06
546.633	421.06
546.847	435.06
547.06	438.06
547.274	408.06
547.487	412.06
547.7	419.06
547.914	422.06
548.127	432.06
548.34	427.06
548.554	426.06
548.767	422.06
548.98	406.06
549.193	411.06
549.407	436.06
549.62	420.06
549.833	443.06
550.046	427.06
550.259	424.06
550.473	405.06
550.686	394.06
550.899	406.06
551.112	400.06
551.325	426.06
551.538	422.06
551.751	438.06
551.964	421.06
552.177	421.06
552.39	427.06
552.603	418.06
552.816	453.06
553.029	447.06
553.242	454.06
553.455	450.06
553.667	445.06
553.88	453.06
554.093	447.06
554.306	438.06
554.519	430.06
554.732	418.06
554.944	401.06
555.157	405.06
555.37	398.06
555.583	390.06
555.795	385.06
556.008	401.06
556.221	363.06
556.433	389.06
556.646	370.06
556.859	372.06
557.071	399.06
557.284	379.06
557.496	384.06
557.709	374.06
557.921	391.06
558.134	371.06
558.346	381.06
558.559	369.06
558.771	362.06
558.984	367.06
559.196	368.06
559.409	357.06
559.621	361.06
559.833	352.06
560.046	368.06
560.258	351.06
560.47	354.06
560.683	337.06
560.895	366.06
561.107	343.06
561.32	363.06
561.532	353.06
561.744	362.06
561.956	353.06
562.168	356.06
562.381	351.06
562.593	358.06
562.805	360.06
563.017	348.06
563.229	374.06
563.441	373.06
563.653	345.06
563.865	366.06
564.077	356.06
564.289	370.06
564.501	379.06
564.713	376.06
564.925	393.06
565.137	416.06
565.349	390.06
565.561	415.06
565.773	413.06
565.985	427.06
566.197	426.06
566.408	484.06
566.62	495.06
566.832	518.06
567.044	518.06
567.255	536.06
567.467	517.06
567.679	564.06
567.891	583.06
568.102	588.06
568.314	571.06
568.526	530.06
568.737	499.06
568.949	446.06
569.161	434.06
569.372	408.06
569.584	381.06
569.795	384.06
570.007	389.06
570.218	389.06
570.43	388.06
570.641	358.06
570.853	374.06
571.064	365.06
571.276	368.06
571.487	361.06
571.698	356.06
571.91	341.06
572.121	322.06
572.333	334.06
572.544	313.06
572.755	329.06
572.966	326.06
573.178	320.06
573.389	315.06
573.6	315.06
573.811	304.06
574.023	314.06
574.234	293.06
574.445	323.06
574.656	296.06
574.867	317.06
575.078	299.06
575.289	295.06
575.501	285.06
575.712	300.06
575.923	303.06
576.134	301.06
576.345	309.06
576.556	303.06
576.767	303.06
576.978	290.06
577.188	296.06
577.399	291.06
577.61	285.06
577.821	285.06
578.032	308.06
578.243	295.06
578.454	382.06
578.665	326.06
578.875	296.06
579.086	276.06
579.297	293.06
579.508	299.06
579.718	306.06
579.929	275.06
580.14	262.06
580.35	288.06
580.561	272.06
580.772	277.06
580.982	259.06
581.193	277.06
581.403	268.06
581.614	283.06
581.825	269.06
582.035	281.06
582.246	262.06
582.456	280.06
582.667	282.06
582.877	277.06
583.087	269.06
583.298	267.06
583.508	262.06
583.719	274.06
583.929	275.06
584.139	267.06
584.35	270.06
584.56	263.06
584.77	271.06
584.981	271.06
585.191	270.06
585.401	275.06
585.611	265.06
585.821	261.06
586.032	272.06
586.242	266.06
586.452	261.06
586.662	267.06
586.872	257.06
587.082	260.06
587.292	265.06
587.502	272.06
587.713	267.06
587.923	260.06
588.133	261.06
588.343	261.06
588.553	242.06
588.762	263.06
588.972	291.06
589.182	325.06
589.392	302.06
589.602	255.06
589.812	303.06
590.022	297.06
590.232	267.06
590.441	266.06
590.651	266.06
590.861	290.06
591.071	266.06
591.281	252.06
591.49	276.06
591.7	274.06
591.91	280.06
592.119	277.06
592.329	287.06
592.539	288.06
592.748	289.06
592.958	315.06
593.167	309.06
593.377	306.06
593.587	310.06
593.796	302.06
594.006	309.06
594.215	312.06
594.424	347.06
594.634	294.06
594.843	294.06
595.053	309.06
595.262	295.06
595.472	291.06
595.681	268.06
595.89	270.06
596.1	283.06
596.309	267.06
596.518	255.06
596.727	244.06
596.937	264.06
597.146	251.06
597.355	281.06
597.564	242.06
597.774	253.06
597.983	235.06
598.192	252.06
598.401	234.06
598.61	227.06
598.819	243.06
599.028	257.06
599.237	224.06
599.446	247.06
599.655	238.06
599.864	244.06
600.073	228.06
600.282	233.06
600.491	238.06
600.7	253.06
600.909	234.06
601.118	221.06
601.327	250.06
601.536	234.06
601.745	241.06
601.953	237.06
602.162	222.06
602.371	230.06
602.58	228.06
602.789	226.06
602.997	215.06
603.206	226.06
603.415	237.06
603.623	211.06
603.832	223.06
604.041	237.06
604.249	215.06
604.458	218.06
604.666	241.06
604.875	210.06
605.084	204.06
605.292	212.06
605.501	237.06
605.709	238.06
605.918	236.06
606.126	243.06
606.334	221.06
606.543	229.06
606.751	222.06
606.96	211.06
607.168	210.06
607.376	206.06
607.585	217.06
607.793	237.06
608.001	210.06
608.21	209.06
608.418	210.06
608.626	212.06
608.834	222.06
609.043	244.06
609.251	219.06
609.459	210.06
609.667	233.06
609.875	213.06
610.083	214.06
610.291	239.06
610.499	221.06
610.707	204.06
610.916	200.06
611.124	228.06
611.332	233.06
611.54	203.06
611.748	223.06
611.955	204.06
612.163	218.06
612.371	217.06
612.579	224.06
612.787	235.06
612.995	210.06
613.203	213.06
613.411	208.06
613.618	212.06
613.826	222.06
614.034	217.06
614.242	214.06
614.449	214.06
614.657	223.06
614.865	214.06
615.072	214.06
615.28	223.06
615.488	212.06
615.695	196.06
615.903	224.06
616.111	220.06
616.318	222.06
616.526	229.06
616.733	220.06
616.941	226.06
617.148	215.06
617.356	225.06
617.563	229.06
617.771	213.06
617.978	221.06
618.185	212.06
618.393	206.06
618.6	239.06
618.807	225.06
619.015	237.06
619.222	210.06
619.429	202.06
619.637	222.06
619.844	234.06
620.051	206.06
620.258	211.06
620.466	208.06
620.673	205.06
620.88	195.06
621.087	209.06
621.294	212.06
621.501	197.06
621.708	219.06
621.915	204.06
622.122	205.06
622.329	195.06
622.536	216.06
622.743	195.06
622.95	207.06
623.157	194.06
623.364	184.06
623.571	207.06
623.778	191.06
623.985	212.06
624.192	196.06
624.399	208.06
624.606	204.06
624.812	199.06
625.019	194.06
625.226	197.06
625.433	199.06
625.639	196.06
625.846	190.06
626.053	194.06
626.259	193.06
626.466	193.06
626.673	189.06
626.879	196.06
627.086	213.06
627.293	196.06
627.499	193.06
627.706	181.06
627.912	181.06
628.119	206.06
628.325	189.06
628.532	193.06
628.738	164.06
628.945	180.06
629.151	178.06
629.357	178.06
629.564	183.06
629.77	196.06
629.976	177.06
630.183	174.06
630.389	173.06
630.595	199.06
630.802	180.06
631.008	193.06
631.214	184.06
631.42	175.06
631.627	179.06
631.833	177.06
632.039	171.06
632.245	174.06
632.451	183.06
632.657	187.06
632.863	174.06
633.069	167.06
633.275	181.06
633.481	159.06
633.688	162.06
633.893	171.06
634.099	174.06
634.305	181.06
634.511	170.06
634.717	167.06
634.923	173.06
635.129	173.06
635.335	158.06
635.541	159.06
635.747	179.06
635.952	158.06
636.158	149.06
636.364	181.06
636.57	175.06
636.775	170.06
636.981	166.06
637.187	174.06
637.392	169.06
637.598	163.06
637.804	170.06
638.009	159.06
638.215	161.06
638.421	160.06
638.626	156.06
638.832	176.06
639.037	158.06
639.243	167.06
639.448	170.06
639.654	173.06
639.859	154.06
640.065	164.06
640.27	158.06
640.475	169.06
640.681	163.06
640.886	157.06
641.091	155.06
641.297	147.06
641.502	179.06
641.707	163.06
641.913	155.06
642.118	163.06
642.323	149.06
642.528	169.06
642.733	160.06
642.939	166.06
643.144	159.06
643.349	153.06
643.554	173.06
643.759	155.06
643.964	156.06
644.169	162.06
644.374	158.06
644.579	159.06
644.784	164.06
644.989	166.06
645.194	164.06
645.399	154.06
645.604	152.06
645.809	162.06
646.014	154.06
646.219	162.06
646.423	123.06
646.628	161.06
646.833	158.06
647.038	143.06
647.243	147.06
647.447	161.06
647.652	160.06
647.857	175.06
648.062	167.06
648.266	176.06
648.471	172.06
648.676	159.06
648.88	170.06
649.085	161.06
649.289	174.06
649.494	156.06
649.698	177.06
649.903	161.06
650.107	161.06
650.312	172.06
650.516	157.06
650.721	151.06
650.925	149.06
651.13	150.06
651.334	145.06
651.539	150.06
651.743	148.06
651.947	139.06
652.152	164.06
652.356	150.06
652.56	138.06
652.764	148.06
652.969	141.06
653.173	136.06
653.377	147.06
653.581	148.06
653.785	131.06
653.99	143.06
654.194	133.06
654.398	140.06
654.602	126.06
654.806	119.06
655.01	152.06
655.214	122.06
655.418	128.06
655.622	135.06
655.826	135.06
656.03	129.06
656.234	132.06
656.438	170.06
656.642	137.06
656.846	152.06
657.049	151.06
657.253	121.06
657.457	116.06
657.661	113.06
657.865	121.06
658.068	112.06
658.272	102.06
658.476	120.06
658.68	113.06
658.883	101.06
659.087	110.06
659.291	108.06
659.494	102.06
659.698	103.06
659.901	106.06
660.105	104.06
660.309	106.06
660.512	101.06
660.716	89.06
660.919	105.06
661.123	89.06
661.326	73.06
661.53	92.06
661.733	93.06
661.936	82.06
662.14	69.06
662.343	76.06
662.546	93.06
662.75	91.06
662.953	100.06
663.156	76.06
663.36	72.06
663.563	78.06
663.766	86.06
663.969	89.06
664.173	79.06
664.376	98.06
664.579	93.06
664.782	68.06
664.985	80.06
665.188	83.06
665.391	67.06
665.594	89.06
665.797	73.06
666	89.06
666.203	89.06
666.406	82.06
666.609	82.06
666.812	70.06
667.015	90.06
667.218	69.06
667.421	78.06
667.624	71.06
667.827	78.06
668.03	65.06
668.232	78.06
668.435	91.06
668.638	83.06
668.841	91.06
669.043	80.06
669.246	89.06
669.449	64.06
669.651	83.06
669.854	86.06
670.057	79.06
670.259	69.06
670.462	75.06
670.665	84.06
670.867	77.06
671.07	79.06
671.272	92.06
671.475	85.06
671.677	85.06
671.88	76.06
672.082	85.06
672.284	85.06
672.487	71.06
672.689	76.06
672.892	90.06
