Data from 1960PennyLincolnUp.LampE6.200Scan.07172019.P1_HRD10591_13-05-07-002.txt Node
Date: Thu Jul 18 13:05:07 EDT 2019
User: cochatt
Spectrometer: HR+D1059
Trigger mode: 1
Integration Time (sec): 1.000000E-1
Scans to average: 1
Electric dark correction enabled: true
Nonlinearity correction enabled: false
Boxcar width: 0
XAxis mode: Wavelengths
Number of Pixels in Spectrum: 2048
>>>>>Begin Spectral Data<<<<<
223.165	-8.12
223.4	-8.12
223.635	-8.12
223.869	-26.12
224.104	-22.12
224.338	-7.12
224.573	-7.12
224.808	-12.12
225.042	-12.12
225.277	-18.12
225.511	6.88
225.746	9.88
225.98	7.88
226.215	5.88
226.449	25.88
226.683	1.88
226.918	26.88
227.152	27.88
227.387	21.88
227.621	23.88
227.856	37.88
228.09	41.88
228.324	51.88
228.559	53.88
228.793	41.88
229.027	78.88
229.262	90.88
229.496	92.88
229.73	94.88
229.964	113.88
230.199	96.88
230.433	86.88
230.667	99.88
230.901	109.88
231.136	106.88
231.37	90.88
231.604	108.88
231.838	106.88
232.072	102.88
232.306	92.88
232.541	105.88
232.775	109.88
233.009	100.88
233.243	90.88
233.477	100.88
233.711	109.88
233.945	98.88
234.179	125.88
234.413	95.88
234.647	100.88
234.881	93.88
235.115	103.88
235.349	113.88
235.583	105.88
235.817	115.88
236.051	102.88
236.285	111.88
236.519	100.88
236.753	115.88
236.987	124.88
237.221	134.88
237.455	136.88
237.689	137.88
237.922	129.88
238.156	102.88
238.39	125.88
238.624	130.88
238.858	109.88
239.091	111.88
239.325	111.88
239.559	128.88
239.793	125.88
240.027	117.88
240.26	118.88
240.494	127.88
240.728	119.88
240.961	115.88
241.195	134.88
241.429	124.88
241.662	126.88
241.896	109.88
242.13	113.88
242.363	115.88
242.597	132.88
242.83	123.88
243.064	118.88
243.298	112.88
243.531	143.88
243.765	123.88
243.998	126.88
244.232	137.88
244.465	138.88
244.699	131.88
244.932	117.88
245.166	131.88
245.399	119.88
245.633	135.88
245.866	116.88
246.099	134.88
246.333	137.88
246.566	137.88
246.8	120.88
247.033	130.88
247.266	135.88
247.5	141.88
247.733	141.88
247.966	135.88
248.2	146.88
248.433	157.88
248.666	151.88
248.899	155.88
249.133	165.88
249.366	157.88
249.599	164.88
249.832	154.88
250.066	147.88
250.299	151.88
250.532	166.88
250.765	166.88
250.998	166.88
251.231	162.88
251.465	165.88
251.698	179.88
251.931	173.88
252.164	164.88
252.397	157.88
252.63	154.88
252.863	172.88
253.096	176.88
253.329	174.88
253.562	171.88
253.795	179.88
254.028	169.88
254.261	167.88
254.494	172.88
254.727	166.88
254.96	194.88
255.193	193.88
255.426	187.88
255.659	173.88
255.892	197.88
256.124	178.88
256.357	199.88
256.59	189.88
256.823	192.88
257.056	192.88
257.289	183.88
257.521	183.88
257.754	182.88
257.987	181.88
258.22	181.88
258.452	174.88
258.685	198.88
258.918	182.88
259.151	172.88
259.383	184.88
259.616	183.88
259.849	198.88
260.081	194.88
260.314	199.88
260.547	181.88
260.779	187.88
261.012	176.88
261.244	182.88
261.477	196.88
261.71	198.88
261.942	192.88
262.175	185.88
262.407	184.88
262.64	166.88
262.872	203.88
263.105	187.88
263.337	198.88
263.57	180.88
263.802	202.88
264.035	201.88
264.267	188.88
264.499	189.88
264.732	188.88
264.964	193.88
265.197	191.88
265.429	183.88
265.661	191.88
265.894	204.88
266.126	193.88
266.358	211.88
266.591	205.88
266.823	203.88
267.055	197.88
267.287	191.88
267.52	186.88
267.752	203.88
267.984	209.88
268.216	223.88
268.448	210.88
268.681	198.88
268.913	223.88
269.145	217.88
269.377	238.88
269.609	218.88
269.841	214.88
270.073	222.88
270.306	239.88
270.538	254.88
270.77	238.88
271.002	234.88
271.234	236.88
271.466	234.88
271.698	262.88
271.93	250.88
272.162	250.88
272.394	245.88
272.626	233.88
272.858	213.88
273.09	222.88
273.322	227.88
273.553	222.88
273.785	226.88
274.017	229.88
274.249	222.88
274.481	221.88
274.713	239.88
274.945	230.88
275.176	243.88
275.408	225.88
275.64	245.88
275.872	246.88
276.104	234.88
276.335	221.88
276.567	251.88
276.799	223.88
277.031	262.88
277.262	271.88
277.494	269.88
277.726	251.88
277.957	233.88
278.189	232.88
278.421	220.88
278.652	240.88
278.884	246.88
279.115	252.88
279.347	251.88
279.579	263.88
279.81	240.88
280.042	262.88
280.273	274.88
280.505	255.88
280.736	253.88
280.968	261.88
281.199	262.88
281.431	255.88
281.662	263.88
281.894	265.88
282.125	251.88
282.356	272.88
282.588	269.88
282.819	270.88
283.051	258.88
283.282	262.88
283.513	268.88
283.745	271.88
283.976	249.88
284.207	261.88
284.439	269.88
284.67	262.88
284.901	264.88
285.132	287.88
285.364	252.88
285.595	259.88
285.826	270.88
286.057	270.88
286.288	285.88
286.52	270.88
286.751	281.88
286.982	277.88
287.213	257.88
287.444	273.88
287.675	287.88
287.906	289.88
288.138	281.88
288.369	300.88
288.6	285.88
288.831	267.88
289.062	296.88
289.293	285.88
289.524	279.88
289.755	276.88
289.986	291.88
290.217	278.88
290.448	275.88
290.679	298.88
290.91	281.88
291.141	290.88
291.371	278.88
291.602	310.88
291.833	269.88
292.064	277.88
292.295	292.88
292.526	286.88
292.757	271.88
292.987	266.88
293.218	278.88
293.449	289.88
293.68	294.88
293.91	283.88
294.141	271.88
294.372	280.88
294.603	287.88
294.833	284.88
295.064	270.88
295.295	292.88
295.525	291.88
295.756	297.88
295.987	296.88
296.217	294.88
296.448	307.88
296.679	313.88
296.909	297.88
297.14	299.88
297.37	298.88
297.601	316.88
297.831	306.88
298.062	296.88
298.292	286.88
298.523	305.88
298.753	305.88
298.984	321.88
299.214	310.88
299.445	306.88
299.675	292.88
299.905	309.88
300.136	311.88
300.366	291.88
300.597	311.88
300.827	325.88
301.057	310.88
301.288	331.88
301.518	323.88
301.748	318.88
301.979	331.88
302.209	319.88
302.439	319.88
302.669	312.88
302.9	336.88
303.13	323.88
303.36	313.88
303.59	313.88
303.82	325.88
304.051	330.88
304.281	327.88
304.511	324.88
304.741	310.88
304.971	325.88
305.201	321.88
305.431	330.88
305.661	312.88
305.891	327.88
306.121	323.88
306.352	320.88
306.582	317.88
306.812	326.88
307.042	314.88
307.272	307.88
307.502	318.88
307.731	350.88
307.961	338.88
308.191	310.88
308.421	325.88
308.651	321.88
308.881	317.88
309.111	340.88
309.341	335.88
309.571	324.88
309.8	362.88
310.03	325.88
310.26	341.88
310.49	339.88
310.72	358.88
310.949	329.88
311.179	333.88
311.409	327.88
311.639	353.88
311.868	339.88
312.098	342.88
312.328	350.88
312.557	359.88
312.787	355.88
313.017	348.88
313.246	349.88
313.476	359.88
313.706	339.88
313.935	352.88
314.165	371.88
314.394	376.88
314.624	363.88
314.853	369.88
315.083	346.88
315.312	347.88
315.542	341.88
315.771	351.88
316.001	351.88
316.23	362.88
316.46	365.88
316.689	355.88
316.919	350.88
317.148	357.88
317.377	357.88
317.607	369.88
317.836	354.88
318.065	365.88
318.295	358.88
318.524	357.88
318.753	324.88
318.983	366.88
319.212	355.88
319.441	356.88
319.67	364.88
319.9	351.88
320.129	357.88
320.358	370.88
320.587	356.88
320.816	368.88
321.046	372.88
321.275	354.88
321.504	367.88
321.733	359.88
321.962	389.88
322.191	363.88
322.42	373.88
322.649	363.88
322.878	396.88
323.108	384.88
323.337	380.88
323.566	398.88
323.795	379.88
324.024	402.88
324.253	451.88
324.482	581.88
324.71	767.88
324.939	1046.88
325.168	862.88
325.397	530.88
325.626	425.88
325.855	413.88
326.084	409.88
326.313	407.88
326.542	397.88
326.77	422.88
326.999	477.88
327.228	543.88
327.457	739.88
327.686	841.88
327.914	612.88
328.143	471.88
328.372	454.88
328.6	436.88
328.829	407.88
329.058	439.88
329.287	429.88
329.515	402.88
329.744	397.88
329.972	427.88
330.201	433.88
330.43	425.88
330.658	450.88
330.887	440.88
331.115	450.88
331.344	426.88
331.572	417.88
331.801	413.88
332.03	425.88
332.258	430.88
332.486	447.88
332.715	442.88
332.943	436.88
333.172	469.88
333.4	477.88
333.629	503.88
333.857	500.88
334.085	467.88
334.314	495.88
334.542	502.88
334.771	504.88
334.999	497.88
335.227	460.88
335.455	467.88
335.684	452.88
335.912	457.88
336.14	445.88
336.369	431.88
336.597	436.88
336.825	454.88
337.053	436.88
337.281	442.88
337.51	445.88
337.738	439.88
337.966	415.88
338.194	414.88
338.422	416.88
338.65	422.88
338.878	428.88
339.106	413.88
339.334	413.88
339.562	401.88
339.79	424.88
340.018	427.88
340.246	422.88
340.474	416.88
340.702	389.88
340.93	389.88
341.158	414.88
341.386	415.88
341.614	422.88
341.842	404.88
342.07	411.88
342.298	397.88
342.526	398.88
342.754	399.88
342.981	392.88
343.209	393.88
343.437	420.88
343.665	439.88
343.893	433.88
344.12	480.88
344.348	460.88
344.576	448.88
344.804	447.88
345.031	413.88
345.259	402.88
345.487	398.88
345.714	392.88
345.942	397.88
346.17	378.88
346.397	390.88
346.625	384.88
346.853	382.88
347.08	380.88
347.308	382.88
347.535	408.88
347.763	367.88
347.99	371.88
348.218	386.88
348.445	377.88
348.673	374.88
348.9	393.88
349.128	370.88
349.355	394.88
349.583	378.88
349.81	384.88
350.037	369.88
350.265	384.88
350.492	393.88
350.72	378.88
350.947	386.88
351.174	398.88
351.402	358.88
351.629	384.88
351.856	405.88
352.083	384.88
352.311	397.88
352.538	376.88
352.765	387.88
352.992	376.88
353.22	389.88
353.447	392.88
353.674	379.88
353.901	369.88
354.128	367.88
354.355	395.88
354.583	370.88
354.81	383.88
355.037	373.88
355.264	373.88
355.491	387.88
355.718	369.88
355.945	382.88
356.172	365.88
356.399	362.88
356.626	383.88
356.853	387.88
357.08	370.88
357.307	373.88
357.534	380.88
357.761	367.88
357.988	384.88
358.215	387.88
358.441	364.88
358.668	364.88
358.895	382.88
359.122	370.88
359.349	403.88
359.576	401.88
359.802	384.88
360.029	398.88
360.256	404.88
360.483	379.88
360.709	369.88
360.936	365.88
361.163	381.88
361.39	373.88
361.616	394.88
361.843	396.88
362.07	372.88
362.296	399.88
362.523	357.88
362.749	385.88
362.976	367.88
363.203	393.88
363.429	386.88
363.656	372.88
363.882	383.88
364.109	373.88
364.335	380.88
364.562	373.88
364.788	395.88
365.015	392.88
365.241	379.88
365.468	367.88
365.694	384.88
365.92	389.88
366.147	381.88
366.373	381.88
366.599	381.88
366.826	365.88
367.052	367.88
367.278	385.88
367.505	376.88
367.731	393.88
367.957	373.88
368.184	379.88
368.41	389.88
368.636	397.88
368.862	410.88
369.089	387.88
369.315	389.88
369.541	392.88
369.767	395.88
369.993	379.88
370.219	390.88
370.445	382.88
370.672	391.88
370.898	393.88
371.124	378.88
371.35	396.88
371.576	394.88
371.802	388.88
372.028	388.88
372.254	403.88
372.48	396.88
372.706	427.88
372.932	409.88
373.158	413.88
373.384	429.88
373.61	409.88
373.835	393.88
374.061	402.88
374.287	383.88
374.513	385.88
374.739	431.88
374.965	437.88
375.191	439.88
375.416	432.88
375.642	405.88
375.868	411.88
376.094	417.88
376.319	412.88
376.545	400.88
376.771	407.88
376.997	417.88
377.222	407.88
377.448	397.88
377.674	394.88
377.899	393.88
378.125	385.88
378.35	391.88
378.576	415.88
378.802	394.88
379.027	399.88
379.253	403.88
379.478	391.88
379.704	399.88
379.929	395.88
380.155	377.88
380.38	395.88
380.606	413.88
380.831	393.88
381.057	401.88
381.282	387.88
381.507	391.88
381.733	394.88
381.958	393.88
382.184	400.88
382.409	410.88
382.634	427.88
382.86	413.88
383.085	429.88
383.31	431.88
383.535	435.88
383.761	431.88
383.986	436.88
384.211	444.88
384.436	459.88
384.662	450.88
384.887	468.88
385.112	477.88
385.337	446.88
385.562	452.88
385.787	457.88
386.013	460.88
386.238	453.88
386.463	446.88
386.688	464.88
386.913	464.88
387.138	479.88
387.363	452.88
387.588	449.88
387.813	473.88
388.038	468.88
388.263	474.88
388.488	467.88
388.713	467.88
388.938	431.88
389.163	451.88
389.387	469.88
389.612	458.88
389.837	475.88
390.062	445.88
390.287	451.88
390.512	453.88
390.736	473.88
390.961	470.88
391.186	460.88
391.411	465.88
391.636	499.88
391.86	505.88
392.085	490.88
392.31	488.88
392.534	497.88
392.759	481.88
392.984	459.88
393.208	480.88
393.433	497.88
393.658	515.88
393.882	490.88
394.107	480.88
394.331	474.88
394.556	478.88
394.78	480.88
395.005	474.88
395.229	491.88
395.454	484.88
395.678	486.88
395.903	486.88
396.127	515.88
396.352	511.88
396.576	485.88
396.801	486.88
397.025	502.88
397.249	514.88
397.474	522.88
397.698	511.88
397.922	515.88
398.147	493.88
398.371	522.88
398.595	531.88
398.82	547.88
399.044	537.88
399.268	615.88
399.492	675.88
399.717	746.88
399.941	723.88
400.165	692.88
400.389	667.88
400.613	614.88
400.837	588.88
401.062	567.88
401.286	554.88
401.51	553.88
401.734	518.88
401.958	539.88
402.182	537.88
402.406	552.88
402.63	558.88
402.854	566.88
403.078	566.88
403.302	586.88
403.526	598.88
403.75	594.88
403.974	612.88
404.198	606.88
404.422	594.88
404.645	614.88
404.869	597.88
405.093	605.88
405.317	632.88
405.541	615.88
405.765	592.88
405.988	599.88
406.212	620.88
406.436	606.88
406.66	613.88
406.883	591.88
407.107	639.88
407.331	676.88
407.555	714.88
407.778	697.88
408.002	662.88
408.226	654.88
408.449	633.88
408.673	625.88
408.896	615.88
409.12	626.88
409.344	615.88
409.567	580.88
409.791	588.88
410.014	556.88
410.238	564.88
410.461	558.88
410.685	570.88
410.908	591.88
411.132	579.88
411.355	579.88
411.578	579.88
411.802	545.88
412.025	571.88
412.249	559.88
412.472	567.88
412.695	592.88
412.919	560.88
413.142	561.88
413.365	557.88
413.589	544.88
413.812	551.88
414.035	562.88
414.258	538.88
414.482	534.88
414.705	529.88
414.928	549.88
415.151	559.88
415.374	562.88
415.597	559.88
415.821	507.88
416.044	524.88
416.267	539.88
416.49	524.88
416.713	523.88
416.936	533.88
417.159	492.88
417.382	516.88
417.605	528.88
417.828	530.88
418.051	543.88
418.274	553.88
418.497	531.88
418.72	562.88
418.943	528.88
419.166	560.88
419.389	601.88
419.611	582.88
419.834	555.88
420.057	573.88
420.28	566.88
420.503	541.88
420.726	542.88
420.948	554.88
421.171	568.88
421.394	568.88
421.617	546.88
421.839	540.88
422.062	554.88
422.285	532.88
422.507	574.88
422.73	616.88
422.953	615.88
423.175	583.88
423.398	595.88
423.621	556.88
423.843	583.88
424.066	546.88
424.288	566.88
424.511	573.88
424.733	613.88
424.956	637.88
425.178	596.88
425.401	609.88
425.623	613.88
425.846	557.88
426.068	534.88
426.291	531.88
426.513	518.88
426.735	549.88
426.958	560.88
427.18	594.88
427.402	626.88
427.625	678.88
427.847	609.88
428.069	566.88
428.292	517.88
428.514	521.88
428.736	495.88
428.958	506.88
429.181	493.88
429.403	480.88
429.625	491.88
429.847	516.88
430.069	509.88
430.292	539.88
430.514	515.88
430.736	500.88
430.958	477.88
431.18	493.88
431.402	487.88
431.624	462.88
431.846	481.88
432.068	467.88
432.29	485.88
432.512	472.88
432.734	475.88
432.956	490.88
433.178	482.88
433.4	482.88
433.622	493.88
433.844	501.88
434.066	502.88
434.287	505.88
434.509	528.88
434.731	495.88
434.953	523.88
435.175	548.88
435.397	543.88
435.618	533.88
435.84	540.88
436.062	596.88
436.284	601.88
436.505	547.88
436.727	502.88
436.949	498.88
437.17	518.88
437.392	479.88
437.614	498.88
437.835	487.88
438.057	557.88
438.278	562.88
438.5	627.88
438.721	617.88
438.943	602.88
439.165	517.88
439.386	491.88
439.608	510.88
439.829	507.88
440.05	538.88
440.272	546.88
440.493	518.88
440.715	507.88
440.936	499.88
441.158	517.88
441.379	524.88
441.6	532.88
441.822	545.88
442.043	568.88
442.264	573.88
442.486	621.88
442.707	575.88
442.928	529.88
443.149	543.88
443.371	549.88
443.592	574.88
443.813	644.88
444.034	646.88
444.255	583.88
444.476	585.88
444.698	578.88
444.919	579.88
445.14	658.88
445.361	602.88
445.582	562.88
445.803	580.88
446.024	594.88
446.245	607.88
446.466	605.88
446.687	500.88
446.908	489.88
447.129	495.88
447.35	487.88
447.571	455.88
447.792	469.88
448.013	463.88
448.234	473.88
448.455	509.88
448.675	539.88
448.896	612.88
449.117	506.88
449.338	513.88
449.559	610.88
449.779	619.88
450	534.88
450.221	477.88
450.442	450.88
450.662	458.88
450.883	452.88
451.104	463.88
451.324	469.88
451.545	459.88
451.766	452.88
451.986	421.88
452.207	438.88
452.428	454.88
452.648	449.88
452.869	438.88
453.089	440.88
453.31	457.88
453.53	436.88
453.751	444.88
453.971	437.88
454.192	438.88
454.412	420.88
454.633	424.88
454.853	417.88
455.073	424.88
455.294	421.88
455.514	467.88
455.734	443.88
455.955	402.88
456.175	403.88
456.395	404.88
456.616	404.88
456.836	431.88
457.056	400.88
457.276	403.88
457.497	421.88
457.717	418.88
457.937	437.88
458.157	430.88
458.377	411.88
458.598	443.88
458.818	471.88
459.038	509.88
459.258	511.88
459.478	464.88
459.698	481.88
459.918	484.88
460.138	508.88
460.358	520.88
460.578	513.88
460.798	545.88
461.018	553.88
461.238	511.88
461.458	537.88
461.678	525.88
461.898	508.88
462.118	531.88
462.338	541.88
462.558	566.88
462.777	580.88
462.997	606.88
463.217	661.88
463.437	648.88
463.657	597.88
463.876	585.88
464.096	573.88
464.316	563.88
464.536	592.88
464.755	598.88
464.975	587.88
465.195	560.88
465.414	555.88
465.634	527.88
465.854	469.88
466.073	480.88
466.293	500.88
466.512	441.88
466.732	450.88
466.951	454.88
467.171	465.88
467.391	454.88
467.61	457.88
467.829	456.88
468.049	462.88
468.268	444.88
468.488	437.88
468.707	429.88
468.927	441.88
469.146	424.88
469.365	437.88
469.585	450.88
469.804	475.88
470.023	462.88
470.243	473.88
470.462	478.88
470.681	461.88
470.901	491.88
471.12	471.88
471.339	462.88
471.558	464.88
471.777	461.88
471.997	450.88
472.216	454.88
472.435	438.88
472.654	437.88
472.873	441.88
473.092	448.88
473.311	439.88
473.53	426.88
473.749	445.88
473.968	470.88
474.187	490.88
474.406	509.88
474.625	458.88
474.844	454.88
475.063	440.88
475.282	440.88
475.501	454.88
475.72	446.88
475.939	456.88
476.158	460.88
476.377	457.88
476.596	471.88
476.814	441.88
477.033	467.88
477.252	459.88
477.471	477.88
477.69	507.88
477.908	507.88
478.127	501.88
478.346	525.88
478.564	527.88
478.783	535.88
479.002	545.88
479.22	559.88
479.439	543.88
479.658	546.88
479.876	548.88
480.095	542.88
480.313	583.88
480.532	589.88
480.751	574.88
480.969	582.88
481.188	585.88
481.406	601.88
481.624	552.88
481.843	533.88
482.061	522.88
482.28	528.88
482.498	511.88
482.717	507.88
482.935	516.88
483.153	521.88
483.372	502.88
483.59	518.88
483.808	513.88
484.027	521.88
484.245	533.88
484.463	553.88
484.681	532.88
484.9	525.88
485.118	531.88
485.336	537.88
485.554	543.88
485.772	548.88
485.99	533.88
486.209	566.88
486.427	538.88
486.645	547.88
486.863	568.88
487.081	576.88
487.299	541.88
487.517	539.88
487.735	544.88
487.953	541.88
488.171	550.88
488.389	546.88
488.607	542.88
488.825	549.88
489.043	543.88
489.261	563.88
489.479	547.88
489.696	542.88
489.914	549.88
490.132	543.88
490.35	558.88
490.568	552.88
490.786	551.88
491.003	574.88
491.221	586.88
491.439	598.88
491.657	599.88
491.874	595.88
492.092	612.88
492.31	605.88
492.527	590.88
492.745	608.88
492.963	605.88
493.18	602.88
493.398	605.88
493.615	627.88
493.833	613.88
494.05	613.88
494.268	598.88
494.485	627.88
494.703	616.88
494.92	636.88
495.138	609.88
495.355	617.88
495.573	609.88
495.79	609.88
496.008	603.88
496.225	604.88
496.442	637.88
496.66	610.88
496.877	639.88
497.094	629.88
497.312	629.88
497.529	641.88
497.746	663.88
497.963	659.88
498.181	687.88
498.398	710.88
498.615	747.88
498.832	773.88
499.049	815.88
499.267	831.88
499.484	912.88
499.701	985.88
499.918	1042.88
500.135	1123.88
500.352	1232.88
500.569	1300.88
500.786	1280.88
501.003	1214.88
501.22	1101.88
501.437	1033.88
501.654	975.88
501.871	927.88
502.088	839.88
502.305	790.88
502.522	781.88
502.739	757.88
502.956	708.88
503.172	686.88
503.389	669.88
503.606	667.88
503.823	677.88
504.04	666.88
504.256	641.88
504.473	670.88
504.69	681.88
504.907	665.88
505.123	629.88
505.34	613.88
505.557	594.88
505.773	592.88
505.99	582.88
506.207	572.88
506.423	573.88
506.64	559.88
506.856	558.88
507.073	560.88
507.289	570.88
507.506	530.88
507.722	558.88
507.939	536.88
508.155	534.88
508.372	519.88
508.588	528.88
508.805	540.88
509.021	517.88
509.238	526.88
509.454	521.88
509.67	518.88
509.887	502.88
510.103	486.88
510.319	508.88
510.536	547.88
510.752	720.88
510.968	642.88
511.184	514.88
511.401	513.88
511.617	498.88
511.833	505.88
512.049	489.88
512.265	522.88
512.481	497.88
512.698	494.88
512.914	484.88
513.13	483.88
513.346	476.88
513.562	509.88
513.778	498.88
513.994	497.88
514.21	494.88
514.426	492.88
514.642	509.88
514.858	544.88
515.074	516.88
515.29	558.88
515.506	718.88
515.721	659.88
515.937	545.88
516.153	538.88
516.369	555.88
516.585	541.88
516.801	540.88
517.016	555.88
517.232	602.88
517.448	603.88
517.664	625.88
517.879	615.88
518.095	608.88
518.311	615.88
518.527	564.88
518.742	559.88
518.958	550.88
519.173	541.88
519.389	546.88
519.605	513.88
519.82	507.88
520.036	523.88
520.251	498.88
520.467	497.88
520.682	513.88
520.898	518.88
521.113	505.88
521.329	526.88
521.544	526.88
521.76	601.88
521.975	803.88
522.19	826.88
522.406	565.88
522.621	508.88
522.836	468.88
523.052	480.88
523.267	466.88
523.482	442.88
523.698	451.88
523.913	463.88
524.128	478.88
524.343	466.88
524.559	429.88
524.774	430.88
524.989	457.88
525.204	471.88
525.419	431.88
525.634	427.88
525.849	423.88
526.064	420.88
526.28	437.88
526.495	425.88
526.71	430.88
526.925	437.88
527.14	420.88
527.355	438.88
527.57	427.88
527.785	427.88
527.999	431.88
528.214	427.88
528.429	439.88
528.644	441.88
528.859	437.88
529.074	430.88
529.289	438.88
529.503	468.88
529.718	462.88
529.933	423.88
530.148	440.88
530.363	433.88
530.577	426.88
530.792	415.88
531.007	417.88
531.221	423.88
531.436	421.88
531.651	431.88
531.865	420.88
532.08	425.88
532.295	417.88
532.509	426.88
532.724	427.88
532.938	430.88
533.153	431.88
533.367	443.88
533.582	425.88
533.796	406.88
534.011	419.88
534.225	431.88
534.44	435.88
534.654	422.88
534.868	449.88
535.083	410.88
535.297	420.88
535.511	434.88
535.726	433.88
535.94	430.88
536.154	399.88
536.369	409.88
536.583	395.88
536.797	392.88
537.011	399.88
537.225	406.88
537.44	386.88
537.654	413.88
537.868	397.88
538.082	382.88
538.296	399.88
538.51	386.88
538.724	403.88
538.938	412.88
539.153	399.88
539.367	410.88
539.581	397.88
539.795	389.88
540.009	390.88
540.222	396.88
540.436	397.88
540.65	397.88
540.864	421.88
541.078	408.88
541.292	395.88
541.506	404.88
541.72	398.88
541.934	415.88
542.147	407.88
542.361	399.88
542.575	393.88
542.789	369.88
543.002	394.88
543.216	382.88
543.43	382.88
543.644	406.88
543.857	382.88
544.071	384.88
544.285	399.88
544.498	403.88
544.712	402.88
544.925	412.88
545.139	397.88
545.352	393.88
545.566	421.88
545.779	401.88
545.993	418.88
546.206	406.88
546.42	395.88
546.633	397.88
546.847	393.88
547.06	410.88
547.274	416.88
547.487	406.88
547.7	409.88
547.914	405.88
548.127	413.88
548.34	407.88
548.554	406.88
548.767	387.88
548.98	397.88
549.193	405.88
549.407	406.88
549.62	411.88
549.833	426.88
550.046	438.88
550.259	412.88
550.473	415.88
550.686	400.88
550.899	402.88
551.112	410.88
551.325	386.88
551.538	402.88
551.751	373.88
551.964	395.88
552.177	407.88
552.39	407.88
552.603	415.88
552.816	439.88
553.029	430.88
553.242	431.88
553.455	439.88
553.667	423.88
553.88	426.88
554.093	431.88
554.306	424.88
554.519	429.88
554.732	410.88
554.944	409.88
555.157	389.88
555.37	395.88
555.583	375.88
555.795	348.88
556.008	389.88
556.221	363.88
556.433	365.88
556.646	374.88
556.859	351.88
557.071	356.88
557.284	365.88
557.496	373.88
557.709	347.88
557.921	363.88
558.134	357.88
558.346	357.88
558.559	357.88
558.771	350.88
558.984	360.88
559.196	365.88
559.409	353.88
559.621	351.88
559.833	339.88
560.046	351.88
560.258	351.88
560.47	363.88
560.683	346.88
560.895	353.88
561.107	354.88
561.32	327.88
561.532	356.88
561.744	348.88
561.956	333.88
562.168	367.88
562.381	342.88
562.593	361.88
562.805	355.88
563.017	367.88
563.229	348.88
563.441	363.88
563.653	357.88
563.865	342.88
564.077	357.88
564.289	354.88
564.501	379.88
564.713	379.88
564.925	384.88
565.137	395.88
565.349	398.88
565.561	398.88
565.773	388.88
565.985	402.88
566.197	423.88
566.408	447.88
566.62	467.88
566.832	509.88
567.044	493.88
567.255	510.88
567.467	528.88
567.679	565.88
567.891	579.88
568.102	601.88
568.314	582.88
568.526	521.88
568.737	501.88
568.949	456.88
569.161	427.88
569.372	394.88
569.584	397.88
569.795	377.88
570.007	366.88
570.218	384.88
570.43	369.88
570.641	373.88
570.853	369.88
571.064	363.88
571.276	358.88
571.487	355.88
571.698	343.88
571.91	351.88
572.121	323.88
572.333	324.88
572.544	329.88
572.755	314.88
572.966	311.88
573.178	319.88
573.389	338.88
573.6	305.88
573.811	314.88
574.023	325.88
574.234	299.88
574.445	293.88
574.656	299.88
574.867	302.88
575.078	316.88
575.289	308.88
575.501	293.88
575.712	297.88
575.923	280.88
576.134	276.88
576.345	297.88
576.556	277.88
576.767	294.88
576.978	287.88
577.188	300.88
577.399	284.88
577.61	293.88
577.821	275.88
578.032	282.88
578.243	313.88
578.454	373.88
578.665	310.88
578.875	270.88
579.086	272.88
579.297	270.88
579.508	256.88
579.718	278.88
579.929	272.88
580.14	298.88
580.35	280.88
580.561	283.88
580.772	266.88
580.982	277.88
581.193	290.88
581.403	261.88
581.614	255.88
581.825	257.88
582.035	268.88
582.246	277.88
582.456	257.88
582.667	281.88
582.877	253.88
583.087	254.88
583.298	267.88
583.508	274.88
583.719	271.88
583.929	261.88
584.139	267.88
584.35	251.88
584.56	266.88
584.77	244.88
584.981	272.88
585.191	270.88
585.401	257.88
585.611	271.88
585.821	276.88
586.032	270.88
586.242	266.88
586.452	275.88
586.662	265.88
586.872	247.88
587.082	266.88
587.292	262.88
587.502	267.88
587.713	260.88
587.923	252.88
588.133	254.88
588.343	273.88
588.553	272.88
588.762	260.88
588.972	270.88
589.182	357.88
589.392	323.88
589.602	292.88
589.812	326.88
590.022	303.88
590.232	249.88
590.441	272.88
590.651	271.88
590.861	270.88
591.071	266.88
591.281	273.88
591.49	265.88
591.7	259.88
591.91	277.88
592.119	260.88
592.329	267.88
592.539	272.88
592.748	292.88
592.958	295.88
593.167	286.88
593.377	325.88
593.587	313.88
593.796	314.88
594.006	300.88
594.215	309.88
594.424	331.88
594.634	326.88
594.843	308.88
595.053	286.88
595.262	297.88
595.472	283.88
595.681	255.88
595.89	281.88
596.1	276.88
596.309	257.88
596.518	266.88
596.727	265.88
596.937	266.88
597.146	251.88
597.355	261.88
597.564	261.88
597.774	251.88
597.983	235.88
598.192	225.88
598.401	246.88
598.61	228.88
598.819	251.88
599.028	246.88
599.237	247.88
599.446	225.88
599.655	233.88
599.864	221.88
600.073	218.88
600.282	240.88
600.491	241.88
600.7	229.88
600.909	230.88
601.118	221.88
601.327	237.88
601.536	239.88
601.745	222.88
601.953	237.88
602.162	229.88
602.371	227.88
602.58	226.88
602.789	220.88
602.997	238.88
603.206	240.88
603.415	230.88
603.623	201.88
603.832	203.88
604.041	234.88
604.249	212.88
604.458	217.88
604.666	193.88
604.875	217.88
605.084	222.88
605.292	218.88
605.501	230.88
605.709	204.88
605.918	202.88
606.126	217.88
606.334	220.88
606.543	209.88
606.751	212.88
606.96	224.88
607.168	223.88
607.376	217.88
607.585	225.88
607.793	207.88
608.001	218.88
608.21	219.88
608.418	205.88
608.626	219.88
608.834	214.88
609.043	217.88
609.251	219.88
609.459	222.88
609.667	233.88
609.875	226.88
610.083	212.88
610.291	213.88
610.499	225.88
610.707	206.88
610.916	221.88
611.124	225.88
611.332	206.88
611.54	218.88
611.748	228.88
611.955	241.88
612.163	218.88
612.371	212.88
612.579	210.88
612.787	192.88
612.995	210.88
613.203	220.88
613.411	212.88
613.618	217.88
613.826	212.88
614.034	206.88
614.242	231.88
614.449	222.88
614.657	226.88
614.865	204.88
615.072	220.88
615.28	205.88
615.488	203.88
615.695	210.88
615.903	218.88
616.111	218.88
616.318	221.88
616.526	220.88
616.733	215.88
616.941	220.88
617.148	233.88
617.356	223.88
617.563	208.88
617.771	204.88
617.978	210.88
618.185	207.88
618.393	215.88
618.6	214.88
618.807	218.88
619.015	217.88
619.222	207.88
619.429	229.88
619.637	214.88
619.844	206.88
620.051	218.88
620.258	202.88
620.466	199.88
620.673	199.88
620.88	197.88
621.087	209.88
621.294	190.88
621.501	202.88
621.708	193.88
621.915	193.88
622.122	198.88
622.329	212.88
622.536	209.88
622.743	188.88
622.95	197.88
623.157	225.88
623.364	202.88
623.571	208.88
623.778	209.88
623.985	196.88
624.192	201.88
624.399	204.88
624.606	182.88
624.812	169.88
625.019	190.88
625.226	187.88
625.433	197.88
625.639	212.88
625.846	182.88
626.053	193.88
626.259	180.88
626.466	183.88
626.673	195.88
626.879	177.88
627.086	187.88
627.293	197.88
627.499	175.88
627.706	189.88
627.912	192.88
628.119	187.88
628.325	180.88
628.532	184.88
628.738	191.88
628.945	190.88
629.151	165.88
629.357	187.88
629.564	182.88
629.77	169.88
629.976	186.88
630.183	191.88
630.389	176.88
630.595	169.88
630.802	179.88
631.008	181.88
631.214	179.88
631.42	187.88
631.627	158.88
631.833	184.88
632.039	190.88
632.245	172.88
632.451	183.88
632.657	182.88
632.863	167.88
633.069	178.88
633.275	170.88
633.481	159.88
633.688	177.88
633.893	173.88
634.099	165.88
634.305	169.88
634.511	158.88
634.717	164.88
634.923	171.88
635.129	160.88
635.335	177.88
635.541	171.88
635.747	180.88
635.952	160.88
636.158	172.88
636.364	161.88
636.57	164.88
636.775	188.88
636.981	167.88
637.187	177.88
637.392	173.88
637.598	141.88
637.804	162.88
638.009	179.88
638.215	187.88
638.421	169.88
638.626	160.88
638.832	166.88
639.037	168.88
639.243	163.88
639.448	154.88
639.654	159.88
639.859	159.88
640.065	172.88
640.27	164.88
640.475	159.88
640.681	150.88
640.886	161.88
641.091	151.88
641.297	176.88
641.502	157.88
641.707	173.88
641.913	159.88
642.118	159.88
642.323	154.88
642.528	157.88
642.733	168.88
642.939	173.88
643.144	161.88
643.349	158.88
643.554	165.88
643.759	145.88
643.964	146.88
644.169	171.88
644.374	148.88
644.579	144.88
644.784	173.88
644.989	153.88
645.194	143.88
645.399	151.88
645.604	150.88
645.809	151.88
646.014	143.88
646.219	160.88
646.423	161.88
646.628	146.88
646.833	146.88
647.038	160.88
647.243	163.88
647.447	167.88
647.652	171.88
647.857	165.88
648.062	150.88
648.266	165.88
648.471	167.88
648.676	177.88
648.88	163.88
649.085	177.88
649.289	166.88
649.494	142.88
649.698	176.88
649.903	189.88
650.107	160.88
650.312	153.88
650.516	147.88
650.721	166.88
650.925	131.88
651.13	141.88
651.334	147.88
651.539	143.88
651.743	156.88
651.947	129.88
652.152	133.88
652.356	135.88
652.56	137.88
652.764	146.88
652.969	129.88
653.173	139.88
653.377	127.88
653.581	143.88
653.785	132.88
653.99	146.88
654.194	146.88
654.398	117.88
654.602	149.88
654.806	133.88
655.01	135.88
655.214	154.88
655.418	141.88
655.622	148.88
655.826	147.88
656.03	133.88
656.234	157.88
656.438	151.88
656.642	165.88
656.846	166.88
657.049	159.88
657.253	157.88
657.457	133.88
657.661	111.88
657.865	127.88
658.068	106.88
658.272	104.88
658.476	100.88
658.68	125.88
658.883	93.88
659.087	98.88
659.291	101.88
659.494	95.88
659.698	97.88
659.901	110.88
660.105	109.88
660.309	105.88
660.512	102.88
660.716	79.88
660.919	81.88
661.123	99.88
661.326	83.88
661.53	96.88
661.733	91.88
661.936	90.88
662.14	91.88
662.343	84.88
662.546	80.88
662.75	87.88
662.953	75.88
663.156	81.88
663.36	86.88
663.563	73.88
663.766	78.88
663.969	89.88
664.173	94.88
664.376	92.88
664.579	88.88
664.782	79.88
664.985	82.88
665.188	83.88
665.391	98.88
665.594	94.88
665.797	78.88
666	80.88
666.203	70.88
666.406	70.88
666.609	72.88
666.812	79.88
667.015	99.88
667.218	96.88
667.421	80.88
667.624	78.88
667.827	73.88
668.03	67.88
668.232	94.88
668.435	82.88
668.638	83.88
668.841	80.88
669.043	78.88
669.246	73.88
669.449	71.88
669.651	74.88
669.854	83.88
670.057	82.88
670.259	75.88
670.462	80.88
670.665	81.88
670.867	89.88
671.07	84.88
671.272	76.88
671.475	78.88
671.677	68.88
671.88	72.88
672.082	81.88
672.284	88.88
672.487	78.88
672.689	74.88
672.892	75.88
