Data from 1960PennyLincolnUp.LampE6.200Scan.07172019.P1_HRD10591_13-05-47-002.txt Node
Date: Thu Jul 18 13:05:47 EDT 2019
User: cochatt
Spectrometer: HR+D1059
Trigger mode: 1
Integration Time (sec): 1.000000E-1
Scans to average: 1
Electric dark correction enabled: true
Nonlinearity correction enabled: false
Boxcar width: 0
XAxis mode: Wavelengths
Number of Pixels in Spectrum: 2048
>>>>>Begin Spectral Data<<<<<
223.165	-15.12
223.4	-15.12
223.635	-15.12
223.869	-12.12
224.104	-14.12
224.338	-4.12
224.573	-13.12
224.808	-21.12
225.042	-23.12
225.277	-8.12
225.511	-8.12
225.746	4.88
225.98	12.88
226.215	9.88
226.449	17.88
226.683	31.88
226.918	17.88
227.152	23.88
227.387	27.88
227.621	29.88
227.856	55.88
228.09	55.88
228.324	43.88
228.559	64.88
228.793	68.88
229.027	83.88
229.262	97.88
229.496	100.88
229.73	119.88
229.964	115.88
230.199	113.88
230.433	103.88
230.667	91.88
230.901	91.88
231.136	99.88
231.37	90.88
231.604	110.88
231.838	120.88
232.072	114.88
232.306	106.88
232.541	104.88
232.775	114.88
233.009	110.88
233.243	105.88
233.477	110.88
233.711	98.88
233.945	112.88
234.179	114.88
234.413	118.88
234.647	119.88
234.881	125.88
235.115	110.88
235.349	121.88
235.583	128.88
235.817	118.88
236.051	111.88
236.285	122.88
236.519	118.88
236.753	123.88
236.987	125.88
237.221	130.88
237.455	170.88
237.689	156.88
237.922	130.88
238.156	124.88
238.39	121.88
238.624	122.88
238.858	129.88
239.091	118.88
239.325	122.88
239.559	119.88
239.793	115.88
240.027	122.88
240.26	133.88
240.494	147.88
240.728	132.88
240.961	134.88
241.195	156.88
241.429	120.88
241.662	118.88
241.896	135.88
242.13	132.88
242.363	133.88
242.597	135.88
242.83	145.88
243.064	137.88
243.298	134.88
243.531	139.88
243.765	123.88
243.998	155.88
244.232	133.88
244.465	139.88
244.699	155.88
244.932	136.88
245.166	151.88
245.399	145.88
245.633	148.88
245.866	139.88
246.099	134.88
246.333	136.88
246.566	145.88
246.8	154.88
247.033	165.88
247.266	150.88
247.5	157.88
247.733	158.88
247.966	156.88
248.2	166.88
248.433	158.88
248.666	161.88
248.899	164.88
249.133	171.88
249.366	170.88
249.599	180.88
249.832	163.88
250.066	154.88
250.299	179.88
250.532	180.88
250.765	176.88
250.998	187.88
251.231	202.88
251.465	174.88
251.698	185.88
251.931	178.88
252.164	181.88
252.397	178.88
252.63	182.88
252.863	173.88
253.096	195.88
253.329	184.88
253.562	200.88
253.795	192.88
254.028	193.88
254.261	192.88
254.494	177.88
254.727	212.88
254.96	235.88
255.193	228.88
255.426	217.88
255.659	193.88
255.892	195.88
256.124	201.88
256.357	216.88
256.59	187.88
256.823	200.88
257.056	196.88
257.289	192.88
257.521	202.88
257.754	198.88
257.987	198.88
258.22	199.88
258.452	202.88
258.685	187.88
258.918	201.88
259.151	194.88
259.383	202.88
259.616	200.88
259.849	217.88
260.081	211.88
260.314	217.88
260.547	226.88
260.779	217.88
261.012	202.88
261.244	196.88
261.477	201.88
261.71	218.88
261.942	206.88
262.175	226.88
262.407	222.88
262.64	209.88
262.872	198.88
263.105	194.88
263.337	196.88
263.57	217.88
263.802	223.88
264.035	211.88
264.267	194.88
264.499	209.88
264.732	194.88
264.964	210.88
265.197	207.88
265.429	197.88
265.661	211.88
265.894	194.88
266.126	227.88
266.358	218.88
266.591	204.88
266.823	230.88
267.055	214.88
267.287	218.88
267.52	210.88
267.752	231.88
267.984	223.88
268.216	210.88
268.448	236.88
268.681	220.88
268.913	247.88
269.145	233.88
269.377	241.88
269.609	239.88
269.841	250.88
270.073	256.88
270.306	271.88
270.538	273.88
270.77	270.88
271.002	261.88
271.234	274.88
271.466	267.88
271.698	260.88
271.93	279.88
272.162	288.88
272.394	262.88
272.626	268.88
272.858	250.88
273.09	260.88
273.322	248.88
273.553	250.88
273.785	242.88
274.017	252.88
274.249	246.88
274.481	234.88
274.713	229.88
274.945	262.88
275.176	263.88
275.408	244.88
275.64	256.88
275.872	252.88
276.104	250.88
276.335	248.88
276.567	247.88
276.799	260.88
277.031	282.88
277.262	286.88
277.494	282.88
277.726	284.88
277.957	282.88
278.189	268.88
278.421	266.88
278.652	260.88
278.884	246.88
279.115	249.88
279.347	277.88
279.579	270.88
279.81	270.88
280.042	257.88
280.273	261.88
280.505	276.88
280.736	263.88
280.968	262.88
281.199	280.88
281.431	266.88
281.662	276.88
281.894	278.88
282.125	263.88
282.356	266.88
282.588	284.88
282.819	296.88
283.051	292.88
283.282	248.88
283.513	270.88
283.745	297.88
283.976	288.88
284.207	280.88
284.439	274.88
284.67	281.88
284.901	289.88
285.132	268.88
285.364	286.88
285.595	278.88
285.826	286.88
286.057	297.88
286.288	269.88
286.52	283.88
286.751	290.88
286.982	296.88
287.213	296.88
287.444	281.88
287.675	291.88
287.906	284.88
288.138	316.88
288.369	300.88
288.6	311.88
288.831	296.88
289.062	306.88
289.293	305.88
289.524	297.88
289.755	299.88
289.986	305.88
290.217	304.88
290.448	299.88
290.679	294.88
290.91	305.88
291.141	301.88
291.371	309.88
291.602	312.88
291.833	295.88
292.064	298.88
292.295	289.88
292.526	322.88
292.757	302.88
292.987	311.88
293.218	297.88
293.449	295.88
293.68	300.88
293.91	311.88
294.141	309.88
294.372	304.88
294.603	315.88
294.833	312.88
295.064	322.88
295.295	309.88
295.525	305.88
295.756	313.88
295.987	308.88
296.217	340.88
296.448	333.88
296.679	320.88
296.909	309.88
297.14	315.88
297.37	347.88
297.601	312.88
297.831	308.88
298.062	310.88
298.292	312.88
298.523	329.88
298.753	332.88
298.984	300.88
299.214	335.88
299.445	324.88
299.675	339.88
299.905	350.88
300.136	337.88
300.366	342.88
300.597	314.88
300.827	328.88
301.057	346.88
301.288	350.88
301.518	347.88
301.748	347.88
301.979	331.88
302.209	338.88
302.439	357.88
302.669	343.88
302.9	334.88
303.13	340.88
303.36	333.88
303.59	358.88
303.82	340.88
304.051	368.88
304.281	337.88
304.511	346.88
304.741	317.88
304.971	341.88
305.201	320.88
305.431	339.88
305.661	352.88
305.891	322.88
306.121	339.88
306.352	357.88
306.582	347.88
306.812	355.88
307.042	340.88
307.272	347.88
307.502	343.88
307.731	343.88
307.961	361.88
308.191	338.88
308.421	328.88
308.651	347.88
308.881	347.88
309.111	351.88
309.341	342.88
309.571	361.88
309.8	346.88
310.03	366.88
310.26	355.88
310.49	363.88
310.72	355.88
310.949	365.88
311.179	377.88
311.409	367.88
311.639	368.88
311.868	377.88
312.098	374.88
312.328	359.88
312.557	374.88
312.787	389.88
313.017	392.88
313.246	397.88
313.476	373.88
313.706	378.88
313.935	377.88
314.165	384.88
314.394	370.88
314.624	389.88
314.853	360.88
315.083	392.88
315.312	373.88
315.542	391.88
315.771	373.88
316.001	372.88
316.23	387.88
316.46	362.88
316.689	371.88
316.919	367.88
317.148	371.88
317.377	390.88
317.607	374.88
317.836	365.88
318.065	365.88
318.295	385.88
318.524	364.88
318.753	379.88
318.983	376.88
319.212	369.88
319.441	369.88
319.67	400.88
319.9	380.88
320.129	378.88
320.358	395.88
320.587	371.88
320.816	369.88
321.046	396.88
321.275	395.88
321.504	401.88
321.733	368.88
321.962	393.88
322.191	387.88
322.42	408.88
322.649	411.88
322.878	408.88
323.108	414.88
323.337	439.88
323.566	426.88
323.795	436.88
324.024	462.88
324.253	513.88
324.482	694.88
324.71	996.88
324.939	1316.88
325.168	1106.88
325.397	640.88
325.626	488.88
325.855	459.88
326.084	431.88
326.313	427.88
326.542	439.88
326.77	468.88
326.999	522.88
327.228	659.88
327.457	928.88
327.686	1021.88
327.914	721.88
328.143	534.88
328.372	505.88
328.6	482.88
328.829	479.88
329.058	486.88
329.287	480.88
329.515	459.88
329.744	473.88
329.972	472.88
330.201	447.88
330.43	514.88
330.658	487.88
330.887	516.88
331.115	515.88
331.344	480.88
331.572	457.88
331.801	455.88
332.03	475.88
332.258	445.88
332.486	443.88
332.715	473.88
332.943	486.88
333.172	500.88
333.4	528.88
333.629	507.88
333.857	529.88
334.085	518.88
334.314	541.88
334.542	535.88
334.771	530.88
334.999	515.88
335.227	499.88
335.455	509.88
335.684	510.88
335.912	493.88
336.14	464.88
336.369	483.88
336.597	487.88
336.825	476.88
337.053	441.88
337.281	453.88
337.51	479.88
337.738	451.88
337.966	453.88
338.194	452.88
338.422	454.88
338.65	462.88
338.878	418.88
339.106	441.88
339.334	446.88
339.562	430.88
339.79	420.88
340.018	419.88
340.246	439.88
340.474	454.88
340.702	433.88
340.93	450.88
341.158	427.88
341.386	414.88
341.614	444.88
341.842	431.88
342.07	443.88
342.298	425.88
342.526	444.88
342.754	408.88
342.981	431.88
343.209	439.88
343.437	457.88
343.665	468.88
343.893	489.88
344.12	482.88
344.348	480.88
344.576	454.88
344.804	460.88
345.031	442.88
345.259	453.88
345.487	421.88
345.714	447.88
345.942	432.88
346.17	420.88
346.397	415.88
346.625	414.88
346.853	418.88
347.08	410.88
347.308	426.88
347.535	418.88
347.763	431.88
347.99	418.88
348.218	417.88
348.445	428.88
348.673	402.88
348.9	423.88
349.128	410.88
349.355	386.88
349.583	404.88
349.81	419.88
350.037	398.88
350.265	406.88
350.492	401.88
350.72	416.88
350.947	408.88
351.174	412.88
351.402	409.88
351.629	410.88
351.856	422.88
352.083	387.88
352.311	402.88
352.538	428.88
352.765	430.88
352.992	421.88
353.22	402.88
353.447	396.88
353.674	403.88
353.901	411.88
354.128	399.88
354.355	394.88
354.583	399.88
354.81	394.88
355.037	411.88
355.264	404.88
355.491	407.88
355.718	390.88
355.945	387.88
356.172	424.88
356.399	429.88
356.626	403.88
356.853	414.88
357.08	382.88
357.307	400.88
357.534	392.88
357.761	404.88
357.988	411.88
358.215	403.88
358.441	392.88
358.668	386.88
358.895	416.88
359.122	403.88
359.349	416.88
359.576	417.88
359.802	422.88
360.029	449.88
360.256	420.88
360.483	428.88
360.709	395.88
360.936	423.88
361.163	430.88
361.39	425.88
361.616	431.88
361.843	425.88
362.07	406.88
362.296	419.88
362.523	401.88
362.749	415.88
362.976	416.88
363.203	415.88
363.429	394.88
363.656	388.88
363.882	417.88
364.109	402.88
364.335	408.88
364.562	407.88
364.788	379.88
365.015	391.88
365.241	407.88
365.468	439.88
365.694	436.88
365.92	404.88
366.147	403.88
366.373	395.88
366.599	402.88
366.826	412.88
367.052	406.88
367.278	394.88
367.505	395.88
367.731	395.88
367.957	403.88
368.184	411.88
368.41	400.88
368.636	388.88
368.862	421.88
369.089	410.88
369.315	408.88
369.541	417.88
369.767	404.88
369.993	414.88
370.219	431.88
370.445	413.88
370.672	404.88
370.898	404.88
371.124	435.88
371.35	439.88
371.576	425.88
371.802	406.88
372.028	415.88
372.254	439.88
372.48	420.88
372.706	440.88
372.932	452.88
373.158	446.88
373.384	424.88
373.61	422.88
373.835	419.88
374.061	414.88
374.287	440.88
374.513	448.88
374.739	442.88
374.965	453.88
375.191	435.88
375.416	455.88
375.642	434.88
375.868	434.88
376.094	434.88
376.319	417.88
376.545	425.88
376.771	431.88
376.997	422.88
377.222	430.88
377.448	420.88
377.674	402.88
377.899	420.88
378.125	436.88
378.35	410.88
378.576	434.88
378.802	426.88
379.027	400.88
379.253	405.88
379.478	409.88
379.704	409.88
379.929	424.88
380.155	426.88
380.38	418.88
380.606	406.88
380.831	414.88
381.057	415.88
381.282	418.88
381.507	435.88
381.733	429.88
381.958	443.88
382.184	424.88
382.409	414.88
382.634	435.88
382.86	418.88
383.085	452.88
383.31	445.88
383.535	453.88
383.761	447.88
383.986	470.88
384.211	462.88
384.436	464.88
384.662	470.88
384.887	491.88
385.112	469.88
385.337	478.88
385.562	483.88
385.787	495.88
386.013	462.88
386.238	486.88
386.463	489.88
386.688	490.88
386.913	468.88
387.138	484.88
387.363	469.88
387.588	474.88
387.813	478.88
388.038	475.88
388.263	494.88
388.488	477.88
388.713	446.88
388.938	473.88
389.163	451.88
389.387	473.88
389.612	484.88
389.837	461.88
390.062	465.88
390.287	464.88
390.512	482.88
390.736	470.88
390.961	464.88
391.186	496.88
391.411	491.88
391.636	487.88
391.86	507.88
392.085	520.88
392.31	524.88
392.534	542.88
392.759	488.88
392.984	494.88
393.208	511.88
393.433	486.88
393.658	506.88
393.882	492.88
394.107	510.88
394.331	501.88
394.556	494.88
394.78	490.88
395.005	525.88
395.229	501.88
395.454	512.88
395.678	519.88
395.903	528.88
396.127	534.88
396.352	532.88
396.576	496.88
396.801	484.88
397.025	495.88
397.249	508.88
397.474	514.88
397.698	530.88
397.922	532.88
398.147	536.88
398.371	566.88
398.595	566.88
398.82	563.88
399.044	621.88
399.268	626.88
399.492	698.88
399.717	764.88
399.941	775.88
400.165	713.88
400.389	676.88
400.613	639.88
400.837	594.88
401.062	599.88
401.286	602.88
401.51	564.88
401.734	565.88
401.958	566.88
402.182	587.88
402.406	603.88
402.63	620.88
402.854	617.88
403.078	601.88
403.302	614.88
403.526	617.88
403.75	643.88
403.974	641.88
404.198	642.88
404.422	631.88
404.645	622.88
404.869	630.88
405.093	635.88
405.317	680.88
405.541	664.88
405.765	654.88
405.988	623.88
406.212	614.88
406.436	637.88
406.66	668.88
406.883	638.88
407.107	659.88
407.331	713.88
407.555	762.88
407.778	758.88
408.002	718.88
408.226	700.88
408.449	664.88
408.673	668.88
408.896	642.88
409.12	703.88
409.344	680.88
409.567	611.88
409.791	597.88
410.014	576.88
410.238	597.88
410.461	600.88
410.685	608.88
410.908	596.88
411.132	590.88
411.355	636.88
411.578	628.88
411.802	584.88
412.025	591.88
412.249	612.88
412.472	616.88
412.695	639.88
412.919	611.88
413.142	582.88
413.365	564.88
413.589	584.88
413.812	548.88
414.035	559.88
414.258	569.88
414.482	543.88
414.705	544.88
414.928	571.88
415.151	560.88
415.374	546.88
415.597	552.88
415.821	549.88
416.044	536.88
416.267	535.88
416.49	559.88
416.713	580.88
416.936	574.88
417.159	545.88
417.382	587.88
417.605	559.88
417.828	566.88
418.051	596.88
418.274	578.88
418.497	565.88
418.72	568.88
418.943	580.88
419.166	615.88
419.389	612.88
419.611	595.88
419.834	592.88
420.057	593.88
420.28	574.88
420.503	574.88
420.726	578.88
420.948	575.88
421.171	611.88
421.394	619.88
421.617	596.88
421.839	589.88
422.062	584.88
422.285	582.88
422.507	610.88
422.73	649.88
422.953	657.88
423.175	604.88
423.398	609.88
423.621	582.88
423.843	610.88
424.066	631.88
424.288	610.88
424.511	598.88
424.733	634.88
424.956	678.88
425.178	663.88
425.401	670.88
425.623	666.88
425.846	613.88
426.068	576.88
426.291	572.88
426.513	575.88
426.735	544.88
426.958	610.88
427.18	650.88
427.402	712.88
427.625	764.88
427.847	675.88
428.069	634.88
428.292	574.88
428.514	529.88
428.736	532.88
428.958	545.88
429.181	527.88
429.403	505.88
429.625	531.88
429.847	528.88
430.069	575.88
430.292	552.88
430.514	537.88
430.736	526.88
430.958	516.88
431.18	539.88
431.402	518.88
431.624	494.88
431.846	527.88
432.068	489.88
432.29	521.88
432.512	523.88
432.734	522.88
432.956	527.88
433.178	512.88
433.4	527.88
433.622	544.88
433.844	530.88
434.066	508.88
434.287	503.88
434.509	552.88
434.731	536.88
434.953	580.88
435.175	577.88
435.397	548.88
435.618	562.88
435.84	580.88
436.062	623.88
436.284	686.88
436.505	584.88
436.727	538.88
436.949	522.88
437.17	526.88
437.392	517.88
437.614	519.88
437.835	525.88
438.057	602.88
438.278	643.88
438.5	640.88
438.721	698.88
438.943	672.88
439.165	568.88
439.386	555.88
439.608	550.88
439.829	547.88
440.05	566.88
440.272	598.88
440.493	587.88
440.715	535.88
440.936	534.88
441.158	559.88
441.379	551.88
441.6	566.88
441.822	565.88
442.043	600.88
442.264	651.88
442.486	667.88
442.707	587.88
442.928	573.88
443.149	586.88
443.371	616.88
443.592	612.88
443.813	682.88
444.034	722.88
444.255	645.88
444.476	624.88
444.698	606.88
444.919	647.88
445.14	739.88
445.361	654.88
445.582	600.88
445.803	624.88
446.024	674.88
446.245	654.88
446.466	635.88
446.687	571.88
446.908	532.88
447.129	514.88
447.35	509.88
447.571	532.88
447.792	493.88
448.013	507.88
448.234	518.88
448.455	532.88
448.675	606.88
448.896	680.88
449.117	561.88
449.338	570.88
449.559	615.88
449.779	712.88
450	582.88
450.221	494.88
450.442	507.88
450.662	498.88
450.883	488.88
451.104	496.88
451.324	500.88
451.545	488.88
451.766	476.88
451.986	443.88
452.207	471.88
452.428	463.88
452.648	459.88
452.869	458.88
453.089	488.88
453.31	478.88
453.53	457.88
453.751	466.88
453.971	455.88
454.192	475.88
454.412	443.88
454.633	445.88
454.853	451.88
455.073	421.88
455.294	454.88
455.514	488.88
455.734	495.88
455.955	446.88
456.175	433.88
456.395	419.88
456.616	439.88
456.836	443.88
457.056	417.88
457.276	440.88
457.497	447.88
457.717	432.88
457.937	435.88
458.157	446.88
458.377	456.88
458.598	470.88
458.818	507.88
459.038	568.88
459.258	570.88
459.478	508.88
459.698	483.88
459.918	500.88
460.138	497.88
460.358	522.88
460.578	523.88
460.798	575.88
461.018	555.88
461.238	567.88
461.458	551.88
461.678	548.88
461.898	567.88
462.118	543.88
462.338	602.88
462.558	586.88
462.777	602.88
462.997	630.88
463.217	674.88
463.437	678.88
463.657	650.88
463.876	620.88
464.096	604.88
464.316	607.88
464.536	630.88
464.755	602.88
464.975	597.88
465.195	594.88
465.414	627.88
465.634	551.88
465.854	531.88
466.073	517.88
466.293	502.88
466.512	480.88
466.732	490.88
466.951	498.88
467.171	478.88
467.391	513.88
467.61	481.88
467.829	492.88
468.049	487.88
468.268	484.88
468.488	500.88
468.707	467.88
468.927	483.88
469.146	458.88
469.365	454.88
469.585	487.88
469.804	472.88
470.023	483.88
470.243	479.88
470.462	506.88
470.681	518.88
470.901	505.88
471.12	490.88
471.339	499.88
471.558	489.88
471.777	478.88
471.997	482.88
472.216	496.88
472.435	499.88
472.654	486.88
472.873	461.88
473.092	471.88
473.311	457.88
473.53	483.88
473.749	480.88
473.968	499.88
474.187	529.88
474.406	530.88
474.625	479.88
474.844	466.88
475.063	466.88
475.282	459.88
475.501	446.88
475.72	482.88
475.939	461.88
476.158	479.88
476.377	479.88
476.596	469.88
476.814	478.88
477.033	500.88
477.252	524.88
477.471	511.88
477.69	514.88
477.908	535.88
478.127	539.88
478.346	530.88
478.564	548.88
478.783	549.88
479.002	575.88
479.22	553.88
479.439	578.88
479.658	580.88
479.876	587.88
480.095	578.88
480.313	619.88
480.532	626.88
480.751	593.88
480.969	605.88
481.188	608.88
481.406	612.88
481.624	586.88
481.843	557.88
482.061	535.88
482.28	537.88
482.498	539.88
482.717	557.88
482.935	554.88
483.153	547.88
483.372	532.88
483.59	550.88
483.808	530.88
484.027	552.88
484.245	528.88
484.463	552.88
484.681	558.88
484.9	557.88
485.118	558.88
485.336	559.88
485.554	554.88
485.772	553.88
485.99	569.88
486.209	582.88
486.427	577.88
486.645	601.88
486.863	606.88
487.081	576.88
487.299	578.88
487.517	586.88
487.735	561.88
487.953	550.88
488.171	575.88
488.389	569.88
488.607	585.88
488.825	579.88
489.043	562.88
489.261	587.88
489.479	582.88
489.696	568.88
489.914	579.88
490.132	601.88
490.35	595.88
490.568	599.88
490.786	598.88
491.003	613.88
491.221	621.88
491.439	603.88
491.657	638.88
491.874	615.88
492.092	647.88
492.31	650.88
492.527	627.88
492.745	643.88
492.963	660.88
493.18	633.88
493.398	665.88
493.615	686.88
493.833	674.88
494.05	681.88
494.268	661.88
494.485	659.88
494.703	682.88
494.92	690.88
495.138	650.88
495.355	677.88
495.573	663.88
495.79	657.88
496.008	663.88
496.225	646.88
496.442	649.88
496.66	657.88
496.877	657.88
497.094	678.88
497.312	695.88
497.529	698.88
497.746	701.88
497.963	711.88
498.181	751.88
498.398	761.88
498.615	780.88
498.832	802.88
499.049	849.88
499.267	889.88
499.484	962.88
499.701	1010.88
499.918	1076.88
500.135	1163.88
500.352	1246.88
500.569	1332.88
500.786	1314.88
501.003	1269.88
501.22	1138.88
501.437	1103.88
501.654	1018.88
501.871	954.88
502.088	901.88
502.305	834.88
502.522	824.88
502.739	786.88
502.956	768.88
503.172	723.88
503.389	714.88
503.606	674.88
503.823	705.88
504.04	684.88
504.256	694.88
504.473	692.88
504.69	715.88
504.907	703.88
505.123	664.88
505.34	635.88
505.557	631.88
505.773	621.88
505.99	618.88
506.207	618.88
506.423	614.88
506.64	595.88
506.856	586.88
507.073	591.88
507.289	599.88
507.506	571.88
507.722	580.88
507.939	591.88
508.155	585.88
508.372	580.88
508.588	552.88
508.805	559.88
509.021	540.88
509.238	578.88
509.454	579.88
509.67	582.88
509.887	554.88
510.103	561.88
510.319	554.88
510.536	617.88
510.752	883.88
510.968	719.88
511.184	542.88
511.401	563.88
511.617	535.88
511.833	530.88
512.049	515.88
512.265	534.88
512.481	526.88
512.698	499.88
512.914	524.88
513.13	531.88
513.346	513.88
513.562	539.88
513.778	533.88
513.994	539.88
514.21	523.88
514.426	554.88
514.642	560.88
514.858	568.88
515.074	600.88
515.29	686.88
515.506	901.88
515.721	800.88
515.937	613.88
516.153	585.88
516.369	599.88
516.585	583.88
516.801	582.88
517.016	590.88
517.232	635.88
517.448	636.88
517.664	633.88
517.879	647.88
518.095	628.88
518.311	652.88
518.527	614.88
518.742	588.88
518.958	590.88
519.173	550.88
519.389	575.88
519.605	567.88
519.82	551.88
520.036	574.88
520.251	555.88
520.467	583.88
520.682	555.88
520.898	567.88
521.113	550.88
521.329	577.88
521.544	609.88
521.76	715.88
521.975	1093.88
522.19	1092.88
522.406	678.88
522.621	549.88
522.836	525.88
523.052	546.88
523.267	493.88
523.482	460.88
523.698	478.88
523.913	489.88
524.128	497.88
524.343	492.88
524.559	488.88
524.774	472.88
524.989	462.88
525.204	470.88
525.419	455.88
525.634	473.88
525.849	462.88
526.064	467.88
526.28	462.88
526.495	464.88
526.71	458.88
526.925	456.88
527.14	453.88
527.355	475.88
527.57	463.88
527.785	441.88
527.999	434.88
528.214	463.88
528.429	468.88
528.644	449.88
528.859	450.88
529.074	455.88
529.289	477.88
529.503	512.88
529.718	500.88
529.933	468.88
530.148	460.88
530.363	441.88
530.577	471.88
530.792	441.88
531.007	458.88
531.221	463.88
531.436	471.88
531.651	447.88
531.865	437.88
532.08	434.88
532.295	450.88
532.509	429.88
532.724	438.88
532.938	455.88
533.153	457.88
533.367	429.88
533.582	463.88
533.796	436.88
534.011	440.88
534.225	447.88
534.44	439.88
534.654	439.88
534.868	454.88
535.083	434.88
535.297	439.88
535.511	426.88
535.726	443.88
535.94	465.88
536.154	444.88
536.369	429.88
536.583	424.88
536.797	403.88
537.011	414.88
537.225	411.88
537.44	418.88
537.654	411.88
537.868	420.88
538.082	426.88
538.296	425.88
538.51	431.88
538.724	415.88
538.938	396.88
539.153	422.88
539.367	430.88
539.581	421.88
539.795	419.88
540.009	398.88
540.222	400.88
540.436	407.88
540.65	431.88
540.864	434.88
541.078	436.88
541.292	425.88
541.506	423.88
541.72	428.88
541.934	429.88
542.147	428.88
542.361	405.88
542.575	436.88
542.789	418.88
543.002	420.88
543.216	414.88
543.43	422.88
543.644	426.88
543.857	423.88
544.071	414.88
544.285	425.88
544.498	435.88
544.712	408.88
544.925	423.88
545.139	404.88
545.352	412.88
545.566	426.88
545.779	424.88
545.993	415.88
546.206	408.88
546.42	403.88
546.633	424.88
546.847	452.88
547.06	424.88
547.274	425.88
547.487	412.88
547.7	415.88
547.914	418.88
548.127	427.88
548.34	411.88
548.554	442.88
548.767	434.88
548.98	420.88
549.193	433.88
549.407	439.88
549.62	422.88
549.833	411.88
550.046	407.88
550.259	407.88
550.473	442.88
550.686	431.88
550.899	420.88
551.112	430.88
551.325	414.88
551.538	422.88
551.751	409.88
551.964	415.88
552.177	420.88
552.39	416.88
552.603	427.88
552.816	419.88
553.029	443.88
553.242	450.88
553.455	453.88
553.667	430.88
553.88	448.88
554.093	435.88
554.306	450.88
554.519	419.88
554.732	439.88
554.944	416.88
555.157	405.88
555.37	409.88
555.583	399.88
555.795	407.88
556.008	403.88
556.221	380.88
556.433	368.88
556.646	384.88
556.859	373.88
557.071	390.88
557.284	371.88
557.496	375.88
557.709	383.88
557.921	379.88
558.134	382.88
558.346	352.88
558.559	373.88
558.771	368.88
558.984	363.88
559.196	369.88
559.409	357.88
559.621	364.88
559.833	370.88
560.046	360.88
560.258	363.88
560.47	371.88
560.683	363.88
560.895	365.88
561.107	355.88
561.32	354.88
561.532	362.88
561.744	364.88
561.956	350.88
562.168	345.88
562.381	382.88
562.593	352.88
562.805	360.88
563.017	370.88
563.229	351.88
563.441	388.88
563.653	374.88
563.865	362.88
564.077	385.88
564.289	379.88
564.501	375.88
564.713	381.88
564.925	377.88
565.137	399.88
565.349	402.88
565.561	414.88
565.773	408.88
565.985	435.88
566.197	432.88
566.408	472.88
566.62	499.88
566.832	508.88
567.044	508.88
567.255	534.88
567.467	541.88
567.679	563.88
567.891	584.88
568.102	590.88
568.314	555.88
568.526	543.88
568.737	462.88
568.949	465.88
569.161	430.88
569.372	409.88
569.584	411.88
569.795	396.88
570.007	385.88
570.218	407.88
570.43	388.88
570.641	364.88
570.853	359.88
571.064	352.88
571.276	351.88
571.487	376.88
571.698	351.88
571.91	337.88
572.121	338.88
572.333	329.88
572.544	322.88
572.755	327.88
572.966	321.88
573.178	322.88
573.389	321.88
573.6	311.88
573.811	320.88
574.023	297.88
574.234	305.88
574.445	311.88
574.656	311.88
574.867	284.88
575.078	307.88
575.289	306.88
575.501	318.88
575.712	308.88
575.923	311.88
576.134	327.88
576.345	322.88
576.556	307.88
576.767	305.88
576.978	305.88
577.188	309.88
577.399	275.88
577.61	320.88
577.821	296.88
578.032	295.88
578.243	320.88
578.454	425.88
578.665	339.88
578.875	299.88
579.086	294.88
579.297	282.88
579.508	296.88
579.718	289.88
579.929	271.88
580.14	273.88
580.35	295.88
580.561	266.88
580.772	279.88
580.982	281.88
581.193	290.88
581.403	286.88
581.614	267.88
581.825	280.88
582.035	272.88
582.246	283.88
582.456	284.88
582.667	280.88
582.877	274.88
583.087	278.88
583.298	272.88
583.508	259.88
583.719	259.88
583.929	292.88
584.139	281.88
584.35	269.88
584.56	276.88
584.77	277.88
584.981	267.88
585.191	269.88
585.401	267.88
585.611	276.88
585.821	270.88
586.032	275.88
586.242	262.88
586.452	265.88
586.662	278.88
586.872	255.88
587.082	264.88
587.292	278.88
587.502	270.88
587.713	268.88
587.923	288.88
588.133	262.88
588.343	248.88
588.553	289.88
588.762	267.88
588.972	268.88
589.182	316.88
589.392	280.88
589.602	286.88
589.812	317.88
590.022	287.88
590.232	273.88
590.441	274.88
590.651	279.88
590.861	259.88
591.071	271.88
591.281	268.88
591.49	269.88
591.7	282.88
591.91	270.88
592.119	292.88
592.329	297.88
592.539	311.88
592.748	311.88
592.958	304.88
593.167	304.88
593.377	313.88
593.587	326.88
593.796	322.88
594.006	313.88
594.215	335.88
594.424	322.88
594.634	339.88
594.843	311.88
595.053	294.88
595.262	281.88
595.472	283.88
595.681	286.88
595.89	269.88
596.1	272.88
596.309	281.88
596.518	250.88
596.727	258.88
596.937	245.88
597.146	251.88
597.355	260.88
597.564	224.88
597.774	256.88
597.983	242.88
598.192	235.88
598.401	236.88
598.61	237.88
598.819	231.88
599.028	249.88
599.237	234.88
599.446	252.88
599.655	230.88
599.864	259.88
600.073	240.88
600.282	241.88
600.491	250.88
600.7	234.88
600.909	240.88
601.118	242.88
601.327	223.88
601.536	242.88
601.745	227.88
601.953	241.88
602.162	236.88
602.371	228.88
602.58	250.88
602.789	245.88
602.997	234.88
603.206	239.88
603.415	222.88
603.623	246.88
603.832	224.88
604.041	227.88
604.249	217.88
604.458	240.88
604.666	238.88
604.875	211.88
605.084	234.88
605.292	216.88
605.501	227.88
605.709	226.88
605.918	228.88
606.126	233.88
606.334	235.88
606.543	230.88
606.751	223.88
606.96	219.88
607.168	206.88
607.376	207.88
607.585	207.88
607.793	224.88
608.001	231.88
608.21	220.88
608.418	220.88
608.626	245.88
608.834	235.88
609.043	216.88
609.251	220.88
609.459	212.88
609.667	241.88
609.875	233.88
610.083	225.88
610.291	218.88
610.499	226.88
610.707	211.88
610.916	225.88
611.124	234.88
611.332	223.88
611.54	223.88
611.748	223.88
611.955	230.88
612.163	230.88
612.371	236.88
612.579	223.88
612.787	217.88
612.995	216.88
613.203	221.88
613.411	226.88
613.618	210.88
613.826	214.88
614.034	207.88
614.242	210.88
614.449	206.88
614.657	213.88
614.865	200.88
615.072	222.88
615.28	229.88
615.488	214.88
615.695	212.88
615.903	224.88
616.111	224.88
616.318	224.88
616.526	214.88
616.733	228.88
616.941	222.88
617.148	230.88
617.356	209.88
617.563	210.88
617.771	222.88
617.978	215.88
618.185	228.88
618.393	215.88
618.6	209.88
618.807	225.88
619.015	219.88
619.222	230.88
619.429	215.88
619.637	197.88
619.844	225.88
620.051	208.88
620.258	222.88
620.466	185.88
620.673	210.88
620.88	204.88
621.087	193.88
621.294	201.88
621.501	200.88
621.708	197.88
621.915	219.88
622.122	193.88
622.329	206.88
622.536	194.88
622.743	201.88
622.95	207.88
623.157	198.88
623.364	196.88
623.571	213.88
623.778	192.88
623.985	190.88
624.192	210.88
624.399	191.88
624.606	200.88
624.812	201.88
625.019	202.88
625.226	188.88
625.433	202.88
625.639	207.88
625.846	186.88
626.053	199.88
626.259	198.88
626.466	198.88
626.673	200.88
626.879	189.88
627.086	200.88
627.293	195.88
627.499	193.88
627.706	195.88
627.912	194.88
628.119	175.88
628.325	190.88
628.532	192.88
628.738	185.88
628.945	187.88
629.151	182.88
629.357	182.88
629.564	182.88
629.77	189.88
629.976	187.88
630.183	183.88
630.389	184.88
630.595	188.88
630.802	190.88
631.008	164.88
631.214	198.88
631.42	183.88
631.627	184.88
631.833	179.88
632.039	179.88
632.245	166.88
632.451	195.88
632.657	194.88
632.863	195.88
633.069	176.88
633.275	183.88
633.481	183.88
633.688	169.88
633.893	180.88
634.099	181.88
634.305	155.88
634.511	168.88
634.717	186.88
634.923	177.88
635.129	161.88
635.335	171.88
635.541	175.88
635.747	184.88
635.952	179.88
636.158	152.88
636.364	167.88
636.57	188.88
636.775	172.88
636.981	170.88
637.187	184.88
637.392	174.88
637.598	162.88
637.804	179.88
638.009	174.88
638.215	165.88
638.421	169.88
638.626	171.88
638.832	182.88
639.037	158.88
639.243	152.88
639.448	165.88
639.654	177.88
639.859	166.88
640.065	147.88
640.27	165.88
640.475	168.88
640.681	162.88
640.886	168.88
641.091	176.88
641.297	155.88
641.502	154.88
641.707	164.88
641.913	160.88
642.118	166.88
642.323	178.88
642.528	174.88
642.733	162.88
642.939	158.88
643.144	172.88
643.349	163.88
643.554	162.88
643.759	162.88
643.964	167.88
644.169	164.88
644.374	166.88
644.579	154.88
644.784	162.88
644.989	156.88
645.194	149.88
645.399	150.88
645.604	150.88
645.809	159.88
646.014	155.88
646.219	168.88
646.423	170.88
646.628	161.88
646.833	162.88
647.038	163.88
647.243	148.88
647.447	165.88
647.652	174.88
647.857	164.88
648.062	160.88
648.266	159.88
648.471	161.88
648.676	171.88
648.88	178.88
649.085	164.88
649.289	160.88
649.494	172.88
649.698	176.88
649.903	184.88
650.107	169.88
650.312	148.88
650.516	148.88
650.721	158.88
650.925	151.88
651.13	143.88
651.334	140.88
651.539	155.88
651.743	155.88
651.947	147.88
652.152	138.88
652.356	145.88
652.56	134.88
652.764	149.88
652.969	137.88
653.173	127.88
653.377	129.88
653.581	131.88
653.785	137.88
653.99	147.88
654.194	137.88
654.398	136.88
654.602	134.88
654.806	143.88
655.01	140.88
655.214	137.88
655.418	138.88
655.622	143.88
655.826	130.88
656.03	147.88
656.234	137.88
656.438	150.88
656.642	160.88
656.846	149.88
657.049	134.88
657.253	134.88
657.457	124.88
657.661	124.88
657.865	123.88
658.068	106.88
658.272	121.88
658.476	110.88
658.68	113.88
658.883	110.88
659.087	93.88
659.291	92.88
659.494	94.88
659.698	104.88
659.901	102.88
660.105	113.88
660.309	94.88
660.512	100.88
660.716	89.88
660.919	86.88
661.123	103.88
661.326	101.88
661.53	100.88
661.733	83.88
661.936	91.88
662.14	102.88
662.343	88.88
662.546	110.88
662.75	102.88
662.953	83.88
663.156	77.88
663.36	85.88
663.563	82.88
663.766	81.88
663.969	89.88
664.173	73.88
664.376	72.88
664.579	91.88
664.782	67.88
664.985	66.88
665.188	107.88
665.391	83.88
665.594	94.88
665.797	80.88
666	74.88
666.203	68.88
666.406	90.88
666.609	93.88
666.812	87.88
667.015	84.88
667.218	88.88
667.421	98.88
667.624	90.88
667.827	90.88
668.03	83.88
668.232	89.88
668.435	91.88
668.638	83.88
668.841	95.88
669.043	84.88
669.246	89.88
669.449	84.88
669.651	92.88
669.854	86.88
670.057	89.88
670.259	90.88
670.462	74.88
670.665	95.88
670.867	86.88
671.07	92.88
671.272	82.88
671.475	90.88
671.677	82.88
671.88	69.88
672.082	75.88
672.284	71.88
672.487	80.88
672.689	101.88
672.892	83.88
