Data from 1960PennyLincolnUp.LampE5.5.200Scan.07172019.P1.ChangedAngle_HRD10591_13-14-19-822.txt Node
Date: Thu Jul 18 13:14:19 EDT 2019
User: cochatt
Spectrometer: HR+D1059
Trigger mode: 1
Integration Time (sec): 1.000000E-1
Scans to average: 1
Electric dark correction enabled: true
Nonlinearity correction enabled: false
Boxcar width: 0
XAxis mode: Wavelengths
Number of Pixels in Spectrum: 2048
>>>>>Begin Spectral Data<<<<<
223.165	-16.62
223.4	-16.62
223.635	-16.62
223.869	-25.62
224.104	-2.62
224.338	-10.62
224.573	-24.62
224.808	-10.62
225.042	-3.62
225.277	-12.62
225.511	-9.62
225.746	6.38
225.98	12.38
226.215	13.38
226.449	21.38
226.683	14.38
226.918	12.38
227.152	36.38
227.387	36.38
227.621	42.38
227.856	53.38
228.09	42.38
228.324	50.38
228.559	46.38
228.793	61.38
229.027	87.38
229.262	94.38
229.496	94.38
229.73	109.38
229.964	102.38
230.199	106.38
230.433	99.38
230.667	102.38
230.901	116.38
231.136	110.38
231.37	101.38
231.604	94.38
231.838	96.38
232.072	105.38
232.306	92.38
232.541	108.38
232.775	109.38
233.009	98.38
233.243	103.38
233.477	111.38
233.711	106.38
233.945	109.38
234.179	109.38
234.413	109.38
234.647	115.38
234.881	109.38
235.115	113.38
235.349	112.38
235.583	109.38
235.817	120.38
236.051	94.38
236.285	112.38
236.519	116.38
236.753	117.38
236.987	101.38
237.221	136.38
237.455	156.38
237.689	159.38
237.922	130.38
238.156	126.38
238.39	106.38
238.624	112.38
238.858	119.38
239.091	117.38
239.325	108.38
239.559	107.38
239.793	121.38
240.027	116.38
240.26	102.38
240.494	126.38
240.728	116.38
240.961	124.38
241.195	125.38
241.429	106.38
241.662	123.38
241.896	118.38
242.13	122.38
242.363	134.38
242.597	120.38
242.83	122.38
243.064	119.38
243.298	126.38
243.531	126.38
243.765	131.38
243.998	124.38
244.232	132.38
244.465	128.38
244.699	156.38
244.932	134.38
245.166	130.38
245.399	142.38
245.633	124.38
245.866	143.38
246.099	151.38
246.333	141.38
246.566	134.38
246.8	139.38
247.033	138.38
247.266	123.38
247.5	144.38
247.733	126.38
247.966	152.38
248.2	146.38
248.433	158.38
248.666	154.38
248.899	163.38
249.133	154.38
249.366	170.38
249.599	162.38
249.832	165.38
250.066	147.38
250.299	162.38
250.532	152.38
250.765	160.38
250.998	174.38
251.231	183.38
251.465	191.38
251.698	180.38
251.931	173.38
252.164	171.38
252.397	162.38
252.63	171.38
252.863	183.38
253.096	174.38
253.329	188.38
253.562	157.38
253.795	186.38
254.028	190.38
254.261	174.38
254.494	182.38
254.727	208.38
254.96	210.38
255.193	220.38
255.426	200.38
255.659	188.38
255.892	184.38
256.124	203.38
256.357	185.38
256.59	190.38
256.823	188.38
257.056	190.38
257.289	176.38
257.521	186.38
257.754	174.38
257.987	198.38
258.22	174.38
258.452	177.38
258.685	176.38
258.918	183.38
259.151	180.38
259.383	180.38
259.616	184.38
259.849	210.38
260.081	206.38
260.314	212.38
260.547	216.38
260.779	205.38
261.012	189.38
261.244	181.38
261.477	192.38
261.71	179.38
261.942	190.38
262.175	199.38
262.407	208.38
262.64	198.38
262.872	191.38
263.105	191.38
263.337	198.38
263.57	201.38
263.802	192.38
264.035	188.38
264.267	199.38
264.499	187.38
264.732	192.38
264.964	190.38
265.197	194.38
265.429	185.38
265.661	207.38
265.894	205.38
266.126	187.38
266.358	200.38
266.591	202.38
266.823	213.38
267.055	206.38
267.287	200.38
267.52	190.38
267.752	196.38
267.984	211.38
268.216	207.38
268.448	222.38
268.681	223.38
268.913	206.38
269.145	220.38
269.377	237.38
269.609	240.38
269.841	225.38
270.073	224.38
270.306	242.38
270.538	243.38
270.77	227.38
271.002	247.38
271.234	241.38
271.466	246.38
271.698	256.38
271.93	254.38
272.162	251.38
272.394	269.38
272.626	247.38
272.858	210.38
273.09	214.38
273.322	241.38
273.553	232.38
273.785	237.38
274.017	218.38
274.249	230.38
274.481	236.38
274.713	223.38
274.945	222.38
275.176	227.38
275.408	235.38
275.64	237.38
275.872	254.38
276.104	245.38
276.335	233.38
276.567	233.38
276.799	246.38
277.031	251.38
277.262	251.38
277.494	278.38
277.726	247.38
277.957	252.38
278.189	243.38
278.421	240.38
278.652	237.38
278.884	243.38
279.115	254.38
279.347	249.38
279.579	249.38
279.81	230.38
280.042	236.38
280.273	248.38
280.505	232.38
280.736	239.38
280.968	255.38
281.199	267.38
281.431	258.38
281.662	256.38
281.894	243.38
282.125	252.38
282.356	264.38
282.588	269.38
282.819	256.38
283.051	272.38
283.282	252.38
283.513	243.38
283.745	247.38
283.976	268.38
284.207	256.38
284.439	254.38
284.67	268.38
284.901	270.38
285.132	263.38
285.364	268.38
285.595	252.38
285.826	281.38
286.057	242.38
286.288	250.38
286.52	254.38
286.751	261.38
286.982	262.38
287.213	280.38
287.444	266.38
287.675	259.38
287.906	263.38
288.138	257.38
288.369	268.38
288.6	277.38
288.831	276.38
289.062	271.38
289.293	263.38
289.524	264.38
289.755	270.38
289.986	256.38
290.217	290.38
290.448	269.38
290.679	251.38
290.91	252.38
291.141	266.38
291.371	275.38
291.602	272.38
291.833	265.38
292.064	262.38
292.295	264.38
292.526	273.38
292.757	255.38
292.987	282.38
293.218	272.38
293.449	253.38
293.68	271.38
293.91	272.38
294.141	268.38
294.372	278.38
294.603	285.38
294.833	269.38
295.064	273.38
295.295	278.38
295.525	269.38
295.756	275.38
295.987	281.38
296.217	292.38
296.448	290.38
296.679	293.38
296.909	282.38
297.14	274.38
297.37	292.38
297.601	286.38
297.831	283.38
298.062	303.38
298.292	278.38
298.523	272.38
298.753	290.38
298.984	287.38
299.214	287.38
299.445	297.38
299.675	292.38
299.905	293.38
300.136	279.38
300.366	288.38
300.597	277.38
300.827	288.38
301.057	325.38
301.288	296.38
301.518	283.38
301.748	302.38
301.979	300.38
302.209	311.38
302.439	324.38
302.669	309.38
302.9	290.38
303.13	300.38
303.36	300.38
303.59	311.38
303.82	304.38
304.051	304.38
304.281	306.38
304.511	297.38
304.741	297.38
304.971	302.38
305.201	308.38
305.431	298.38
305.661	308.38
305.891	326.38
306.121	307.38
306.352	294.38
306.582	315.38
306.812	310.38
307.042	325.38
307.272	320.38
307.502	314.38
307.731	309.38
307.961	297.38
308.191	302.38
308.421	304.38
308.651	310.38
308.881	303.38
309.111	309.38
309.341	315.38
309.571	332.38
309.8	325.38
310.03	318.38
310.26	349.38
310.49	326.38
310.72	313.38
310.949	347.38
311.179	342.38
311.409	344.38
311.639	330.38
311.868	335.38
312.098	323.38
312.328	332.38
312.557	343.38
312.787	346.38
313.017	340.38
313.246	355.38
313.476	338.38
313.706	344.38
313.935	332.38
314.165	356.38
314.394	329.38
314.624	340.38
314.853	344.38
315.083	348.38
315.312	356.38
315.542	353.38
315.771	344.38
316.001	341.38
316.23	333.38
316.46	339.38
316.689	337.38
316.919	341.38
317.148	372.38
317.377	354.38
317.607	332.38
317.836	343.38
318.065	358.38
318.295	346.38
318.524	354.38
318.753	349.38
318.983	338.38
319.212	347.38
319.441	350.38
319.67	362.38
319.9	335.38
320.129	324.38
320.358	355.38
320.587	341.38
320.816	337.38
321.046	338.38
321.275	343.38
321.504	352.38
321.733	370.38
321.962	368.38
322.191	354.38
322.42	369.38
322.649	371.38
322.878	374.38
323.108	359.38
323.337	378.38
323.566	402.38
323.795	403.38
324.024	424.38
324.253	492.38
324.482	647.38
324.71	911.38
324.939	1147.38
325.168	1014.38
325.397	564.38
325.626	463.38
325.855	434.38
326.084	402.38
326.313	382.38
326.542	402.38
326.77	435.38
326.999	479.38
327.228	612.38
327.457	800.38
327.686	896.38
327.914	650.38
328.143	486.38
328.372	438.38
328.6	433.38
328.829	423.38
329.058	438.38
329.287	419.38
329.515	416.38
329.744	405.38
329.972	408.38
330.201	400.38
330.43	426.38
330.658	418.38
330.887	424.38
331.115	431.38
331.344	400.38
331.572	395.38
331.801	390.38
332.03	405.38
332.258	405.38
332.486	392.38
332.715	398.38
332.943	394.38
333.172	389.38
333.4	419.38
333.629	401.38
333.857	441.38
334.085	435.38
334.314	424.38
334.542	438.38
334.771	439.38
334.999	415.38
335.227	418.38
335.455	422.38
335.684	385.38
335.912	393.38
336.14	407.38
336.369	409.38
336.597	401.38
336.825	396.38
337.053	400.38
337.281	404.38
337.51	395.38
337.738	404.38
337.966	402.38
338.194	397.38
338.422	408.38
338.65	368.38
338.878	390.38
339.106	388.38
339.334	365.38
339.562	405.38
339.79	392.38
340.018	380.38
340.246	389.38
340.474	374.38
340.702	383.38
340.93	372.38
341.158	368.38
341.386	378.38
341.614	370.38
341.842	383.38
342.07	369.38
342.298	372.38
342.526	372.38
342.754	348.38
342.981	355.38
343.209	365.38
343.437	376.38
343.665	383.38
343.893	399.38
344.12	407.38
344.348	384.38
344.576	403.38
344.804	372.38
345.031	402.38
345.259	380.38
345.487	386.38
345.714	375.38
345.942	361.38
346.17	377.38
346.397	356.38
346.625	361.38
346.853	351.38
347.08	347.38
347.308	354.38
347.535	380.38
347.763	344.38
347.99	374.38
348.218	351.38
348.445	351.38
348.673	366.38
348.9	360.38
349.128	351.38
349.355	350.38
349.583	356.38
349.81	371.38
350.037	357.38
350.265	341.38
350.492	338.38
350.72	337.38
350.947	357.38
351.174	358.38
351.402	368.38
351.629	363.38
351.856	370.38
352.083	348.38
352.311	355.38
352.538	352.38
352.765	364.38
352.992	340.38
353.22	354.38
353.447	360.38
353.674	335.38
353.901	363.38
354.128	330.38
354.355	329.38
354.583	351.38
354.81	341.38
355.037	331.38
355.264	331.38
355.491	320.38
355.718	348.38
355.945	333.38
356.172	327.38
356.399	358.38
356.626	364.38
356.853	331.38
357.08	349.38
357.307	321.38
357.534	336.38
357.761	338.38
357.988	351.38
358.215	350.38
358.441	338.38
358.668	344.38
358.895	335.38
359.122	356.38
359.349	333.38
359.576	337.38
359.802	340.38
360.029	362.38
360.256	376.38
360.483	356.38
360.709	356.38
360.936	361.38
361.163	361.38
361.39	342.38
361.616	350.38
361.843	331.38
362.07	338.38
362.296	350.38
362.523	332.38
362.749	348.38
362.976	343.38
363.203	354.38
363.429	344.38
363.656	342.38
363.882	358.38
364.109	337.38
364.335	354.38
364.562	337.38
364.788	340.38
365.015	331.38
365.241	327.38
365.468	340.38
365.694	332.38
365.92	355.38
366.147	320.38
366.373	336.38
366.599	325.38
366.826	335.38
367.052	346.38
367.278	332.38
367.505	322.38
367.731	345.38
367.957	330.38
368.184	327.38
368.41	347.38
368.636	356.38
368.862	350.38
369.089	324.38
369.315	337.38
369.541	334.38
369.767	348.38
369.993	347.38
370.219	342.38
370.445	335.38
370.672	334.38
370.898	332.38
371.124	330.38
371.35	337.38
371.576	343.38
371.802	343.38
372.028	340.38
372.254	347.38
372.48	348.38
372.706	347.38
372.932	334.38
373.158	333.38
373.384	342.38
373.61	339.38
373.835	349.38
374.061	336.38
374.287	367.38
374.513	336.38
374.739	345.38
374.965	364.38
375.191	335.38
375.416	348.38
375.642	355.38
375.868	348.38
376.094	353.38
376.319	348.38
376.545	334.38
376.771	338.38
376.997	338.38
377.222	327.38
377.448	348.38
377.674	350.38
377.899	328.38
378.125	340.38
378.35	332.38
378.576	340.38
378.802	347.38
379.027	340.38
379.253	345.38
379.478	333.38
379.704	330.38
379.929	331.38
380.155	319.38
380.38	350.38
380.606	347.38
380.831	335.38
381.057	340.38
381.282	330.38
381.507	334.38
381.733	348.38
381.958	335.38
382.184	344.38
382.409	341.38
382.634	347.38
382.86	348.38
383.085	362.38
383.31	351.38
383.535	352.38
383.761	347.38
383.986	347.38
384.211	344.38
384.436	347.38
384.662	359.38
384.887	384.38
385.112	361.38
385.337	344.38
385.562	354.38
385.787	354.38
386.013	380.38
386.238	394.38
386.463	369.38
386.688	358.38
386.913	351.38
387.138	366.38
387.363	365.38
387.588	361.38
387.813	351.38
388.038	368.38
388.263	342.38
388.488	360.38
388.713	361.38
388.938	374.38
389.163	380.38
389.387	344.38
389.612	366.38
389.837	362.38
390.062	349.38
390.287	357.38
390.512	359.38
390.736	350.38
390.961	368.38
391.186	356.38
391.411	350.38
391.636	363.38
391.86	368.38
392.085	368.38
392.31	361.38
392.534	362.38
392.759	369.38
392.984	360.38
393.208	383.38
393.433	368.38
393.658	378.38
393.882	376.38
394.107	355.38
394.331	358.38
394.556	360.38
394.78	378.38
395.005	370.38
395.229	355.38
395.454	375.38
395.678	365.38
395.903	376.38
396.127	407.38
396.352	388.38
396.576	389.38
396.801	378.38
397.025	372.38
397.249	377.38
397.474	383.38
397.698	387.38
397.922	383.38
398.147	385.38
398.371	409.38
398.595	408.38
398.82	406.38
399.044	408.38
399.268	419.38
399.492	450.38
399.717	490.38
399.941	478.38
400.165	509.38
400.389	474.38
400.613	422.38
400.837	425.38
401.062	433.38
401.286	432.38
401.51	396.38
401.734	408.38
401.958	400.38
402.182	423.38
402.406	406.38
402.63	420.38
402.854	419.38
403.078	411.38
403.302	418.38
403.526	437.38
403.75	407.38
403.974	402.38
404.198	400.38
404.422	401.38
404.645	412.38
404.869	412.38
405.093	432.38
405.317	459.38
405.541	501.38
405.765	456.38
405.988	447.38
406.212	463.38
406.436	422.38
406.66	452.38
406.883	436.38
407.107	463.38
407.331	476.38
407.555	508.38
407.778	519.38
408.002	472.38
408.226	440.38
408.449	440.38
408.673	440.38
408.896	464.38
409.12	459.38
409.344	475.38
409.567	442.38
409.791	438.38
410.014	413.38
410.238	418.38
410.461	400.38
410.685	412.38
410.908	430.38
411.132	438.38
411.355	459.38
411.578	430.38
411.802	411.38
412.025	415.38
412.249	428.38
412.472	407.38
412.695	436.38
412.919	427.38
413.142	397.38
413.365	404.38
413.589	412.38
413.812	400.38
414.035	395.38
414.258	395.38
414.482	411.38
414.705	390.38
414.928	388.38
415.151	376.38
415.374	385.38
415.597	404.38
415.821	390.38
416.044	390.38
416.267	390.38
416.49	394.38
416.713	384.38
416.936	387.38
417.159	388.38
417.382	386.38
417.605	385.38
417.828	399.38
418.051	397.38
418.274	387.38
418.497	366.38
418.72	384.38
418.943	395.38
419.166	386.38
419.389	422.38
419.611	409.38
419.834	396.38
420.057	397.38
420.28	414.38
420.503	384.38
420.726	381.38
420.948	397.38
421.171	435.38
421.394	429.38
421.617	395.38
421.839	404.38
422.062	381.38
422.285	386.38
422.507	428.38
422.73	465.38
422.953	469.38
423.175	409.38
423.398	413.38
423.621	412.38
423.843	402.38
424.066	412.38
424.288	409.38
424.511	412.38
424.733	448.38
424.956	506.38
425.178	491.38
425.401	486.38
425.623	499.38
425.846	436.38
426.068	418.38
426.291	407.38
426.513	390.38
426.735	422.38
426.958	449.38
427.18	452.38
427.402	548.38
427.625	595.38
427.847	528.38
428.069	462.38
428.292	421.38
428.514	403.38
428.736	386.38
428.958	392.38
429.181	372.38
429.403	369.38
429.625	383.38
429.847	409.38
430.069	432.38
430.292	452.38
430.514	396.38
430.736	382.38
430.958	378.38
431.18	375.38
431.402	358.38
431.624	381.38
431.846	378.38
432.068	367.38
432.29	382.38
432.512	374.38
432.734	363.38
432.956	358.38
433.178	390.38
433.4	379.38
433.622	374.38
433.844	372.38
434.066	367.38
434.287	358.38
434.509	390.38
434.731	377.38
434.953	368.38
435.175	378.38
435.397	372.38
435.618	390.38
435.84	426.38
436.062	518.38
436.284	520.38
436.505	449.38
436.727	418.38
436.949	365.38
437.17	379.38
437.392	365.38
437.614	369.38
437.835	407.38
438.057	451.38
438.278	505.38
438.5	497.38
438.721	552.38
438.943	547.38
439.165	434.38
439.386	412.38
439.608	407.38
439.829	408.38
440.05	398.38
440.272	433.38
440.493	418.38
440.715	401.38
440.936	384.38
441.158	372.38
441.379	393.38
441.6	430.38
441.822	413.38
442.043	431.38
442.264	469.38
442.486	510.38
442.707	426.38
442.928	389.38
443.149	396.38
443.371	419.38
443.592	457.38
443.813	507.38
444.034	539.38
444.255	451.38
444.476	407.38
444.698	400.38
444.919	424.38
445.14	519.38
445.361	459.38
445.582	440.38
445.803	444.38
446.024	518.38
446.245	526.38
446.466	461.38
446.687	429.38
446.908	407.38
447.129	402.38
447.35	378.38
447.571	375.38
447.792	361.38
448.013	367.38
448.234	390.38
448.455	417.38
448.675	498.38
448.896	532.38
449.117	447.38
449.338	437.38
449.559	507.38
449.779	566.38
450	455.38
450.221	393.38
450.442	372.38
450.662	378.38
450.883	357.38
451.104	369.38
451.324	365.38
451.545	340.38
451.766	348.38
451.986	342.38
452.207	331.38
452.428	328.38
452.648	349.38
452.869	339.38
453.089	341.38
453.31	352.38
453.53	331.38
453.751	335.38
453.971	348.38
454.192	362.38
454.412	355.38
454.633	348.38
454.853	328.38
455.073	308.38
455.294	359.38
455.514	382.38
455.734	389.38
455.955	348.38
456.175	327.38
456.395	330.38
456.616	326.38
456.836	328.38
457.056	329.38
457.276	324.38
457.497	322.38
457.717	333.38
457.937	331.38
458.157	329.38
458.377	331.38
458.598	354.38
458.818	372.38
459.038	397.38
459.258	402.38
459.478	379.38
459.698	367.38
459.918	357.38
460.138	345.38
460.358	368.38
460.578	400.38
460.798	374.38
461.018	382.38
461.238	384.38
461.458	348.38
461.678	367.38
461.898	376.38
462.118	380.38
462.338	374.38
462.558	389.38
462.777	394.38
462.997	403.38
463.217	425.38
463.437	415.38
463.657	400.38
463.876	396.38
464.096	402.38
464.316	419.38
464.536	412.38
464.755	400.38
464.975	409.38
465.195	393.38
465.414	426.38
465.634	393.38
465.854	370.38
466.073	366.38
466.293	355.38
466.512	355.38
466.732	348.38
466.951	365.38
467.171	364.38
467.391	370.38
467.61	358.38
467.829	359.38
468.049	360.38
468.268	362.38
468.488	337.38
468.707	351.38
468.927	349.38
469.146	345.38
469.365	343.38
469.585	340.38
469.804	347.38
470.023	356.38
470.243	357.38
470.462	378.38
470.681	362.38
470.901	360.38
471.12	335.38
471.339	353.38
471.558	361.38
471.777	362.38
471.997	346.38
472.216	365.38
472.435	378.38
472.654	359.38
472.873	348.38
473.092	366.38
473.311	354.38
473.53	365.38
473.749	359.38
473.968	383.38
474.187	460.38
474.406	428.38
474.625	393.38
474.844	362.38
475.063	340.38
475.282	360.38
475.501	355.38
475.72	358.38
475.939	364.38
476.158	377.38
476.377	375.38
476.596	391.38
476.814	376.38
477.033	377.38
477.252	379.38
477.471	387.38
477.69	387.38
477.908	404.38
478.127	368.38
478.346	391.38
478.564	391.38
478.783	394.38
479.002	390.38
479.22	426.38
479.439	409.38
479.658	384.38
479.876	427.38
480.095	427.38
480.313	436.38
480.532	422.38
480.751	413.38
480.969	426.38
481.188	429.38
481.406	456.38
481.624	430.38
481.843	414.38
482.061	436.38
482.28	399.38
482.498	432.38
482.717	429.38
482.935	421.38
483.153	419.38
483.372	412.38
483.59	427.38
483.808	418.38
484.027	413.38
484.245	420.38
484.463	428.38
484.681	429.38
484.9	428.38
485.118	430.38
485.336	418.38
485.554	418.38
485.772	429.38
485.99	424.38
486.209	430.38
486.427	425.38
486.645	434.38
486.863	428.38
487.081	427.38
487.299	438.38
487.517	436.38
487.735	414.38
487.953	458.38
488.171	438.38
488.389	444.38
488.607	436.38
488.825	435.38
489.043	422.38
489.261	437.38
489.479	446.38
489.696	455.38
489.914	446.38
490.132	453.38
490.35	437.38
490.568	448.38
490.786	456.38
491.003	475.38
491.221	471.38
491.439	486.38
491.657	483.38
491.874	490.38
492.092	461.38
492.31	466.38
492.527	477.38
492.745	462.38
492.963	482.38
493.18	473.38
493.398	491.38
493.615	494.38
493.833	478.38
494.05	498.38
494.268	475.38
494.485	490.38
494.703	502.38
494.92	492.38
495.138	486.38
495.355	506.38
495.573	488.38
495.79	497.38
496.008	500.38
496.225	515.38
496.442	527.38
496.66	509.38
496.877	508.38
497.094	482.38
497.312	516.38
497.529	507.38
497.746	512.38
497.963	540.38
498.181	555.38
498.398	548.38
498.615	565.38
498.832	584.38
499.049	598.38
499.267	616.38
499.484	626.38
499.701	633.38
499.918	674.38
500.135	710.38
500.352	732.38
500.569	726.38
500.786	754.38
501.003	725.38
501.22	702.38
501.437	664.38
501.654	636.38
501.871	636.38
502.088	608.38
502.305	608.38
502.522	604.38
502.739	582.38
502.956	548.38
503.172	548.38
503.389	543.38
503.606	538.38
503.823	516.38
504.04	525.38
504.256	516.38
504.473	512.38
504.69	514.38
504.907	502.38
505.123	492.38
505.34	500.38
505.557	464.38
505.773	486.38
505.99	486.38
506.207	486.38
506.423	475.38
506.64	469.38
506.856	442.38
507.073	444.38
507.289	461.38
507.506	455.38
507.722	454.38
507.939	463.38
508.155	463.38
508.372	426.38
508.588	440.38
508.805	418.38
509.021	453.38
509.238	465.38
509.454	459.38
509.67	445.38
509.887	446.38
510.103	432.38
510.319	447.38
510.536	487.38
510.752	676.38
510.968	577.38
511.184	441.38
511.401	428.38
511.617	420.38
511.833	411.38
512.049	424.38
512.265	447.38
512.481	435.38
512.698	430.38
512.914	429.38
513.13	392.38
513.346	430.38
513.562	423.38
513.778	437.38
513.994	404.38
514.21	424.38
514.426	428.38
514.642	452.38
514.858	438.38
515.074	478.38
515.29	519.38
515.506	638.38
515.721	570.38
515.937	471.38
516.153	450.38
516.369	434.38
516.585	431.38
516.801	433.38
517.016	460.38
517.232	456.38
517.448	444.38
517.664	448.38
517.879	438.38
518.095	448.38
518.311	464.38
518.527	445.38
518.742	444.38
518.958	440.38
519.173	438.38
519.389	440.38
519.605	416.38
519.82	436.38
520.036	450.38
520.251	427.38
520.467	446.38
520.682	438.38
520.898	428.38
521.113	441.38
521.329	468.38
521.544	461.38
521.76	559.38
521.975	754.38
522.19	733.38
522.406	515.38
522.621	456.38
522.836	396.38
523.052	406.38
523.267	400.38
523.482	410.38
523.698	411.38
523.913	389.38
524.128	378.38
524.343	382.38
524.559	388.38
524.774	392.38
524.989	368.38
525.204	378.38
525.419	376.38
525.634	372.38
525.849	375.38
526.064	383.38
526.28	352.38
526.495	379.38
526.71	361.38
526.925	379.38
527.14	363.38
527.355	347.38
527.57	360.38
527.785	366.38
527.999	353.38
528.214	371.38
528.429	358.38
528.644	362.38
528.859	365.38
529.074	372.38
529.289	363.38
529.503	410.38
529.718	390.38
529.933	380.38
530.148	370.38
530.363	374.38
530.577	351.38
530.792	354.38
531.007	344.38
531.221	354.38
531.436	357.38
531.651	341.38
531.865	362.38
532.08	339.38
532.295	378.38
532.509	365.38
532.724	352.38
532.938	356.38
533.153	351.38
533.367	329.38
533.582	340.38
533.796	357.38
534.011	356.38
534.225	366.38
534.44	352.38
534.654	348.38
534.868	334.38
535.083	341.38
535.297	347.38
535.511	351.38
535.726	346.38
535.94	358.38
536.154	349.38
536.369	332.38
536.583	328.38
536.797	346.38
537.011	334.38
537.225	332.38
537.44	341.38
537.654	347.38
537.868	334.38
538.082	349.38
538.296	347.38
538.51	335.38
538.724	359.38
538.938	352.38
539.153	349.38
539.367	349.38
539.581	340.38
539.795	346.38
540.009	350.38
540.222	339.38
540.436	361.38
540.65	334.38
540.864	352.38
541.078	362.38
541.292	362.38
541.506	331.38
541.72	343.38
541.934	345.38
542.147	334.38
542.361	344.38
542.575	344.38
542.789	315.38
543.002	340.38
543.216	330.38
543.43	333.38
543.644	340.38
543.857	332.38
544.071	336.38
544.285	344.38
544.498	327.38
544.712	347.38
544.925	330.38
545.139	360.38
545.352	336.38
545.566	333.38
545.779	350.38
545.993	340.38
546.206	332.38
546.42	338.38
546.633	343.38
546.847	332.38
547.06	341.38
547.274	332.38
547.487	343.38
547.7	326.38
547.914	323.38
548.127	330.38
548.34	323.38
548.554	333.38
548.767	326.38
548.98	327.38
549.193	342.38
549.407	327.38
549.62	306.38
549.833	330.38
550.046	331.38
550.259	347.38
550.473	327.38
550.686	326.38
550.899	330.38
551.112	325.38
551.325	309.38
551.538	323.38
551.751	317.38
551.964	322.38
552.177	330.38
552.39	308.38
552.603	321.38
552.816	336.38
553.029	322.38
553.242	326.38
553.455	339.38
553.667	345.38
553.88	350.38
554.093	349.38
554.306	328.38
554.519	335.38
554.732	327.38
554.944	317.38
555.157	318.38
555.37	295.38
555.583	322.38
555.795	318.38
556.008	299.38
556.221	301.38
556.433	327.38
556.646	315.38
556.859	318.38
557.071	312.38
557.284	318.38
557.496	305.38
557.709	302.38
557.921	300.38
558.134	288.38
558.346	294.38
558.559	314.38
558.771	298.38
558.984	278.38
559.196	304.38
559.409	306.38
559.621	307.38
559.833	283.38
560.046	310.38
560.258	296.38
560.47	302.38
560.683	314.38
560.895	306.38
561.107	275.38
561.32	287.38
561.532	293.38
561.744	298.38
561.956	297.38
562.168	309.38
562.381	295.38
562.593	287.38
562.805	299.38
563.017	306.38
563.229	307.38
563.441	307.38
563.653	303.38
563.865	304.38
564.077	302.38
564.289	298.38
564.501	330.38
564.713	286.38
564.925	308.38
565.137	319.38
565.349	319.38
565.561	309.38
565.773	324.38
565.985	325.38
566.197	377.38
566.408	339.38
566.62	347.38
566.832	357.38
567.044	362.38
567.255	365.38
567.467	368.38
567.679	374.38
567.891	367.38
568.102	370.38
568.314	368.38
568.526	340.38
568.737	350.38
568.949	338.38
569.161	322.38
569.372	320.38
569.584	324.38
569.795	318.38
570.007	311.38
570.218	326.38
570.43	306.38
570.641	285.38
570.853	294.38
571.064	300.38
571.276	279.38
571.487	296.38
571.698	282.38
571.91	285.38
572.121	284.38
572.333	283.38
572.544	280.38
572.755	289.38
572.966	277.38
573.178	267.38
573.389	268.38
573.6	250.38
573.811	261.38
574.023	266.38
574.234	259.38
574.445	268.38
574.656	251.38
574.867	273.38
575.078	245.38
575.289	261.38
575.501	267.38
575.712	251.38
575.923	262.38
576.134	245.38
576.345	259.38
576.556	258.38
576.767	251.38
576.978	254.38
577.188	250.38
577.399	251.38
577.61	256.38
577.821	258.38
578.032	263.38
578.243	262.38
578.454	338.38
578.665	299.38
578.875	248.38
579.086	247.38
579.297	236.38
579.508	251.38
579.718	249.38
579.929	250.38
580.14	246.38
580.35	246.38
580.561	253.38
580.772	235.38
580.982	245.38
581.193	250.38
581.403	232.38
581.614	264.38
581.825	233.38
582.035	256.38
582.246	236.38
582.456	234.38
582.667	225.38
582.877	228.38
583.087	231.38
583.298	241.38
583.508	263.38
583.719	219.38
583.929	249.38
584.139	231.38
584.35	219.38
584.56	246.38
584.77	245.38
584.981	219.38
585.191	242.38
585.401	236.38
585.611	237.38
585.821	226.38
586.032	239.38
586.242	238.38
586.452	223.38
586.662	226.38
586.872	237.38
587.082	214.38
587.292	221.38
587.502	252.38
587.713	242.38
587.923	227.38
588.133	239.38
588.343	232.38
588.553	241.38
588.762	244.38
588.972	244.38
589.182	336.38
589.392	349.38
589.602	258.38
589.812	327.38
590.022	280.38
590.232	241.38
590.441	238.38
590.651	242.38
590.861	236.38
591.071	222.38
591.281	226.38
591.49	238.38
591.7	239.38
591.91	229.38
592.119	238.38
592.329	221.38
592.539	246.38
592.748	251.38
592.958	264.38
593.167	254.38
593.377	228.38
593.587	262.38
593.796	246.38
594.006	254.38
594.215	253.38
594.424	254.38
594.634	238.38
594.843	247.38
595.053	229.38
595.262	240.38
595.472	234.38
595.681	239.38
595.89	232.38
596.1	219.38
596.309	228.38
596.518	211.38
596.727	221.38
596.937	234.38
597.146	214.38
597.355	215.38
597.564	204.38
597.774	226.38
597.983	210.38
598.192	195.38
598.401	220.38
598.61	208.38
598.819	197.38
599.028	211.38
599.237	219.38
599.446	193.38
599.655	202.38
599.864	210.38
600.073	188.38
600.282	206.38
600.491	210.38
600.7	203.38
600.909	206.38
601.118	202.38
601.327	208.38
601.536	209.38
601.745	200.38
601.953	202.38
602.162	198.38
602.371	202.38
602.58	195.38
602.789	218.38
602.997	213.38
603.206	195.38
603.415	199.38
603.623	202.38
603.832	192.38
604.041	199.38
604.249	212.38
604.458	199.38
604.666	199.38
604.875	198.38
605.084	188.38
605.292	195.38
605.501	195.38
605.709	181.38
605.918	210.38
606.126	206.38
606.334	204.38
606.543	200.38
606.751	205.38
606.96	194.38
607.168	183.38
607.376	206.38
607.585	216.38
607.793	195.38
608.001	200.38
608.21	189.38
608.418	215.38
608.626	193.38
608.834	216.38
609.043	192.38
609.251	195.38
609.459	183.38
609.667	201.38
609.875	197.38
610.083	191.38
610.291	202.38
610.499	198.38
610.707	188.38
610.916	201.38
611.124	196.38
611.332	191.38
611.54	186.38
611.748	194.38
611.955	187.38
612.163	186.38
612.371	202.38
612.579	187.38
612.787	177.38
612.995	191.38
613.203	202.38
613.411	193.38
613.618	187.38
613.826	209.38
614.034	204.38
614.242	207.38
614.449	171.38
614.657	192.38
614.865	196.38
615.072	190.38
615.28	194.38
615.488	189.38
615.695	191.38
615.903	195.38
616.111	181.38
616.318	187.38
616.526	192.38
616.733	188.38
616.941	181.38
617.148	180.38
617.356	184.38
617.563	185.38
617.771	195.38
617.978	169.38
618.185	190.38
618.393	187.38
618.6	192.38
618.807	177.38
619.015	168.38
619.222	180.38
619.429	185.38
619.637	187.38
619.844	188.38
620.051	185.38
620.258	214.38
620.466	190.38
620.673	178.38
620.88	177.38
621.087	180.38
621.294	188.38
621.501	186.38
621.708	178.38
621.915	176.38
622.122	182.38
622.329	174.38
622.536	193.38
622.743	187.38
622.95	164.38
623.157	182.38
623.364	183.38
623.571	175.38
623.778	175.38
623.985	174.38
624.192	173.38
624.399	178.38
624.606	172.38
624.812	166.38
625.019	172.38
625.226	171.38
625.433	169.38
625.639	174.38
625.846	174.38
626.053	171.38
626.259	168.38
626.466	176.38
626.673	182.38
626.879	163.38
627.086	159.38
627.293	166.38
627.499	166.38
627.706	144.38
627.912	169.38
628.119	154.38
628.325	153.38
628.532	182.38
628.738	164.38
628.945	169.38
629.151	154.38
629.357	170.38
629.564	149.38
629.77	146.38
629.976	149.38
630.183	159.38
630.389	162.38
630.595	158.38
630.802	160.38
631.008	165.38
631.214	158.38
631.42	165.38
631.627	160.38
631.833	172.38
632.039	156.38
632.245	143.38
632.451	151.38
632.657	160.38
632.863	163.38
633.069	148.38
633.275	154.38
633.481	150.38
633.688	169.38
633.893	166.38
634.099	147.38
634.305	146.38
634.511	143.38
634.717	150.38
634.923	155.38
635.129	152.38
635.335	158.38
635.541	148.38
635.747	165.38
635.952	160.38
636.158	158.38
636.364	154.38
636.57	146.38
636.775	150.38
636.981	157.38
637.187	158.38
637.392	147.38
637.598	164.38
637.804	149.38
638.009	141.38
638.215	149.38
638.421	157.38
638.626	160.38
638.832	139.38
639.037	144.38
639.243	144.38
639.448	149.38
639.654	145.38
639.859	154.38
640.065	123.38
640.27	137.38
640.475	140.38
640.681	135.38
640.886	140.38
641.091	138.38
641.297	157.38
641.502	134.38
641.707	157.38
641.913	146.38
642.118	130.38
642.323	138.38
642.528	151.38
642.733	140.38
642.939	136.38
643.144	156.38
643.349	151.38
643.554	146.38
643.759	138.38
643.964	150.38
644.169	138.38
644.374	146.38
644.579	134.38
644.784	141.38
644.989	141.38
645.194	144.38
645.399	156.38
645.604	137.38
645.809	130.38
646.014	137.38
646.219	151.38
646.423	142.38
646.628	139.38
646.833	148.38
647.038	166.38
647.243	149.38
647.447	167.38
647.652	124.38
647.857	131.38
648.062	156.38
648.266	146.38
648.471	152.38
648.676	146.38
648.88	153.38
649.085	150.38
649.289	140.38
649.494	142.38
649.698	151.38
649.903	147.38
650.107	162.38
650.312	143.38
650.516	147.38
650.721	146.38
650.925	150.38
651.13	132.38
651.334	138.38
651.539	124.38
651.743	135.38
651.947	127.38
652.152	134.38
652.356	150.38
652.56	136.38
652.764	135.38
652.969	138.38
653.173	132.38
653.377	119.38
653.581	132.38
653.785	140.38
653.99	129.38
654.194	122.38
654.398	127.38
654.602	128.38
654.806	135.38
655.01	133.38
655.214	121.38
655.418	130.38
655.622	125.38
655.826	134.38
656.03	126.38
656.234	146.38
656.438	139.38
656.642	130.38
656.846	140.38
657.049	126.38
657.253	129.38
657.457	123.38
657.661	120.38
657.865	116.38
658.068	111.38
658.272	118.38
658.476	122.38
658.68	108.38
658.883	108.38
659.087	110.38
659.291	94.38
659.494	90.38
659.698	116.38
659.901	86.38
660.105	104.38
660.309	92.38
660.512	76.38
660.716	87.38
660.919	83.38
661.123	91.38
661.326	99.38
661.53	85.38
661.733	72.38
661.936	90.38
662.14	95.38
662.343	86.38
662.546	73.38
662.75	87.38
662.953	84.38
663.156	83.38
663.36	61.38
663.563	93.38
663.766	75.38
663.969	84.38
664.173	78.38
664.376	81.38
664.579	83.38
664.782	94.38
664.985	84.38
665.188	94.38
665.391	86.38
665.594	78.38
665.797	77.38
666	80.38
666.203	86.38
666.406	99.38
666.609	82.38
666.812	77.38
667.015	82.38
667.218	80.38
667.421	74.38
667.624	80.38
667.827	80.38
668.03	86.38
668.232	65.38
668.435	76.38
668.638	87.38
668.841	79.38
669.043	78.38
669.246	77.38
669.449	80.38
669.651	88.38
669.854	72.38
670.057	76.38
670.259	84.38
670.462	82.38
670.665	83.38
670.867	83.38
671.07	92.38
671.272	87.38
671.475	84.38
671.677	75.38
671.88	82.38
672.082	71.38
672.284	63.38
672.487	81.38
672.689	76.38
672.892	85.38
