Data from 1960PennyLincolnUp.LampE6.200Scan.07172019.P1_HRD10591_13-05-36-002.txt Node
Date: Thu Jul 18 13:05:36 EDT 2019
User: cochatt
Spectrometer: HR+D1059
Trigger mode: 1
Integration Time (sec): 1.000000E-1
Scans to average: 1
Electric dark correction enabled: true
Nonlinearity correction enabled: false
Boxcar width: 0
XAxis mode: Wavelengths
Number of Pixels in Spectrum: 2048
>>>>>Begin Spectral Data<<<<<
223.165	-10.62
223.4	-10.62
223.635	-10.62
223.869	-13.62
224.104	-11.62
224.338	-0.62
224.573	-23.62
224.808	-0.62
225.042	1.38
225.277	-3.62
225.511	-13.62
225.746	-0.62
225.98	10.38
226.215	0.38
226.449	10.38
226.683	2.38
226.918	19.38
227.152	34.38
227.387	24.38
227.621	24.38
227.856	40.38
228.09	36.38
228.324	61.38
228.559	54.38
228.793	62.38
229.027	73.38
229.262	74.38
229.496	90.38
229.73	92.38
229.964	117.38
230.199	85.38
230.433	96.38
230.667	91.38
230.901	103.38
231.136	112.38
231.37	97.38
231.604	106.38
231.838	94.38
232.072	111.38
232.306	111.38
232.541	95.38
232.775	110.38
233.009	99.38
233.243	105.38
233.477	103.38
233.711	106.38
233.945	102.38
234.179	110.38
234.413	114.38
234.647	106.38
234.881	107.38
235.115	109.38
235.349	110.38
235.583	115.38
235.817	115.38
236.051	120.38
236.285	118.38
236.519	105.38
236.753	111.38
236.987	100.38
237.221	132.38
237.455	155.38
237.689	144.38
237.922	119.38
238.156	107.38
238.39	117.38
238.624	108.38
238.858	128.38
239.091	118.38
239.325	113.38
239.559	109.38
239.793	122.38
240.027	123.38
240.26	130.38
240.494	146.38
240.728	137.38
240.961	135.38
241.195	104.38
241.429	126.38
241.662	123.38
241.896	124.38
242.13	134.38
242.363	128.38
242.597	116.38
242.83	141.38
243.064	115.38
243.298	125.38
243.531	121.38
243.765	113.38
243.998	116.38
244.232	146.38
244.465	136.38
244.699	126.38
244.932	131.38
245.166	113.38
245.399	132.38
245.633	113.38
245.866	139.38
246.099	155.38
246.333	126.38
246.566	132.38
246.8	142.38
247.033	137.38
247.266	139.38
247.5	149.38
247.733	147.38
247.966	146.38
248.2	154.38
248.433	156.38
248.666	161.38
248.899	170.38
249.133	161.38
249.366	169.38
249.599	165.38
249.832	167.38
250.066	172.38
250.299	175.38
250.532	160.38
250.765	173.38
250.998	183.38
251.231	188.38
251.465	196.38
251.698	168.38
251.931	169.38
252.164	161.38
252.397	180.38
252.63	162.38
252.863	160.38
253.096	173.38
253.329	188.38
253.562	189.38
253.795	195.38
254.028	188.38
254.261	199.38
254.494	181.38
254.727	202.38
254.96	241.38
255.193	229.38
255.426	191.38
255.659	181.38
255.892	204.38
256.124	213.38
256.357	178.38
256.59	186.38
256.823	181.38
257.056	181.38
257.289	168.38
257.521	175.38
257.754	184.38
257.987	193.38
258.22	192.38
258.452	179.38
258.685	169.38
258.918	201.38
259.151	196.38
259.383	185.38
259.616	210.38
259.849	206.38
260.081	205.38
260.314	213.38
260.547	237.38
260.779	210.38
261.012	202.38
261.244	196.38
261.477	206.38
261.71	197.38
261.942	197.38
262.175	215.38
262.407	197.38
262.64	197.38
262.872	200.38
263.105	188.38
263.337	196.38
263.57	209.38
263.802	209.38
264.035	202.38
264.267	197.38
264.499	188.38
264.732	177.38
264.964	189.38
265.197	203.38
265.429	193.38
265.661	188.38
265.894	200.38
266.126	214.38
266.358	215.38
266.591	201.38
266.823	213.38
267.055	212.38
267.287	218.38
267.52	215.38
267.752	205.38
267.984	216.38
268.216	225.38
268.448	215.38
268.681	220.38
268.913	213.38
269.145	241.38
269.377	253.38
269.609	226.38
269.841	237.38
270.073	244.38
270.306	264.38
270.538	267.38
270.77	274.38
271.002	251.38
271.234	243.38
271.466	263.38
271.698	253.38
271.93	268.38
272.162	251.38
272.394	260.38
272.626	266.38
272.858	246.38
273.09	243.38
273.322	247.38
273.553	227.38
273.785	242.38
274.017	240.38
274.249	242.38
274.481	233.38
274.713	227.38
274.945	233.38
275.176	257.38
275.408	244.38
275.64	248.38
275.872	251.38
276.104	225.38
276.335	246.38
276.567	257.38
276.799	263.38
277.031	284.38
277.262	279.38
277.494	289.38
277.726	258.38
277.957	265.38
278.189	259.38
278.421	257.38
278.652	249.38
278.884	243.38
279.115	245.38
279.347	255.38
279.579	261.38
279.81	267.38
280.042	283.38
280.273	267.38
280.505	272.38
280.736	254.38
280.968	257.38
281.199	258.38
281.431	257.38
281.662	277.38
281.894	263.38
282.125	256.38
282.356	266.38
282.588	263.38
282.819	275.38
283.051	262.38
283.282	270.38
283.513	287.38
283.745	277.38
283.976	276.38
284.207	267.38
284.439	272.38
284.67	272.38
284.901	269.38
285.132	291.38
285.364	270.38
285.595	290.38
285.826	272.38
286.057	289.38
286.288	289.38
286.52	288.38
286.751	285.38
286.982	263.38
287.213	271.38
287.444	274.38
287.675	292.38
287.906	298.38
288.138	284.38
288.369	271.38
288.6	288.38
288.831	297.38
289.062	277.38
289.293	268.38
289.524	300.38
289.755	298.38
289.986	308.38
290.217	290.38
290.448	295.38
290.679	296.38
290.91	281.38
291.141	290.38
291.371	297.38
291.602	274.38
291.833	282.38
292.064	284.38
292.295	295.38
292.526	300.38
292.757	281.38
292.987	299.38
293.218	289.38
293.449	302.38
293.68	294.38
293.91	294.38
294.141	301.38
294.372	305.38
294.603	287.38
294.833	297.38
295.064	302.38
295.295	311.38
295.525	300.38
295.756	301.38
295.987	300.38
296.217	301.38
296.448	308.38
296.679	329.38
296.909	304.38
297.14	316.38
297.37	286.38
297.601	290.38
297.831	292.38
298.062	318.38
298.292	321.38
298.523	317.38
298.753	317.38
298.984	314.38
299.214	324.38
299.445	336.38
299.675	323.38
299.905	324.38
300.136	323.38
300.366	304.38
300.597	324.38
300.827	341.38
301.057	317.38
301.288	318.38
301.518	322.38
301.748	333.38
301.979	353.38
302.209	333.38
302.439	355.38
302.669	327.38
302.9	331.38
303.13	336.38
303.36	321.38
303.59	336.38
303.82	341.38
304.051	337.38
304.281	307.38
304.511	338.38
304.741	349.38
304.971	325.38
305.201	341.38
305.431	331.38
305.661	344.38
305.891	312.38
306.121	323.38
306.352	331.38
306.582	343.38
306.812	337.38
307.042	329.38
307.272	345.38
307.502	348.38
307.731	330.38
307.961	335.38
308.191	316.38
308.421	325.38
308.651	336.38
308.881	343.38
309.111	330.38
309.341	342.38
309.571	346.38
309.8	346.38
310.03	362.38
310.26	339.38
310.49	334.38
310.72	364.38
310.949	355.38
311.179	353.38
311.409	339.38
311.639	363.38
311.868	339.38
312.098	343.38
312.328	364.38
312.557	381.38
312.787	365.38
313.017	379.38
313.246	372.38
313.476	369.38
313.706	353.38
313.935	371.38
314.165	372.38
314.394	391.38
314.624	385.38
314.853	364.38
315.083	367.38
315.312	351.38
315.542	373.38
315.771	364.38
316.001	366.38
316.23	364.38
316.46	348.38
316.689	360.38
316.919	383.38
317.148	377.38
317.377	372.38
317.607	357.38
317.836	363.38
318.065	353.38
318.295	357.38
318.524	350.38
318.753	363.38
318.983	360.38
319.212	373.38
319.441	374.38
319.67	365.38
319.9	373.38
320.129	363.38
320.358	369.38
320.587	384.38
320.816	366.38
321.046	377.38
321.275	378.38
321.504	359.38
321.733	380.38
321.962	388.38
322.191	364.38
322.42	381.38
322.649	426.38
322.878	401.38
323.108	392.38
323.337	411.38
323.566	408.38
323.795	430.38
324.024	485.38
324.253	487.38
324.482	667.38
324.71	895.38
324.939	1232.38
325.168	1051.38
325.397	596.38
325.626	466.38
325.855	427.38
326.084	421.38
326.313	407.38
326.542	442.38
326.77	458.38
326.999	503.38
327.228	633.38
327.457	851.38
327.686	965.38
327.914	660.38
328.143	499.38
328.372	451.38
328.6	457.38
328.829	455.38
329.058	466.38
329.287	449.38
329.515	457.38
329.744	446.38
329.972	439.38
330.201	465.38
330.43	462.38
330.658	476.38
330.887	483.38
331.115	484.38
331.344	460.38
331.572	451.38
331.801	417.38
332.03	441.38
332.258	452.38
332.486	441.38
332.715	462.38
332.943	449.38
333.172	489.38
333.4	488.38
333.629	479.38
333.857	521.38
334.085	495.38
334.314	504.38
334.542	533.38
334.771	533.38
334.999	514.38
335.227	475.38
335.455	459.38
335.684	475.38
335.912	463.38
336.14	466.38
336.369	457.38
336.597	467.38
336.825	475.38
337.053	471.38
337.281	445.38
337.51	440.38
337.738	451.38
337.966	446.38
338.194	458.38
338.422	434.38
338.65	424.38
338.878	414.38
339.106	442.38
339.334	461.38
339.562	430.38
339.79	421.38
340.018	411.38
340.246	441.38
340.474	435.38
340.702	424.38
340.93	446.38
341.158	435.38
341.386	427.38
341.614	421.38
341.842	404.38
342.07	404.38
342.298	408.38
342.526	411.38
342.754	402.38
342.981	411.38
343.209	412.38
343.437	458.38
343.665	455.38
343.893	476.38
344.12	460.38
344.348	466.38
344.576	448.38
344.804	428.38
345.031	451.38
345.259	436.38
345.487	419.38
345.714	414.38
345.942	398.38
346.17	397.38
346.397	428.38
346.625	407.38
346.853	416.38
347.08	404.38
347.308	397.38
347.535	408.38
347.763	415.38
347.99	414.38
348.218	395.38
348.445	395.38
348.673	399.38
348.9	390.38
349.128	396.38
349.355	385.38
349.583	374.38
349.81	388.38
350.037	401.38
350.265	382.38
350.492	404.38
350.72	392.38
350.947	400.38
351.174	410.38
351.402	402.38
351.629	422.38
351.856	390.38
352.083	404.38
352.311	392.38
352.538	413.38
352.765	436.38
352.992	411.38
353.22	403.38
353.447	383.38
353.674	395.38
353.901	383.38
354.128	413.38
354.355	377.38
354.583	376.38
354.81	389.38
355.037	377.38
355.264	368.38
355.491	376.38
355.718	404.38
355.945	393.38
356.172	381.38
356.399	394.38
356.626	383.38
356.853	371.38
357.08	384.38
357.307	369.38
357.534	409.38
357.761	389.38
357.988	400.38
358.215	385.38
358.441	420.38
358.668	403.38
358.895	389.38
359.122	412.38
359.349	395.38
359.576	404.38
359.802	410.38
360.029	428.38
360.256	417.38
360.483	400.38
360.709	412.38
360.936	405.38
361.163	398.38
361.39	395.38
361.616	367.38
361.843	385.38
362.07	398.38
362.296	389.38
362.523	381.38
362.749	418.38
362.976	421.38
363.203	399.38
363.429	375.38
363.656	383.38
363.882	389.38
364.109	385.38
364.335	392.38
364.562	384.38
364.788	402.38
365.015	409.38
365.241	402.38
365.468	395.38
365.694	396.38
365.92	402.38
366.147	388.38
366.373	371.38
366.599	379.38
366.826	384.38
367.052	373.38
367.278	391.38
367.505	392.38
367.731	392.38
367.957	384.38
368.184	400.38
368.41	380.38
368.636	370.38
368.862	404.38
369.089	395.38
369.315	395.38
369.541	396.38
369.767	391.38
369.993	405.38
370.219	398.38
370.445	387.38
370.672	419.38
370.898	397.38
371.124	404.38
371.35	411.38
371.576	415.38
371.802	406.38
372.028	408.38
372.254	423.38
372.48	402.38
372.706	441.38
372.932	419.38
373.158	409.38
373.384	426.38
373.61	426.38
373.835	413.38
374.061	414.38
374.287	411.38
374.513	426.38
374.739	441.38
374.965	428.38
375.191	443.38
375.416	443.38
375.642	416.38
375.868	419.38
376.094	438.38
376.319	430.38
376.545	413.38
376.771	409.38
376.997	401.38
377.222	410.38
377.448	398.38
377.674	411.38
377.899	427.38
378.125	411.38
378.35	412.38
378.576	391.38
378.802	409.38
379.027	397.38
379.253	395.38
379.478	409.38
379.704	419.38
379.929	420.38
380.155	394.38
380.38	396.38
380.606	399.38
380.831	417.38
381.057	418.38
381.282	410.38
381.507	425.38
381.733	431.38
381.958	417.38
382.184	428.38
382.409	411.38
382.634	434.38
382.86	444.38
383.085	443.38
383.31	440.38
383.535	412.38
383.761	458.38
383.986	426.38
384.211	441.38
384.436	483.38
384.662	458.38
384.887	462.38
385.112	451.38
385.337	483.38
385.562	468.38
385.787	485.38
386.013	466.38
386.238	468.38
386.463	473.38
386.688	496.38
386.913	483.38
387.138	479.38
387.363	455.38
387.588	471.38
387.813	439.38
388.038	450.38
388.263	468.38
388.488	471.38
388.713	464.38
388.938	459.38
389.163	465.38
389.387	484.38
389.612	475.38
389.837	449.38
390.062	445.38
390.287	453.38
390.512	445.38
390.736	455.38
390.961	471.38
391.186	472.38
391.411	491.38
391.636	482.38
391.86	503.38
392.085	509.38
392.31	510.38
392.534	499.38
392.759	498.38
392.984	480.38
393.208	489.38
393.433	484.38
393.658	492.38
393.882	467.38
394.107	456.38
394.331	469.38
394.556	487.38
394.78	486.38
395.005	497.38
395.229	494.38
395.454	493.38
395.678	518.38
395.903	524.38
396.127	521.38
396.352	511.38
396.576	500.38
396.801	503.38
397.025	511.38
397.249	512.38
397.474	522.38
397.698	514.38
397.922	545.38
398.147	525.38
398.371	527.38
398.595	561.38
398.82	565.38
399.044	568.38
399.268	620.38
399.492	685.38
399.717	722.38
399.941	728.38
400.165	714.38
400.389	664.38
400.613	603.38
400.837	586.38
401.062	567.38
401.286	551.38
401.51	545.38
401.734	571.38
401.958	566.38
402.182	568.38
402.406	552.38
402.63	567.38
402.854	568.38
403.078	581.38
403.302	586.38
403.526	595.38
403.75	610.38
403.974	619.38
404.198	621.38
404.422	619.38
404.645	618.38
404.869	589.38
405.093	617.38
405.317	632.38
405.541	653.38
405.765	620.38
405.988	615.38
406.212	607.38
406.436	605.38
406.66	643.38
406.883	636.38
407.107	640.38
407.331	696.38
407.555	754.38
407.778	747.38
408.002	707.38
408.226	637.38
408.449	649.38
408.673	616.38
408.896	636.38
409.12	661.38
409.344	645.38
409.567	584.38
409.791	607.38
410.014	607.38
410.238	580.38
410.461	582.38
410.685	564.38
410.908	589.38
411.132	637.38
411.355	619.38
411.578	603.38
411.802	579.38
412.025	588.38
412.249	598.38
412.472	600.38
412.695	630.38
412.919	591.38
413.142	581.38
413.365	551.38
413.589	580.38
413.812	546.38
414.035	533.38
414.258	554.38
414.482	565.38
414.705	562.38
414.928	546.38
415.151	556.38
415.374	537.38
415.597	565.38
415.821	545.38
416.044	523.38
416.267	539.38
416.49	519.38
416.713	520.38
416.936	533.38
417.159	530.38
417.382	540.38
417.605	549.38
417.828	552.38
418.051	569.38
418.274	548.38
418.497	560.38
418.72	547.38
418.943	527.38
419.166	578.38
419.389	595.38
419.611	619.38
419.834	593.38
420.057	573.38
420.28	580.38
420.503	566.38
420.726	564.38
420.948	556.38
421.171	560.38
421.394	593.38
421.617	580.38
421.839	564.38
422.062	547.38
422.285	567.38
422.507	586.38
422.73	634.38
422.953	629.38
423.175	574.38
423.398	586.38
423.621	588.38
423.843	608.38
424.066	615.38
424.288	601.38
424.511	601.38
424.733	628.38
424.956	695.38
425.178	633.38
425.401	632.38
425.623	641.38
425.846	584.38
426.068	564.38
426.291	553.38
426.513	560.38
426.735	560.38
426.958	543.38
427.18	629.38
427.402	729.38
427.625	736.38
427.847	657.38
428.069	586.38
428.292	558.38
428.514	522.38
428.736	517.38
428.958	529.38
429.181	507.38
429.403	497.38
429.625	529.38
429.847	536.38
430.069	572.38
430.292	538.38
430.514	497.38
430.736	508.38
430.958	507.38
431.18	489.38
431.402	530.38
431.624	489.38
431.846	493.38
432.068	467.38
432.29	509.38
432.512	505.38
432.734	524.38
432.956	497.38
433.178	503.38
433.4	527.38
433.622	517.38
433.844	485.38
434.066	521.38
434.287	491.38
434.509	514.38
434.731	528.38
434.953	512.38
435.175	529.38
435.397	549.38
435.618	546.38
435.84	568.38
436.062	597.38
436.284	647.38
436.505	565.38
436.727	531.38
436.949	511.38
437.17	522.38
437.392	519.38
437.614	507.38
437.835	537.38
438.057	581.38
438.278	617.38
438.5	616.38
438.721	666.38
438.943	654.38
439.165	561.38
439.386	528.38
439.608	538.38
439.829	525.38
440.05	556.38
440.272	574.38
440.493	548.38
440.715	513.38
440.936	532.38
441.158	525.38
441.379	556.38
441.6	549.38
441.822	569.38
442.043	578.38
442.264	626.38
442.486	649.38
442.707	587.38
442.928	570.38
443.149	563.38
443.371	576.38
443.592	599.38
443.813	643.38
444.034	717.38
444.255	615.38
444.476	603.38
444.698	624.38
444.919	599.38
445.14	741.38
445.361	667.38
445.582	592.38
445.803	621.38
446.024	672.38
446.245	625.38
446.466	608.38
446.687	549.38
446.908	525.38
447.129	505.38
447.35	510.38
447.571	501.38
447.792	470.38
448.013	489.38
448.234	507.38
448.455	525.38
448.675	565.38
448.896	654.38
449.117	566.38
449.338	541.38
449.559	602.38
449.779	652.38
450	568.38
450.221	509.38
450.442	478.38
450.662	477.38
450.883	497.38
451.104	470.38
451.324	475.38
451.545	451.38
451.766	471.38
451.986	426.38
452.207	437.38
452.428	456.38
452.648	443.38
452.869	467.38
453.089	452.38
453.31	444.38
453.53	461.38
453.751	437.38
453.971	416.38
454.192	454.38
454.412	450.38
454.633	427.38
454.853	441.38
455.073	442.38
455.294	455.38
455.514	505.38
455.734	448.38
455.955	436.38
456.175	443.38
456.395	419.38
456.616	392.38
456.836	429.38
457.056	414.38
457.276	409.38
457.497	428.38
457.717	421.38
457.937	416.38
458.157	434.38
458.377	427.38
458.598	444.38
458.818	492.38
459.038	525.38
459.258	559.38
459.478	504.38
459.698	489.38
459.918	505.38
460.138	513.38
460.358	536.38
460.578	543.38
460.798	530.38
461.018	541.38
461.238	514.38
461.458	515.38
461.678	517.38
461.898	530.38
462.118	545.38
462.338	572.38
462.558	583.38
462.777	588.38
462.997	617.38
463.217	633.38
463.437	647.38
463.657	619.38
463.876	581.38
464.096	610.38
464.316	595.38
464.536	591.38
464.755	595.38
464.975	575.38
465.195	571.38
465.414	590.38
465.634	538.38
465.854	518.38
466.073	511.38
466.293	501.38
466.512	482.38
466.732	467.38
466.951	492.38
467.171	468.38
467.391	458.38
467.61	488.38
467.829	479.38
468.049	481.38
468.268	456.38
468.488	451.38
468.707	459.38
468.927	455.38
469.146	455.38
469.365	444.38
469.585	453.38
469.804	472.38
470.023	496.38
470.243	475.38
470.462	487.38
470.681	496.38
470.901	475.38
471.12	484.38
471.339	465.38
471.558	476.38
471.777	459.38
471.997	464.38
472.216	462.38
472.435	498.38
472.654	505.38
472.873	465.38
473.092	454.38
473.311	457.38
473.53	464.38
473.749	435.38
473.968	468.38
474.187	525.38
474.406	524.38
474.625	488.38
474.844	462.38
475.063	459.38
475.282	450.38
475.501	464.38
475.72	446.38
475.939	454.38
476.158	462.38
476.377	477.38
476.596	453.38
476.814	496.38
477.033	486.38
477.252	499.38
477.471	475.38
477.69	467.38
477.908	519.38
478.127	527.38
478.346	516.38
478.564	525.38
478.783	531.38
479.002	549.38
479.22	539.38
479.439	547.38
479.658	562.38
479.876	540.38
480.095	519.38
480.313	597.38
480.532	576.38
480.751	597.38
480.969	578.38
481.188	603.38
481.406	627.38
481.624	562.38
481.843	528.38
482.061	535.38
482.28	538.38
482.498	517.38
482.717	523.38
482.935	519.38
483.153	514.38
483.372	519.38
483.59	537.38
483.808	510.38
484.027	511.38
484.245	565.38
484.463	526.38
484.681	537.38
484.9	541.38
485.118	524.38
485.336	551.38
485.554	549.38
485.772	557.38
485.99	551.38
486.209	562.38
486.427	553.38
486.645	562.38
486.863	573.38
487.081	571.38
487.299	570.38
487.517	576.38
487.735	566.38
487.953	561.38
488.171	552.38
488.389	568.38
488.607	569.38
488.825	563.38
489.043	566.38
489.261	568.38
489.479	549.38
489.696	561.38
489.914	578.38
490.132	559.38
490.35	576.38
490.568	570.38
490.786	600.38
491.003	589.38
491.221	603.38
491.439	609.38
491.657	610.38
491.874	596.38
492.092	637.38
492.31	649.38
492.527	650.38
492.745	618.38
492.963	628.38
493.18	648.38
493.398	639.38
493.615	635.38
493.833	648.38
494.05	606.38
494.268	641.38
494.485	644.38
494.703	650.38
494.92	622.38
495.138	643.38
495.355	640.38
495.573	619.38
495.79	642.38
496.008	656.38
496.225	649.38
496.442	669.38
496.66	667.38
496.877	658.38
497.094	686.38
497.312	679.38
497.529	652.38
497.746	683.38
497.963	684.38
498.181	723.38
498.398	732.38
498.615	747.38
498.832	778.38
499.049	802.38
499.267	879.38
499.484	929.38
499.701	976.38
499.918	1069.38
500.135	1138.38
500.352	1232.38
500.569	1315.38
500.786	1256.38
501.003	1234.38
501.22	1152.38
501.437	1098.38
501.654	969.38
501.871	968.38
502.088	897.38
502.305	873.38
502.522	813.38
502.739	781.38
502.956	778.38
503.172	712.38
503.389	687.38
503.606	657.38
503.823	671.38
504.04	671.38
504.256	658.38
504.473	673.38
504.69	682.38
504.907	685.38
505.123	653.38
505.34	635.38
505.557	621.38
505.773	613.38
505.99	617.38
506.207	618.38
506.423	588.38
506.64	603.38
506.856	577.38
507.073	584.38
507.289	578.38
507.506	583.38
507.722	577.38
507.939	584.38
508.155	559.38
508.372	561.38
508.588	563.38
508.805	532.38
509.021	526.38
509.238	565.38
509.454	567.38
509.67	580.38
509.887	530.38
510.103	553.38
510.319	528.38
510.536	592.38
510.752	842.38
510.968	727.38
511.184	554.38
511.401	530.38
511.617	553.38
511.833	514.38
512.049	507.38
512.265	511.38
512.481	502.38
512.698	499.38
512.914	495.38
513.13	515.38
513.346	508.38
513.562	527.38
513.778	521.38
513.994	531.38
514.21	515.38
514.426	530.38
514.642	539.38
514.858	543.38
515.074	588.38
515.29	629.38
515.506	831.38
515.721	759.38
515.937	583.38
516.153	566.38
516.369	552.38
516.585	573.38
516.801	575.38
517.016	567.38
517.232	604.38
517.448	604.38
517.664	616.38
517.879	619.38
518.095	639.38
518.311	634.38
518.527	578.38
518.742	576.38
518.958	579.38
519.173	562.38
519.389	559.38
519.605	520.38
519.82	519.38
520.036	548.38
520.251	537.38
520.467	546.38
520.682	559.38
520.898	543.38
521.113	534.38
521.329	561.38
521.544	565.38
521.76	691.38
521.975	1010.38
522.19	1026.38
522.406	645.38
522.621	520.38
522.836	501.38
523.052	478.38
523.267	473.38
523.482	478.38
523.698	477.38
523.913	459.38
524.128	461.38
524.343	464.38
524.559	440.38
524.774	455.38
524.989	457.38
525.204	456.38
525.419	453.38
525.634	470.38
525.849	451.38
526.064	443.38
526.28	441.38
526.495	433.38
526.71	413.38
526.925	436.38
527.14	456.38
527.355	448.38
527.57	442.38
527.785	426.38
527.999	434.38
528.214	439.38
528.429	441.38
528.644	432.38
528.859	450.38
529.074	465.38
529.289	465.38
529.503	476.38
529.718	464.38
529.933	441.38
530.148	444.38
530.363	442.38
530.577	450.38
530.792	436.38
531.007	430.38
531.221	439.38
531.436	430.38
531.651	445.38
531.865	447.38
532.08	464.38
532.295	424.38
532.509	436.38
532.724	440.38
532.938	435.38
533.153	422.38
533.367	434.38
533.582	417.38
533.796	455.38
534.011	438.38
534.225	425.38
534.44	425.38
534.654	433.38
534.868	444.38
535.083	424.38
535.297	439.38
535.511	421.38
535.726	436.38
535.94	411.38
536.154	437.38
536.369	440.38
536.583	400.38
536.797	399.38
537.011	397.38
537.225	383.38
537.44	404.38
537.654	426.38
537.868	416.38
538.082	404.38
538.296	410.38
538.51	420.38
538.724	442.38
538.938	415.38
539.153	409.38
539.367	418.38
539.581	400.38
539.795	403.38
540.009	410.38
540.222	401.38
540.436	410.38
540.65	399.38
540.864	409.38
541.078	413.38
541.292	414.38
541.506	418.38
541.72	403.38
541.934	423.38
542.147	415.38
542.361	409.38
542.575	405.38
542.789	398.38
543.002	416.38
543.216	383.38
543.43	401.38
543.644	407.38
543.857	421.38
544.071	416.38
544.285	399.38
544.498	403.38
544.712	416.38
544.925	421.38
545.139	412.38
545.352	403.38
545.566	419.38
545.779	414.38
545.993	420.38
546.206	423.38
546.42	420.38
546.633	405.38
546.847	395.38
547.06	414.38
547.274	420.38
547.487	388.38
547.7	399.38
547.914	409.38
548.127	426.38
548.34	427.38
548.554	403.38
548.767	421.38
548.98	431.38
549.193	415.38
549.407	417.38
549.62	421.38
549.833	408.38
550.046	421.38
550.259	402.38
550.473	395.38
550.686	403.38
550.899	392.38
551.112	402.38
551.325	417.38
551.538	409.38
551.751	388.38
551.964	404.38
552.177	412.38
552.39	423.38
552.603	449.38
552.816	434.38
553.029	449.38
553.242	436.38
553.455	443.38
553.667	451.38
553.88	431.38
554.093	439.38
554.306	432.38
554.519	429.38
554.732	426.38
554.944	420.38
555.157	397.38
555.37	396.38
555.583	373.38
555.795	387.38
556.008	377.38
556.221	391.38
556.433	359.38
556.646	364.38
556.859	360.38
557.071	372.38
557.284	359.38
557.496	363.38
557.709	368.38
557.921	372.38
558.134	352.38
558.346	352.38
558.559	358.38
558.771	343.38
558.984	351.38
559.196	357.38
559.409	355.38
559.621	343.38
559.833	347.38
560.046	345.38
560.258	356.38
560.47	344.38
560.683	347.38
560.895	322.38
561.107	364.38
561.32	359.38
561.532	354.38
561.744	356.38
561.956	366.38
562.168	353.38
562.381	351.38
562.593	370.38
562.805	358.38
563.017	356.38
563.229	360.38
563.441	355.38
563.653	353.38
563.865	354.38
564.077	356.38
564.289	369.38
564.501	389.38
564.713	400.38
564.925	388.38
565.137	397.38
565.349	399.38
565.561	417.38
565.773	393.38
565.985	427.38
566.197	432.38
566.408	477.38
566.62	484.38
566.832	498.38
567.044	526.38
567.255	508.38
567.467	532.38
567.679	556.38
567.891	547.38
568.102	569.38
568.314	577.38
568.526	528.38
568.737	484.38
568.949	455.38
569.161	424.38
569.372	407.38
569.584	398.38
569.795	354.38
570.007	380.38
570.218	377.38
570.43	368.38
570.641	364.38
570.853	350.38
571.064	365.38
571.276	351.38
571.487	351.38
571.698	347.38
571.91	332.38
572.121	347.38
572.333	327.38
572.544	323.38
572.755	316.38
572.966	309.38
573.178	319.38
573.389	297.38
573.6	305.38
573.811	297.38
574.023	305.38
574.234	286.38
574.445	318.38
574.656	309.38
574.867	289.38
575.078	300.38
575.289	318.38
575.501	307.38
575.712	298.38
575.923	288.38
576.134	286.38
576.345	299.38
576.556	303.38
576.767	306.38
576.978	300.38
577.188	291.38
577.399	279.38
577.61	281.38
577.821	295.38
578.032	284.38
578.243	297.38
578.454	408.38
578.665	315.38
578.875	275.38
579.086	285.38
579.297	263.38
579.508	277.38
579.718	295.38
579.929	281.38
580.14	272.38
580.35	288.38
580.561	282.38
580.772	274.38
580.982	272.38
581.193	255.38
581.403	265.38
581.614	269.38
581.825	274.38
582.035	272.38
582.246	258.38
582.456	280.38
582.667	272.38
582.877	269.38
583.087	261.38
583.298	262.38
583.508	264.38
583.719	261.38
583.929	270.38
584.139	259.38
584.35	267.38
584.56	259.38
584.77	262.38
584.981	261.38
585.191	267.38
585.401	265.38
585.611	252.38
585.821	263.38
586.032	259.38
586.242	256.38
586.452	273.38
586.662	260.38
586.872	248.38
587.082	265.38
587.292	258.38
587.502	252.38
587.713	267.38
587.923	272.38
588.133	256.38
588.343	267.38
588.553	253.38
588.762	256.38
588.972	255.38
589.182	319.38
589.392	311.38
589.602	293.38
589.812	303.38
590.022	284.38
590.232	263.38
590.441	252.38
590.651	271.38
590.861	259.38
591.071	249.38
591.281	274.38
591.49	270.38
591.7	280.38
591.91	274.38
592.119	279.38
592.329	291.38
592.539	303.38
592.748	291.38
592.958	296.38
593.167	285.38
593.377	319.38
593.587	312.38
593.796	303.38
594.006	311.38
594.215	314.38
594.424	300.38
594.634	305.38
594.843	298.38
595.053	298.38
595.262	285.38
595.472	264.38
595.681	267.38
595.89	265.38
596.1	258.38
596.309	276.38
596.518	257.38
596.727	252.38
596.937	258.38
597.146	249.38
597.355	225.38
597.564	237.38
597.774	263.38
597.983	254.38
598.192	247.38
598.401	252.38
598.61	245.38
598.819	229.38
599.028	244.38
599.237	243.38
599.446	249.38
599.655	236.38
599.864	233.38
600.073	228.38
600.282	228.38
600.491	223.38
600.7	212.38
600.909	242.38
601.118	228.38
601.327	229.38
601.536	224.38
601.745	222.38
601.953	235.38
602.162	222.38
602.371	223.38
602.58	242.38
602.789	235.38
602.997	235.38
603.206	235.38
603.415	223.38
603.623	217.38
603.832	224.38
604.041	226.38
604.249	215.38
604.458	201.38
604.666	220.38
604.875	214.38
605.084	213.38
605.292	212.38
605.501	224.38
605.709	224.38
605.918	212.38
606.126	242.38
606.334	218.38
606.543	221.38
606.751	220.38
606.96	203.38
607.168	215.38
607.376	227.38
607.585	220.38
607.793	204.38
608.001	210.38
608.21	220.38
608.418	229.38
608.626	206.38
608.834	212.38
609.043	212.38
609.251	217.38
609.459	217.38
609.667	203.38
609.875	210.38
610.083	205.38
610.291	211.38
610.499	221.38
610.707	220.38
610.916	222.38
611.124	233.38
611.332	229.38
611.54	208.38
611.748	229.38
611.955	207.38
612.163	217.38
612.371	213.38
612.579	205.38
612.787	210.38
612.995	227.38
613.203	217.38
613.411	210.38
613.618	209.38
613.826	205.38
614.034	219.38
614.242	213.38
614.449	218.38
614.657	198.38
614.865	209.38
615.072	219.38
615.28	203.38
615.488	207.38
615.695	231.38
615.903	211.38
616.111	201.38
616.318	215.38
616.526	215.38
616.733	208.38
616.941	218.38
617.148	211.38
617.356	214.38
617.563	221.38
617.771	221.38
617.978	219.38
618.185	199.38
618.393	223.38
618.6	196.38
618.807	213.38
619.015	223.38
619.222	207.38
619.429	230.38
619.637	199.38
619.844	211.38
620.051	192.38
620.258	202.38
620.466	199.38
620.673	187.38
620.88	192.38
621.087	200.38
621.294	205.38
621.501	211.38
621.708	201.38
621.915	196.38
622.122	189.38
622.329	209.38
622.536	195.38
622.743	202.38
622.95	211.38
623.157	186.38
623.364	192.38
623.571	192.38
623.778	202.38
623.985	177.38
624.192	183.38
624.399	186.38
624.606	192.38
624.812	191.38
625.019	191.38
625.226	189.38
625.433	184.38
625.639	190.38
625.846	180.38
626.053	178.38
626.259	187.38
626.466	192.38
626.673	178.38
626.879	173.38
627.086	178.38
627.293	175.38
627.499	211.38
627.706	187.38
627.912	177.38
628.119	175.38
628.325	179.38
628.532	189.38
628.738	160.38
628.945	167.38
629.151	171.38
629.357	180.38
629.564	192.38
629.77	162.38
629.976	194.38
630.183	188.38
630.389	187.38
630.595	170.38
630.802	173.38
631.008	174.38
631.214	167.38
631.42	183.38
631.627	175.38
631.833	145.38
632.039	185.38
632.245	173.38
632.451	169.38
632.657	171.38
632.863	176.38
633.069	160.38
633.275	171.38
633.481	169.38
633.688	168.38
633.893	165.38
634.099	171.38
634.305	164.38
634.511	162.38
634.717	170.38
634.923	161.38
635.129	145.38
635.335	176.38
635.541	181.38
635.747	171.38
635.952	153.38
636.158	157.38
636.364	168.38
636.57	165.38
636.775	172.38
636.981	180.38
637.187	172.38
637.392	174.38
637.598	172.38
637.804	164.38
638.009	178.38
638.215	145.38
638.421	161.38
638.626	163.38
638.832	167.38
639.037	159.38
639.243	169.38
639.448	165.38
639.654	157.38
639.859	164.38
640.065	144.38
640.27	164.38
640.475	151.38
640.681	159.38
640.886	168.38
641.091	159.38
641.297	167.38
641.502	177.38
641.707	155.38
641.913	161.38
642.118	139.38
642.323	157.38
642.528	162.38
642.733	153.38
642.939	156.38
643.144	152.38
643.349	158.38
643.554	180.38
643.759	159.38
643.964	157.38
644.169	146.38
644.374	163.38
644.579	163.38
644.784	142.38
644.989	162.38
645.194	151.38
645.399	157.38
645.604	149.38
645.809	143.38
646.014	115.38
646.219	148.38
646.423	147.38
646.628	155.38
646.833	159.38
647.038	152.38
647.243	147.38
647.447	162.38
647.652	149.38
647.857	161.38
648.062	159.38
648.266	170.38
648.471	155.38
648.676	184.38
648.88	177.38
649.085	169.38
649.289	153.38
649.494	156.38
649.698	178.38
649.903	172.38
650.107	145.38
650.312	143.38
650.516	167.38
650.721	155.38
650.925	130.38
651.13	150.38
651.334	139.38
651.539	151.38
651.743	140.38
651.947	135.38
652.152	143.38
652.356	128.38
652.56	137.38
652.764	130.38
652.969	135.38
653.173	135.38
653.377	139.38
653.581	135.38
653.785	125.38
653.99	123.38
654.194	139.38
654.398	132.38
654.602	120.38
654.806	122.38
655.01	136.38
655.214	151.38
655.418	141.38
655.622	135.38
655.826	129.38
656.03	141.38
656.234	146.38
656.438	133.38
656.642	156.38
656.846	142.38
657.049	128.38
657.253	141.38
657.457	122.38
657.661	110.38
657.865	96.38
658.068	96.38
658.272	106.38
658.476	116.38
658.68	101.38
658.883	106.38
659.087	89.38
659.291	91.38
659.494	96.38
659.698	112.38
659.901	101.38
660.105	88.38
660.309	87.38
660.512	91.38
660.716	88.38
660.919	99.38
661.123	75.38
661.326	82.38
661.53	78.38
661.733	79.38
661.936	71.38
662.14	76.38
662.343	95.38
662.546	91.38
662.75	85.38
662.953	87.38
663.156	98.38
663.36	90.38
663.563	70.38
663.766	67.38
663.969	72.38
664.173	72.38
664.376	92.38
664.579	93.38
664.782	82.38
664.985	80.38
665.188	80.38
665.391	97.38
665.594	79.38
665.797	91.38
666	79.38
666.203	71.38
666.406	83.38
666.609	75.38
666.812	66.38
667.015	78.38
667.218	87.38
667.421	71.38
667.624	79.38
667.827	88.38
668.03	87.38
668.232	80.38
668.435	72.38
668.638	71.38
668.841	72.38
669.043	79.38
669.246	83.38
669.449	80.38
669.651	72.38
669.854	74.38
670.057	83.38
670.259	90.38
670.462	71.38
670.665	76.38
670.867	68.38
671.07	66.38
671.272	76.38
671.475	77.38
671.677	69.38
671.88	81.38
672.082	83.38
672.284	82.38
672.487	82.38
672.689	93.38
672.892	83.38
