Data from 1960PennyLincolnUp.LampE6.200Scan.07172019.P1_HRD10591_13-06-25-002.txt Node
Date: Thu Jul 18 13:06:25 EDT 2019
User: cochatt
Spectrometer: HR+D1059
Trigger mode: 1
Integration Time (sec): 1.000000E-1
Scans to average: 1
Electric dark correction enabled: true
Nonlinearity correction enabled: false
Boxcar width: 0
XAxis mode: Wavelengths
Number of Pixels in Spectrum: 2048
>>>>>Begin Spectral Data<<<<<
223.165	-16.62
223.4	-16.62
223.635	-16.62
223.869	-21.62
224.104	-14.62
224.338	-19.62
224.573	-2.62
224.808	-18.62
225.042	-7.62
225.277	-11.62
225.511	4.38
225.746	-10.62
225.98	11.38
226.215	15.38
226.449	23.38
226.683	27.38
226.918	19.38
227.152	22.38
227.387	36.38
227.621	43.38
227.856	45.38
228.09	35.38
228.324	36.38
228.559	58.38
228.793	60.38
229.027	84.38
229.262	82.38
229.496	98.38
229.73	117.38
229.964	137.38
230.199	113.38
230.433	98.38
230.667	93.38
230.901	89.38
231.136	105.38
231.37	105.38
231.604	116.38
231.838	97.38
232.072	102.38
232.306	108.38
232.541	116.38
232.775	103.38
233.009	104.38
233.243	106.38
233.477	114.38
233.711	105.38
233.945	107.38
234.179	118.38
234.413	104.38
234.647	103.38
234.881	117.38
235.115	107.38
235.349	109.38
235.583	109.38
235.817	108.38
236.051	110.38
236.285	134.38
236.519	118.38
236.753	117.38
236.987	125.38
237.221	148.38
237.455	174.38
237.689	166.38
237.922	120.38
238.156	116.38
238.39	107.38
238.624	118.38
238.858	109.38
239.091	118.38
239.325	94.38
239.559	122.38
239.793	115.38
240.027	120.38
240.26	121.38
240.494	140.38
240.728	131.38
240.961	149.38
241.195	149.38
241.429	122.38
241.662	122.38
241.896	136.38
242.13	131.38
242.363	131.38
242.597	131.38
242.83	131.38
243.064	126.38
243.298	128.38
243.531	140.38
243.765	139.38
243.998	142.38
244.232	134.38
244.465	135.38
244.699	111.38
244.932	135.38
245.166	128.38
245.399	134.38
245.633	147.38
245.866	144.38
246.099	132.38
246.333	137.38
246.566	137.38
246.8	156.38
247.033	143.38
247.266	135.38
247.5	144.38
247.733	146.38
247.966	167.38
248.2	160.38
248.433	159.38
248.666	157.38
248.899	171.38
249.133	179.38
249.366	173.38
249.599	175.38
249.832	189.38
250.066	164.38
250.299	151.38
250.532	170.38
250.765	179.38
250.998	184.38
251.231	198.38
251.465	182.38
251.698	185.38
251.931	179.38
252.164	192.38
252.397	186.38
252.63	175.38
252.863	184.38
253.096	194.38
253.329	203.38
253.562	187.38
253.795	189.38
254.028	187.38
254.261	170.38
254.494	203.38
254.727	213.38
254.96	229.38
255.193	208.38
255.426	192.38
255.659	204.38
255.892	204.38
256.124	203.38
256.357	211.38
256.59	224.38
256.823	182.38
257.056	187.38
257.289	197.38
257.521	193.38
257.754	201.38
257.987	194.38
258.22	192.38
258.452	209.38
258.685	189.38
258.918	198.38
259.151	182.38
259.383	195.38
259.616	192.38
259.849	214.38
260.081	232.38
260.314	217.38
260.547	200.38
260.779	207.38
261.012	210.38
261.244	204.38
261.477	199.38
261.71	188.38
261.942	207.38
262.175	203.38
262.407	215.38
262.64	219.38
262.872	205.38
263.105	212.38
263.337	206.38
263.57	197.38
263.802	201.38
264.035	209.38
264.267	210.38
264.499	214.38
264.732	216.38
264.964	202.38
265.197	224.38
265.429	218.38
265.661	212.38
265.894	196.38
266.126	204.38
266.358	202.38
266.591	207.38
266.823	221.38
267.055	195.38
267.287	223.38
267.52	209.38
267.752	228.38
267.984	239.38
268.216	204.38
268.448	221.38
268.681	222.38
268.913	219.38
269.145	244.38
269.377	246.38
269.609	267.38
269.841	258.38
270.073	237.38
270.306	224.38
270.538	271.38
270.77	278.38
271.002	262.38
271.234	257.38
271.466	257.38
271.698	267.38
271.93	283.38
272.162	287.38
272.394	269.38
272.626	278.38
272.858	256.38
273.09	251.38
273.322	260.38
273.553	241.38
273.785	239.38
274.017	242.38
274.249	259.38
274.481	247.38
274.713	255.38
274.945	252.38
275.176	245.38
275.408	253.38
275.64	261.38
275.872	242.38
276.104	270.38
276.335	259.38
276.567	268.38
276.799	294.38
277.031	285.38
277.262	285.38
277.494	291.38
277.726	267.38
277.957	296.38
278.189	257.38
278.421	263.38
278.652	293.38
278.884	271.38
279.115	275.38
279.347	254.38
279.579	263.38
279.81	265.38
280.042	265.38
280.273	263.38
280.505	260.38
280.736	265.38
280.968	272.38
281.199	269.38
281.431	264.38
281.662	264.38
281.894	268.38
282.125	262.38
282.356	274.38
282.588	285.38
282.819	273.38
283.051	267.38
283.282	278.38
283.513	278.38
283.745	280.38
283.976	288.38
284.207	302.38
284.439	275.38
284.67	308.38
284.901	275.38
285.132	271.38
285.364	302.38
285.595	277.38
285.826	276.38
286.057	280.38
286.288	302.38
286.52	296.38
286.751	310.38
286.982	310.38
287.213	277.38
287.444	280.38
287.675	290.38
287.906	312.38
288.138	316.38
288.369	301.38
288.6	311.38
288.831	301.38
289.062	301.38
289.293	312.38
289.524	293.38
289.755	280.38
289.986	304.38
290.217	306.38
290.448	294.38
290.679	313.38
290.91	288.38
291.141	289.38
291.371	287.38
291.602	308.38
291.833	303.38
292.064	308.38
292.295	310.38
292.526	309.38
292.757	320.38
292.987	285.38
293.218	286.38
293.449	298.38
293.68	307.38
293.91	316.38
294.141	301.38
294.372	303.38
294.603	291.38
294.833	315.38
295.064	324.38
295.295	303.38
295.525	292.38
295.756	309.38
295.987	319.38
296.217	333.38
296.448	321.38
296.679	323.38
296.909	324.38
297.14	321.38
297.37	327.38
297.601	310.38
297.831	317.38
298.062	326.38
298.292	321.38
298.523	324.38
298.753	334.38
298.984	335.38
299.214	319.38
299.445	320.38
299.675	319.38
299.905	332.38
300.136	319.38
300.366	325.38
300.597	338.38
300.827	346.38
301.057	329.38
301.288	354.38
301.518	346.38
301.748	353.38
301.979	348.38
302.209	341.38
302.439	341.38
302.669	345.38
302.9	348.38
303.13	353.38
303.36	345.38
303.59	341.38
303.82	354.38
304.051	349.38
304.281	334.38
304.511	355.38
304.741	342.38
304.971	335.38
305.201	343.38
305.431	346.38
305.661	347.38
305.891	338.38
306.121	337.38
306.352	365.38
306.582	349.38
306.812	347.38
307.042	341.38
307.272	342.38
307.502	357.38
307.731	333.38
307.961	356.38
308.191	340.38
308.421	350.38
308.651	344.38
308.881	353.38
309.111	335.38
309.341	352.38
309.571	367.38
309.8	352.38
310.03	368.38
310.26	357.38
310.49	335.38
310.72	387.38
310.949	383.38
311.179	360.38
311.409	385.38
311.639	372.38
311.868	375.38
312.098	376.38
312.328	384.38
312.557	369.38
312.787	387.38
313.017	383.38
313.246	358.38
313.476	382.38
313.706	368.38
313.935	377.38
314.165	401.38
314.394	384.38
314.624	389.38
314.853	381.38
315.083	369.38
315.312	371.38
315.542	368.38
315.771	361.38
316.001	361.38
316.23	370.38
316.46	374.38
316.689	363.38
316.919	390.38
317.148	392.38
317.377	393.38
317.607	373.38
317.836	367.38
318.065	380.38
318.295	378.38
318.524	392.38
318.753	399.38
318.983	379.38
319.212	363.38
319.441	374.38
319.67	398.38
319.9	367.38
320.129	374.38
320.358	380.38
320.587	375.38
320.816	372.38
321.046	374.38
321.275	393.38
321.504	378.38
321.733	391.38
321.962	404.38
322.191	391.38
322.42	403.38
322.649	421.38
322.878	416.38
323.108	413.38
323.337	438.38
323.566	414.38
323.795	465.38
324.024	480.38
324.253	541.38
324.482	724.38
324.71	1037.38
324.939	1387.38
325.168	1124.38
325.397	628.38
325.626	508.38
325.855	459.38
326.084	443.38
326.313	432.38
326.542	461.38
326.77	471.38
326.999	552.38
327.228	680.38
327.457	935.38
327.686	1066.38
327.914	729.38
328.143	548.38
328.372	505.38
328.6	505.38
328.829	488.38
329.058	476.38
329.287	491.38
329.515	465.38
329.744	448.38
329.972	458.38
330.201	482.38
330.43	495.38
330.658	528.38
330.887	524.38
331.115	499.38
331.344	484.38
331.572	463.38
331.801	447.38
332.03	479.38
332.258	476.38
332.486	460.38
332.715	487.38
332.943	502.38
333.172	497.38
333.4	498.38
333.629	534.38
333.857	549.38
334.085	534.38
334.314	549.38
334.542	532.38
334.771	558.38
334.999	537.38
335.227	496.38
335.455	513.38
335.684	479.38
335.912	478.38
336.14	487.38
336.369	463.38
336.597	472.38
336.825	480.38
337.053	483.38
337.281	448.38
337.51	467.38
337.738	454.38
337.966	457.38
338.194	447.38
338.422	453.38
338.65	448.38
338.878	449.38
339.106	425.38
339.334	448.38
339.562	435.38
339.79	418.38
340.018	445.38
340.246	444.38
340.474	445.38
340.702	433.38
340.93	436.38
341.158	432.38
341.386	440.38
341.614	438.38
341.842	429.38
342.07	435.38
342.298	411.38
342.526	426.38
342.754	422.38
342.981	438.38
343.209	427.38
343.437	446.38
343.665	447.38
343.893	469.38
344.12	495.38
344.348	468.38
344.576	480.38
344.804	458.38
345.031	438.38
345.259	471.38
345.487	433.38
345.714	440.38
345.942	443.38
346.17	402.38
346.397	406.38
346.625	429.38
346.853	435.38
347.08	417.38
347.308	421.38
347.535	423.38
347.763	407.38
347.99	419.38
348.218	429.38
348.445	424.38
348.673	438.38
348.9	408.38
349.128	414.38
349.355	415.38
349.583	408.38
349.81	398.38
350.037	406.38
350.265	402.38
350.492	397.38
350.72	406.38
350.947	411.38
351.174	402.38
351.402	445.38
351.629	425.38
351.856	416.38
352.083	409.38
352.311	408.38
352.538	411.38
352.765	421.38
352.992	423.38
353.22	400.38
353.447	411.38
353.674	408.38
353.901	405.38
354.128	403.38
354.355	412.38
354.583	384.38
354.81	391.38
355.037	405.38
355.264	400.38
355.491	396.38
355.718	391.38
355.945	403.38
356.172	409.38
356.399	420.38
356.626	407.38
356.853	395.38
357.08	414.38
357.307	404.38
357.534	397.38
357.761	398.38
357.988	393.38
358.215	388.38
358.441	409.38
358.668	398.38
358.895	413.38
359.122	408.38
359.349	408.38
359.576	406.38
359.802	433.38
360.029	438.38
360.256	458.38
360.483	433.38
360.709	406.38
360.936	415.38
361.163	412.38
361.39	419.38
361.616	434.38
361.843	408.38
362.07	417.38
362.296	425.38
362.523	415.38
362.749	430.38
362.976	411.38
363.203	415.38
363.429	403.38
363.656	399.38
363.882	392.38
364.109	384.38
364.335	386.38
364.562	414.38
364.788	418.38
365.015	416.38
365.241	400.38
365.468	423.38
365.694	415.38
365.92	401.38
366.147	397.38
366.373	401.38
366.599	400.38
366.826	418.38
367.052	401.38
367.278	409.38
367.505	399.38
367.731	403.38
367.957	407.38
368.184	400.38
368.41	421.38
368.636	409.38
368.862	424.38
369.089	430.38
369.315	409.38
369.541	419.38
369.767	408.38
369.993	432.38
370.219	430.38
370.445	413.38
370.672	424.38
370.898	414.38
371.124	411.38
371.35	431.38
371.576	430.38
371.802	416.38
372.028	426.38
372.254	426.38
372.48	416.38
372.706	448.38
372.932	429.38
373.158	419.38
373.384	432.38
373.61	446.38
373.835	439.38
374.061	418.38
374.287	426.38
374.513	439.38
374.739	447.38
374.965	449.38
375.191	442.38
375.416	452.38
375.642	438.38
375.868	454.38
376.094	438.38
376.319	435.38
376.545	433.38
376.771	427.38
376.997	445.38
377.222	432.38
377.448	426.38
377.674	433.38
377.899	407.38
378.125	425.38
378.35	408.38
378.576	431.38
378.802	403.38
379.027	416.38
379.253	414.38
379.478	431.38
379.704	422.38
379.929	423.38
380.155	424.38
380.38	415.38
380.606	419.38
380.831	429.38
381.057	431.38
381.282	436.38
381.507	431.38
381.733	426.38
381.958	424.38
382.184	443.38
382.409	427.38
382.634	461.38
382.86	448.38
383.085	428.38
383.31	438.38
383.535	435.38
383.761	448.38
383.986	483.38
384.211	456.38
384.436	463.38
384.662	464.38
384.887	466.38
385.112	468.38
385.337	488.38
385.562	484.38
385.787	483.38
386.013	502.38
386.238	480.38
386.463	500.38
386.688	505.38
386.913	470.38
387.138	470.38
387.363	488.38
387.588	475.38
387.813	475.38
388.038	495.38
388.263	467.38
388.488	483.38
388.713	474.38
388.938	473.38
389.163	464.38
389.387	492.38
389.612	477.38
389.837	488.38
390.062	482.38
390.287	454.38
390.512	450.38
390.736	461.38
390.961	470.38
391.186	484.38
391.411	516.38
391.636	516.38
391.86	497.38
392.085	516.38
392.31	517.38
392.534	502.38
392.759	503.38
392.984	489.38
393.208	508.38
393.433	505.38
393.658	502.38
393.882	484.38
394.107	512.38
394.331	510.38
394.556	501.38
394.78	491.38
395.005	489.38
395.229	505.38
395.454	524.38
395.678	543.38
395.903	537.38
396.127	541.38
396.352	544.38
396.576	531.38
396.801	504.38
397.025	528.38
397.249	516.38
397.474	524.38
397.698	551.38
397.922	526.38
398.147	539.38
398.371	572.38
398.595	542.38
398.82	564.38
399.044	559.38
399.268	622.38
399.492	705.38
399.717	774.38
399.941	765.38
400.165	739.38
400.389	682.38
400.613	622.38
400.837	600.38
401.062	587.38
401.286	572.38
401.51	587.38
401.734	559.38
401.958	574.38
402.182	613.38
402.406	611.38
402.63	608.38
402.854	608.38
403.078	608.38
403.302	614.38
403.526	616.38
403.75	613.38
403.974	617.38
404.198	637.38
404.422	639.38
404.645	633.38
404.869	625.38
405.093	650.38
405.317	635.38
405.541	701.38
405.765	623.38
405.988	632.38
406.212	613.38
406.436	627.38
406.66	657.38
406.883	637.38
407.107	688.38
407.331	733.38
407.555	773.38
407.778	746.38
408.002	714.38
408.226	671.38
408.449	651.38
408.673	627.38
408.896	681.38
409.12	662.38
409.344	683.38
409.567	613.38
409.791	619.38
410.014	592.38
410.238	625.38
410.461	591.38
410.685	584.38
410.908	608.38
411.132	616.38
411.355	637.38
411.578	632.38
411.802	613.38
412.025	581.38
412.249	617.38
412.472	611.38
412.695	628.38
412.919	642.38
413.142	584.38
413.365	581.38
413.589	577.38
413.812	564.38
414.035	554.38
414.258	567.38
414.482	544.38
414.705	572.38
414.928	563.38
415.151	574.38
415.374	560.38
415.597	579.38
415.821	563.38
416.044	546.38
416.267	559.38
416.49	583.38
416.713	569.38
416.936	556.38
417.159	570.38
417.382	561.38
417.605	544.38
417.828	569.38
418.051	584.38
418.274	563.38
418.497	555.38
418.72	582.38
418.943	570.38
419.166	607.38
419.389	617.38
419.611	604.38
419.834	598.38
420.057	595.38
420.28	599.38
420.503	536.38
420.726	557.38
420.948	594.38
421.171	587.38
421.394	630.38
421.617	585.38
421.839	572.38
422.062	574.38
422.285	574.38
422.507	624.38
422.73	656.38
422.953	645.38
423.175	615.38
423.398	623.38
423.621	607.38
423.843	614.38
424.066	620.38
424.288	595.38
424.511	622.38
424.733	659.38
424.956	695.38
425.178	653.38
425.401	659.38
425.623	659.38
425.846	617.38
426.068	587.38
426.291	577.38
426.513	572.38
426.735	577.38
426.958	603.38
427.18	637.38
427.402	719.38
427.625	785.38
427.847	689.38
428.069	632.38
428.292	580.38
428.514	547.38
428.736	534.38
428.958	526.38
429.181	511.38
429.403	521.38
429.625	513.38
429.847	561.38
430.069	585.38
430.292	564.38
430.514	519.38
430.736	547.38
430.958	521.38
431.18	492.38
431.402	511.38
431.624	528.38
431.846	525.38
432.068	508.38
432.29	496.38
432.512	489.38
432.734	530.38
432.956	520.38
433.178	523.38
433.4	524.38
433.622	522.38
433.844	528.38
434.066	526.38
434.287	520.38
434.509	557.38
434.731	523.38
434.953	564.38
435.175	576.38
435.397	591.38
435.618	562.38
435.84	583.38
436.062	623.38
436.284	673.38
436.505	568.38
436.727	560.38
436.949	555.38
437.17	529.38
437.392	500.38
437.614	537.38
437.835	539.38
438.057	593.38
438.278	629.38
438.5	651.38
438.721	724.38
438.943	675.38
439.165	577.38
439.386	541.38
439.608	534.38
439.829	572.38
440.05	559.38
440.272	598.38
440.493	553.38
440.715	540.38
440.936	540.38
441.158	532.38
441.379	548.38
441.6	597.38
441.822	595.38
442.043	603.38
442.264	647.38
442.486	641.38
442.707	620.38
442.928	592.38
443.149	584.38
443.371	595.38
443.592	613.38
443.813	672.38
444.034	714.38
444.255	630.38
444.476	611.38
444.698	625.38
444.919	647.38
445.14	744.38
445.361	660.38
445.582	611.38
445.803	653.38
446.024	683.38
446.245	669.38
446.466	622.38
446.687	581.38
446.908	543.38
447.129	536.38
447.35	505.38
447.571	490.38
447.792	485.38
448.013	513.38
448.234	516.38
448.455	533.38
448.675	615.38
448.896	682.38
449.117	594.38
449.338	588.38
449.559	638.38
449.779	684.38
450	581.38
450.221	516.38
450.442	494.38
450.662	473.38
450.883	505.38
451.104	504.38
451.324	500.38
451.545	508.38
451.766	475.38
451.986	452.38
452.207	480.38
452.428	464.38
452.648	456.38
452.869	462.38
453.089	474.38
453.31	468.38
453.53	464.38
453.751	475.38
453.971	484.38
454.192	482.38
454.412	459.38
454.633	456.38
454.853	431.38
455.073	444.38
455.294	462.38
455.514	527.38
455.734	473.38
455.955	461.38
456.175	447.38
456.395	433.38
456.616	439.38
456.836	429.38
457.056	444.38
457.276	417.38
457.497	452.38
457.717	428.38
457.937	428.38
458.157	461.38
458.377	452.38
458.598	448.38
458.818	485.38
459.038	542.38
459.258	537.38
459.478	536.38
459.698	534.38
459.918	537.38
460.138	527.38
460.358	527.38
460.578	553.38
460.798	555.38
461.018	567.38
461.238	572.38
461.458	557.38
461.678	568.38
461.898	539.38
462.118	569.38
462.338	577.38
462.558	580.38
462.777	600.38
462.997	639.38
463.217	682.38
463.437	667.38
463.657	624.38
463.876	605.38
464.096	617.38
464.316	602.38
464.536	622.38
464.755	603.38
464.975	597.38
465.195	576.38
465.414	613.38
465.634	547.38
465.854	531.38
466.073	496.38
466.293	482.38
466.512	491.38
466.732	483.38
466.951	485.38
467.171	478.38
467.391	480.38
467.61	491.38
467.829	475.38
468.049	501.38
468.268	492.38
468.488	468.38
468.707	467.38
468.927	459.38
469.146	439.38
469.365	469.38
469.585	456.38
469.804	463.38
470.023	489.38
470.243	495.38
470.462	497.38
470.681	492.38
470.901	500.38
471.12	496.38
471.339	485.38
471.558	475.38
471.777	447.38
471.997	463.38
472.216	472.38
472.435	496.38
472.654	500.38
472.873	469.38
473.092	441.38
473.311	456.38
473.53	480.38
473.749	472.38
473.968	477.38
474.187	533.38
474.406	530.38
474.625	494.38
474.844	467.38
475.063	478.38
475.282	471.38
475.501	456.38
475.72	475.38
475.939	479.38
476.158	486.38
476.377	487.38
476.596	476.38
476.814	486.38
477.033	486.38
477.252	503.38
477.471	497.38
477.69	534.38
477.908	540.38
478.127	541.38
478.346	547.38
478.564	545.38
478.783	555.38
479.002	562.38
479.22	551.38
479.439	573.38
479.658	575.38
479.876	579.38
480.095	582.38
480.313	629.38
480.532	623.38
480.751	613.38
480.969	590.38
481.188	639.38
481.406	652.38
481.624	606.38
481.843	571.38
482.061	555.38
482.28	537.38
482.498	558.38
482.717	541.38
482.935	534.38
483.153	554.38
483.372	541.38
483.59	526.38
483.808	551.38
484.027	548.38
484.245	542.38
484.463	548.38
484.681	552.38
484.9	559.38
485.118	547.38
485.336	548.38
485.554	570.38
485.772	576.38
485.99	560.38
486.209	569.38
486.427	571.38
486.645	575.38
486.863	581.38
487.081	568.38
487.299	562.38
487.517	569.38
487.735	566.38
487.953	582.38
488.171	600.38
488.389	574.38
488.607	565.38
488.825	568.38
489.043	581.38
489.261	570.38
489.479	575.38
489.696	571.38
489.914	575.38
490.132	597.38
490.35	596.38
490.568	590.38
490.786	592.38
491.003	585.38
491.221	630.38
491.439	623.38
491.657	628.38
491.874	639.38
492.092	641.38
492.31	668.38
492.527	653.38
492.745	642.38
492.963	633.38
493.18	642.38
493.398	660.38
493.615	654.38
493.833	683.38
494.05	679.38
494.268	656.38
494.485	653.38
494.703	669.38
494.92	670.38
495.138	677.38
495.355	647.38
495.573	687.38
495.79	651.38
496.008	660.38
496.225	676.38
496.442	681.38
496.66	667.38
496.877	654.38
497.094	679.38
497.312	675.38
497.529	699.38
497.746	711.38
497.963	708.38
498.181	712.38
498.398	736.38
498.615	787.38
498.832	837.38
499.049	825.38
499.267	891.38
499.484	935.38
499.701	1008.38
499.918	1090.38
500.135	1187.38
500.352	1295.38
500.569	1323.38
500.786	1313.38
501.003	1238.38
501.22	1171.38
501.437	1089.38
501.654	997.38
501.871	979.38
502.088	909.38
502.305	861.38
502.522	807.38
502.739	801.38
502.956	747.38
503.172	736.38
503.389	709.38
503.606	720.38
503.823	711.38
504.04	700.38
504.256	709.38
504.473	706.38
504.69	696.38
504.907	697.38
505.123	656.38
505.34	642.38
505.557	648.38
505.773	624.38
505.99	607.38
506.207	641.38
506.423	612.38
506.64	604.38
506.856	608.38
507.073	606.38
507.289	591.38
507.506	597.38
507.722	599.38
507.939	617.38
508.155	573.38
508.372	573.38
508.588	551.38
508.805	547.38
509.021	558.38
509.238	580.38
509.454	569.38
509.67	564.38
509.887	569.38
510.103	532.38
510.319	554.38
510.536	608.38
510.752	917.38
510.968	755.38
511.184	575.38
511.401	533.38
511.617	559.38
511.833	546.38
512.049	554.38
512.265	548.38
512.481	531.38
512.698	556.38
512.914	549.38
513.13	528.38
513.346	525.38
513.562	534.38
513.778	521.38
513.994	544.38
514.21	549.38
514.426	543.38
514.642	557.38
514.858	563.38
515.074	584.38
515.29	689.38
515.506	959.38
515.721	820.38
515.937	621.38
516.153	596.38
516.369	621.38
516.585	584.38
516.801	606.38
517.016	595.38
517.232	613.38
517.448	635.38
517.664	652.38
517.879	637.38
518.095	642.38
518.311	649.38
518.527	617.38
518.742	627.38
518.958	617.38
519.173	597.38
519.389	557.38
519.605	558.38
519.82	557.38
520.036	541.38
520.251	556.38
520.467	561.38
520.682	562.38
520.898	544.38
521.113	545.38
521.329	581.38
521.544	615.38
521.76	727.38
521.975	1161.38
522.19	1149.38
522.406	696.38
522.621	550.38
522.836	540.38
523.052	542.38
523.267	499.38
523.482	488.38
523.698	499.38
523.913	493.38
524.128	476.38
524.343	470.38
524.559	467.38
524.774	486.38
524.989	472.38
525.204	488.38
525.419	456.38
525.634	468.38
525.849	449.38
526.064	466.38
526.28	483.38
526.495	470.38
526.71	444.38
526.925	457.38
527.14	454.38
527.355	447.38
527.57	472.38
527.785	436.38
527.999	452.38
528.214	467.38
528.429	446.38
528.644	437.38
528.859	482.38
529.074	467.38
529.289	476.38
529.503	525.38
529.718	525.38
529.933	478.38
530.148	471.38
530.363	475.38
530.577	445.38
530.792	466.38
531.007	470.38
531.221	460.38
531.436	438.38
531.651	455.38
531.865	438.38
532.08	446.38
532.295	449.38
532.509	445.38
532.724	446.38
532.938	446.38
533.153	454.38
533.367	473.38
533.582	469.38
533.796	438.38
534.011	427.38
534.225	446.38
534.44	444.38
534.654	444.38
534.868	441.38
535.083	433.38
535.297	450.38
535.511	436.38
535.726	431.38
535.94	451.38
536.154	447.38
536.369	431.38
536.583	419.38
536.797	427.38
537.011	420.38
537.225	419.38
537.44	435.38
537.654	417.38
537.868	426.38
538.082	442.38
538.296	429.38
538.51	422.38
538.724	408.38
538.938	420.38
539.153	403.38
539.367	414.38
539.581	431.38
539.795	423.38
540.009	412.38
540.222	401.38
540.436	408.38
540.65	426.38
540.864	421.38
541.078	434.38
541.292	408.38
541.506	416.38
541.72	430.38
541.934	447.38
542.147	437.38
542.361	423.38
542.575	404.38
542.789	409.38
543.002	407.38
543.216	412.38
543.43	428.38
543.644	416.38
543.857	440.38
544.071	420.38
544.285	417.38
544.498	416.38
544.712	421.38
544.925	428.38
545.139	423.38
545.352	413.38
545.566	415.38
545.779	416.38
545.993	438.38
546.206	434.38
546.42	442.38
546.633	426.38
546.847	427.38
547.06	429.38
547.274	423.38
547.487	424.38
547.7	413.38
547.914	405.38
548.127	417.38
548.34	418.38
548.554	423.38
548.767	432.38
548.98	440.38
549.193	416.38
549.407	423.38
549.62	427.38
549.833	432.38
550.046	404.38
550.259	419.38
550.473	411.38
550.686	418.38
550.899	406.38
551.112	400.38
551.325	399.38
551.538	398.38
551.751	409.38
551.964	407.38
552.177	409.38
552.39	433.38
552.603	434.38
552.816	435.38
553.029	452.38
553.242	488.38
553.455	460.38
553.667	458.38
553.88	449.38
554.093	454.38
554.306	434.38
554.519	435.38
554.732	421.38
554.944	416.38
555.157	411.38
555.37	427.38
555.583	420.38
555.795	408.38
556.008	390.38
556.221	389.38
556.433	379.38
556.646	385.38
556.859	385.38
557.071	387.38
557.284	383.38
557.496	371.38
557.709	371.38
557.921	362.38
558.134	380.38
558.346	362.38
558.559	370.38
558.771	372.38
558.984	353.38
559.196	363.38
559.409	375.38
559.621	353.38
559.833	361.38
560.046	358.38
560.258	364.38
560.47	381.38
560.683	353.38
560.895	358.38
561.107	347.38
561.32	355.38
561.532	358.38
561.744	373.38
561.956	364.38
562.168	371.38
562.381	375.38
562.593	373.38
562.805	369.38
563.017	364.38
563.229	368.38
563.441	351.38
563.653	370.38
563.865	365.38
564.077	352.38
564.289	382.38
564.501	371.38
564.713	390.38
564.925	391.38
565.137	395.38
565.349	391.38
565.561	404.38
565.773	425.38
565.985	427.38
566.197	452.38
566.408	471.38
566.62	486.38
566.832	514.38
567.044	519.38
567.255	556.38
567.467	532.38
567.679	559.38
567.891	615.38
568.102	596.38
568.314	565.38
568.526	559.38
568.737	492.38
568.949	462.38
569.161	437.38
569.372	403.38
569.584	407.38
569.795	380.38
570.007	396.38
570.218	416.38
570.43	380.38
570.641	356.38
570.853	368.38
571.064	383.38
571.276	364.38
571.487	359.38
571.698	355.38
571.91	353.38
572.121	338.38
572.333	345.38
572.544	331.38
572.755	327.38
572.966	328.38
573.178	323.38
573.389	311.38
573.6	323.38
573.811	298.38
574.023	307.38
574.234	302.38
574.445	314.38
574.656	306.38
574.867	310.38
575.078	325.38
575.289	334.38
575.501	322.38
575.712	304.38
575.923	309.38
576.134	307.38
576.345	297.38
576.556	310.38
576.767	294.38
576.978	301.38
577.188	297.38
577.399	297.38
577.61	293.38
577.821	299.38
578.032	299.38
578.243	328.38
578.454	431.38
578.665	354.38
578.875	290.38
579.086	285.38
579.297	298.38
579.508	285.38
579.718	261.38
579.929	285.38
580.14	290.38
580.35	286.38
580.561	285.38
580.772	278.38
580.982	290.38
581.193	299.38
581.403	291.38
581.614	279.38
581.825	279.38
582.035	290.38
582.246	266.38
582.456	276.38
582.667	271.38
582.877	266.38
583.087	263.38
583.298	271.38
583.508	276.38
583.719	261.38
583.929	282.38
584.139	267.38
584.35	241.38
584.56	264.38
584.77	276.38
584.981	277.38
585.191	270.38
585.401	265.38
585.611	278.38
585.821	269.38
586.032	269.38
586.242	254.38
586.452	265.38
586.662	256.38
586.872	238.38
587.082	267.38
587.292	264.38
587.502	255.38
587.713	265.38
587.923	273.38
588.133	261.38
588.343	261.38
588.553	269.38
588.762	256.38
588.972	251.38
589.182	297.38
589.392	291.38
589.602	292.38
589.812	296.38
590.022	292.38
590.232	256.38
590.441	270.38
590.651	273.38
590.861	260.38
591.071	265.38
591.281	276.38
591.49	271.38
591.7	264.38
591.91	290.38
592.119	299.38
592.329	298.38
592.539	291.38
592.748	291.38
592.958	309.38
593.167	332.38
593.377	309.38
593.587	319.38
593.796	308.38
594.006	313.38
594.215	320.38
594.424	306.38
594.634	316.38
594.843	298.38
595.053	295.38
595.262	294.38
595.472	291.38
595.681	280.38
595.89	260.38
596.1	266.38
596.309	255.38
596.518	259.38
596.727	249.38
596.937	260.38
597.146	265.38
597.355	273.38
597.564	247.38
597.774	239.38
597.983	234.38
598.192	277.38
598.401	256.38
598.61	248.38
598.819	235.38
599.028	241.38
599.237	242.38
599.446	241.38
599.655	229.38
599.864	247.38
600.073	225.38
600.282	231.38
600.491	235.38
600.7	222.38
600.909	236.38
601.118	231.38
601.327	241.38
601.536	225.38
601.745	240.38
601.953	227.38
602.162	235.38
602.371	239.38
602.58	226.38
602.789	231.38
602.997	245.38
603.206	259.38
603.415	243.38
603.623	228.38
603.832	238.38
604.041	237.38
604.249	212.38
604.458	237.38
604.666	224.38
604.875	218.38
605.084	222.38
605.292	234.38
605.501	228.38
605.709	230.38
605.918	231.38
606.126	212.38
606.334	212.38
606.543	234.38
606.751	240.38
606.96	235.38
607.168	230.38
607.376	219.38
607.585	214.38
607.793	216.38
608.001	215.38
608.21	219.38
608.418	225.38
608.626	236.38
608.834	225.38
609.043	226.38
609.251	218.38
609.459	213.38
609.667	214.38
609.875	221.38
610.083	241.38
610.291	253.38
610.499	228.38
610.707	227.38
610.916	214.38
611.124	237.38
611.332	210.38
611.54	227.38
611.748	220.38
611.955	217.38
612.163	207.38
612.371	219.38
612.579	210.38
612.787	216.38
612.995	217.38
613.203	207.38
613.411	216.38
613.618	213.38
613.826	214.38
614.034	216.38
614.242	211.38
614.449	213.38
614.657	206.38
614.865	224.38
615.072	219.38
615.28	217.38
615.488	196.38
615.695	221.38
615.903	211.38
616.111	221.38
616.318	236.38
616.526	210.38
616.733	220.38
616.941	230.38
617.148	217.38
617.356	210.38
617.563	228.38
617.771	212.38
617.978	212.38
618.185	213.38
618.393	221.38
618.6	235.38
618.807	220.38
619.015	209.38
619.222	230.38
619.429	214.38
619.637	228.38
619.844	224.38
620.051	195.38
620.258	213.38
620.466	190.38
620.673	200.38
620.88	187.38
621.087	218.38
621.294	215.38
621.501	211.38
621.708	199.38
621.915	206.38
622.122	194.38
622.329	209.38
622.536	216.38
622.743	192.38
622.95	205.38
623.157	199.38
623.364	204.38
623.571	201.38
623.778	214.38
623.985	190.38
624.192	190.38
624.399	199.38
624.606	210.38
624.812	195.38
625.019	197.38
625.226	201.38
625.433	196.38
625.639	188.38
625.846	182.38
626.053	200.38
626.259	188.38
626.466	182.38
626.673	183.38
626.879	177.38
627.086	208.38
627.293	203.38
627.499	200.38
627.706	186.38
627.912	180.38
628.119	194.38
628.325	186.38
628.532	194.38
628.738	185.38
628.945	190.38
629.151	192.38
629.357	187.38
629.564	189.38
629.77	184.38
629.976	176.38
630.183	188.38
630.389	186.38
630.595	167.38
630.802	189.38
631.008	201.38
631.214	190.38
631.42	165.38
631.627	178.38
631.833	183.38
632.039	182.38
632.245	178.38
632.451	174.38
632.657	185.38
632.863	179.38
633.069	184.38
633.275	174.38
633.481	181.38
633.688	173.38
633.893	164.38
634.099	169.38
634.305	177.38
634.511	180.38
634.717	172.38
634.923	163.38
635.129	174.38
635.335	164.38
635.541	166.38
635.747	163.38
635.952	157.38
636.158	184.38
636.364	184.38
636.57	159.38
636.775	170.38
636.981	175.38
637.187	176.38
637.392	178.38
637.598	173.38
637.804	167.38
638.009	155.38
638.215	162.38
638.421	171.38
638.626	177.38
638.832	180.38
639.037	155.38
639.243	164.38
639.448	162.38
639.654	157.38
639.859	151.38
640.065	169.38
640.27	171.38
640.475	190.38
640.681	167.38
640.886	156.38
641.091	177.38
641.297	156.38
641.502	161.38
641.707	174.38
641.913	159.38
642.118	145.38
642.323	147.38
642.528	159.38
642.733	179.38
642.939	157.38
643.144	150.38
643.349	167.38
643.554	178.38
643.759	144.38
643.964	165.38
644.169	160.38
644.374	151.38
644.579	157.38
644.784	163.38
644.989	164.38
645.194	146.38
645.399	159.38
645.604	151.38
645.809	155.38
646.014	156.38
646.219	151.38
646.423	145.38
646.628	167.38
646.833	162.38
647.038	164.38
647.243	144.38
647.447	172.38
647.652	161.38
647.857	174.38
648.062	177.38
648.266	159.38
648.471	169.38
648.676	165.38
648.88	173.38
649.085	166.38
649.289	177.38
649.494	165.38
649.698	176.38
649.903	153.38
650.107	160.38
650.312	141.38
650.516	149.38
650.721	134.38
650.925	148.38
651.13	131.38
651.334	145.38
651.539	136.38
651.743	141.38
651.947	133.38
652.152	135.38
652.356	137.38
652.56	131.38
652.764	133.38
652.969	151.38
653.173	116.38
653.377	161.38
653.581	125.38
653.785	132.38
653.99	134.38
654.194	119.38
654.398	136.38
654.602	136.38
654.806	140.38
655.01	138.38
655.214	129.38
655.418	138.38
655.622	125.38
655.826	136.38
656.03	126.38
656.234	126.38
656.438	148.38
656.642	132.38
656.846	129.38
657.049	122.38
657.253	123.38
657.457	115.38
657.661	120.38
657.865	102.38
658.068	113.38
658.272	104.38
658.476	107.38
658.68	99.38
658.883	105.38
659.087	95.38
659.291	94.38
659.494	100.38
659.698	83.38
659.901	101.38
660.105	95.38
660.309	97.38
660.512	95.38
660.716	89.38
660.919	101.38
661.123	89.38
661.326	87.38
661.53	91.38
661.733	77.38
661.936	84.38
662.14	81.38
662.343	100.38
662.546	83.38
662.75	91.38
662.953	82.38
663.156	107.38
663.36	91.38
663.563	85.38
663.766	82.38
663.969	93.38
664.173	87.38
664.376	84.38
664.579	69.38
664.782	80.38
664.985	84.38
665.188	73.38
665.391	81.38
665.594	76.38
665.797	83.38
666	72.38
666.203	88.38
666.406	99.38
666.609	79.38
666.812	91.38
667.015	84.38
667.218	89.38
667.421	84.38
667.624	87.38
667.827	76.38
668.03	80.38
668.232	76.38
668.435	96.38
668.638	82.38
668.841	85.38
669.043	60.38
669.246	87.38
669.449	79.38
669.651	72.38
669.854	75.38
670.057	81.38
670.259	73.38
670.462	80.38
670.665	80.38
670.867	97.38
671.07	92.38
671.272	79.38
671.475	84.38
671.677	79.38
671.88	88.38
672.082	78.38
672.284	96.38
672.487	87.38
672.689	83.38
672.892	94.38
