Data from 1960PennyLincolnUp.LampE5.5.200Scan.07172019.P1.ChangedAngle_HRD10591_13-14-25-821.txt Node
Date: Thu Jul 18 13:14:25 EDT 2019
User: cochatt
Spectrometer: HR+D1059
Trigger mode: 1
Integration Time (sec): 1.000000E-1
Scans to average: 1
Electric dark correction enabled: true
Nonlinearity correction enabled: false
Boxcar width: 0
XAxis mode: Wavelengths
Number of Pixels in Spectrum: 2048
>>>>>Begin Spectral Data<<<<<
223.165	-12.94
223.4	-12.94
223.635	-12.94
223.869	-15.94
224.104	-17.94
224.338	5.06
224.573	-16.94
224.808	-9.94
225.042	-9.94
225.277	-12.94
225.511	-7.94
225.746	10.06
225.98	8.06
226.215	7.06
226.449	8.06
226.683	12.06
226.918	20.06
227.152	34.06
227.387	42.06
227.621	44.06
227.856	39.06
228.09	43.06
228.324	44.06
228.559	55.06
228.793	53.06
229.027	88.06
229.262	91.06
229.496	96.06
229.73	111.06
229.964	115.06
230.199	99.06
230.433	93.06
230.667	107.06
230.901	110.06
231.136	108.06
231.37	108.06
231.604	91.06
231.838	110.06
232.072	105.06
232.306	107.06
232.541	117.06
232.775	107.06
233.009	129.06
233.243	101.06
233.477	104.06
233.711	111.06
233.945	105.06
234.179	119.06
234.413	115.06
234.647	112.06
234.881	111.06
235.115	118.06
235.349	113.06
235.583	102.06
235.817	129.06
236.051	115.06
236.285	109.06
236.519	115.06
236.753	109.06
236.987	123.06
237.221	137.06
237.455	162.06
237.689	135.06
237.922	136.06
238.156	121.06
238.39	133.06
238.624	131.06
238.858	115.06
239.091	106.06
239.325	108.06
239.559	112.06
239.793	120.06
240.027	113.06
240.26	132.06
240.494	128.06
240.728	129.06
240.961	121.06
241.195	125.06
241.429	130.06
241.662	116.06
241.896	140.06
242.13	113.06
242.363	134.06
242.597	125.06
242.83	139.06
243.064	139.06
243.298	125.06
243.531	148.06
243.765	127.06
243.998	135.06
244.232	133.06
244.465	126.06
244.699	134.06
244.932	132.06
245.166	127.06
245.399	123.06
245.633	128.06
245.866	139.06
246.099	142.06
246.333	133.06
246.566	141.06
246.8	145.06
247.033	147.06
247.266	130.06
247.5	134.06
247.733	143.06
247.966	150.06
248.2	151.06
248.433	158.06
248.666	152.06
248.899	173.06
249.133	176.06
249.366	166.06
249.599	164.06
249.832	156.06
250.066	148.06
250.299	152.06
250.532	187.06
250.765	180.06
250.998	196.06
251.231	198.06
251.465	182.06
251.698	172.06
251.931	179.06
252.164	169.06
252.397	187.06
252.63	178.06
252.863	185.06
253.096	192.06
253.329	191.06
253.562	191.06
253.795	195.06
254.028	197.06
254.261	184.06
254.494	192.06
254.727	215.06
254.96	213.06
255.193	213.06
255.426	216.06
255.659	197.06
255.892	194.06
256.124	200.06
256.357	187.06
256.59	191.06
256.823	180.06
257.056	195.06
257.289	179.06
257.521	189.06
257.754	193.06
257.987	186.06
258.22	193.06
258.452	200.06
258.685	195.06
258.918	197.06
259.151	190.06
259.383	200.06
259.616	196.06
259.849	205.06
260.081	211.06
260.314	208.06
260.547	209.06
260.779	197.06
261.012	204.06
261.244	203.06
261.477	214.06
261.71	192.06
261.942	206.06
262.175	196.06
262.407	199.06
262.64	196.06
262.872	195.06
263.105	205.06
263.337	196.06
263.57	192.06
263.802	184.06
264.035	205.06
264.267	204.06
264.499	197.06
264.732	191.06
264.964	196.06
265.197	209.06
265.429	204.06
265.661	217.06
265.894	204.06
266.126	209.06
266.358	196.06
266.591	199.06
266.823	216.06
267.055	213.06
267.287	224.06
267.52	197.06
267.752	201.06
267.984	212.06
268.216	224.06
268.448	220.06
268.681	220.06
268.913	219.06
269.145	231.06
269.377	242.06
269.609	227.06
269.841	238.06
270.073	249.06
270.306	261.06
270.538	267.06
270.77	269.06
271.002	273.06
271.234	266.06
271.466	260.06
271.698	265.06
271.93	270.06
272.162	266.06
272.394	271.06
272.626	260.06
272.858	235.06
273.09	252.06
273.322	260.06
273.553	245.06
273.785	246.06
274.017	237.06
274.249	236.06
274.481	231.06
274.713	243.06
274.945	246.06
275.176	257.06
275.408	223.06
275.64	237.06
275.872	249.06
276.104	241.06
276.335	240.06
276.567	248.06
276.799	264.06
277.031	274.06
277.262	274.06
277.494	270.06
277.726	264.06
277.957	269.06
278.189	261.06
278.421	252.06
278.652	269.06
278.884	252.06
279.115	262.06
279.347	245.06
279.579	256.06
279.81	260.06
280.042	272.06
280.273	266.06
280.505	254.06
280.736	276.06
280.968	251.06
281.199	259.06
281.431	264.06
281.662	252.06
281.894	249.06
282.125	263.06
282.356	261.06
282.588	275.06
282.819	257.06
283.051	252.06
283.282	269.06
283.513	265.06
283.745	273.06
283.976	254.06
284.207	267.06
284.439	255.06
284.67	265.06
284.901	263.06
285.132	249.06
285.364	278.06
285.595	266.06
285.826	261.06
286.057	264.06
286.288	269.06
286.52	268.06
286.751	255.06
286.982	289.06
287.213	272.06
287.444	265.06
287.675	264.06
287.906	284.06
288.138	284.06
288.369	272.06
288.6	289.06
288.831	288.06
289.062	276.06
289.293	286.06
289.524	266.06
289.755	277.06
289.986	289.06
290.217	273.06
290.448	271.06
290.679	286.06
290.91	301.06
291.141	275.06
291.371	271.06
291.602	259.06
291.833	275.06
292.064	280.06
292.295	291.06
292.526	288.06
292.757	280.06
292.987	295.06
293.218	280.06
293.449	277.06
293.68	276.06
293.91	293.06
294.141	280.06
294.372	261.06
294.603	284.06
294.833	295.06
295.064	292.06
295.295	265.06
295.525	280.06
295.756	277.06
295.987	281.06
296.217	312.06
296.448	294.06
296.679	285.06
296.909	277.06
297.14	275.06
297.37	282.06
297.601	292.06
297.831	274.06
298.062	302.06
298.292	307.06
298.523	296.06
298.753	301.06
298.984	278.06
299.214	304.06
299.445	309.06
299.675	297.06
299.905	315.06
300.136	299.06
300.366	288.06
300.597	297.06
300.827	298.06
301.057	295.06
301.288	327.06
301.518	322.06
301.748	308.06
301.979	298.06
302.209	328.06
302.439	310.06
302.669	312.06
302.9	309.06
303.13	344.06
303.36	315.06
303.59	318.06
303.82	320.06
304.051	304.06
304.281	330.06
304.511	305.06
304.741	317.06
304.971	300.06
305.201	299.06
305.431	315.06
305.661	301.06
305.891	310.06
306.121	310.06
306.352	321.06
306.582	307.06
306.812	313.06
307.042	317.06
307.272	321.06
307.502	301.06
307.731	313.06
307.961	317.06
308.191	332.06
308.421	327.06
308.651	329.06
308.881	331.06
309.111	308.06
309.341	311.06
309.571	340.06
309.8	316.06
310.03	329.06
310.26	331.06
310.49	336.06
310.72	327.06
310.949	336.06
311.179	331.06
311.409	346.06
311.639	357.06
311.868	336.06
312.098	335.06
312.328	333.06
312.557	359.06
312.787	349.06
313.017	352.06
313.246	364.06
313.476	356.06
313.706	360.06
313.935	347.06
314.165	346.06
314.394	365.06
314.624	350.06
314.853	353.06
315.083	345.06
315.312	350.06
315.542	356.06
315.771	352.06
316.001	333.06
316.23	343.06
316.46	367.06
316.689	345.06
316.919	359.06
317.148	339.06
317.377	347.06
317.607	348.06
317.836	341.06
318.065	348.06
318.295	356.06
318.524	369.06
318.753	366.06
318.983	360.06
319.212	355.06
319.441	356.06
319.67	352.06
319.9	347.06
320.129	343.06
320.358	345.06
320.587	364.06
320.816	373.06
321.046	370.06
321.275	378.06
321.504	382.06
321.733	352.06
321.962	371.06
322.191	367.06
322.42	390.06
322.649	375.06
322.878	397.06
323.108	381.06
323.337	411.06
323.566	422.06
323.795	439.06
324.024	454.06
324.253	504.06
324.482	655.06
324.71	995.06
324.939	1285.06
325.168	1074.06
325.397	644.06
325.626	477.06
325.855	440.06
326.084	440.06
326.313	404.06
326.542	428.06
326.77	440.06
326.999	511.06
327.228	663.06
327.457	842.06
327.686	961.06
327.914	669.06
328.143	508.06
328.372	447.06
328.6	456.06
328.829	428.06
329.058	449.06
329.287	451.06
329.515	414.06
329.744	423.06
329.972	403.06
330.201	405.06
330.43	437.06
330.658	450.06
330.887	472.06
331.115	457.06
331.344	428.06
331.572	419.06
331.801	425.06
332.03	408.06
332.258	406.06
332.486	400.06
332.715	408.06
332.943	415.06
333.172	422.06
333.4	412.06
333.629	423.06
333.857	439.06
334.085	435.06
334.314	444.06
334.542	456.06
334.771	456.06
334.999	439.06
335.227	441.06
335.455	416.06
335.684	413.06
335.912	407.06
336.14	409.06
336.369	398.06
336.597	417.06
336.825	408.06
337.053	423.06
337.281	396.06
337.51	410.06
337.738	421.06
337.966	419.06
338.194	437.06
338.422	417.06
338.65	403.06
338.878	397.06
339.106	399.06
339.334	394.06
339.562	400.06
339.79	377.06
340.018	405.06
340.246	402.06
340.474	386.06
340.702	382.06
340.93	382.06
341.158	409.06
341.386	372.06
341.614	381.06
341.842	403.06
342.07	389.06
342.298	391.06
342.526	385.06
342.754	404.06
342.981	382.06
343.209	366.06
343.437	382.06
343.665	388.06
343.893	416.06
344.12	429.06
344.348	406.06
344.576	411.06
344.804	391.06
345.031	399.06
345.259	385.06
345.487	403.06
345.714	379.06
345.942	391.06
346.17	375.06
346.397	377.06
346.625	383.06
346.853	375.06
347.08	369.06
347.308	392.06
347.535	364.06
347.763	371.06
347.99	376.06
348.218	375.06
348.445	371.06
348.673	377.06
348.9	383.06
349.128	368.06
349.355	371.06
349.583	357.06
349.81	378.06
350.037	369.06
350.265	351.06
350.492	367.06
350.72	343.06
350.947	367.06
351.174	351.06
351.402	359.06
351.629	361.06
351.856	350.06
352.083	375.06
352.311	357.06
352.538	365.06
352.765	377.06
352.992	368.06
353.22	361.06
353.447	356.06
353.674	365.06
353.901	357.06
354.128	349.06
354.355	375.06
354.583	339.06
354.81	344.06
355.037	347.06
355.264	353.06
355.491	360.06
355.718	351.06
355.945	344.06
356.172	347.06
356.399	334.06
356.626	332.06
356.853	345.06
357.08	354.06
357.307	363.06
357.534	365.06
357.761	362.06
357.988	357.06
358.215	340.06
358.441	348.06
358.668	355.06
358.895	343.06
359.122	355.06
359.349	354.06
359.576	356.06
359.802	371.06
360.029	371.06
360.256	372.06
360.483	373.06
360.709	382.06
360.936	363.06
361.163	358.06
361.39	350.06
361.616	346.06
361.843	353.06
362.07	381.06
362.296	357.06
362.523	363.06
362.749	362.06
362.976	346.06
363.203	363.06
363.429	325.06
363.656	357.06
363.882	349.06
364.109	346.06
364.335	365.06
364.562	350.06
364.788	344.06
365.015	352.06
365.241	350.06
365.468	355.06
365.694	345.06
365.92	342.06
366.147	347.06
366.373	348.06
366.599	363.06
366.826	332.06
367.052	338.06
367.278	341.06
367.505	348.06
367.731	349.06
367.957	353.06
368.184	356.06
368.41	366.06
368.636	353.06
368.862	361.06
369.089	347.06
369.315	339.06
369.541	349.06
369.767	349.06
369.993	383.06
370.219	341.06
370.445	328.06
370.672	347.06
370.898	352.06
371.124	346.06
371.35	351.06
371.576	347.06
371.802	345.06
372.028	359.06
372.254	344.06
372.48	360.06
372.706	351.06
372.932	341.06
373.158	351.06
373.384	355.06
373.61	349.06
373.835	355.06
374.061	343.06
374.287	367.06
374.513	389.06
374.739	376.06
374.965	355.06
375.191	367.06
375.416	344.06
375.642	363.06
375.868	382.06
376.094	357.06
376.319	346.06
376.545	347.06
376.771	353.06
376.997	353.06
377.222	360.06
377.448	369.06
377.674	350.06
377.899	339.06
378.125	328.06
378.35	344.06
378.576	342.06
378.802	321.06
379.027	338.06
379.253	352.06
379.478	336.06
379.704	344.06
379.929	344.06
380.155	353.06
380.38	355.06
380.606	355.06
380.831	345.06
381.057	361.06
381.282	336.06
381.507	352.06
381.733	345.06
381.958	336.06
382.184	329.06
382.409	355.06
382.634	360.06
382.86	351.06
383.085	361.06
383.31	357.06
383.535	356.06
383.761	372.06
383.986	368.06
384.211	351.06
384.436	345.06
384.662	374.06
384.887	371.06
385.112	373.06
385.337	388.06
385.562	386.06
385.787	387.06
386.013	399.06
386.238	386.06
386.463	361.06
386.688	382.06
386.913	381.06
387.138	363.06
387.363	370.06
387.588	379.06
387.813	378.06
388.038	381.06
388.263	397.06
388.488	370.06
388.713	378.06
388.938	385.06
389.163	362.06
389.387	367.06
389.612	344.06
389.837	379.06
390.062	365.06
390.287	368.06
390.512	384.06
390.736	357.06
390.961	381.06
391.186	396.06
391.411	392.06
391.636	382.06
391.86	393.06
392.085	387.06
392.31	377.06
392.534	377.06
392.759	397.06
392.984	385.06
393.208	399.06
393.433	378.06
393.658	393.06
393.882	365.06
394.107	386.06
394.331	372.06
394.556	364.06
394.78	377.06
395.005	380.06
395.229	390.06
395.454	389.06
395.678	365.06
395.903	394.06
396.127	399.06
396.352	411.06
396.576	405.06
396.801	389.06
397.025	371.06
397.249	398.06
397.474	371.06
397.698	381.06
397.922	379.06
398.147	414.06
398.371	410.06
398.595	399.06
398.82	416.06
399.044	417.06
399.268	451.06
399.492	459.06
399.717	465.06
399.941	486.06
400.165	503.06
400.389	511.06
400.613	461.06
400.837	429.06
401.062	432.06
401.286	418.06
401.51	422.06
401.734	408.06
401.958	414.06
402.182	422.06
402.406	414.06
402.63	437.06
402.854	414.06
403.078	422.06
403.302	436.06
403.526	423.06
403.75	421.06
403.974	440.06
404.198	414.06
404.422	435.06
404.645	412.06
404.869	450.06
405.093	440.06
405.317	468.06
405.541	472.06
405.765	459.06
405.988	463.06
406.212	421.06
406.436	459.06
406.66	461.06
406.883	451.06
407.107	476.06
407.331	468.06
407.555	525.06
407.778	537.06
408.002	493.06
408.226	457.06
408.449	460.06
408.673	466.06
408.896	473.06
409.12	478.06
409.344	479.06
409.567	432.06
409.791	434.06
410.014	441.06
410.238	446.06
410.461	414.06
410.685	445.06
410.908	455.06
411.132	460.06
411.355	458.06
411.578	442.06
411.802	443.06
412.025	427.06
412.249	413.06
412.472	441.06
412.695	468.06
412.919	446.06
413.142	433.06
413.365	427.06
413.589	408.06
413.812	377.06
414.035	421.06
414.258	382.06
414.482	384.06
414.705	398.06
414.928	401.06
415.151	395.06
415.374	392.06
415.597	400.06
415.821	390.06
416.044	395.06
416.267	397.06
416.49	405.06
416.713	404.06
416.936	397.06
417.159	414.06
417.382	417.06
417.605	398.06
417.828	363.06
418.051	399.06
418.274	410.06
418.497	401.06
418.72	392.06
418.943	386.06
419.166	416.06
419.389	442.06
419.611	420.06
419.834	406.06
420.057	421.06
420.28	417.06
420.503	388.06
420.726	401.06
420.948	406.06
421.171	452.06
421.394	463.06
421.617	407.06
421.839	399.06
422.062	401.06
422.285	415.06
422.507	444.06
422.73	491.06
422.953	468.06
423.175	434.06
423.398	439.06
423.621	424.06
423.843	402.06
424.066	431.06
424.288	422.06
424.511	437.06
424.733	471.06
424.956	508.06
425.178	486.06
425.401	500.06
425.623	520.06
425.846	436.06
426.068	419.06
426.291	432.06
426.513	425.06
426.735	411.06
426.958	444.06
427.18	499.06
427.402	576.06
427.625	615.06
427.847	523.06
428.069	481.06
428.292	437.06
428.514	427.06
428.736	407.06
428.958	373.06
429.181	403.06
429.403	374.06
429.625	387.06
429.847	412.06
430.069	445.06
430.292	437.06
430.514	413.06
430.736	384.06
430.958	379.06
431.18	399.06
431.402	392.06
431.624	373.06
431.846	380.06
432.068	384.06
432.29	388.06
432.512	392.06
432.734	382.06
432.956	373.06
433.178	377.06
433.4	372.06
433.622	368.06
433.844	399.06
434.066	372.06
434.287	383.06
434.509	381.06
434.731	386.06
434.953	387.06
435.175	392.06
435.397	413.06
435.618	414.06
435.84	453.06
436.062	501.06
436.284	559.06
436.505	474.06
436.727	419.06
436.949	404.06
437.17	383.06
437.392	391.06
437.614	407.06
437.835	414.06
438.057	476.06
438.278	525.06
438.5	550.06
438.721	585.06
438.943	544.06
439.165	468.06
439.386	432.06
439.608	399.06
439.829	425.06
440.05	392.06
440.272	438.06
440.493	432.06
440.715	410.06
440.936	411.06
441.158	412.06
441.379	407.06
441.6	414.06
441.822	417.06
442.043	455.06
442.264	480.06
442.486	504.06
442.707	436.06
442.928	426.06
443.149	424.06
443.371	445.06
443.592	463.06
443.813	533.06
444.034	570.06
444.255	480.06
444.476	434.06
444.698	413.06
444.919	421.06
445.14	531.06
445.361	478.06
445.582	424.06
445.803	458.06
446.024	528.06
446.245	507.06
446.466	496.06
446.687	441.06
446.908	431.06
447.129	377.06
447.35	398.06
447.571	367.06
447.792	378.06
448.013	381.06
448.234	408.06
448.455	412.06
448.675	487.06
448.896	559.06
449.117	501.06
449.338	465.06
449.559	551.06
449.779	580.06
450	469.06
450.221	405.06
450.442	398.06
450.662	381.06
450.883	396.06
451.104	375.06
451.324	385.06
451.545	351.06
451.766	356.06
451.986	347.06
452.207	363.06
452.428	345.06
452.648	355.06
452.869	344.06
453.089	347.06
453.31	354.06
453.53	345.06
453.751	345.06
453.971	341.06
454.192	367.06
454.412	349.06
454.633	337.06
454.853	347.06
455.073	345.06
455.294	372.06
455.514	407.06
455.734	388.06
455.955	332.06
456.175	334.06
456.395	333.06
456.616	351.06
456.836	347.06
457.056	329.06
457.276	321.06
457.497	331.06
457.717	349.06
457.937	335.06
458.157	365.06
458.377	342.06
458.598	355.06
458.818	375.06
459.038	415.06
459.258	449.06
459.478	385.06
459.698	372.06
459.918	374.06
460.138	390.06
460.358	386.06
460.578	360.06
460.798	376.06
461.018	385.06
461.238	393.06
461.458	380.06
461.678	393.06
461.898	381.06
462.118	398.06
462.338	408.06
462.558	398.06
462.777	416.06
462.997	415.06
463.217	430.06
463.437	447.06
463.657	415.06
463.876	413.06
464.096	430.06
464.316	416.06
464.536	387.06
464.755	412.06
464.975	411.06
465.195	414.06
465.414	426.06
465.634	396.06
465.854	396.06
466.073	392.06
466.293	380.06
466.512	371.06
466.732	371.06
466.951	370.06
467.171	361.06
467.391	367.06
467.61	368.06
467.829	380.06
468.049	367.06
468.268	367.06
468.488	361.06
468.707	359.06
468.927	354.06
469.146	362.06
469.365	360.06
469.585	353.06
469.804	361.06
470.023	364.06
470.243	344.06
470.462	351.06
470.681	371.06
470.901	387.06
471.12	391.06
471.339	362.06
471.558	381.06
471.777	370.06
471.997	359.06
472.216	335.06
472.435	384.06
472.654	368.06
472.873	381.06
473.092	371.06
473.311	357.06
473.53	370.06
473.749	381.06
473.968	393.06
474.187	444.06
474.406	456.06
474.625	383.06
474.844	414.06
475.063	382.06
475.282	384.06
475.501	369.06
475.72	365.06
475.939	375.06
476.158	384.06
476.377	401.06
476.596	352.06
476.814	387.06
477.033	385.06
477.252	380.06
477.471	390.06
477.69	386.06
477.908	413.06
478.127	414.06
478.346	416.06
478.564	424.06
478.783	410.06
479.002	418.06
479.22	410.06
479.439	435.06
479.658	427.06
479.876	442.06
480.095	432.06
480.313	449.06
480.532	451.06
480.751	455.06
480.969	456.06
481.188	464.06
481.406	486.06
481.624	447.06
481.843	415.06
482.061	416.06
482.28	434.06
482.498	416.06
482.717	395.06
482.935	410.06
483.153	441.06
483.372	414.06
483.59	409.06
483.808	438.06
484.027	421.06
484.245	425.06
484.463	452.06
484.681	434.06
484.9	435.06
485.118	442.06
485.336	438.06
485.554	468.06
485.772	439.06
485.99	428.06
486.209	448.06
486.427	460.06
486.645	435.06
486.863	437.06
487.081	459.06
487.299	452.06
487.517	446.06
487.735	446.06
487.953	440.06
488.171	429.06
488.389	430.06
488.607	449.06
488.825	464.06
489.043	452.06
489.261	436.06
489.479	451.06
489.696	451.06
489.914	461.06
490.132	483.06
490.35	488.06
490.568	468.06
490.786	470.06
491.003	485.06
491.221	488.06
491.439	484.06
491.657	475.06
491.874	489.06
492.092	506.06
492.31	509.06
492.527	479.06
492.745	490.06
492.963	508.06
493.18	503.06
493.398	504.06
493.615	524.06
493.833	495.06
494.05	501.06
494.268	499.06
494.485	505.06
494.703	525.06
494.92	497.06
495.138	513.06
495.355	500.06
495.573	518.06
495.79	516.06
496.008	515.06
496.225	505.06
496.442	530.06
496.66	540.06
496.877	523.06
497.094	524.06
497.312	514.06
497.529	552.06
497.746	512.06
497.963	569.06
498.181	566.06
498.398	587.06
498.615	599.06
498.832	604.06
499.049	591.06
499.267	611.06
499.484	648.06
499.701	683.06
499.918	676.06
500.135	716.06
500.352	751.06
500.569	747.06
500.786	754.06
501.003	722.06
501.22	720.06
501.437	696.06
501.654	653.06
501.871	681.06
502.088	632.06
502.305	622.06
502.522	599.06
502.739	595.06
502.956	564.06
503.172	556.06
503.389	552.06
503.606	527.06
503.823	527.06
504.04	537.06
504.256	546.06
504.473	522.06
504.69	512.06
504.907	540.06
505.123	520.06
505.34	520.06
505.557	507.06
505.773	489.06
505.99	480.06
506.207	498.06
506.423	472.06
506.64	487.06
506.856	470.06
507.073	485.06
507.289	480.06
507.506	470.06
507.722	471.06
507.939	456.06
508.155	457.06
508.372	463.06
508.588	438.06
508.805	469.06
509.021	454.06
509.238	462.06
509.454	460.06
509.67	465.06
509.887	440.06
510.103	465.06
510.319	457.06
510.536	495.06
510.752	678.06
510.968	597.06
511.184	458.06
511.401	442.06
511.617	425.06
511.833	459.06
512.049	440.06
512.265	440.06
512.481	435.06
512.698	429.06
512.914	414.06
513.13	448.06
513.346	445.06
513.562	447.06
513.778	453.06
513.994	431.06
514.21	408.06
514.426	448.06
514.642	484.06
514.858	464.06
515.074	470.06
515.29	521.06
515.506	683.06
515.721	580.06
515.937	494.06
516.153	457.06
516.369	471.06
516.585	424.06
516.801	442.06
517.016	458.06
517.232	471.06
517.448	476.06
517.664	478.06
517.879	443.06
518.095	459.06
518.311	442.06
518.527	439.06
518.742	448.06
518.958	452.06
519.173	469.06
519.389	446.06
519.605	448.06
519.82	458.06
520.036	440.06
520.251	458.06
520.467	455.06
520.682	446.06
520.898	449.06
521.113	448.06
521.329	472.06
521.544	501.06
521.76	576.06
521.975	790.06
522.19	791.06
522.406	526.06
522.621	456.06
522.836	436.06
523.052	420.06
523.267	415.06
523.482	403.06
523.698	412.06
523.913	401.06
524.128	392.06
524.343	392.06
524.559	391.06
524.774	368.06
524.989	395.06
525.204	395.06
525.419	384.06
525.634	381.06
525.849	371.06
526.064	388.06
526.28	386.06
526.495	363.06
526.71	377.06
526.925	377.06
527.14	367.06
527.355	375.06
527.57	371.06
527.785	379.06
527.999	363.06
528.214	374.06
528.429	380.06
528.644	367.06
528.859	399.06
529.074	357.06
529.289	394.06
529.503	403.06
529.718	385.06
529.933	385.06
530.148	367.06
530.363	377.06
530.577	372.06
530.792	368.06
531.007	362.06
531.221	367.06
531.436	380.06
531.651	374.06
531.865	364.06
532.08	366.06
532.295	351.06
532.509	365.06
532.724	359.06
532.938	356.06
533.153	365.06
533.367	388.06
533.582	367.06
533.796	351.06
534.011	365.06
534.225	359.06
534.44	360.06
534.654	367.06
534.868	353.06
535.083	334.06
535.297	357.06
535.511	371.06
535.726	335.06
535.94	341.06
536.154	339.06
536.369	348.06
536.583	350.06
536.797	339.06
537.011	348.06
537.225	342.06
537.44	358.06
537.654	369.06
537.868	352.06
538.082	344.06
538.296	358.06
538.51	348.06
538.724	370.06
538.938	335.06
539.153	340.06
539.367	336.06
539.581	343.06
539.795	336.06
540.009	325.06
540.222	355.06
540.436	353.06
540.65	352.06
540.864	347.06
541.078	345.06
541.292	334.06
541.506	346.06
541.72	315.06
541.934	357.06
542.147	333.06
542.361	351.06
542.575	344.06
542.789	331.06
543.002	341.06
543.216	338.06
543.43	345.06
543.644	346.06
543.857	355.06
544.071	339.06
544.285	347.06
544.498	352.06
544.712	348.06
544.925	339.06
545.139	327.06
545.352	349.06
545.566	350.06
545.779	329.06
545.993	349.06
546.206	336.06
546.42	343.06
546.633	336.06
546.847	337.06
547.06	329.06
547.274	321.06
547.487	323.06
547.7	328.06
547.914	303.06
548.127	324.06
548.34	335.06
548.554	343.06
548.767	358.06
548.98	342.06
549.193	345.06
549.407	334.06
549.62	343.06
549.833	334.06
550.046	337.06
550.259	333.06
550.473	340.06
550.686	349.06
550.899	325.06
551.112	322.06
551.325	334.06
551.538	327.06
551.751	335.06
551.964	311.06
552.177	335.06
552.39	322.06
552.603	317.06
552.816	315.06
553.029	330.06
553.242	336.06
553.455	344.06
553.667	329.06
553.88	342.06
554.093	350.06
554.306	323.06
554.519	336.06
554.732	328.06
554.944	339.06
555.157	328.06
555.37	313.06
555.583	325.06
555.795	328.06
556.008	317.06
556.221	328.06
556.433	304.06
556.646	311.06
556.859	308.06
557.071	315.06
557.284	322.06
557.496	287.06
557.709	298.06
557.921	310.06
558.134	297.06
558.346	314.06
558.559	298.06
558.771	313.06
558.984	297.06
559.196	312.06
559.409	295.06
559.621	299.06
559.833	301.06
560.046	295.06
560.258	283.06
560.47	306.06
560.683	298.06
560.895	285.06
561.107	295.06
561.32	313.06
561.532	307.06
561.744	297.06
561.956	309.06
562.168	324.06
562.381	295.06
562.593	303.06
562.805	300.06
563.017	280.06
563.229	310.06
563.441	303.06
563.653	320.06
563.865	308.06
564.077	300.06
564.289	326.06
564.501	317.06
564.713	323.06
564.925	327.06
565.137	327.06
565.349	348.06
565.561	326.06
565.773	338.06
565.985	331.06
566.197	344.06
566.408	349.06
566.62	365.06
566.832	347.06
567.044	381.06
567.255	383.06
567.467	375.06
567.679	376.06
567.891	392.06
568.102	372.06
568.314	372.06
568.526	357.06
568.737	383.06
568.949	343.06
569.161	348.06
569.372	317.06
569.584	332.06
569.795	308.06
570.007	308.06
570.218	335.06
570.43	316.06
570.641	301.06
570.853	295.06
571.064	294.06
571.276	314.06
571.487	294.06
571.698	297.06
571.91	302.06
572.121	278.06
572.333	275.06
572.544	290.06
572.755	279.06
572.966	268.06
573.178	278.06
573.389	259.06
573.6	259.06
573.811	271.06
574.023	269.06
574.234	273.06
574.445	260.06
574.656	266.06
574.867	259.06
575.078	266.06
575.289	268.06
575.501	266.06
575.712	263.06
575.923	252.06
576.134	262.06
576.345	262.06
576.556	262.06
576.767	252.06
576.978	249.06
577.188	269.06
577.399	243.06
577.61	259.06
577.821	254.06
578.032	247.06
578.243	271.06
578.454	352.06
578.665	277.06
578.875	247.06
579.086	259.06
579.297	259.06
579.508	255.06
579.718	248.06
579.929	248.06
580.14	248.06
580.35	238.06
580.561	251.06
580.772	257.06
580.982	245.06
581.193	256.06
581.403	228.06
581.614	225.06
581.825	231.06
582.035	224.06
582.246	234.06
582.456	246.06
582.667	237.06
582.877	255.06
583.087	222.06
583.298	239.06
583.508	239.06
583.719	247.06
583.929	246.06
584.139	245.06
584.35	230.06
584.56	247.06
584.77	240.06
584.981	249.06
585.191	252.06
585.401	239.06
585.611	232.06
585.821	257.06
586.032	247.06
586.242	236.06
586.452	244.06
586.662	243.06
586.872	230.06
587.082	244.06
587.292	207.06
587.502	228.06
587.713	240.06
587.923	231.06
588.133	223.06
588.343	238.06
588.553	249.06
588.762	237.06
588.972	256.06
589.182	316.06
589.392	325.06
589.602	261.06
589.812	348.06
590.022	267.06
590.232	257.06
590.441	252.06
590.651	232.06
590.861	242.06
591.071	232.06
591.281	224.06
591.49	235.06
591.7	235.06
591.91	250.06
592.119	246.06
592.329	241.06
592.539	237.06
592.748	275.06
592.958	233.06
593.167	245.06
593.377	245.06
593.587	258.06
593.796	248.06
594.006	250.06
594.215	262.06
594.424	257.06
594.634	253.06
594.843	224.06
595.053	243.06
595.262	227.06
595.472	218.06
595.681	231.06
595.89	231.06
596.1	244.06
596.309	226.06
596.518	213.06
596.727	212.06
596.937	236.06
597.146	224.06
597.355	214.06
597.564	222.06
597.774	235.06
597.983	219.06
598.192	235.06
598.401	222.06
598.61	223.06
598.819	215.06
599.028	206.06
599.237	217.06
599.446	215.06
599.655	203.06
599.864	210.06
600.073	208.06
600.282	215.06
600.491	204.06
600.7	202.06
600.909	196.06
601.118	207.06
601.327	200.06
601.536	192.06
601.745	223.06
601.953	211.06
602.162	207.06
602.371	204.06
602.58	197.06
602.789	219.06
602.997	216.06
603.206	190.06
603.415	214.06
603.623	199.06
603.832	189.06
604.041	197.06
604.249	211.06
604.458	213.06
604.666	193.06
604.875	204.06
605.084	186.06
605.292	193.06
605.501	207.06
605.709	211.06
605.918	192.06
606.126	195.06
606.334	212.06
606.543	211.06
606.751	196.06
606.96	208.06
607.168	189.06
607.376	190.06
607.585	204.06
607.793	202.06
608.001	195.06
608.21	193.06
608.418	205.06
608.626	193.06
608.834	187.06
609.043	197.06
609.251	193.06
609.459	195.06
609.667	195.06
609.875	221.06
610.083	206.06
610.291	210.06
610.499	201.06
610.707	196.06
610.916	191.06
611.124	202.06
611.332	196.06
611.54	200.06
611.748	194.06
611.955	193.06
612.163	192.06
612.371	208.06
612.579	192.06
612.787	195.06
612.995	199.06
613.203	194.06
613.411	191.06
613.618	183.06
613.826	186.06
614.034	202.06
614.242	192.06
614.449	196.06
614.657	204.06
614.865	176.06
615.072	195.06
615.28	190.06
615.488	191.06
615.695	216.06
615.903	202.06
616.111	185.06
616.318	201.06
616.526	197.06
616.733	184.06
616.941	202.06
617.148	188.06
617.356	203.06
617.563	188.06
617.771	185.06
617.978	183.06
618.185	190.06
618.393	187.06
618.6	205.06
618.807	201.06
619.015	217.06
619.222	190.06
619.429	203.06
619.637	187.06
619.844	200.06
620.051	195.06
620.258	189.06
620.466	173.06
620.673	164.06
620.88	183.06
621.087	177.06
621.294	187.06
621.501	174.06
621.708	190.06
621.915	173.06
622.122	182.06
622.329	172.06
622.536	182.06
622.743	176.06
622.95	199.06
623.157	181.06
623.364	183.06
623.571	178.06
623.778	197.06
623.985	186.06
624.192	184.06
624.399	182.06
624.606	175.06
624.812	172.06
625.019	164.06
625.226	184.06
625.433	180.06
625.639	173.06
625.846	190.06
626.053	158.06
626.259	183.06
626.466	173.06
626.673	169.06
626.879	179.06
627.086	173.06
627.293	185.06
627.499	170.06
627.706	173.06
627.912	174.06
628.119	157.06
628.325	176.06
628.532	165.06
628.738	182.06
628.945	160.06
629.151	169.06
629.357	184.06
629.564	168.06
629.77	166.06
629.976	164.06
630.183	160.06
630.389	161.06
630.595	164.06
630.802	181.06
631.008	152.06
631.214	161.06
631.42	165.06
631.627	171.06
631.833	171.06
632.039	160.06
632.245	157.06
632.451	178.06
632.657	159.06
632.863	158.06
633.069	153.06
633.275	161.06
633.481	153.06
633.688	159.06
633.893	161.06
634.099	173.06
634.305	164.06
634.511	167.06
634.717	135.06
634.923	142.06
635.129	133.06
635.335	149.06
635.541	158.06
635.747	166.06
635.952	159.06
636.158	154.06
636.364	154.06
636.57	166.06
636.775	173.06
636.981	164.06
637.187	154.06
637.392	143.06
637.598	142.06
637.804	155.06
638.009	165.06
638.215	169.06
638.421	154.06
638.626	152.06
638.832	154.06
639.037	163.06
639.243	140.06
639.448	155.06
639.654	163.06
639.859	149.06
640.065	150.06
640.27	154.06
640.475	134.06
640.681	164.06
640.886	153.06
641.091	143.06
641.297	139.06
641.502	148.06
641.707	153.06
641.913	139.06
642.118	142.06
642.323	150.06
642.528	154.06
642.733	139.06
642.939	143.06
643.144	137.06
643.349	154.06
643.554	165.06
643.759	149.06
643.964	151.06
644.169	147.06
644.374	151.06
644.579	158.06
644.784	161.06
644.989	156.06
645.194	157.06
645.399	156.06
645.604	149.06
645.809	143.06
646.014	144.06
646.219	139.06
646.423	144.06
646.628	139.06
646.833	134.06
647.038	144.06
647.243	140.06
647.447	152.06
647.652	146.06
647.857	137.06
648.062	144.06
648.266	139.06
648.471	163.06
648.676	160.06
648.88	135.06
649.085	138.06
649.289	157.06
649.494	148.06
649.698	154.06
649.903	156.06
650.107	131.06
650.312	160.06
650.516	143.06
650.721	151.06
650.925	143.06
651.13	127.06
651.334	131.06
651.539	147.06
651.743	135.06
651.947	133.06
652.152	135.06
652.356	131.06
652.56	133.06
652.764	134.06
652.969	130.06
653.173	136.06
653.377	118.06
653.581	125.06
653.785	135.06
653.99	120.06
654.194	128.06
654.398	138.06
654.602	122.06
654.806	134.06
655.01	124.06
655.214	144.06
655.418	128.06
655.622	134.06
655.826	129.06
656.03	141.06
656.234	140.06
656.438	145.06
656.642	145.06
656.846	135.06
657.049	127.06
657.253	122.06
657.457	121.06
657.661	122.06
657.865	126.06
658.068	111.06
658.272	120.06
658.476	113.06
658.68	110.06
658.883	95.06
659.087	116.06
659.291	102.06
659.494	101.06
659.698	111.06
659.901	95.06
660.105	109.06
660.309	106.06
660.512	96.06
660.716	86.06
660.919	91.06
661.123	77.06
661.326	96.06
661.53	99.06
661.733	99.06
661.936	90.06
662.14	83.06
662.343	80.06
662.546	77.06
662.75	88.06
662.953	81.06
663.156	81.06
663.36	98.06
663.563	91.06
663.766	82.06
663.969	94.06
664.173	79.06
664.376	79.06
664.579	91.06
664.782	87.06
664.985	102.06
665.188	77.06
665.391	80.06
665.594	91.06
665.797	93.06
666	91.06
666.203	89.06
666.406	97.06
666.609	89.06
666.812	94.06
667.015	104.06
667.218	81.06
667.421	88.06
667.624	80.06
667.827	69.06
668.03	73.06
668.232	72.06
668.435	77.06
668.638	82.06
668.841	92.06
669.043	76.06
669.246	85.06
669.449	93.06
669.651	91.06
669.854	86.06
670.057	92.06
670.259	86.06
670.462	84.06
670.665	85.06
670.867	86.06
671.07	82.06
671.272	79.06
671.475	97.06
671.677	92.06
671.88	72.06
672.082	79.06
672.284	89.06
672.487	92.06
672.689	91.06
672.892	89.06
