Data from 1960PennyLincolnUp.LampE6.200Scan.07172019.P1_HRD10591_13-05-13-003.txt Node
Date: Thu Jul 18 13:05:13 EDT 2019
User: cochatt
Spectrometer: HR+D1059
Trigger mode: 1
Integration Time (sec): 1.000000E-1
Scans to average: 1
Electric dark correction enabled: true
Nonlinearity correction enabled: false
Boxcar width: 0
XAxis mode: Wavelengths
Number of Pixels in Spectrum: 2048
>>>>>Begin Spectral Data<<<<<
223.165	5.69
223.4	5.69
223.635	5.69
223.869	-25.31
224.104	-7.31
224.338	-13.31
224.573	-12.31
224.808	-3.31
225.042	-21.31
225.277	-21.31
225.511	-23.31
225.746	-4.31
225.98	14.69
226.215	18.69
226.449	15.69
226.683	17.69
226.918	22.69
227.152	36.69
227.387	42.69
227.621	42.69
227.856	33.69
228.09	51.69
228.324	47.69
228.559	64.69
228.793	79.69
229.027	94.69
229.262	96.69
229.496	91.69
229.73	114.69
229.964	122.69
230.199	101.69
230.433	106.69
230.667	109.69
230.901	112.69
231.136	103.69
231.37	112.69
231.604	108.69
231.838	115.69
232.072	108.69
232.306	107.69
232.541	103.69
232.775	98.69
233.009	109.69
233.243	104.69
233.477	109.69
233.711	112.69
233.945	102.69
234.179	115.69
234.413	128.69
234.647	114.69
234.881	117.69
235.115	110.69
235.349	106.69
235.583	99.69
235.817	114.69
236.051	115.69
236.285	107.69
236.519	103.69
236.753	117.69
236.987	118.69
237.221	158.69
237.455	154.69
237.689	136.69
237.922	120.69
238.156	118.69
238.39	116.69
238.624	115.69
238.858	116.69
239.091	117.69
239.325	108.69
239.559	118.69
239.793	114.69
240.027	124.69
240.26	132.69
240.494	123.69
240.728	138.69
240.961	136.69
241.195	129.69
241.429	137.69
241.662	128.69
241.896	122.69
242.13	134.69
242.363	135.69
242.597	125.69
242.83	119.69
243.064	139.69
243.298	123.69
243.531	131.69
243.765	119.69
243.998	147.69
244.232	134.69
244.465	142.69
244.699	139.69
244.932	144.69
245.166	132.69
245.399	130.69
245.633	139.69
245.866	139.69
246.099	134.69
246.333	136.69
246.566	135.69
246.8	151.69
247.033	150.69
247.266	145.69
247.5	146.69
247.733	151.69
247.966	148.69
248.2	164.69
248.433	159.69
248.666	147.69
248.899	169.69
249.133	176.69
249.366	175.69
249.599	163.69
249.832	161.69
250.066	171.69
250.299	160.69
250.532	167.69
250.765	178.69
250.998	186.69
251.231	184.69
251.465	178.69
251.698	166.69
251.931	171.69
252.164	175.69
252.397	184.69
252.63	163.69
252.863	179.69
253.096	180.69
253.329	194.69
253.562	189.69
253.795	191.69
254.028	195.69
254.261	177.69
254.494	200.69
254.727	218.69
254.96	229.69
255.193	213.69
255.426	194.69
255.659	205.69
255.892	209.69
256.124	204.69
256.357	200.69
256.59	192.69
256.823	183.69
257.056	195.69
257.289	188.69
257.521	188.69
257.754	183.69
257.987	177.69
258.22	185.69
258.452	171.69
258.685	183.69
258.918	196.69
259.151	197.69
259.383	198.69
259.616	185.69
259.849	206.69
260.081	200.69
260.314	215.69
260.547	207.69
260.779	207.69
261.012	216.69
261.244	213.69
261.477	185.69
261.71	203.69
261.942	193.69
262.175	203.69
262.407	213.69
262.64	186.69
262.872	193.69
263.105	203.69
263.337	193.69
263.57	206.69
263.802	199.69
264.035	199.69
264.267	211.69
264.499	190.69
264.732	217.69
264.964	206.69
265.197	194.69
265.429	206.69
265.661	220.69
265.894	205.69
266.126	208.69
266.358	201.69
266.591	224.69
266.823	223.69
267.055	225.69
267.287	221.69
267.52	228.69
267.752	208.69
267.984	230.69
268.216	217.69
268.448	220.69
268.681	233.69
268.913	225.69
269.145	228.69
269.377	231.69
269.609	241.69
269.841	244.69
270.073	234.69
270.306	243.69
270.538	251.69
270.77	255.69
271.002	250.69
271.234	234.69
271.466	251.69
271.698	255.69
271.93	263.69
272.162	261.69
272.394	277.69
272.626	257.69
272.858	266.69
273.09	260.69
273.322	247.69
273.553	240.69
273.785	247.69
274.017	244.69
274.249	247.69
274.481	250.69
274.713	242.69
274.945	248.69
275.176	253.69
275.408	240.69
275.64	249.69
275.872	238.69
276.104	243.69
276.335	248.69
276.567	252.69
276.799	244.69
277.031	258.69
277.262	274.69
277.494	273.69
277.726	273.69
277.957	258.69
278.189	279.69
278.421	248.69
278.652	260.69
278.884	268.69
279.115	239.69
279.347	260.69
279.579	277.69
279.81	246.69
280.042	258.69
280.273	264.69
280.505	261.69
280.736	262.69
280.968	282.69
281.199	263.69
281.431	258.69
281.662	260.69
281.894	254.69
282.125	275.69
282.356	286.69
282.588	270.69
282.819	283.69
283.051	260.69
283.282	270.69
283.513	263.69
283.745	275.69
283.976	273.69
284.207	268.69
284.439	280.69
284.67	286.69
284.901	277.69
285.132	271.69
285.364	278.69
285.595	283.69
285.826	283.69
286.057	283.69
286.288	296.69
286.52	282.69
286.751	283.69
286.982	280.69
287.213	298.69
287.444	299.69
287.675	296.69
287.906	294.69
288.138	297.69
288.369	290.69
288.6	316.69
288.831	302.69
289.062	313.69
289.293	279.69
289.524	278.69
289.755	287.69
289.986	306.69
290.217	291.69
290.448	290.69
290.679	294.69
290.91	299.69
291.141	297.69
291.371	306.69
291.602	293.69
291.833	282.69
292.064	298.69
292.295	304.69
292.526	276.69
292.757	296.69
292.987	309.69
293.218	288.69
293.449	303.69
293.68	304.69
293.91	306.69
294.141	299.69
294.372	291.69
294.603	290.69
294.833	290.69
295.064	292.69
295.295	289.69
295.525	291.69
295.756	303.69
295.987	316.69
296.217	305.69
296.448	329.69
296.679	313.69
296.909	324.69
297.14	311.69
297.37	318.69
297.601	302.69
297.831	315.69
298.062	328.69
298.292	306.69
298.523	309.69
298.753	312.69
298.984	327.69
299.214	338.69
299.445	324.69
299.675	300.69
299.905	317.69
300.136	318.69
300.366	329.69
300.597	316.69
300.827	333.69
301.057	334.69
301.288	336.69
301.518	350.69
301.748	354.69
301.979	339.69
302.209	333.69
302.439	340.69
302.669	347.69
302.9	337.69
303.13	341.69
303.36	337.69
303.59	336.69
303.82	314.69
304.051	326.69
304.281	351.69
304.511	328.69
304.741	325.69
304.971	343.69
305.201	333.69
305.431	345.69
305.661	314.69
305.891	336.69
306.121	327.69
306.352	341.69
306.582	348.69
306.812	321.69
307.042	334.69
307.272	343.69
307.502	326.69
307.731	351.69
307.961	327.69
308.191	346.69
308.421	342.69
308.651	339.69
308.881	332.69
309.111	359.69
309.341	339.69
309.571	347.69
309.8	340.69
310.03	366.69
310.26	347.69
310.49	341.69
310.72	356.69
310.949	352.69
311.179	359.69
311.409	371.69
311.639	376.69
311.868	362.69
312.098	358.69
312.328	355.69
312.557	360.69
312.787	366.69
313.017	389.69
313.246	340.69
313.476	363.69
313.706	364.69
313.935	369.69
314.165	389.69
314.394	377.69
314.624	368.69
314.853	368.69
315.083	376.69
315.312	370.69
315.542	356.69
315.771	368.69
316.001	369.69
316.23	359.69
316.46	372.69
316.689	372.69
316.919	359.69
317.148	358.69
317.377	359.69
317.607	372.69
317.836	363.69
318.065	369.69
318.295	367.69
318.524	380.69
318.753	363.69
318.983	354.69
319.212	362.69
319.441	380.69
319.67	380.69
319.9	366.69
320.129	368.69
320.358	354.69
320.587	375.69
320.816	364.69
321.046	394.69
321.275	392.69
321.504	395.69
321.733	390.69
321.962	378.69
322.191	379.69
322.42	407.69
322.649	385.69
322.878	403.69
323.108	400.69
323.337	423.69
323.566	403.69
323.795	396.69
324.024	459.69
324.253	508.69
324.482	609.69
324.71	849.69
324.939	1151.69
325.168	943.69
325.397	552.69
325.626	464.69
325.855	430.69
326.084	430.69
326.313	437.69
326.542	429.69
326.77	443.69
326.999	491.69
327.228	616.69
327.457	812.69
327.686	902.69
327.914	648.69
328.143	501.69
328.372	498.69
328.6	469.69
328.829	464.69
329.058	463.69
329.287	450.69
329.515	429.69
329.744	442.69
329.972	439.69
330.201	453.69
330.43	453.69
330.658	467.69
330.887	479.69
331.115	480.69
331.344	463.69
331.572	459.69
331.801	452.69
332.03	454.69
332.258	463.69
332.486	463.69
332.715	481.69
332.943	482.69
333.172	487.69
333.4	508.69
333.629	503.69
333.857	525.69
334.085	533.69
334.314	520.69
334.542	530.69
334.771	558.69
334.999	507.69
335.227	501.69
335.455	475.69
335.684	478.69
335.912	478.69
336.14	463.69
336.369	474.69
336.597	478.69
336.825	460.69
337.053	465.69
337.281	433.69
337.51	434.69
337.738	473.69
337.966	440.69
338.194	451.69
338.422	438.69
338.65	435.69
338.878	456.69
339.106	440.69
339.334	440.69
339.562	435.69
339.79	438.69
340.018	423.69
340.246	411.69
340.474	429.69
340.702	432.69
340.93	431.69
341.158	424.69
341.386	408.69
341.614	429.69
341.842	423.69
342.07	427.69
342.298	414.69
342.526	407.69
342.754	420.69
342.981	439.69
343.209	444.69
343.437	434.69
343.665	456.69
343.893	463.69
344.12	496.69
344.348	483.69
344.576	468.69
344.804	444.69
345.031	436.69
345.259	420.69
345.487	422.69
345.714	416.69
345.942	431.69
346.17	431.69
346.397	414.69
346.625	417.69
346.853	396.69
347.08	408.69
347.308	400.69
347.535	418.69
347.763	404.69
347.99	416.69
348.218	412.69
348.445	418.69
348.673	408.69
348.9	410.69
349.128	410.69
349.355	379.69
349.583	391.69
349.81	396.69
350.037	407.69
350.265	395.69
350.492	404.69
350.72	380.69
350.947	402.69
351.174	390.69
351.402	406.69
351.629	402.69
351.856	398.69
352.083	416.69
352.311	412.69
352.538	406.69
352.765	396.69
352.992	423.69
353.22	378.69
353.447	405.69
353.674	386.69
353.901	395.69
354.128	393.69
354.355	391.69
354.583	398.69
354.81	357.69
355.037	370.69
355.264	410.69
355.491	392.69
355.718	401.69
355.945	403.69
356.172	391.69
356.399	408.69
356.626	389.69
356.853	380.69
357.08	375.69
357.307	382.69
357.534	390.69
357.761	388.69
357.988	393.69
358.215	386.69
358.441	386.69
358.668	390.69
358.895	404.69
359.122	409.69
359.349	417.69
359.576	407.69
359.802	394.69
360.029	420.69
360.256	444.69
360.483	406.69
360.709	394.69
360.936	399.69
361.163	390.69
361.39	399.69
361.616	420.69
361.843	398.69
362.07	404.69
362.296	395.69
362.523	418.69
362.749	386.69
362.976	403.69
363.203	412.69
363.429	397.69
363.656	414.69
363.882	393.69
364.109	381.69
364.335	391.69
364.562	405.69
364.788	392.69
365.015	386.69
365.241	407.69
365.468	400.69
365.694	388.69
365.92	412.69
366.147	416.69
366.373	394.69
366.599	400.69
366.826	418.69
367.052	389.69
367.278	386.69
367.505	395.69
367.731	403.69
367.957	411.69
368.184	398.69
368.41	388.69
368.636	404.69
368.862	420.69
369.089	397.69
369.315	410.69
369.541	400.69
369.767	400.69
369.993	406.69
370.219	415.69
370.445	403.69
370.672	397.69
370.898	416.69
371.124	415.69
371.35	417.69
371.576	402.69
371.802	426.69
372.028	417.69
372.254	407.69
372.48	418.69
372.706	427.69
372.932	434.69
373.158	441.69
373.384	434.69
373.61	431.69
373.835	414.69
374.061	416.69
374.287	430.69
374.513	434.69
374.739	442.69
374.965	453.69
375.191	448.69
375.416	411.69
375.642	443.69
375.868	425.69
376.094	430.69
376.319	436.69
376.545	431.69
376.771	404.69
376.997	412.69
377.222	420.69
377.448	416.69
377.674	431.69
377.899	425.69
378.125	401.69
378.35	408.69
378.576	405.69
378.802	425.69
379.027	403.69
379.253	416.69
379.478	427.69
379.704	430.69
379.929	426.69
380.155	415.69
380.38	448.69
380.606	412.69
380.831	434.69
381.057	420.69
381.282	416.69
381.507	421.69
381.733	434.69
381.958	425.69
382.184	417.69
382.409	447.69
382.634	430.69
382.86	431.69
383.085	426.69
383.31	449.69
383.535	438.69
383.761	453.69
383.986	450.69
384.211	455.69
384.436	456.69
384.662	454.69
384.887	471.69
385.112	496.69
385.337	476.69
385.562	490.69
385.787	476.69
386.013	495.69
386.238	504.69
386.463	486.69
386.688	478.69
386.913	470.69
387.138	478.69
387.363	489.69
387.588	494.69
387.813	466.69
388.038	463.69
388.263	489.69
388.488	460.69
388.713	458.69
388.938	468.69
389.163	458.69
389.387	468.69
389.612	463.69
389.837	469.69
390.062	455.69
390.287	452.69
390.512	459.69
390.736	476.69
390.961	471.69
391.186	480.69
391.411	478.69
391.636	505.69
391.86	508.69
392.085	514.69
392.31	506.69
392.534	502.69
392.759	500.69
392.984	494.69
393.208	505.69
393.433	499.69
393.658	501.69
393.882	484.69
394.107	474.69
394.331	486.69
394.556	484.69
394.78	517.69
395.005	486.69
395.229	494.69
395.454	511.69
395.678	515.69
395.903	506.69
396.127	534.69
396.352	520.69
396.576	498.69
396.801	507.69
397.025	511.69
397.249	531.69
397.474	513.69
397.698	502.69
397.922	522.69
398.147	531.69
398.371	531.69
398.595	565.69
398.82	538.69
399.044	588.69
399.268	626.69
399.492	683.69
399.717	738.69
399.941	768.69
400.165	727.69
400.389	682.69
400.613	624.69
400.837	615.69
401.062	588.69
401.286	593.69
401.51	541.69
401.734	563.69
401.958	568.69
402.182	561.69
402.406	572.69
402.63	593.69
402.854	602.69
403.078	594.69
403.302	613.69
403.526	642.69
403.75	626.69
403.974	619.69
404.198	606.69
404.422	614.69
404.645	641.69
404.869	616.69
405.093	632.69
405.317	624.69
405.541	684.69
405.765	618.69
405.988	621.69
406.212	624.69
406.436	627.69
406.66	645.69
406.883	648.69
407.107	692.69
407.331	700.69
407.555	727.69
407.778	739.69
408.002	695.69
408.226	660.69
408.449	665.69
408.673	650.69
408.896	662.69
409.12	662.69
409.344	647.69
409.567	616.69
409.791	623.69
410.014	599.69
410.238	612.69
410.461	591.69
410.685	587.69
410.908	578.69
411.132	614.69
411.355	606.69
411.578	591.69
411.802	579.69
412.025	567.69
412.249	588.69
412.472	618.69
412.695	612.69
412.919	609.69
413.142	570.69
413.365	594.69
413.589	565.69
413.812	582.69
414.035	545.69
414.258	553.69
414.482	553.69
414.705	555.69
414.928	576.69
415.151	558.69
415.374	556.69
415.597	545.69
415.821	562.69
416.044	535.69
416.267	534.69
416.49	538.69
416.713	559.69
416.936	554.69
417.159	537.69
417.382	528.69
417.605	542.69
417.828	555.69
418.051	572.69
418.274	565.69
418.497	562.69
418.72	555.69
418.943	555.69
419.166	587.69
419.389	598.69
419.611	591.69
419.834	580.69
420.057	581.69
420.28	585.69
420.503	566.69
420.726	568.69
420.948	574.69
421.171	570.69
421.394	583.69
421.617	589.69
421.839	571.69
422.062	563.69
422.285	590.69
422.507	599.69
422.73	632.69
422.953	637.69
423.175	605.69
423.398	576.69
423.621	588.69
423.843	631.69
424.066	599.69
424.288	603.69
424.511	587.69
424.733	620.69
424.956	660.69
425.178	642.69
425.401	636.69
425.623	643.69
425.846	579.69
426.068	572.69
426.291	552.69
426.513	548.69
426.735	554.69
426.958	584.69
427.18	624.69
427.402	677.69
427.625	733.69
427.847	644.69
428.069	584.69
428.292	565.69
428.514	521.69
428.736	515.69
428.958	501.69
429.181	508.69
429.403	512.69
429.625	528.69
429.847	533.69
430.069	556.69
430.292	552.69
430.514	500.69
430.736	521.69
430.958	486.69
431.18	516.69
431.402	500.69
431.624	501.69
431.846	488.69
432.068	489.69
432.29	507.69
432.512	489.69
432.734	511.69
432.956	513.69
433.178	502.69
433.4	531.69
433.622	510.69
433.844	509.69
434.066	513.69
434.287	521.69
434.509	523.69
434.731	545.69
434.953	556.69
435.175	578.69
435.397	574.69
435.618	547.69
435.84	569.69
436.062	602.69
436.284	625.69
436.505	566.69
436.727	522.69
436.949	526.69
437.17	506.69
437.392	524.69
437.614	516.69
437.835	521.69
438.057	570.69
438.278	613.69
438.5	625.69
438.721	632.69
438.943	635.69
439.165	553.69
439.386	558.69
439.608	554.69
439.829	524.69
440.05	553.69
440.272	570.69
440.493	544.69
440.715	549.69
440.936	525.69
441.158	522.69
441.379	546.69
441.6	555.69
441.822	558.69
442.043	606.69
442.264	617.69
442.486	632.69
442.707	607.69
442.928	573.69
443.149	576.69
443.371	592.69
443.592	607.69
443.813	648.69
444.034	690.69
444.255	662.69
444.476	608.69
444.698	598.69
444.919	618.69
445.14	713.69
445.361	647.69
445.582	592.69
445.803	590.69
446.024	651.69
446.245	651.69
446.466	627.69
446.687	563.69
446.908	534.69
447.129	515.69
447.35	521.69
447.571	517.69
447.792	485.69
448.013	492.69
448.234	484.69
448.455	526.69
448.675	565.69
448.896	626.69
449.117	564.69
449.338	539.69
449.559	616.69
449.779	656.69
450	567.69
450.221	496.69
450.442	484.69
450.662	479.69
450.883	485.69
451.104	503.69
451.324	470.69
451.545	474.69
451.766	479.69
451.986	466.69
452.207	455.69
452.428	475.69
452.648	451.69
452.869	467.69
453.089	454.69
453.31	459.69
453.53	453.69
453.751	445.69
453.971	446.69
454.192	467.69
454.412	420.69
454.633	433.69
454.853	451.69
455.073	424.69
455.294	450.69
455.514	496.69
455.734	480.69
455.955	443.69
456.175	426.69
456.395	425.69
456.616	420.69
456.836	431.69
457.056	425.69
457.276	437.69
457.497	398.69
457.717	417.69
457.937	446.69
458.157	428.69
458.377	442.69
458.598	436.69
458.818	496.69
459.038	534.69
459.258	550.69
459.478	519.69
459.698	510.69
459.918	499.69
460.138	530.69
460.358	551.69
460.578	523.69
460.798	545.69
461.018	559.69
461.238	528.69
461.458	564.69
461.678	512.69
461.898	535.69
462.118	544.69
462.338	581.69
462.558	573.69
462.777	605.69
462.997	631.69
463.217	690.69
463.437	680.69
463.657	633.69
463.876	613.69
464.096	603.69
464.316	610.69
464.536	600.69
464.755	599.69
464.975	574.69
465.195	572.69
465.414	593.69
465.634	553.69
465.854	498.69
466.073	514.69
466.293	487.69
466.512	486.69
466.732	475.69
466.951	486.69
467.171	454.69
467.391	496.69
467.61	476.69
467.829	480.69
468.049	467.69
468.268	465.69
468.488	455.69
468.707	457.69
468.927	462.69
469.146	454.69
469.365	467.69
469.585	453.69
469.804	484.69
470.023	497.69
470.243	471.69
470.462	490.69
470.681	528.69
470.901	494.69
471.12	472.69
471.339	467.69
471.558	482.69
471.777	485.69
471.997	463.69
472.216	459.69
472.435	500.69
472.654	501.69
472.873	444.69
473.092	452.69
473.311	442.69
473.53	454.69
473.749	470.69
473.968	467.69
474.187	550.69
474.406	550.69
474.625	503.69
474.844	483.69
475.063	460.69
475.282	449.69
475.501	465.69
475.72	502.69
475.939	468.69
476.158	468.69
476.377	494.69
476.596	467.69
476.814	510.69
477.033	466.69
477.252	481.69
477.471	473.69
477.69	490.69
477.908	517.69
478.127	556.69
478.346	528.69
478.564	526.69
478.783	543.69
479.002	536.69
479.22	542.69
479.439	558.69
479.658	576.69
479.876	539.69
480.095	564.69
480.313	605.69
480.532	580.69
480.751	604.69
480.969	584.69
481.188	623.69
481.406	637.69
481.624	572.69
481.843	563.69
482.061	537.69
482.28	548.69
482.498	520.69
482.717	540.69
482.935	540.69
483.153	531.69
483.372	528.69
483.59	535.69
483.808	521.69
484.027	543.69
484.245	552.69
484.463	540.69
484.681	537.69
484.9	569.69
485.118	567.69
485.336	523.69
485.554	569.69
485.772	548.69
485.99	546.69
486.209	546.69
486.427	574.69
486.645	573.69
486.863	577.69
487.081	591.69
487.299	585.69
487.517	566.69
487.735	569.69
487.953	576.69
488.171	561.69
488.389	580.69
488.607	556.69
488.825	554.69
489.043	565.69
489.261	561.69
489.479	570.69
489.696	557.69
489.914	583.69
490.132	570.69
490.35	580.69
490.568	582.69
490.786	597.69
491.003	604.69
491.221	615.69
491.439	612.69
491.657	615.69
491.874	626.69
492.092	616.69
492.31	628.69
492.527	607.69
492.745	608.69
492.963	638.69
493.18	651.69
493.398	650.69
493.615	657.69
493.833	648.69
494.05	634.69
494.268	634.69
494.485	641.69
494.703	630.69
494.92	646.69
495.138	639.69
495.355	634.69
495.573	644.69
495.79	631.69
496.008	661.69
496.225	635.69
496.442	657.69
496.66	654.69
496.877	654.69
497.094	676.69
497.312	681.69
497.529	686.69
497.746	719.69
497.963	713.69
498.181	723.69
498.398	746.69
498.615	768.69
498.832	802.69
499.049	827.69
499.267	894.69
499.484	934.69
499.701	1007.69
499.918	1091.69
500.135	1184.69
500.352	1279.69
500.569	1315.69
500.786	1296.69
501.003	1268.69
501.22	1177.69
501.437	1079.69
501.654	993.69
501.871	938.69
502.088	878.69
502.305	848.69
502.522	782.69
502.739	784.69
502.956	743.69
503.172	722.69
503.389	703.69
503.606	666.69
503.823	668.69
504.04	681.69
504.256	698.69
504.473	702.69
504.69	697.69
504.907	700.69
505.123	665.69
505.34	650.69
505.557	640.69
505.773	612.69
505.99	606.69
506.207	614.69
506.423	601.69
506.64	580.69
506.856	587.69
507.073	594.69
507.289	580.69
507.506	578.69
507.722	563.69
507.939	564.69
508.155	578.69
508.372	557.69
508.588	546.69
508.805	544.69
509.021	552.69
509.238	551.69
509.454	550.69
509.67	541.69
509.887	560.69
510.103	534.69
510.319	550.69
510.536	562.69
510.752	823.69
510.968	691.69
511.184	548.69
511.401	521.69
511.617	523.69
511.833	536.69
512.049	505.69
512.265	536.69
512.481	520.69
512.698	511.69
512.914	493.69
513.13	510.69
513.346	532.69
513.562	520.69
513.778	514.69
513.994	516.69
514.21	522.69
514.426	543.69
514.642	532.69
514.858	553.69
515.074	568.69
515.29	628.69
515.506	798.69
515.721	734.69
515.937	585.69
516.153	564.69
516.369	574.69
516.585	572.69
516.801	574.69
517.016	593.69
517.232	603.69
517.448	614.69
517.664	624.69
517.879	649.69
518.095	634.69
518.311	636.69
518.527	608.69
518.742	599.69
518.958	577.69
519.173	570.69
519.389	563.69
519.605	531.69
519.82	536.69
520.036	536.69
520.251	549.69
520.467	551.69
520.682	516.69
520.898	533.69
521.113	520.69
521.329	530.69
521.544	584.69
521.76	678.69
521.975	943.69
522.19	925.69
522.406	614.69
522.621	523.69
522.836	502.69
523.052	506.69
523.267	492.69
523.482	452.69
523.698	442.69
523.913	470.69
524.128	470.69
524.343	476.69
524.559	460.69
524.774	463.69
524.989	455.69
525.204	459.69
525.419	477.69
525.634	455.69
525.849	466.69
526.064	463.69
526.28	448.69
526.495	458.69
526.71	470.69
526.925	450.69
527.14	428.69
527.355	450.69
527.57	440.69
527.785	434.69
527.999	435.69
528.214	462.69
528.429	445.69
528.644	461.69
528.859	442.69
529.074	449.69
529.289	461.69
529.503	504.69
529.718	485.69
529.933	448.69
530.148	454.69
530.363	452.69
530.577	442.69
530.792	443.69
531.007	442.69
531.221	442.69
531.436	443.69
531.651	432.69
531.865	427.69
532.08	430.69
532.295	442.69
532.509	437.69
532.724	438.69
532.938	435.69
533.153	431.69
533.367	466.69
533.582	462.69
533.796	451.69
534.011	443.69
534.225	422.69
534.44	420.69
534.654	431.69
534.868	430.69
535.083	424.69
535.297	426.69
535.511	438.69
535.726	430.69
535.94	421.69
536.154	421.69
536.369	416.69
536.583	415.69
536.797	402.69
537.011	414.69
537.225	432.69
537.44	418.69
537.654	427.69
537.868	425.69
538.082	417.69
538.296	417.69
538.51	414.69
538.724	428.69
538.938	416.69
539.153	428.69
539.367	430.69
539.581	411.69
539.795	418.69
540.009	407.69
540.222	396.69
540.436	433.69
540.65	406.69
540.864	408.69
541.078	415.69
541.292	423.69
541.506	429.69
541.72	412.69
541.934	438.69
542.147	414.69
542.361	415.69
542.575	394.69
542.789	432.69
543.002	411.69
543.216	400.69
543.43	416.69
543.644	418.69
543.857	410.69
544.071	414.69
544.285	428.69
544.498	404.69
544.712	415.69
544.925	429.69
545.139	415.69
545.352	435.69
545.566	415.69
545.779	409.69
545.993	437.69
546.206	418.69
546.42	426.69
546.633	432.69
546.847	408.69
547.06	410.69
547.274	401.69
547.487	439.69
547.7	417.69
547.914	414.69
548.127	417.69
548.34	425.69
548.554	429.69
548.767	418.69
548.98	426.69
549.193	404.69
549.407	448.69
549.62	428.69
549.833	435.69
550.046	424.69
550.259	411.69
550.473	445.69
550.686	433.69
550.899	427.69
551.112	430.69
551.325	394.69
551.538	416.69
551.751	431.69
551.964	421.69
552.177	411.69
552.39	438.69
552.603	414.69
552.816	445.69
553.029	431.69
553.242	433.69
553.455	450.69
553.667	462.69
553.88	471.69
554.093	432.69
554.306	464.69
554.519	441.69
554.732	418.69
554.944	418.69
555.157	409.69
555.37	411.69
555.583	395.69
555.795	398.69
556.008	391.69
556.221	395.69
556.433	383.69
556.646	396.69
556.859	406.69
557.071	384.69
557.284	384.69
557.496	379.69
557.709	382.69
557.921	382.69
558.134	405.69
558.346	380.69
558.559	368.69
558.771	359.69
558.984	356.69
559.196	358.69
559.409	354.69
559.621	345.69
559.833	373.69
560.046	372.69
560.258	360.69
560.47	361.69
560.683	363.69
560.895	352.69
561.107	358.69
561.32	346.69
561.532	384.69
561.744	366.69
561.956	357.69
562.168	378.69
562.381	356.69
562.593	364.69
562.805	367.69
563.017	362.69
563.229	360.69
563.441	380.69
563.653	363.69
563.865	380.69
564.077	375.69
564.289	376.69
564.501	370.69
564.713	382.69
564.925	386.69
565.137	387.69
565.349	404.69
565.561	405.69
565.773	418.69
565.985	443.69
566.197	424.69
566.408	480.69
566.62	503.69
566.832	518.69
567.044	518.69
567.255	509.69
567.467	552.69
567.679	561.69
567.891	583.69
568.102	586.69
568.314	570.69
568.526	515.69
568.737	494.69
568.949	458.69
569.161	434.69
569.372	423.69
569.584	401.69
569.795	384.69
570.007	390.69
570.218	393.69
570.43	371.69
570.641	376.69
570.853	351.69
571.064	380.69
571.276	352.69
571.487	368.69
571.698	370.69
571.91	368.69
572.121	323.69
572.333	326.69
572.544	331.69
572.755	327.69
572.966	302.69
573.178	326.69
573.389	330.69
573.6	318.69
573.811	316.69
574.023	323.69
574.234	329.69
574.445	306.69
574.656	319.69
574.867	310.69
575.078	331.69
575.289	304.69
575.501	312.69
575.712	294.69
575.923	313.69
576.134	332.69
576.345	307.69
576.556	308.69
576.767	293.69
576.978	283.69
577.188	305.69
577.399	305.69
577.61	288.69
577.821	314.69
578.032	295.69
578.243	322.69
578.454	384.69
578.665	347.69
578.875	295.69
579.086	298.69
579.297	294.69
579.508	290.69
579.718	292.69
579.929	287.69
580.14	271.69
580.35	305.69
580.561	290.69
580.772	272.69
580.982	273.69
581.193	303.69
581.403	280.69
581.614	272.69
581.825	279.69
582.035	270.69
582.246	267.69
582.456	296.69
582.667	278.69
582.877	272.69
583.087	288.69
583.298	289.69
583.508	274.69
583.719	278.69
583.929	268.69
584.139	272.69
584.35	269.69
584.56	280.69
584.77	263.69
584.981	288.69
585.191	272.69
585.401	281.69
585.611	262.69
585.821	272.69
586.032	279.69
586.242	279.69
586.452	256.69
586.662	274.69
586.872	274.69
587.082	271.69
587.292	262.69
587.502	282.69
587.713	274.69
587.923	260.69
588.133	285.69
588.343	268.69
588.553	270.69
588.762	295.69
588.972	296.69
589.182	357.69
589.392	347.69
589.602	281.69
589.812	344.69
590.022	296.69
590.232	266.69
590.441	259.69
590.651	250.69
590.861	258.69
591.071	271.69
591.281	255.69
591.49	271.69
591.7	300.69
591.91	284.69
592.119	277.69
592.329	304.69
592.539	306.69
592.748	311.69
592.958	294.69
593.167	309.69
593.377	304.69
593.587	312.69
593.796	353.69
594.006	343.69
594.215	307.69
594.424	314.69
594.634	329.69
594.843	319.69
595.053	299.69
595.262	288.69
595.472	290.69
595.681	310.69
595.89	281.69
596.1	268.69
596.309	282.69
596.518	268.69
596.727	273.69
596.937	261.69
597.146	229.69
597.355	250.69
597.564	250.69
597.774	250.69
597.983	239.69
598.192	239.69
598.401	247.69
598.61	252.69
598.819	243.69
599.028	245.69
599.237	230.69
599.446	228.69
599.655	243.69
599.864	243.69
600.073	245.69
600.282	234.69
600.491	236.69
600.7	231.69
600.909	220.69
601.118	254.69
601.327	233.69
601.536	251.69
601.745	246.69
601.953	240.69
602.162	247.69
602.371	227.69
602.58	227.69
602.789	243.69
602.997	258.69
603.206	228.69
603.415	236.69
603.623	240.69
603.832	238.69
604.041	230.69
604.249	226.69
604.458	224.69
604.666	185.69
604.875	205.69
605.084	232.69
605.292	236.69
605.501	213.69
605.709	216.69
605.918	225.69
606.126	231.69
606.334	238.69
606.543	209.69
606.751	239.69
606.96	219.69
607.168	226.69
607.376	219.69
607.585	223.69
607.793	226.69
608.001	225.69
608.21	228.69
608.418	242.69
608.626	215.69
608.834	222.69
609.043	208.69
609.251	233.69
609.459	222.69
609.667	246.69
609.875	234.69
610.083	243.69
610.291	234.69
610.499	222.69
610.707	217.69
610.916	237.69
611.124	214.69
611.332	220.69
611.54	226.69
611.748	230.69
611.955	224.69
612.163	229.69
612.371	223.69
612.579	226.69
612.787	210.69
612.995	227.69
613.203	222.69
613.411	208.69
613.618	204.69
613.826	217.69
614.034	204.69
614.242	206.69
614.449	229.69
614.657	211.69
614.865	209.69
615.072	226.69
615.28	218.69
615.488	222.69
615.695	229.69
615.903	246.69
616.111	230.69
616.318	222.69
616.526	224.69
616.733	241.69
616.941	222.69
617.148	242.69
617.356	237.69
617.563	226.69
617.771	214.69
617.978	208.69
618.185	233.69
618.393	226.69
618.6	215.69
618.807	219.69
619.015	215.69
619.222	232.69
619.429	228.69
619.637	216.69
619.844	222.69
620.051	203.69
620.258	201.69
620.466	216.69
620.673	218.69
620.88	189.69
621.087	196.69
621.294	208.69
621.501	209.69
621.708	222.69
621.915	199.69
622.122	215.69
622.329	211.69
622.536	209.69
622.743	215.69
622.95	204.69
623.157	208.69
623.364	216.69
623.571	219.69
623.778	201.69
623.985	212.69
624.192	195.69
624.399	189.69
624.606	192.69
624.812	205.69
625.019	204.69
625.226	212.69
625.433	212.69
625.639	195.69
625.846	188.69
626.053	194.69
626.259	190.69
626.466	193.69
626.673	195.69
626.879	186.69
627.086	178.69
627.293	202.69
627.499	193.69
627.706	198.69
627.912	192.69
628.119	198.69
628.325	185.69
628.532	190.69
628.738	198.69
628.945	192.69
629.151	182.69
629.357	193.69
629.564	194.69
629.77	192.69
629.976	193.69
630.183	188.69
630.389	192.69
630.595	182.69
630.802	185.69
631.008	180.69
631.214	182.69
631.42	188.69
631.627	172.69
631.833	183.69
632.039	181.69
632.245	174.69
632.451	175.69
632.657	187.69
632.863	197.69
633.069	191.69
633.275	174.69
633.481	173.69
633.688	177.69
633.893	179.69
634.099	172.69
634.305	170.69
634.511	171.69
634.717	172.69
634.923	174.69
635.129	169.69
635.335	158.69
635.541	171.69
635.747	167.69
635.952	185.69
636.158	180.69
636.364	178.69
636.57	163.69
636.775	182.69
636.981	162.69
637.187	162.69
637.392	172.69
637.598	148.69
637.804	188.69
638.009	191.69
638.215	177.69
638.421	169.69
638.626	161.69
638.832	163.69
639.037	153.69
639.243	163.69
639.448	162.69
639.654	162.69
639.859	158.69
640.065	162.69
640.27	175.69
640.475	179.69
640.681	163.69
640.886	177.69
641.091	148.69
641.297	168.69
641.502	155.69
641.707	164.69
641.913	167.69
642.118	162.69
642.323	152.69
642.528	151.69
642.733	163.69
642.939	166.69
643.144	175.69
643.349	174.69
643.554	161.69
643.759	147.69
643.964	155.69
644.169	172.69
644.374	164.69
644.579	166.69
644.784	152.69
644.989	162.69
645.194	173.69
645.399	152.69
645.604	155.69
645.809	162.69
646.014	172.69
646.219	151.69
646.423	158.69
646.628	169.69
646.833	192.69
647.038	153.69
647.243	145.69
647.447	181.69
647.652	166.69
647.857	170.69
648.062	170.69
648.266	171.69
648.471	181.69
648.676	188.69
648.88	179.69
649.085	182.69
649.289	166.69
649.494	163.69
649.698	196.69
649.903	159.69
650.107	152.69
650.312	155.69
650.516	160.69
650.721	171.69
650.925	152.69
651.13	152.69
651.334	145.69
651.539	152.69
651.743	151.69
651.947	148.69
652.152	154.69
652.356	160.69
652.56	148.69
652.764	146.69
652.969	144.69
653.173	136.69
653.377	147.69
653.581	140.69
653.785	160.69
653.99	141.69
654.194	138.69
654.398	133.69
654.602	144.69
654.806	134.69
655.01	160.69
655.214	160.69
655.418	151.69
655.622	125.69
655.826	128.69
656.03	146.69
656.234	150.69
656.438	157.69
656.642	158.69
656.846	158.69
657.049	152.69
657.253	138.69
657.457	141.69
657.661	130.69
657.865	137.69
658.068	130.69
658.272	114.69
658.476	122.69
658.68	114.69
658.883	104.69
659.087	108.69
659.291	110.69
659.494	115.69
659.698	110.69
659.901	105.69
660.105	83.69
660.309	92.69
660.512	101.69
660.716	108.69
660.919	106.69
661.123	97.69
661.326	75.69
661.53	84.69
661.733	77.69
661.936	85.69
662.14	88.69
662.343	90.69
662.546	86.69
662.75	90.69
662.953	92.69
663.156	81.69
663.36	81.69
663.563	88.69
663.766	86.69
663.969	98.69
664.173	90.69
664.376	68.69
664.579	86.69
664.782	71.69
664.985	81.69
665.188	79.69
665.391	88.69
665.594	90.69
665.797	84.69
666	84.69
666.203	82.69
666.406	87.69
666.609	80.69
666.812	84.69
667.015	82.69
667.218	83.69
667.421	83.69
667.624	79.69
667.827	92.69
668.03	88.69
668.232	82.69
668.435	77.69
668.638	94.69
668.841	93.69
669.043	75.69
669.246	80.69
669.449	74.69
669.651	107.69
669.854	102.69
670.057	92.69
670.259	98.69
670.462	88.69
670.665	79.69
670.867	88.69
671.07	81.69
671.272	71.69
671.475	96.69
671.677	81.69
671.88	83.69
672.082	94.69
672.284	83.69
672.487	83.69
672.689	81.69
672.892	89.69
