Data from 1960PennyLincolnUp.LampE5.5.200Scan.07172019.P1.ChangedAngle_HRD10591_13-14-55-821.txt Node
Date: Thu Jul 18 13:14:55 EDT 2019
User: cochatt
Spectrometer: HR+D1059
Trigger mode: 1
Integration Time (sec): 1.000000E-1
Scans to average: 1
Electric dark correction enabled: true
Nonlinearity correction enabled: false
Boxcar width: 0
XAxis mode: Wavelengths
Number of Pixels in Spectrum: 2048
>>>>>Begin Spectral Data<<<<<
223.165	-15.62
223.4	-15.62
223.635	-15.62
223.869	-9.62
224.104	-16.62
224.338	-32.62
224.573	-7.62
224.808	-6.62
225.042	4.38
225.277	-6.62
225.511	-0.62
225.746	15.38
225.98	6.38
226.215	4.38
226.449	14.38
226.683	27.38
226.918	17.38
227.152	6.38
227.387	38.38
227.621	41.38
227.856	32.38
228.09	56.38
228.324	44.38
228.559	53.38
228.793	69.38
229.027	78.38
229.262	83.38
229.496	96.38
229.73	102.38
229.964	114.38
230.199	113.38
230.433	99.38
230.667	96.38
230.901	124.38
231.136	102.38
231.37	99.38
231.604	103.38
231.838	94.38
232.072	108.38
232.306	113.38
232.541	105.38
232.775	105.38
233.009	105.38
233.243	104.38
233.477	105.38
233.711	103.38
233.945	102.38
234.179	112.38
234.413	121.38
234.647	98.38
234.881	109.38
235.115	113.38
235.349	108.38
235.583	111.38
235.817	111.38
236.051	119.38
236.285	109.38
236.519	101.38
236.753	104.38
236.987	126.38
237.221	156.38
237.455	193.38
237.689	141.38
237.922	126.38
238.156	127.38
238.39	123.38
238.624	108.38
238.858	119.38
239.091	105.38
239.325	113.38
239.559	112.38
239.793	105.38
240.027	119.38
240.26	117.38
240.494	147.38
240.728	125.38
240.961	134.38
241.195	134.38
241.429	131.38
241.662	117.38
241.896	108.38
242.13	125.38
242.363	133.38
242.597	121.38
242.83	117.38
243.064	127.38
243.298	122.38
243.531	135.38
243.765	125.38
243.998	142.38
244.232	137.38
244.465	128.38
244.699	138.38
244.932	129.38
245.166	132.38
245.399	133.38
245.633	138.38
245.866	127.38
246.099	125.38
246.333	148.38
246.566	130.38
246.8	143.38
247.033	149.38
247.266	134.38
247.5	139.38
247.733	148.38
247.966	149.38
248.2	170.38
248.433	147.38
248.666	128.38
248.899	165.38
249.133	160.38
249.366	173.38
249.599	166.38
249.832	162.38
250.066	172.38
250.299	162.38
250.532	186.38
250.765	178.38
250.998	185.38
251.231	172.38
251.465	170.38
251.698	165.38
251.931	160.38
252.164	174.38
252.397	169.38
252.63	176.38
252.863	164.38
253.096	209.38
253.329	206.38
253.562	207.38
253.795	199.38
254.028	197.38
254.261	179.38
254.494	213.38
254.727	227.38
254.96	219.38
255.193	215.38
255.426	188.38
255.659	207.38
255.892	185.38
256.124	201.38
256.357	203.38
256.59	197.38
256.823	200.38
257.056	199.38
257.289	206.38
257.521	197.38
257.754	193.38
257.987	199.38
258.22	190.38
258.452	180.38
258.685	198.38
258.918	206.38
259.151	199.38
259.383	189.38
259.616	209.38
259.849	194.38
260.081	200.38
260.314	224.38
260.547	205.38
260.779	219.38
261.012	202.38
261.244	194.38
261.477	191.38
261.71	189.38
261.942	203.38
262.175	194.38
262.407	208.38
262.64	209.38
262.872	192.38
263.105	191.38
263.337	204.38
263.57	199.38
263.802	198.38
264.035	199.38
264.267	206.38
264.499	191.38
264.732	205.38
264.964	198.38
265.197	204.38
265.429	192.38
265.661	197.38
265.894	197.38
266.126	198.38
266.358	207.38
266.591	206.38
266.823	220.38
267.055	210.38
267.287	224.38
267.52	203.38
267.752	201.38
267.984	203.38
268.216	202.38
268.448	203.38
268.681	225.38
268.913	240.38
269.145	248.38
269.377	247.38
269.609	245.38
269.841	234.38
270.073	227.38
270.306	243.38
270.538	268.38
270.77	237.38
271.002	252.38
271.234	255.38
271.466	265.38
271.698	260.38
271.93	259.38
272.162	248.38
272.394	282.38
272.626	256.38
272.858	258.38
273.09	256.38
273.322	259.38
273.553	248.38
273.785	236.38
274.017	229.38
274.249	244.38
274.481	235.38
274.713	227.38
274.945	235.38
275.176	256.38
275.408	232.38
275.64	246.38
275.872	258.38
276.104	252.38
276.335	229.38
276.567	248.38
276.799	263.38
277.031	279.38
277.262	289.38
277.494	284.38
277.726	283.38
277.957	265.38
278.189	235.38
278.421	251.38
278.652	258.38
278.884	234.38
279.115	234.38
279.347	246.38
279.579	237.38
279.81	249.38
280.042	248.38
280.273	270.38
280.505	263.38
280.736	262.38
280.968	267.38
281.199	258.38
281.431	251.38
281.662	269.38
281.894	281.38
282.125	259.38
282.356	263.38
282.588	277.38
282.819	269.38
283.051	271.38
283.282	257.38
283.513	266.38
283.745	277.38
283.976	282.38
284.207	280.38
284.439	284.38
284.67	239.38
284.901	254.38
285.132	254.38
285.364	259.38
285.595	259.38
285.826	264.38
286.057	251.38
286.288	277.38
286.52	271.38
286.751	240.38
286.982	280.38
287.213	255.38
287.444	266.38
287.675	267.38
287.906	288.38
288.138	280.38
288.369	272.38
288.6	288.38
288.831	273.38
289.062	276.38
289.293	293.38
289.524	288.38
289.755	297.38
289.986	288.38
290.217	287.38
290.448	278.38
290.679	278.38
290.91	270.38
291.141	266.38
291.371	266.38
291.602	286.38
291.833	280.38
292.064	286.38
292.295	287.38
292.526	270.38
292.757	287.38
292.987	284.38
293.218	300.38
293.449	282.38
293.68	267.38
293.91	286.38
294.141	283.38
294.372	293.38
294.603	296.38
294.833	283.38
295.064	275.38
295.295	281.38
295.525	277.38
295.756	288.38
295.987	277.38
296.217	294.38
296.448	289.38
296.679	281.38
296.909	265.38
297.14	278.38
297.37	305.38
297.601	289.38
297.831	297.38
298.062	278.38
298.292	285.38
298.523	310.38
298.753	277.38
298.984	301.38
299.214	282.38
299.445	293.38
299.675	306.38
299.905	301.38
300.136	307.38
300.366	290.38
300.597	285.38
300.827	307.38
301.057	310.38
301.288	320.38
301.518	314.38
301.748	300.38
301.979	297.38
302.209	320.38
302.439	308.38
302.669	319.38
302.9	319.38
303.13	321.38
303.36	315.38
303.59	326.38
303.82	319.38
304.051	310.38
304.281	313.38
304.511	321.38
304.741	305.38
304.971	294.38
305.201	299.38
305.431	318.38
305.661	318.38
305.891	312.38
306.121	328.38
306.352	312.38
306.582	314.38
306.812	323.38
307.042	318.38
307.272	316.38
307.502	301.38
307.731	313.38
307.961	311.38
308.191	309.38
308.421	351.38
308.651	319.38
308.881	336.38
309.111	339.38
309.341	319.38
309.571	322.38
309.8	347.38
310.03	337.38
310.26	346.38
310.49	322.38
310.72	350.38
310.949	353.38
311.179	360.38
311.409	343.38
311.639	340.38
311.868	332.38
312.098	350.38
312.328	348.38
312.557	357.38
312.787	343.38
313.017	349.38
313.246	349.38
313.476	339.38
313.706	354.38
313.935	353.38
314.165	352.38
314.394	366.38
314.624	347.38
314.853	363.38
315.083	351.38
315.312	362.38
315.542	343.38
315.771	348.38
316.001	334.38
316.23	368.38
316.46	357.38
316.689	361.38
316.919	347.38
317.148	344.38
317.377	356.38
317.607	347.38
317.836	355.38
318.065	363.38
318.295	351.38
318.524	354.38
318.753	342.38
318.983	365.38
319.212	352.38
319.441	362.38
319.67	367.38
319.9	348.38
320.129	362.38
320.358	356.38
320.587	362.38
320.816	371.38
321.046	370.38
321.275	368.38
321.504	367.38
321.733	378.38
321.962	372.38
322.191	372.38
322.42	383.38
322.649	381.38
322.878	385.38
323.108	399.38
323.337	410.38
323.566	412.38
323.795	444.38
324.024	473.38
324.253	539.38
324.482	726.38
324.71	1026.38
324.939	1361.38
325.168	1138.38
325.397	657.38
325.626	519.38
325.855	437.38
326.084	448.38
326.313	425.38
326.542	431.38
326.77	464.38
326.999	520.38
327.228	653.38
327.457	904.38
327.686	1000.38
327.914	738.38
328.143	531.38
328.372	479.38
328.6	477.38
328.829	454.38
329.058	462.38
329.287	467.38
329.515	423.38
329.744	410.38
329.972	427.38
330.201	429.38
330.43	450.38
330.658	478.38
330.887	500.38
331.115	465.38
331.344	438.38
331.572	423.38
331.801	413.38
332.03	420.38
332.258	419.38
332.486	418.38
332.715	410.38
332.943	412.38
333.172	410.38
333.4	424.38
333.629	411.38
333.857	439.38
334.085	445.38
334.314	457.38
334.542	450.38
334.771	464.38
334.999	447.38
335.227	444.38
335.455	427.38
335.684	418.38
335.912	416.38
336.14	402.38
336.369	407.38
336.597	395.38
336.825	406.38
337.053	402.38
337.281	402.38
337.51	416.38
337.738	413.38
337.966	387.38
338.194	394.38
338.422	406.38
338.65	403.38
338.878	402.38
339.106	387.38
339.334	394.38
339.562	418.38
339.79	401.38
340.018	391.38
340.246	387.38
340.474	395.38
340.702	382.38
340.93	395.38
341.158	387.38
341.386	383.38
341.614	381.38
341.842	391.38
342.07	372.38
342.298	393.38
342.526	393.38
342.754	370.38
342.981	391.38
343.209	365.38
343.437	411.38
343.665	394.38
343.893	407.38
344.12	402.38
344.348	416.38
344.576	408.38
344.804	414.38
345.031	389.38
345.259	403.38
345.487	398.38
345.714	408.38
345.942	389.38
346.17	364.38
346.397	390.38
346.625	361.38
346.853	385.38
347.08	375.38
347.308	373.38
347.535	363.38
347.763	393.38
347.99	383.38
348.218	394.38
348.445	371.38
348.673	379.38
348.9	379.38
349.128	358.38
349.355	366.38
349.583	370.38
349.81	364.38
350.037	352.38
350.265	370.38
350.492	363.38
350.72	360.38
350.947	366.38
351.174	386.38
351.402	375.38
351.629	360.38
351.856	366.38
352.083	369.38
352.311	379.38
352.538	369.38
352.765	350.38
352.992	369.38
353.22	376.38
353.447	350.38
353.674	373.38
353.901	345.38
354.128	348.38
354.355	357.38
354.583	366.38
354.81	346.38
355.037	354.38
355.264	346.38
355.491	355.38
355.718	345.38
355.945	359.38
356.172	343.38
356.399	339.38
356.626	345.38
356.853	341.38
357.08	364.38
357.307	334.38
357.534	357.38
357.761	365.38
357.988	342.38
358.215	323.38
358.441	343.38
358.668	339.38
358.895	351.38
359.122	347.38
359.349	347.38
359.576	353.38
359.802	377.38
360.029	402.38
360.256	395.38
360.483	370.38
360.709	361.38
360.936	359.38
361.163	351.38
361.39	356.38
361.616	361.38
361.843	328.38
362.07	355.38
362.296	365.38
362.523	367.38
362.749	370.38
362.976	330.38
363.203	362.38
363.429	371.38
363.656	359.38
363.882	359.38
364.109	343.38
364.335	350.38
364.562	347.38
364.788	348.38
365.015	345.38
365.241	369.38
365.468	355.38
365.694	359.38
365.92	345.38
366.147	363.38
366.373	369.38
366.599	358.38
366.826	347.38
367.052	325.38
367.278	342.38
367.505	369.38
367.731	345.38
367.957	337.38
368.184	334.38
368.41	359.38
368.636	347.38
368.862	350.38
369.089	351.38
369.315	349.38
369.541	370.38
369.767	344.38
369.993	341.38
370.219	342.38
370.445	354.38
370.672	341.38
370.898	355.38
371.124	357.38
371.35	331.38
371.576	330.38
371.802	345.38
372.028	352.38
372.254	334.38
372.48	353.38
372.706	365.38
372.932	349.38
373.158	362.38
373.384	350.38
373.61	345.38
373.835	365.38
374.061	353.38
374.287	359.38
374.513	368.38
374.739	348.38
374.965	365.38
375.191	362.38
375.416	360.38
375.642	348.38
375.868	359.38
376.094	351.38
376.319	332.38
376.545	357.38
376.771	353.38
376.997	359.38
377.222	348.38
377.448	338.38
377.674	330.38
377.899	334.38
378.125	315.38
378.35	320.38
378.576	324.38
378.802	339.38
379.027	337.38
379.253	341.38
379.478	347.38
379.704	353.38
379.929	331.38
380.155	345.38
380.38	357.38
380.606	349.38
380.831	335.38
381.057	352.38
381.282	344.38
381.507	341.38
381.733	366.38
381.958	361.38
382.184	336.38
382.409	337.38
382.634	339.38
382.86	366.38
383.085	341.38
383.31	371.38
383.535	365.38
383.761	362.38
383.986	356.38
384.211	368.38
384.436	352.38
384.662	369.38
384.887	363.38
385.112	351.38
385.337	354.38
385.562	370.38
385.787	359.38
386.013	379.38
386.238	378.38
386.463	361.38
386.688	393.38
386.913	358.38
387.138	381.38
387.363	356.38
387.588	365.38
387.813	383.38
388.038	381.38
388.263	363.38
388.488	374.38
388.713	364.38
388.938	385.38
389.163	380.38
389.387	372.38
389.612	355.38
389.837	367.38
390.062	365.38
390.287	377.38
390.512	367.38
390.736	345.38
390.961	384.38
391.186	378.38
391.411	393.38
391.636	390.38
391.86	375.38
392.085	381.38
392.31	369.38
392.534	378.38
392.759	377.38
392.984	365.38
393.208	365.38
393.433	370.38
393.658	365.38
393.882	352.38
394.107	368.38
394.331	361.38
394.556	362.38
394.78	363.38
395.005	376.38
395.229	373.38
395.454	382.38
395.678	361.38
395.903	387.38
396.127	404.38
396.352	416.38
396.576	388.38
396.801	391.38
397.025	381.38
397.249	383.38
397.474	378.38
397.698	390.38
397.922	393.38
398.147	399.38
398.371	406.38
398.595	438.38
398.82	412.38
399.044	419.38
399.268	431.38
399.492	445.38
399.717	474.38
399.941	482.38
400.165	492.38
400.389	489.38
400.613	467.38
400.837	433.38
401.062	414.38
401.286	429.38
401.51	416.38
401.734	419.38
401.958	408.38
402.182	404.38
402.406	422.38
402.63	400.38
402.854	426.38
403.078	442.38
403.302	434.38
403.526	417.38
403.75	422.38
403.974	413.38
404.198	435.38
404.422	437.38
404.645	439.38
404.869	419.38
405.093	464.38
405.317	480.38
405.541	487.38
405.765	461.38
405.988	435.38
406.212	446.38
406.436	476.38
406.66	459.38
406.883	441.38
407.107	459.38
407.331	477.38
407.555	520.38
407.778	535.38
408.002	493.38
408.226	472.38
408.449	465.38
408.673	442.38
408.896	460.38
409.12	507.38
409.344	489.38
409.567	455.38
409.791	418.38
410.014	427.38
410.238	429.38
410.461	410.38
410.685	442.38
410.908	441.38
411.132	458.38
411.355	471.38
411.578	465.38
411.802	457.38
412.025	439.38
412.249	457.38
412.472	427.38
412.695	459.38
412.919	445.38
413.142	416.38
413.365	414.38
413.589	407.38
413.812	408.38
414.035	411.38
414.258	399.38
414.482	408.38
414.705	417.38
414.928	400.38
415.151	373.38
415.374	393.38
415.597	392.38
415.821	402.38
416.044	397.38
416.267	387.38
416.49	395.38
416.713	400.38
416.936	379.38
417.159	392.38
417.382	405.38
417.605	398.38
417.828	392.38
418.051	410.38
418.274	421.38
418.497	391.38
418.72	369.38
418.943	377.38
419.166	435.38
419.389	414.38
419.611	406.38
419.834	427.38
420.057	419.38
420.28	421.38
420.503	411.38
420.726	406.38
420.948	398.38
421.171	437.38
421.394	448.38
421.617	429.38
421.839	405.38
422.062	419.38
422.285	412.38
422.507	439.38
422.73	470.38
422.953	481.38
423.175	442.38
423.398	417.38
423.621	426.38
423.843	441.38
424.066	426.38
424.288	426.38
424.511	459.38
424.733	475.38
424.956	511.38
425.178	487.38
425.401	480.38
425.623	520.38
425.846	450.38
426.068	401.38
426.291	413.38
426.513	426.38
426.735	426.38
426.958	463.38
427.18	488.38
427.402	591.38
427.625	617.38
427.847	550.38
428.069	480.38
428.292	436.38
428.514	435.38
428.736	422.38
428.958	416.38
429.181	385.38
429.403	371.38
429.625	417.38
429.847	409.38
430.069	459.38
430.292	451.38
430.514	400.38
430.736	403.38
430.958	376.38
431.18	381.38
431.402	383.38
431.624	370.38
431.846	381.38
432.068	393.38
432.29	376.38
432.512	382.38
432.734	393.38
432.956	385.38
433.178	383.38
433.4	383.38
433.622	394.38
433.844	383.38
434.066	366.38
434.287	368.38
434.509	396.38
434.731	399.38
434.953	379.38
435.175	393.38
435.397	413.38
435.618	419.38
435.84	441.38
436.062	493.38
436.284	538.38
436.505	472.38
436.727	425.38
436.949	388.38
437.17	390.38
437.392	378.38
437.614	396.38
437.835	417.38
438.057	460.38
438.278	530.38
438.5	547.38
438.721	579.38
438.943	555.38
439.165	455.38
439.386	410.38
439.608	409.38
439.829	429.38
440.05	428.38
440.272	456.38
440.493	434.38
440.715	407.38
440.936	394.38
441.158	398.38
441.379	398.38
441.6	386.38
441.822	413.38
442.043	449.38
442.264	477.38
442.486	530.38
442.707	443.38
442.928	422.38
443.149	430.38
443.371	470.38
443.592	440.38
443.813	527.38
444.034	560.38
444.255	479.38
444.476	441.38
444.698	428.38
444.919	409.38
445.14	513.38
445.361	466.38
445.582	444.38
445.803	481.38
446.024	542.38
446.245	537.38
446.466	508.38
446.687	438.38
446.908	409.38
447.129	409.38
447.35	373.38
447.571	397.38
447.792	383.38
448.013	380.38
448.234	385.38
448.455	433.38
448.675	504.38
448.896	577.38
449.117	483.38
449.338	492.38
449.559	537.38
449.779	583.38
450	474.38
450.221	405.38
450.442	386.38
450.662	375.38
450.883	365.38
451.104	359.38
451.324	365.38
451.545	365.38
451.766	357.38
451.986	377.38
452.207	361.38
452.428	336.38
452.648	349.38
452.869	356.38
453.089	354.38
453.31	350.38
453.53	369.38
453.751	345.38
453.971	336.38
454.192	354.38
454.412	357.38
454.633	348.38
454.853	336.38
455.073	342.38
455.294	366.38
455.514	405.38
455.734	391.38
455.955	366.38
456.175	324.38
456.395	349.38
456.616	331.38
456.836	342.38
457.056	334.38
457.276	320.38
457.497	354.38
457.717	344.38
457.937	349.38
458.157	331.38
458.377	361.38
458.598	357.38
458.818	388.38
459.038	437.38
459.258	431.38
459.478	403.38
459.698	365.38
459.918	370.38
460.138	369.38
460.358	387.38
460.578	387.38
460.798	383.38
461.018	377.38
461.238	386.38
461.458	386.38
461.678	380.38
461.898	388.38
462.118	398.38
462.338	392.38
462.558	393.38
462.777	395.38
462.997	399.38
463.217	421.38
463.437	421.38
463.657	427.38
463.876	401.38
464.096	424.38
464.316	417.38
464.536	393.38
464.755	421.38
464.975	397.38
465.195	440.38
465.414	432.38
465.634	413.38
465.854	395.38
466.073	367.38
466.293	371.38
466.512	387.38
466.732	363.38
466.951	358.38
467.171	361.38
467.391	348.38
467.61	366.38
467.829	392.38
468.049	395.38
468.268	351.38
468.488	367.38
468.707	361.38
468.927	339.38
469.146	341.38
469.365	363.38
469.585	347.38
469.804	365.38
470.023	371.38
470.243	369.38
470.462	364.38
470.681	385.38
470.901	365.38
471.12	352.38
471.339	381.38
471.558	344.38
471.777	365.38
471.997	366.38
472.216	377.38
472.435	387.38
472.654	352.38
472.873	363.38
473.092	359.38
473.311	370.38
473.53	369.38
473.749	376.38
473.968	401.38
474.187	446.38
474.406	451.38
474.625	410.38
474.844	389.38
475.063	380.38
475.282	376.38
475.501	374.38
475.72	372.38
475.939	385.38
476.158	374.38
476.377	375.38
476.596	381.38
476.814	381.38
477.033	377.38
477.252	391.38
477.471	389.38
477.69	407.38
477.908	387.38
478.127	411.38
478.346	397.38
478.564	410.38
478.783	391.38
479.002	393.38
479.22	427.38
479.439	426.38
479.658	436.38
479.876	437.38
480.095	443.38
480.313	455.38
480.532	440.38
480.751	455.38
480.969	441.38
481.188	471.38
481.406	482.38
481.624	449.38
481.843	432.38
482.061	425.38
482.28	418.38
482.498	433.38
482.717	412.38
482.935	421.38
483.153	430.38
483.372	425.38
483.59	424.38
483.808	423.38
484.027	417.38
484.245	413.38
484.463	423.38
484.681	433.38
484.9	436.38
485.118	439.38
485.336	421.38
485.554	428.38
485.772	425.38
485.99	432.38
486.209	416.38
486.427	443.38
486.645	439.38
486.863	445.38
487.081	450.38
487.299	435.38
487.517	442.38
487.735	451.38
487.953	451.38
488.171	468.38
488.389	459.38
488.607	457.38
488.825	445.38
489.043	440.38
489.261	441.38
489.479	472.38
489.696	457.38
489.914	441.38
490.132	474.38
490.35	480.38
490.568	456.38
490.786	453.38
491.003	488.38
491.221	494.38
491.439	485.38
491.657	483.38
491.874	481.38
492.092	494.38
492.31	501.38
492.527	507.38
492.745	508.38
492.963	503.38
493.18	505.38
493.398	509.38
493.615	514.38
493.833	509.38
494.05	503.38
494.268	488.38
494.485	514.38
494.703	507.38
494.92	523.38
495.138	519.38
495.355	515.38
495.573	498.38
495.79	506.38
496.008	511.38
496.225	507.38
496.442	512.38
496.66	523.38
496.877	518.38
497.094	525.38
497.312	536.38
497.529	557.38
497.746	536.38
497.963	530.38
498.181	571.38
498.398	577.38
498.615	584.38
498.832	586.38
499.049	609.38
499.267	621.38
499.484	650.38
499.701	648.38
499.918	689.38
500.135	733.38
500.352	737.38
500.569	743.38
500.786	757.38
501.003	753.38
501.22	713.38
501.437	679.38
501.654	682.38
501.871	670.38
502.088	643.38
502.305	605.38
502.522	603.38
502.739	589.38
502.956	557.38
503.172	578.38
503.389	546.38
503.606	562.38
503.823	539.38
504.04	552.38
504.256	544.38
504.473	546.38
504.69	538.38
504.907	515.38
505.123	507.38
505.34	518.38
505.557	497.38
505.773	495.38
505.99	497.38
506.207	484.38
506.423	505.38
506.64	472.38
506.856	481.38
507.073	455.38
507.289	493.38
507.506	499.38
507.722	487.38
507.939	487.38
508.155	464.38
508.372	449.38
508.588	455.38
508.805	468.38
509.021	465.38
509.238	457.38
509.454	465.38
509.67	458.38
509.887	474.38
510.103	451.38
510.319	465.38
510.536	512.38
510.752	735.38
510.968	621.38
511.184	478.38
511.401	469.38
511.617	423.38
511.833	446.38
512.049	458.38
512.265	437.38
512.481	450.38
512.698	444.38
512.914	414.38
513.13	440.38
513.346	441.38
513.562	441.38
513.778	447.38
513.994	449.38
514.21	429.38
514.426	447.38
514.642	462.38
514.858	471.38
515.074	503.38
515.29	572.38
515.506	717.38
515.721	638.38
515.937	494.38
516.153	478.38
516.369	468.38
516.585	467.38
516.801	448.38
517.016	468.38
517.232	461.38
517.448	466.38
517.664	458.38
517.879	447.38
518.095	447.38
518.311	474.38
518.527	468.38
518.742	476.38
518.958	431.38
519.173	428.38
519.389	429.38
519.605	443.38
519.82	431.38
520.036	453.38
520.251	463.38
520.467	459.38
520.682	458.38
520.898	477.38
521.113	478.38
521.329	485.38
521.544	517.38
521.76	600.38
521.975	904.38
522.19	883.38
522.406	571.38
522.621	444.38
522.836	429.38
523.052	420.38
523.267	390.38
523.482	414.38
523.698	409.38
523.913	410.38
524.128	390.38
524.343	421.38
524.559	401.38
524.774	398.38
524.989	389.38
525.204	393.38
525.419	371.38
525.634	416.38
525.849	391.38
526.064	401.38
526.28	398.38
526.495	387.38
526.71	387.38
526.925	353.38
527.14	375.38
527.355	392.38
527.57	395.38
527.785	380.38
527.999	387.38
528.214	371.38
528.429	365.38
528.644	367.38
528.859	370.38
529.074	376.38
529.289	383.38
529.503	432.38
529.718	401.38
529.933	383.38
530.148	387.38
530.363	402.38
530.577	376.38
530.792	359.38
531.007	353.38
531.221	366.38
531.436	397.38
531.651	377.38
531.865	354.38
532.08	371.38
532.295	352.38
532.509	359.38
532.724	359.38
532.938	348.38
533.153	367.38
533.367	346.38
533.582	369.38
533.796	357.38
534.011	347.38
534.225	350.38
534.44	357.38
534.654	351.38
534.868	369.38
535.083	349.38
535.297	369.38
535.511	371.38
535.726	367.38
535.94	349.38
536.154	347.38
536.369	362.38
536.583	354.38
536.797	332.38
537.011	345.38
537.225	349.38
537.44	330.38
537.654	360.38
537.868	341.38
538.082	353.38
538.296	362.38
538.51	339.38
538.724	344.38
538.938	334.38
539.153	349.38
539.367	340.38
539.581	353.38
539.795	334.38
540.009	334.38
540.222	331.38
540.436	326.38
540.65	349.38
540.864	341.38
541.078	353.38
541.292	375.38
541.506	338.38
541.72	335.38
541.934	334.38
542.147	361.38
542.361	333.38
542.575	355.38
542.789	336.38
543.002	342.38
543.216	346.38
543.43	351.38
543.644	342.38
543.857	338.38
544.071	348.38
544.285	341.38
544.498	346.38
544.712	342.38
544.925	347.38
545.139	344.38
545.352	355.38
545.566	350.38
545.779	333.38
545.993	342.38
546.206	355.38
546.42	340.38
546.633	329.38
546.847	319.38
547.06	315.38
547.274	329.38
547.487	333.38
547.7	342.38
547.914	332.38
548.127	323.38
548.34	337.38
548.554	335.38
548.767	326.38
548.98	303.38
549.193	333.38
549.407	342.38
549.62	346.38
549.833	328.38
550.046	353.38
550.259	332.38
550.473	327.38
550.686	336.38
550.899	338.38
551.112	330.38
551.325	334.38
551.538	331.38
551.751	338.38
551.964	331.38
552.177	337.38
552.39	323.38
552.603	341.38
552.816	326.38
553.029	329.38
553.242	351.38
553.455	338.38
553.667	351.38
553.88	341.38
554.093	329.38
554.306	329.38
554.519	332.38
554.732	329.38
554.944	319.38
555.157	323.38
555.37	327.38
555.583	319.38
555.795	320.38
556.008	298.38
556.221	326.38
556.433	318.38
556.646	326.38
556.859	327.38
557.071	308.38
557.284	316.38
557.496	293.38
557.709	300.38
557.921	298.38
558.134	299.38
558.346	301.38
558.559	312.38
558.771	297.38
558.984	303.38
559.196	308.38
559.409	296.38
559.621	311.38
559.833	295.38
560.046	290.38
560.258	299.38
560.47	315.38
560.683	299.38
560.895	293.38
561.107	315.38
561.32	287.38
561.532	296.38
561.744	299.38
561.956	293.38
562.168	288.38
562.381	295.38
562.593	295.38
562.805	303.38
563.017	310.38
563.229	301.38
563.441	304.38
563.653	312.38
563.865	310.38
564.077	290.38
564.289	303.38
564.501	295.38
564.713	329.38
564.925	313.38
565.137	313.38
565.349	318.38
565.561	321.38
565.773	305.38
565.985	335.38
566.197	329.38
566.408	333.38
566.62	344.38
566.832	361.38
567.044	358.38
567.255	371.38
567.467	364.38
567.679	358.38
567.891	376.38
568.102	374.38
568.314	370.38
568.526	352.38
568.737	333.38
568.949	350.38
569.161	323.38
569.372	330.38
569.584	315.38
569.795	303.38
570.007	327.38
570.218	334.38
570.43	302.38
570.641	308.38
570.853	300.38
571.064	299.38
571.276	305.38
571.487	269.38
571.698	290.38
571.91	286.38
572.121	289.38
572.333	276.38
572.544	262.38
572.755	279.38
572.966	270.38
573.178	274.38
573.389	268.38
573.6	236.38
573.811	259.38
574.023	278.38
574.234	280.38
574.445	287.38
574.656	257.38
574.867	247.38
575.078	277.38
575.289	268.38
575.501	269.38
575.712	265.38
575.923	247.38
576.134	259.38
576.345	249.38
576.556	249.38
576.767	262.38
576.978	265.38
577.188	269.38
577.399	263.38
577.61	263.38
577.821	255.38
578.032	265.38
578.243	265.38
578.454	381.38
578.665	304.38
578.875	257.38
579.086	263.38
579.297	262.38
579.508	253.38
579.718	256.38
579.929	255.38
580.14	245.38
580.35	237.38
580.561	245.38
580.772	249.38
580.982	251.38
581.193	252.38
581.403	237.38
581.614	245.38
581.825	248.38
582.035	232.38
582.246	234.38
582.456	244.38
582.667	249.38
582.877	248.38
583.087	239.38
583.298	234.38
583.508	231.38
583.719	241.38
583.929	242.38
584.139	243.38
584.35	234.38
584.56	237.38
584.77	222.38
584.981	222.38
585.191	229.38
585.401	245.38
585.611	229.38
585.821	240.38
586.032	233.38
586.242	224.38
586.452	221.38
586.662	232.38
586.872	232.38
587.082	231.38
587.292	251.38
587.502	240.38
587.713	237.38
587.923	219.38
588.133	223.38
588.343	220.38
588.553	242.38
588.762	225.38
588.972	237.38
589.182	290.38
589.392	262.38
589.602	252.38
589.812	272.38
590.022	258.38
590.232	219.38
590.441	241.38
590.651	226.38
590.861	237.38
591.071	227.38
591.281	230.38
591.49	226.38
591.7	226.38
591.91	247.38
592.119	236.38
592.329	232.38
592.539	234.38
592.748	242.38
592.958	235.38
593.167	250.38
593.377	249.38
593.587	235.38
593.796	251.38
594.006	249.38
594.215	246.38
594.424	249.38
594.634	240.38
594.843	247.38
595.053	232.38
595.262	223.38
595.472	226.38
595.681	218.38
595.89	229.38
596.1	220.38
596.309	229.38
596.518	220.38
596.727	231.38
596.937	245.38
597.146	222.38
597.355	212.38
597.564	217.38
597.774	212.38
597.983	210.38
598.192	214.38
598.401	220.38
598.61	221.38
598.819	203.38
599.028	219.38
599.237	213.38
599.446	212.38
599.655	223.38
599.864	212.38
600.073	200.38
600.282	220.38
600.491	214.38
600.7	210.38
600.909	198.38
601.118	201.38
601.327	213.38
601.536	202.38
601.745	191.38
601.953	194.38
602.162	202.38
602.371	192.38
602.58	204.38
602.789	202.38
602.997	214.38
603.206	215.38
603.415	222.38
603.623	216.38
603.832	213.38
604.041	201.38
604.249	188.38
604.458	191.38
604.666	207.38
604.875	196.38
605.084	207.38
605.292	202.38
605.501	177.38
605.709	192.38
605.918	186.38
606.126	215.38
606.334	194.38
606.543	199.38
606.751	199.38
606.96	203.38
607.168	210.38
607.376	204.38
607.585	201.38
607.793	193.38
608.001	203.38
608.21	204.38
608.418	193.38
608.626	197.38
608.834	183.38
609.043	182.38
609.251	210.38
609.459	192.38
609.667	205.38
609.875	199.38
610.083	184.38
610.291	196.38
610.499	189.38
610.707	206.38
610.916	224.38
611.124	201.38
611.332	206.38
611.54	199.38
611.748	199.38
611.955	193.38
612.163	185.38
612.371	191.38
612.579	167.38
612.787	189.38
612.995	188.38
613.203	199.38
613.411	192.38
613.618	193.38
613.826	187.38
614.034	191.38
614.242	175.38
614.449	198.38
614.657	199.38
614.865	196.38
615.072	191.38
615.28	197.38
615.488	177.38
615.695	190.38
615.903	184.38
616.111	183.38
616.318	188.38
616.526	194.38
616.733	193.38
616.941	192.38
617.148	185.38
617.356	177.38
617.563	194.38
617.771	187.38
617.978	174.38
618.185	195.38
618.393	174.38
618.6	182.38
618.807	199.38
619.015	175.38
619.222	190.38
619.429	198.38
619.637	184.38
619.844	197.38
620.051	179.38
620.258	174.38
620.466	169.38
620.673	169.38
620.88	178.38
621.087	179.38
621.294	190.38
621.501	183.38
621.708	190.38
621.915	186.38
622.122	180.38
622.329	185.38
622.536	204.38
622.743	173.38
622.95	179.38
623.157	175.38
623.364	175.38
623.571	183.38
623.778	176.38
623.985	171.38
624.192	177.38
624.399	162.38
624.606	171.38
624.812	174.38
625.019	160.38
625.226	176.38
625.433	183.38
625.639	171.38
625.846	193.38
626.053	178.38
626.259	173.38
626.466	179.38
626.673	157.38
626.879	167.38
627.086	165.38
627.293	183.38
627.499	159.38
627.706	178.38
627.912	160.38
628.119	147.38
628.325	151.38
628.532	167.38
628.738	167.38
628.945	161.38
629.151	155.38
629.357	158.38
629.564	160.38
629.77	158.38
629.976	150.38
630.183	152.38
630.389	179.38
630.595	181.38
630.802	153.38
631.008	158.38
631.214	161.38
631.42	154.38
631.627	179.38
631.833	157.38
632.039	154.38
632.245	171.38
632.451	184.38
632.657	165.38
632.863	145.38
633.069	161.38
633.275	154.38
633.481	149.38
633.688	149.38
633.893	159.38
634.099	158.38
634.305	155.38
634.511	151.38
634.717	144.38
634.923	156.38
635.129	151.38
635.335	153.38
635.541	164.38
635.747	159.38
635.952	160.38
636.158	149.38
636.364	162.38
636.57	172.38
636.775	144.38
636.981	137.38
637.187	145.38
637.392	147.38
637.598	158.38
637.804	154.38
638.009	138.38
638.215	153.38
638.421	146.38
638.626	135.38
638.832	162.38
639.037	143.38
639.243	132.38
639.448	167.38
639.654	144.38
639.859	160.38
640.065	142.38
640.27	156.38
640.475	160.38
640.681	134.38
640.886	134.38
641.091	132.38
641.297	163.38
641.502	157.38
641.707	141.38
641.913	148.38
642.118	149.38
642.323	133.38
642.528	148.38
642.733	157.38
642.939	152.38
643.144	143.38
643.349	148.38
643.554	141.38
643.759	152.38
643.964	133.38
644.169	143.38
644.374	154.38
644.579	151.38
644.784	138.38
644.989	143.38
645.194	139.38
645.399	142.38
645.604	145.38
645.809	145.38
646.014	145.38
646.219	123.38
646.423	145.38
646.628	132.38
646.833	134.38
647.038	140.38
647.243	147.38
647.447	148.38
647.652	143.38
647.857	143.38
648.062	149.38
648.266	141.38
648.471	145.38
648.676	154.38
648.88	141.38
649.085	143.38
649.289	150.38
649.494	157.38
649.698	158.38
649.903	167.38
650.107	159.38
650.312	157.38
650.516	139.38
650.721	135.38
650.925	138.38
651.13	139.38
651.334	138.38
651.539	137.38
651.743	124.38
651.947	141.38
652.152	139.38
652.356	145.38
652.56	136.38
652.764	128.38
652.969	123.38
653.173	127.38
653.377	143.38
653.581	125.38
653.785	126.38
653.99	125.38
654.194	118.38
654.398	116.38
654.602	117.38
654.806	122.38
655.01	139.38
655.214	134.38
655.418	134.38
655.622	132.38
655.826	122.38
656.03	112.38
656.234	132.38
656.438	128.38
656.642	136.38
656.846	129.38
657.049	132.38
657.253	119.38
657.457	124.38
657.661	113.38
657.865	115.38
658.068	107.38
658.272	120.38
658.476	124.38
658.68	111.38
658.883	107.38
659.087	120.38
659.291	100.38
659.494	117.38
659.698	97.38
659.901	78.38
660.105	102.38
660.309	103.38
660.512	113.38
660.716	104.38
660.919	94.38
661.123	98.38
661.326	86.38
661.53	90.38
661.733	97.38
661.936	97.38
662.14	94.38
662.343	85.38
662.546	92.38
662.75	77.38
662.953	83.38
663.156	95.38
663.36	76.38
663.563	92.38
663.766	98.38
663.969	81.38
664.173	94.38
664.376	97.38
664.579	89.38
664.782	79.38
664.985	85.38
665.188	82.38
665.391	85.38
665.594	92.38
665.797	79.38
666	88.38
666.203	82.38
666.406	80.38
666.609	88.38
666.812	92.38
667.015	94.38
667.218	66.38
667.421	93.38
667.624	91.38
667.827	85.38
668.03	87.38
668.232	89.38
668.435	84.38
668.638	82.38
668.841	85.38
669.043	79.38
669.246	82.38
669.449	72.38
669.651	80.38
669.854	75.38
670.057	76.38
670.259	104.38
670.462	90.38
670.665	79.38
670.867	83.38
671.07	78.38
671.272	101.38
671.475	87.38
671.677	87.38
671.88	79.38
672.082	88.38
672.284	80.38
672.487	82.38
672.689	78.38
672.892	80.38
