Data from 1960PennyLincolnUp.LampE5.5.200Scan.07172019.P1.ChangedAngle_HRD10591_13-14-28-821.txt Node
Date: Thu Jul 18 13:14:28 EDT 2019
User: cochatt
Spectrometer: HR+D1059
Trigger mode: 1
Integration Time (sec): 1.000000E-1
Scans to average: 1
Electric dark correction enabled: true
Nonlinearity correction enabled: false
Boxcar width: 0
XAxis mode: Wavelengths
Number of Pixels in Spectrum: 2048
>>>>>Begin Spectral Data<<<<<
223.165	-28.94
223.4	-28.94
223.635	-28.94
223.869	-24.94
224.104	-13.94
224.338	-5.94
224.573	-8.94
224.808	-1.94
225.042	2.06
225.277	1.06
225.511	2.06
225.746	7.06
225.98	-11.94
226.215	18.06
226.449	14.06
226.683	23.06
226.918	11.06
227.152	18.06
227.387	42.06
227.621	50.06
227.856	39.06
228.09	49.06
228.324	27.06
228.559	48.06
228.793	64.06
229.027	75.06
229.262	89.06
229.496	100.06
229.73	102.06
229.964	112.06
230.199	91.06
230.433	103.06
230.667	93.06
230.901	104.06
231.136	99.06
231.37	104.06
231.604	99.06
231.838	90.06
232.072	104.06
232.306	96.06
232.541	91.06
232.775	121.06
233.009	97.06
233.243	110.06
233.477	110.06
233.711	92.06
233.945	101.06
234.179	99.06
234.413	106.06
234.647	100.06
234.881	102.06
235.115	105.06
235.349	113.06
235.583	119.06
235.817	121.06
236.051	98.06
236.285	117.06
236.519	106.06
236.753	112.06
236.987	120.06
237.221	138.06
237.455	181.06
237.689	149.06
237.922	119.06
238.156	109.06
238.39	111.06
238.624	100.06
238.858	106.06
239.091	104.06
239.325	108.06
239.559	104.06
239.793	108.06
240.027	113.06
240.26	124.06
240.494	120.06
240.728	114.06
240.961	127.06
241.195	108.06
241.429	130.06
241.662	100.06
241.896	112.06
242.13	131.06
242.363	104.06
242.597	97.06
242.83	121.06
243.064	116.06
243.298	117.06
243.531	116.06
243.765	122.06
243.998	115.06
244.232	125.06
244.465	134.06
244.699	121.06
244.932	138.06
245.166	137.06
245.399	146.06
245.633	147.06
245.866	133.06
246.099	130.06
246.333	138.06
246.566	139.06
246.8	144.06
247.033	141.06
247.266	117.06
247.5	161.06
247.733	138.06
247.966	134.06
248.2	150.06
248.433	139.06
248.666	146.06
248.899	151.06
249.133	152.06
249.366	165.06
249.599	151.06
249.832	148.06
250.066	171.06
250.299	168.06
250.532	169.06
250.765	160.06
250.998	180.06
251.231	189.06
251.465	183.06
251.698	172.06
251.931	169.06
252.164	168.06
252.397	180.06
252.63	168.06
252.863	170.06
253.096	187.06
253.329	193.06
253.562	168.06
253.795	165.06
254.028	191.06
254.261	177.06
254.494	177.06
254.727	215.06
254.96	218.06
255.193	211.06
255.426	200.06
255.659	194.06
255.892	203.06
256.124	186.06
256.357	182.06
256.59	187.06
256.823	189.06
257.056	174.06
257.289	184.06
257.521	165.06
257.754	179.06
257.987	175.06
258.22	182.06
258.452	195.06
258.685	182.06
258.918	182.06
259.151	189.06
259.383	195.06
259.616	170.06
259.849	182.06
260.081	201.06
260.314	209.06
260.547	202.06
260.779	203.06
261.012	194.06
261.244	198.06
261.477	196.06
261.71	169.06
261.942	190.06
262.175	201.06
262.407	190.06
262.64	168.06
262.872	178.06
263.105	168.06
263.337	196.06
263.57	185.06
263.802	182.06
264.035	177.06
264.267	194.06
264.499	172.06
264.732	184.06
264.964	196.06
265.197	186.06
265.429	194.06
265.661	194.06
265.894	199.06
266.126	200.06
266.358	183.06
266.591	188.06
266.823	212.06
267.055	187.06
267.287	201.06
267.52	200.06
267.752	198.06
267.984	215.06
268.216	187.06
268.448	205.06
268.681	217.06
268.913	205.06
269.145	214.06
269.377	246.06
269.609	214.06
269.841	243.06
270.073	238.06
270.306	235.06
270.538	249.06
270.77	253.06
271.002	249.06
271.234	254.06
271.466	243.06
271.698	249.06
271.93	265.06
272.162	242.06
272.394	254.06
272.626	243.06
272.858	240.06
273.09	238.06
273.322	246.06
273.553	231.06
273.785	231.06
274.017	241.06
274.249	234.06
274.481	224.06
274.713	232.06
274.945	241.06
275.176	234.06
275.408	234.06
275.64	227.06
275.872	229.06
276.104	230.06
276.335	248.06
276.567	240.06
276.799	241.06
277.031	270.06
277.262	272.06
277.494	278.06
277.726	260.06
277.957	246.06
278.189	227.06
278.421	241.06
278.652	257.06
278.884	246.06
279.115	249.06
279.347	242.06
279.579	244.06
279.81	234.06
280.042	235.06
280.273	252.06
280.505	254.06
280.736	262.06
280.968	252.06
281.199	245.06
281.431	255.06
281.662	246.06
281.894	266.06
282.125	261.06
282.356	257.06
282.588	268.06
282.819	256.06
283.051	241.06
283.282	254.06
283.513	265.06
283.745	254.06
283.976	248.06
284.207	241.06
284.439	255.06
284.67	256.06
284.901	238.06
285.132	266.06
285.364	244.06
285.595	242.06
285.826	259.06
286.057	245.06
286.288	242.06
286.52	258.06
286.751	256.06
286.982	268.06
287.213	265.06
287.444	252.06
287.675	261.06
287.906	278.06
288.138	267.06
288.369	262.06
288.6	269.06
288.831	269.06
289.062	264.06
289.293	266.06
289.524	278.06
289.755	269.06
289.986	277.06
290.217	245.06
290.448	261.06
290.679	285.06
290.91	273.06
291.141	260.06
291.371	269.06
291.602	277.06
291.833	258.06
292.064	280.06
292.295	262.06
292.526	268.06
292.757	265.06
292.987	263.06
293.218	268.06
293.449	274.06
293.68	268.06
293.91	268.06
294.141	277.06
294.372	270.06
294.603	280.06
294.833	277.06
295.064	268.06
295.295	265.06
295.525	280.06
295.756	275.06
295.987	285.06
296.217	303.06
296.448	299.06
296.679	268.06
296.909	275.06
297.14	270.06
297.37	284.06
297.601	272.06
297.831	280.06
298.062	273.06
298.292	270.06
298.523	280.06
298.753	272.06
298.984	281.06
299.214	296.06
299.445	278.06
299.675	299.06
299.905	277.06
300.136	302.06
300.366	270.06
300.597	278.06
300.827	305.06
301.057	293.06
301.288	286.06
301.518	295.06
301.748	291.06
301.979	297.06
302.209	307.06
302.439	299.06
302.669	302.06
302.9	310.06
303.13	296.06
303.36	306.06
303.59	302.06
303.82	317.06
304.051	300.06
304.281	310.06
304.511	309.06
304.741	298.06
304.971	313.06
305.201	318.06
305.431	317.06
305.661	295.06
305.891	293.06
306.121	307.06
306.352	309.06
306.582	304.06
306.812	297.06
307.042	297.06
307.272	296.06
307.502	298.06
307.731	280.06
307.961	306.06
308.191	293.06
308.421	306.06
308.651	312.06
308.881	316.06
309.111	299.06
309.341	308.06
309.571	328.06
309.8	335.06
310.03	322.06
310.26	330.06
310.49	335.06
310.72	326.06
310.949	332.06
311.179	333.06
311.409	346.06
311.639	340.06
311.868	332.06
312.098	314.06
312.328	319.06
312.557	329.06
312.787	341.06
313.017	330.06
313.246	331.06
313.476	317.06
313.706	328.06
313.935	330.06
314.165	335.06
314.394	334.06
314.624	330.06
314.853	323.06
315.083	318.06
315.312	317.06
315.542	330.06
315.771	326.06
316.001	333.06
316.23	327.06
316.46	331.06
316.689	331.06
316.919	342.06
317.148	350.06
317.377	341.06
317.607	332.06
317.836	352.06
318.065	347.06
318.295	364.06
318.524	336.06
318.753	344.06
318.983	339.06
319.212	353.06
319.441	340.06
319.67	347.06
319.9	333.06
320.129	342.06
320.358	319.06
320.587	350.06
320.816	344.06
321.046	359.06
321.275	370.06
321.504	347.06
321.733	346.06
321.962	361.06
322.191	384.06
322.42	373.06
322.649	378.06
322.878	364.06
323.108	375.06
323.337	407.06
323.566	390.06
323.795	408.06
324.024	442.06
324.253	502.06
324.482	644.06
324.71	904.06
324.939	1198.06
325.168	1022.06
325.397	611.06
325.626	470.06
325.855	400.06
326.084	414.06
326.313	393.06
326.542	413.06
326.77	408.06
326.999	470.06
327.228	601.06
327.457	820.06
327.686	906.06
327.914	668.06
328.143	475.06
328.372	455.06
328.6	442.06
328.829	409.06
329.058	438.06
329.287	437.06
329.515	429.06
329.744	390.06
329.972	401.06
330.201	413.06
330.43	417.06
330.658	445.06
330.887	471.06
331.115	442.06
331.344	432.06
331.572	399.06
331.801	388.06
332.03	403.06
332.258	391.06
332.486	379.06
332.715	388.06
332.943	404.06
333.172	409.06
333.4	403.06
333.629	407.06
333.857	418.06
334.085	416.06
334.314	427.06
334.542	438.06
334.771	426.06
334.999	410.06
335.227	422.06
335.455	400.06
335.684	395.06
335.912	405.06
336.14	382.06
336.369	379.06
336.597	401.06
336.825	387.06
337.053	390.06
337.281	390.06
337.51	393.06
337.738	378.06
337.966	374.06
338.194	396.06
338.422	390.06
338.65	389.06
338.878	378.06
339.106	394.06
339.334	378.06
339.562	371.06
339.79	364.06
340.018	391.06
340.246	360.06
340.474	374.06
340.702	362.06
340.93	363.06
341.158	379.06
341.386	363.06
341.614	363.06
341.842	382.06
342.07	375.06
342.298	368.06
342.526	356.06
342.754	375.06
342.981	360.06
343.209	354.06
343.437	366.06
343.665	393.06
343.893	376.06
344.12	384.06
344.348	398.06
344.576	388.06
344.804	387.06
345.031	380.06
345.259	406.06
345.487	375.06
345.714	395.06
345.942	362.06
346.17	368.06
346.397	358.06
346.625	379.06
346.853	361.06
347.08	350.06
347.308	358.06
347.535	364.06
347.763	356.06
347.99	350.06
348.218	360.06
348.445	356.06
348.673	344.06
348.9	349.06
349.128	346.06
349.355	328.06
349.583	334.06
349.81	338.06
350.037	355.06
350.265	347.06
350.492	354.06
350.72	356.06
350.947	354.06
351.174	355.06
351.402	353.06
351.629	355.06
351.856	341.06
352.083	358.06
352.311	363.06
352.538	336.06
352.765	344.06
352.992	342.06
353.22	352.06
353.447	341.06
353.674	330.06
353.901	332.06
354.128	341.06
354.355	345.06
354.583	349.06
354.81	331.06
355.037	353.06
355.264	331.06
355.491	320.06
355.718	320.06
355.945	320.06
356.172	348.06
356.399	327.06
356.626	354.06
356.853	343.06
357.08	338.06
357.307	348.06
357.534	335.06
357.761	338.06
357.988	330.06
358.215	327.06
358.441	326.06
358.668	325.06
358.895	334.06
359.122	333.06
359.349	327.06
359.576	340.06
359.802	345.06
360.029	351.06
360.256	358.06
360.483	353.06
360.709	344.06
360.936	354.06
361.163	365.06
361.39	345.06
361.616	334.06
361.843	338.06
362.07	336.06
362.296	320.06
362.523	336.06
362.749	353.06
362.976	342.06
363.203	351.06
363.429	345.06
363.656	316.06
363.882	324.06
364.109	337.06
364.335	333.06
364.562	344.06
364.788	344.06
365.015	318.06
365.241	347.06
365.468	357.06
365.694	344.06
365.92	337.06
366.147	332.06
366.373	320.06
366.599	308.06
366.826	325.06
367.052	329.06
367.278	339.06
367.505	349.06
367.731	338.06
367.957	325.06
368.184	354.06
368.41	328.06
368.636	348.06
368.862	327.06
369.089	328.06
369.315	330.06
369.541	342.06
369.767	326.06
369.993	333.06
370.219	331.06
370.445	326.06
370.672	344.06
370.898	328.06
371.124	322.06
371.35	329.06
371.576	347.06
371.802	314.06
372.028	357.06
372.254	330.06
372.48	320.06
372.706	343.06
372.932	330.06
373.158	344.06
373.384	334.06
373.61	352.06
373.835	333.06
374.061	342.06
374.287	349.06
374.513	345.06
374.739	354.06
374.965	354.06
375.191	347.06
375.416	352.06
375.642	338.06
375.868	340.06
376.094	339.06
376.319	341.06
376.545	333.06
376.771	342.06
376.997	312.06
377.222	333.06
377.448	334.06
377.674	331.06
377.899	333.06
378.125	324.06
378.35	325.06
378.576	321.06
378.802	330.06
379.027	324.06
379.253	344.06
379.478	327.06
379.704	345.06
379.929	318.06
380.155	330.06
380.38	320.06
380.606	337.06
380.831	326.06
381.057	322.06
381.282	349.06
381.507	339.06
381.733	357.06
381.958	327.06
382.184	321.06
382.409	337.06
382.634	330.06
382.86	353.06
383.085	340.06
383.31	357.06
383.535	332.06
383.761	345.06
383.986	330.06
384.211	362.06
384.436	340.06
384.662	352.06
384.887	349.06
385.112	345.06
385.337	352.06
385.562	354.06
385.787	375.06
386.013	373.06
386.238	369.06
386.463	363.06
386.688	361.06
386.913	364.06
387.138	368.06
387.363	369.06
387.588	362.06
387.813	366.06
388.038	352.06
388.263	365.06
388.488	358.06
388.713	364.06
388.938	350.06
389.163	355.06
389.387	360.06
389.612	346.06
389.837	342.06
390.062	349.06
390.287	347.06
390.512	360.06
390.736	358.06
390.961	348.06
391.186	342.06
391.411	369.06
391.636	382.06
391.86	382.06
392.085	372.06
392.31	364.06
392.534	378.06
392.759	380.06
392.984	356.06
393.208	339.06
393.433	360.06
393.658	361.06
393.882	347.06
394.107	361.06
394.331	342.06
394.556	358.06
394.78	358.06
395.005	361.06
395.229	371.06
395.454	374.06
395.678	375.06
395.903	385.06
396.127	378.06
396.352	370.06
396.576	359.06
396.801	370.06
397.025	394.06
397.249	385.06
397.474	380.06
397.698	363.06
397.922	387.06
398.147	391.06
398.371	389.06
398.595	398.06
398.82	404.06
399.044	416.06
399.268	414.06
399.492	447.06
399.717	459.06
399.941	475.06
400.165	482.06
400.389	472.06
400.613	434.06
400.837	427.06
401.062	404.06
401.286	422.06
401.51	391.06
401.734	367.06
401.958	403.06
402.182	395.06
402.406	401.06
402.63	404.06
402.854	407.06
403.078	409.06
403.302	418.06
403.526	402.06
403.75	392.06
403.974	408.06
404.198	410.06
404.422	401.06
404.645	408.06
404.869	411.06
405.093	429.06
405.317	444.06
405.541	456.06
405.765	440.06
405.988	426.06
406.212	430.06
406.436	445.06
406.66	442.06
406.883	419.06
407.107	465.06
407.331	452.06
407.555	515.06
407.778	506.06
408.002	489.06
408.226	433.06
408.449	460.06
408.673	436.06
408.896	462.06
409.12	465.06
409.344	447.06
409.567	416.06
409.791	420.06
410.014	406.06
410.238	412.06
410.461	396.06
410.685	403.06
410.908	423.06
411.132	444.06
411.355	445.06
411.578	436.06
411.802	406.06
412.025	394.06
412.249	425.06
412.472	423.06
412.695	443.06
412.919	452.06
413.142	419.06
413.365	392.06
413.589	390.06
413.812	377.06
414.035	376.06
414.258	390.06
414.482	380.06
414.705	386.06
414.928	383.06
415.151	373.06
415.374	380.06
415.597	397.06
415.821	394.06
416.044	375.06
416.267	381.06
416.49	412.06
416.713	381.06
416.936	397.06
417.159	363.06
417.382	346.06
417.605	374.06
417.828	386.06
418.051	398.06
418.274	387.06
418.497	381.06
418.72	372.06
418.943	382.06
419.166	388.06
419.389	409.06
419.611	406.06
419.834	390.06
420.057	395.06
420.28	404.06
420.503	368.06
420.726	396.06
420.948	384.06
421.171	409.06
421.394	426.06
421.617	398.06
421.839	396.06
422.062	386.06
422.285	403.06
422.507	434.06
422.73	452.06
422.953	447.06
423.175	404.06
423.398	403.06
423.621	403.06
423.843	419.06
424.066	403.06
424.288	385.06
424.511	420.06
424.733	445.06
424.956	471.06
425.178	475.06
425.401	452.06
425.623	497.06
425.846	413.06
426.068	408.06
426.291	401.06
426.513	393.06
426.735	404.06
426.958	430.06
427.18	485.06
427.402	547.06
427.625	603.06
427.847	537.06
428.069	462.06
428.292	427.06
428.514	388.06
428.736	366.06
428.958	382.06
429.181	371.06
429.403	382.06
429.625	394.06
429.847	386.06
430.069	430.06
430.292	414.06
430.514	389.06
430.736	395.06
430.958	375.06
431.18	360.06
431.402	364.06
431.624	366.06
431.846	344.06
432.068	364.06
432.29	361.06
432.512	373.06
432.734	363.06
432.956	385.06
433.178	373.06
433.4	363.06
433.622	372.06
433.844	372.06
434.066	347.06
434.287	349.06
434.509	369.06
434.731	390.06
434.953	377.06
435.175	391.06
435.397	397.06
435.618	407.06
435.84	444.06
436.062	492.06
436.284	480.06
436.505	425.06
436.727	396.06
436.949	379.06
437.17	370.06
437.392	365.06
437.614	390.06
437.835	391.06
438.057	448.06
438.278	497.06
438.5	498.06
438.721	538.06
438.943	514.06
439.165	407.06
439.386	390.06
439.608	389.06
439.829	403.06
440.05	411.06
440.272	423.06
440.493	404.06
440.715	388.06
440.936	397.06
441.158	387.06
441.379	368.06
441.6	365.06
441.822	386.06
442.043	422.06
442.264	456.06
442.486	484.06
442.707	430.06
442.928	404.06
443.149	438.06
443.371	423.06
443.592	453.06
443.813	534.06
444.034	525.06
444.255	468.06
444.476	412.06
444.698	414.06
444.919	413.06
445.14	536.06
445.361	458.06
445.582	427.06
445.803	464.06
446.024	504.06
446.245	521.06
446.466	474.06
446.687	404.06
446.908	394.06
447.129	367.06
447.35	363.06
447.571	360.06
447.792	364.06
448.013	364.06
448.234	401.06
448.455	421.06
448.675	472.06
448.896	546.06
449.117	469.06
449.338	431.06
449.559	513.06
449.779	585.06
450	457.06
450.221	414.06
450.442	377.06
450.662	377.06
450.883	350.06
451.104	364.06
451.324	342.06
451.545	348.06
451.766	327.06
451.986	354.06
452.207	342.06
452.428	357.06
452.648	329.06
452.869	345.06
453.089	353.06
453.31	348.06
453.53	334.06
453.751	341.06
453.971	343.06
454.192	358.06
454.412	342.06
454.633	324.06
454.853	321.06
455.073	339.06
455.294	353.06
455.514	384.06
455.734	366.06
455.955	339.06
456.175	310.06
456.395	336.06
456.616	306.06
456.836	319.06
457.056	321.06
457.276	333.06
457.497	332.06
457.717	320.06
457.937	331.06
458.157	321.06
458.377	329.06
458.598	348.06
458.818	373.06
459.038	410.06
459.258	400.06
459.478	361.06
459.698	361.06
459.918	340.06
460.138	357.06
460.358	360.06
460.578	369.06
460.798	360.06
461.018	361.06
461.238	372.06
461.458	342.06
461.678	372.06
461.898	378.06
462.118	380.06
462.338	363.06
462.558	371.06
462.777	378.06
462.997	416.06
463.217	412.06
463.437	407.06
463.657	406.06
463.876	382.06
464.096	412.06
464.316	393.06
464.536	364.06
464.755	374.06
464.975	386.06
465.195	396.06
465.414	418.06
465.634	387.06
465.854	388.06
466.073	351.06
466.293	342.06
466.512	356.06
466.732	358.06
466.951	364.06
467.171	346.06
467.391	348.06
467.61	357.06
467.829	344.06
468.049	344.06
468.268	346.06
468.488	339.06
468.707	319.06
468.927	353.06
469.146	352.06
469.365	363.06
469.585	355.06
469.804	334.06
470.023	360.06
470.243	355.06
470.462	343.06
470.681	354.06
470.901	376.06
471.12	359.06
471.339	340.06
471.558	362.06
471.777	362.06
471.997	361.06
472.216	339.06
472.435	356.06
472.654	344.06
472.873	352.06
473.092	341.06
473.311	346.06
473.53	358.06
473.749	365.06
473.968	373.06
474.187	422.06
474.406	428.06
474.625	375.06
474.844	346.06
475.063	346.06
475.282	338.06
475.501	359.06
475.72	366.06
475.939	362.06
476.158	362.06
476.377	356.06
476.596	348.06
476.814	360.06
477.033	370.06
477.252	352.06
477.471	365.06
477.69	362.06
477.908	393.06
478.127	376.06
478.346	374.06
478.564	376.06
478.783	377.06
479.002	404.06
479.22	392.06
479.439	402.06
479.658	411.06
479.876	416.06
480.095	400.06
480.313	428.06
480.532	422.06
480.751	408.06
480.969	413.06
481.188	447.06
481.406	443.06
481.624	421.06
481.843	400.06
482.061	428.06
482.28	420.06
482.498	416.06
482.717	396.06
482.935	409.06
483.153	403.06
483.372	411.06
483.59	422.06
483.808	416.06
484.027	414.06
484.245	424.06
484.463	432.06
484.681	395.06
484.9	406.06
485.118	424.06
485.336	402.06
485.554	406.06
485.772	416.06
485.99	433.06
486.209	408.06
486.427	418.06
486.645	432.06
486.863	448.06
487.081	418.06
487.299	444.06
487.517	416.06
487.735	434.06
487.953	443.06
488.171	423.06
488.389	440.06
488.607	426.06
488.825	410.06
489.043	421.06
489.261	430.06
489.479	447.06
489.696	434.06
489.914	436.06
490.132	444.06
490.35	426.06
490.568	455.06
490.786	458.06
491.003	467.06
491.221	457.06
491.439	465.06
491.657	487.06
491.874	443.06
492.092	444.06
492.31	456.06
492.527	473.06
492.745	474.06
492.963	470.06
493.18	488.06
493.398	480.06
493.615	453.06
493.833	477.06
494.05	489.06
494.268	470.06
494.485	494.06
494.703	476.06
494.92	473.06
495.138	521.06
495.355	487.06
495.573	483.06
495.79	480.06
496.008	502.06
496.225	491.06
496.442	483.06
496.66	494.06
496.877	498.06
497.094	473.06
497.312	500.06
497.529	520.06
497.746	519.06
497.963	531.06
498.181	532.06
498.398	553.06
498.615	571.06
498.832	564.06
499.049	573.06
499.267	574.06
499.484	620.06
499.701	642.06
499.918	631.06
500.135	696.06
500.352	722.06
500.569	741.06
500.786	736.06
501.003	711.06
501.22	696.06
501.437	678.06
501.654	663.06
501.871	638.06
502.088	610.06
502.305	590.06
502.522	568.06
502.739	548.06
502.956	532.06
503.172	531.06
503.389	516.06
503.606	530.06
503.823	511.06
504.04	514.06
504.256	517.06
504.473	521.06
504.69	482.06
504.907	485.06
505.123	499.06
505.34	510.06
505.557	501.06
505.773	477.06
505.99	475.06
506.207	453.06
506.423	452.06
506.64	453.06
506.856	456.06
507.073	458.06
507.289	457.06
507.506	439.06
507.722	448.06
507.939	437.06
508.155	474.06
508.372	450.06
508.588	434.06
508.805	430.06
509.021	440.06
509.238	444.06
509.454	450.06
509.67	442.06
509.887	425.06
510.103	432.06
510.319	440.06
510.536	468.06
510.752	661.06
510.968	559.06
511.184	426.06
511.401	418.06
511.617	422.06
511.833	415.06
512.049	413.06
512.265	418.06
512.481	430.06
512.698	433.06
512.914	409.06
513.13	409.06
513.346	425.06
513.562	436.06
513.778	431.06
513.994	414.06
514.21	420.06
514.426	448.06
514.642	433.06
514.858	438.06
515.074	461.06
515.29	494.06
515.506	655.06
515.721	573.06
515.937	466.06
516.153	450.06
516.369	419.06
516.585	419.06
516.801	435.06
517.016	426.06
517.232	440.06
517.448	432.06
517.664	432.06
517.879	445.06
518.095	451.06
518.311	439.06
518.527	430.06
518.742	440.06
518.958	436.06
519.173	421.06
519.389	425.06
519.605	408.06
519.82	421.06
520.036	434.06
520.251	423.06
520.467	430.06
520.682	435.06
520.898	435.06
521.113	418.06
521.329	455.06
521.544	479.06
521.76	546.06
521.975	817.06
522.19	758.06
522.406	516.06
522.621	430.06
522.836	407.06
523.052	425.06
523.267	413.06
523.482	370.06
523.698	382.06
523.913	378.06
524.128	380.06
524.343	373.06
524.559	372.06
524.774	361.06
524.989	384.06
525.204	369.06
525.419	386.06
525.634	378.06
525.849	373.06
526.064	368.06
526.28	378.06
526.495	353.06
526.71	352.06
526.925	345.06
527.14	344.06
527.355	368.06
527.57	340.06
527.785	340.06
527.999	352.06
528.214	354.06
528.429	354.06
528.644	345.06
528.859	349.06
529.074	354.06
529.289	366.06
529.503	372.06
529.718	379.06
529.933	366.06
530.148	358.06
530.363	379.06
530.577	350.06
530.792	343.06
531.007	358.06
531.221	341.06
531.436	352.06
531.651	340.06
531.865	339.06
532.08	337.06
532.295	350.06
532.509	337.06
532.724	343.06
532.938	350.06
533.153	336.06
533.367	344.06
533.582	340.06
533.796	343.06
534.011	360.06
534.225	345.06
534.44	343.06
534.654	340.06
534.868	316.06
535.083	348.06
535.297	343.06
535.511	338.06
535.726	334.06
535.94	322.06
536.154	332.06
536.369	336.06
536.583	351.06
536.797	325.06
537.011	330.06
537.225	338.06
537.44	321.06
537.654	333.06
537.868	330.06
538.082	341.06
538.296	360.06
538.51	333.06
538.724	330.06
538.938	332.06
539.153	320.06
539.367	332.06
539.581	343.06
539.795	331.06
540.009	305.06
540.222	331.06
540.436	344.06
540.65	333.06
540.864	344.06
541.078	336.06
541.292	353.06
541.506	330.06
541.72	349.06
541.934	329.06
542.147	339.06
542.361	347.06
542.575	326.06
542.789	322.06
543.002	346.06
543.216	337.06
543.43	324.06
543.644	318.06
543.857	341.06
544.071	344.06
544.285	323.06
544.498	335.06
544.712	334.06
544.925	328.06
545.139	327.06
545.352	328.06
545.566	333.06
545.779	329.06
545.993	336.06
546.206	334.06
546.42	315.06
546.633	306.06
546.847	333.06
547.06	330.06
547.274	318.06
547.487	315.06
547.7	319.06
547.914	330.06
548.127	329.06
548.34	337.06
548.554	324.06
548.767	315.06
548.98	339.06
549.193	315.06
549.407	316.06
549.62	316.06
549.833	316.06
550.046	320.06
550.259	318.06
550.473	312.06
550.686	310.06
550.899	330.06
551.112	329.06
551.325	313.06
551.538	317.06
551.751	344.06
551.964	308.06
552.177	324.06
552.39	318.06
552.603	330.06
552.816	326.06
553.029	338.06
553.242	337.06
553.455	320.06
553.667	325.06
553.88	320.06
554.093	317.06
554.306	315.06
554.519	322.06
554.732	302.06
554.944	319.06
555.157	311.06
555.37	302.06
555.583	297.06
555.795	316.06
556.008	292.06
556.221	299.06
556.433	309.06
556.646	302.06
556.859	304.06
557.071	301.06
557.284	307.06
557.496	293.06
557.709	300.06
557.921	310.06
558.134	293.06
558.346	300.06
558.559	312.06
558.771	289.06
558.984	281.06
559.196	288.06
559.409	307.06
559.621	291.06
559.833	289.06
560.046	292.06
560.258	310.06
560.47	292.06
560.683	293.06
560.895	288.06
561.107	296.06
561.32	278.06
561.532	296.06
561.744	282.06
561.956	288.06
562.168	275.06
562.381	283.06
562.593	325.06
562.805	292.06
563.017	304.06
563.229	273.06
563.441	298.06
563.653	290.06
563.865	315.06
564.077	290.06
564.289	288.06
564.501	295.06
564.713	312.06
564.925	300.06
565.137	300.06
565.349	307.06
565.561	322.06
565.773	319.06
565.985	318.06
566.197	329.06
566.408	327.06
566.62	350.06
566.832	347.06
567.044	344.06
567.255	331.06
567.467	362.06
567.679	367.06
567.891	380.06
568.102	385.06
568.314	359.06
568.526	353.06
568.737	346.06
568.949	358.06
569.161	327.06
569.372	301.06
569.584	324.06
569.795	316.06
570.007	310.06
570.218	304.06
570.43	306.06
570.641	283.06
570.853	294.06
571.064	292.06
571.276	282.06
571.487	293.06
571.698	272.06
571.91	275.06
572.121	257.06
572.333	269.06
572.544	284.06
572.755	280.06
572.966	269.06
573.178	259.06
573.389	273.06
573.6	244.06
573.811	276.06
574.023	269.06
574.234	258.06
574.445	259.06
574.656	254.06
574.867	253.06
575.078	245.06
575.289	251.06
575.501	249.06
575.712	248.06
575.923	254.06
576.134	246.06
576.345	246.06
576.556	249.06
576.767	243.06
576.978	254.06
577.188	253.06
577.399	248.06
577.61	249.06
577.821	247.06
578.032	248.06
578.243	254.06
578.454	335.06
578.665	290.06
578.875	252.06
579.086	247.06
579.297	257.06
579.508	247.06
579.718	263.06
579.929	233.06
580.14	224.06
580.35	222.06
580.561	217.06
580.772	230.06
580.982	221.06
581.193	221.06
581.403	229.06
581.614	230.06
581.825	224.06
582.035	247.06
582.246	234.06
582.456	225.06
582.667	227.06
582.877	229.06
583.087	227.06
583.298	219.06
583.508	231.06
583.719	222.06
583.929	230.06
584.139	234.06
584.35	219.06
584.56	236.06
584.77	224.06
584.981	224.06
585.191	222.06
585.401	242.06
585.611	248.06
585.821	223.06
586.032	210.06
586.242	226.06
586.452	226.06
586.662	243.06
586.872	211.06
587.082	225.06
587.292	244.06
587.502	234.06
587.713	220.06
587.923	234.06
588.133	221.06
588.343	218.06
588.553	219.06
588.762	225.06
588.972	217.06
589.182	292.06
589.392	308.06
589.602	247.06
589.812	284.06
590.022	250.06
590.232	240.06
590.441	234.06
590.651	230.06
590.861	227.06
591.071	236.06
591.281	232.06
591.49	240.06
591.7	218.06
591.91	221.06
592.119	221.06
592.329	242.06
592.539	234.06
592.748	242.06
592.958	248.06
593.167	232.06
593.377	251.06
593.587	245.06
593.796	244.06
594.006	241.06
594.215	232.06
594.424	250.06
594.634	225.06
594.843	231.06
595.053	247.06
595.262	235.06
595.472	212.06
595.681	219.06
595.89	220.06
596.1	216.06
596.309	220.06
596.518	218.06
596.727	215.06
596.937	208.06
597.146	226.06
597.355	221.06
597.564	227.06
597.774	200.06
597.983	225.06
598.192	214.06
598.401	204.06
598.61	217.06
598.819	195.06
599.028	208.06
599.237	212.06
599.446	203.06
599.655	192.06
599.864	197.06
600.073	198.06
600.282	214.06
600.491	213.06
600.7	220.06
600.909	204.06
601.118	209.06
601.327	196.06
601.536	195.06
601.745	189.06
601.953	203.06
602.162	187.06
602.371	189.06
602.58	204.06
602.789	188.06
602.997	188.06
603.206	202.06
603.415	203.06
603.623	188.06
603.832	189.06
604.041	199.06
604.249	198.06
604.458	179.06
604.666	198.06
604.875	194.06
605.084	214.06
605.292	187.06
605.501	193.06
605.709	202.06
605.918	193.06
606.126	185.06
606.334	188.06
606.543	187.06
606.751	199.06
606.96	174.06
607.168	197.06
607.376	187.06
607.585	199.06
607.793	189.06
608.001	189.06
608.21	173.06
608.418	202.06
608.626	201.06
608.834	193.06
609.043	187.06
609.251	179.06
609.459	176.06
609.667	196.06
609.875	188.06
610.083	180.06
610.291	178.06
610.499	180.06
610.707	189.06
610.916	181.06
611.124	206.06
611.332	194.06
611.54	206.06
611.748	205.06
611.955	194.06
612.163	185.06
612.371	190.06
612.579	181.06
612.787	179.06
612.995	197.06
613.203	187.06
613.411	175.06
613.618	185.06
613.826	195.06
614.034	202.06
614.242	192.06
614.449	181.06
614.657	189.06
614.865	196.06
615.072	198.06
615.28	190.06
615.488	180.06
615.695	184.06
615.903	182.06
616.111	176.06
616.318	185.06
616.526	194.06
616.733	189.06
616.941	180.06
617.148	188.06
617.356	176.06
617.563	186.06
617.771	178.06
617.978	180.06
618.185	183.06
618.393	174.06
618.6	186.06
618.807	192.06
619.015	179.06
619.222	197.06
619.429	182.06
619.637	181.06
619.844	170.06
620.051	179.06
620.258	168.06
620.466	164.06
620.673	182.06
620.88	185.06
621.087	193.06
621.294	160.06
621.501	179.06
621.708	171.06
621.915	185.06
622.122	173.06
622.329	181.06
622.536	164.06
622.743	169.06
622.95	176.06
623.157	166.06
623.364	182.06
623.571	183.06
623.778	164.06
623.985	174.06
624.192	165.06
624.399	170.06
624.606	182.06
624.812	193.06
625.019	171.06
625.226	170.06
625.433	161.06
625.639	172.06
625.846	158.06
626.053	173.06
626.259	166.06
626.466	161.06
626.673	144.06
626.879	168.06
627.086	163.06
627.293	152.06
627.499	151.06
627.706	158.06
627.912	171.06
628.119	170.06
628.325	162.06
628.532	149.06
628.738	155.06
628.945	157.06
629.151	167.06
629.357	157.06
629.564	174.06
629.77	162.06
629.976	157.06
630.183	154.06
630.389	162.06
630.595	162.06
630.802	152.06
631.008	162.06
631.214	155.06
631.42	156.06
631.627	149.06
631.833	164.06
632.039	155.06
632.245	158.06
632.451	156.06
632.657	155.06
632.863	148.06
633.069	145.06
633.275	158.06
633.481	152.06
633.688	160.06
633.893	157.06
634.099	160.06
634.305	147.06
634.511	150.06
634.717	152.06
634.923	142.06
635.129	161.06
635.335	156.06
635.541	154.06
635.747	152.06
635.952	149.06
636.158	163.06
636.364	161.06
636.57	150.06
636.775	146.06
636.981	150.06
637.187	148.06
637.392	163.06
637.598	146.06
637.804	150.06
638.009	152.06
638.215	156.06
638.421	123.06
638.626	155.06
638.832	143.06
639.037	146.06
639.243	153.06
639.448	149.06
639.654	149.06
639.859	144.06
640.065	139.06
640.27	154.06
640.475	134.06
640.681	145.06
640.886	143.06
641.091	134.06
641.297	153.06
641.502	137.06
641.707	130.06
641.913	156.06
642.118	153.06
642.323	144.06
642.528	144.06
642.733	149.06
642.939	134.06
643.144	140.06
643.349	133.06
643.554	158.06
643.759	150.06
643.964	137.06
644.169	137.06
644.374	142.06
644.579	156.06
644.784	146.06
644.989	131.06
645.194	128.06
645.399	133.06
645.604	144.06
645.809	145.06
646.014	147.06
646.219	124.06
646.423	135.06
646.628	144.06
646.833	142.06
647.038	152.06
647.243	138.06
647.447	137.06
647.652	140.06
647.857	133.06
648.062	136.06
648.266	130.06
648.471	148.06
648.676	126.06
648.88	148.06
649.085	129.06
649.289	132.06
649.494	147.06
649.698	143.06
649.903	147.06
650.107	139.06
650.312	151.06
650.516	139.06
650.721	141.06
650.925	137.06
651.13	147.06
651.334	140.06
651.539	128.06
651.743	130.06
651.947	123.06
652.152	135.06
652.356	132.06
652.56	127.06
652.764	136.06
652.969	108.06
653.173	113.06
653.377	122.06
653.581	129.06
653.785	119.06
653.99	129.06
654.194	132.06
654.398	120.06
654.602	124.06
654.806	117.06
655.01	133.06
655.214	131.06
655.418	133.06
655.622	120.06
655.826	118.06
656.03	129.06
656.234	126.06
656.438	132.06
656.642	128.06
656.846	141.06
657.049	117.06
657.253	131.06
657.457	118.06
657.661	102.06
657.865	116.06
658.068	107.06
658.272	107.06
658.476	109.06
658.68	96.06
658.883	91.06
659.087	100.06
659.291	89.06
659.494	98.06
659.698	81.06
659.901	96.06
660.105	96.06
660.309	95.06
660.512	73.06
660.716	88.06
660.919	72.06
661.123	91.06
661.326	91.06
661.53	78.06
661.733	88.06
661.936	75.06
662.14	77.06
662.343	92.06
662.546	89.06
662.75	83.06
662.953	86.06
663.156	83.06
663.36	78.06
663.563	90.06
663.766	68.06
663.969	79.06
664.173	92.06
664.376	82.06
664.579	90.06
664.782	91.06
664.985	85.06
665.188	80.06
665.391	73.06
665.594	74.06
665.797	75.06
666	70.06
666.203	90.06
666.406	86.06
666.609	80.06
666.812	100.06
667.015	78.06
667.218	95.06
667.421	85.06
667.624	82.06
667.827	75.06
668.03	91.06
668.232	76.06
668.435	91.06
668.638	86.06
668.841	82.06
669.043	90.06
669.246	89.06
669.449	92.06
669.651	81.06
669.854	92.06
670.057	77.06
670.259	69.06
670.462	75.06
670.665	79.06
670.867	91.06
671.07	72.06
671.272	77.06
671.475	77.06
671.677	76.06
671.88	85.06
672.082	84.06
672.284	76.06
672.487	69.06
672.689	66.06
672.892	57.06
