Data from 1960PennyLincolnUp.LampE6.200Scan.07172019.P1_HRD10591_13-06-34-002.txt Node
Date: Thu Jul 18 13:06:34 EDT 2019
User: cochatt
Spectrometer: HR+D1059
Trigger mode: 1
Integration Time (sec): 1.000000E-1
Scans to average: 1
Electric dark correction enabled: true
Nonlinearity correction enabled: false
Boxcar width: 0
XAxis mode: Wavelengths
Number of Pixels in Spectrum: 2048
>>>>>Begin Spectral Data<<<<<
223.165	-24.31
223.4	-24.31
223.635	-24.31
223.869	-7.31
224.104	-29.31
224.338	-16.31
224.573	-10.31
224.808	-8.31
225.042	-1.31
225.277	-3.31
225.511	-7.31
225.746	-4.31
225.98	23.69
226.215	15.69
226.449	-9.31
226.683	26.69
226.918	20.69
227.152	34.69
227.387	42.69
227.621	49.69
227.856	42.69
228.09	53.69
228.324	57.69
228.559	50.69
228.793	66.69
229.027	91.69
229.262	109.69
229.496	113.69
229.73	111.69
229.964	108.69
230.199	107.69
230.433	105.69
230.667	106.69
230.901	98.69
231.136	105.69
231.37	99.69
231.604	112.69
231.838	105.69
232.072	97.69
232.306	127.69
232.541	127.69
232.775	119.69
233.009	108.69
233.243	106.69
233.477	119.69
233.711	108.69
233.945	115.69
234.179	110.69
234.413	110.69
234.647	133.69
234.881	116.69
235.115	124.69
235.349	106.69
235.583	116.69
235.817	122.69
236.051	131.69
236.285	130.69
236.519	124.69
236.753	119.69
236.987	131.69
237.221	148.69
237.455	172.69
237.689	159.69
237.922	132.69
238.156	126.69
238.39	127.69
238.624	114.69
238.858	114.69
239.091	135.69
239.325	109.69
239.559	134.69
239.793	128.69
240.027	120.69
240.26	145.69
240.494	150.69
240.728	136.69
240.961	136.69
241.195	132.69
241.429	132.69
241.662	125.69
241.896	128.69
242.13	137.69
242.363	136.69
242.597	130.69
242.83	151.69
243.064	134.69
243.298	126.69
243.531	127.69
243.765	132.69
243.998	128.69
244.232	142.69
244.465	134.69
244.699	146.69
244.932	145.69
245.166	145.69
245.399	126.69
245.633	142.69
245.866	134.69
246.099	141.69
246.333	145.69
246.566	147.69
246.8	148.69
247.033	160.69
247.266	128.69
247.5	154.69
247.733	162.69
247.966	151.69
248.2	172.69
248.433	165.69
248.666	169.69
248.899	166.69
249.133	191.69
249.366	176.69
249.599	170.69
249.832	161.69
250.066	147.69
250.299	186.69
250.532	178.69
250.765	189.69
250.998	201.69
251.231	206.69
251.465	183.69
251.698	178.69
251.931	188.69
252.164	176.69
252.397	171.69
252.63	197.69
252.863	201.69
253.096	193.69
253.329	207.69
253.562	196.69
253.795	228.69
254.028	181.69
254.261	184.69
254.494	183.69
254.727	220.69
254.96	214.69
255.193	234.69
255.426	203.69
255.659	205.69
255.892	222.69
256.124	209.69
256.357	218.69
256.59	211.69
256.823	190.69
257.056	210.69
257.289	195.69
257.521	188.69
257.754	185.69
257.987	192.69
258.22	197.69
258.452	199.69
258.685	199.69
258.918	188.69
259.151	194.69
259.383	194.69
259.616	207.69
259.849	209.69
260.081	199.69
260.314	216.69
260.547	238.69
260.779	212.69
261.012	204.69
261.244	208.69
261.477	206.69
261.71	179.69
261.942	204.69
262.175	214.69
262.407	196.69
262.64	211.69
262.872	207.69
263.105	212.69
263.337	189.69
263.57	206.69
263.802	196.69
264.035	203.69
264.267	194.69
264.499	217.69
264.732	201.69
264.964	214.69
265.197	215.69
265.429	213.69
265.661	200.69
265.894	220.69
266.126	201.69
266.358	208.69
266.591	216.69
266.823	215.69
267.055	214.69
267.287	217.69
267.52	202.69
267.752	219.69
267.984	225.69
268.216	218.69
268.448	224.69
268.681	231.69
268.913	227.69
269.145	241.69
269.377	241.69
269.609	248.69
269.841	244.69
270.073	246.69
270.306	258.69
270.538	274.69
270.77	288.69
271.002	278.69
271.234	271.69
271.466	264.69
271.698	266.69
271.93	277.69
272.162	277.69
272.394	281.69
272.626	248.69
272.858	252.69
273.09	241.69
273.322	258.69
273.553	236.69
273.785	246.69
274.017	249.69
274.249	253.69
274.481	250.69
274.713	260.69
274.945	248.69
275.176	254.69
275.408	263.69
275.64	259.69
275.872	264.69
276.104	265.69
276.335	266.69
276.567	245.69
276.799	257.69
277.031	278.69
277.262	302.69
277.494	288.69
277.726	273.69
277.957	253.69
278.189	276.69
278.421	258.69
278.652	259.69
278.884	258.69
279.115	278.69
279.347	268.69
279.579	255.69
279.81	256.69
280.042	290.69
280.273	263.69
280.505	272.69
280.736	255.69
280.968	262.69
281.199	264.69
281.431	277.69
281.662	280.69
281.894	276.69
282.125	281.69
282.356	295.69
282.588	302.69
282.819	298.69
283.051	277.69
283.282	283.69
283.513	288.69
283.745	280.69
283.976	300.69
284.207	302.69
284.439	280.69
284.67	270.69
284.901	282.69
285.132	279.69
285.364	282.69
285.595	284.69
285.826	287.69
286.057	280.69
286.288	297.69
286.52	282.69
286.751	279.69
286.982	286.69
287.213	296.69
287.444	281.69
287.675	311.69
287.906	292.69
288.138	300.69
288.369	308.69
288.6	291.69
288.831	290.69
289.062	319.69
289.293	292.69
289.524	310.69
289.755	300.69
289.986	303.69
290.217	295.69
290.448	293.69
290.679	305.69
290.91	306.69
291.141	294.69
291.371	300.69
291.602	301.69
291.833	300.69
292.064	318.69
292.295	310.69
292.526	300.69
292.757	295.69
292.987	304.69
293.218	298.69
293.449	318.69
293.68	289.69
293.91	316.69
294.141	314.69
294.372	311.69
294.603	307.69
294.833	296.69
295.064	307.69
295.295	332.69
295.525	308.69
295.756	331.69
295.987	306.69
296.217	334.69
296.448	329.69
296.679	297.69
296.909	305.69
297.14	305.69
297.37	317.69
297.601	311.69
297.831	318.69
298.062	310.69
298.292	319.69
298.523	337.69
298.753	321.69
298.984	338.69
299.214	321.69
299.445	335.69
299.675	313.69
299.905	307.69
300.136	322.69
300.366	314.69
300.597	314.69
300.827	341.69
301.057	348.69
301.288	342.69
301.518	338.69
301.748	335.69
301.979	333.69
302.209	353.69
302.439	348.69
302.669	331.69
302.9	360.69
303.13	352.69
303.36	336.69
303.59	339.69
303.82	331.69
304.051	360.69
304.281	348.69
304.511	336.69
304.741	338.69
304.971	340.69
305.201	350.69
305.431	356.69
305.661	348.69
305.891	332.69
306.121	354.69
306.352	331.69
306.582	326.69
306.812	338.69
307.042	350.69
307.272	329.69
307.502	347.69
307.731	339.69
307.961	339.69
308.191	342.69
308.421	337.69
308.651	353.69
308.881	349.69
309.111	342.69
309.341	348.69
309.571	331.69
309.8	364.69
310.03	360.69
310.26	372.69
310.49	363.69
310.72	370.69
310.949	380.69
311.179	390.69
311.409	356.69
311.639	359.69
311.868	348.69
312.098	366.69
312.328	380.69
312.557	371.69
312.787	386.69
313.017	380.69
313.246	386.69
313.476	364.69
313.706	388.69
313.935	371.69
314.165	379.69
314.394	366.69
314.624	398.69
314.853	371.69
315.083	392.69
315.312	372.69
315.542	370.69
315.771	365.69
316.001	374.69
316.23	391.69
316.46	374.69
316.689	384.69
316.919	374.69
317.148	392.69
317.377	386.69
317.607	364.69
317.836	389.69
318.065	390.69
318.295	385.69
318.524	383.69
318.753	373.69
318.983	375.69
319.212	361.69
319.441	380.69
319.67	394.69
319.9	384.69
320.129	387.69
320.358	387.69
320.587	385.69
320.816	377.69
321.046	394.69
321.275	377.69
321.504	380.69
321.733	391.69
321.962	406.69
322.191	394.69
322.42	398.69
322.649	424.69
322.878	406.69
323.108	409.69
323.337	405.69
323.566	433.69
323.795	448.69
324.024	462.69
324.253	539.69
324.482	702.69
324.71	1015.69
324.939	1406.69
325.168	1145.69
325.397	634.69
325.626	461.69
325.855	437.69
326.084	444.69
326.313	453.69
326.542	470.69
326.77	482.69
326.999	546.69
327.228	698.69
327.457	961.69
327.686	1105.69
327.914	727.69
328.143	541.69
328.372	502.69
328.6	511.69
328.829	466.69
329.058	509.69
329.287	486.69
329.515	480.69
329.744	432.69
329.972	463.69
330.201	454.69
330.43	488.69
330.658	509.69
330.887	518.69
331.115	514.69
331.344	497.69
331.572	461.69
331.801	480.69
332.03	482.69
332.258	472.69
332.486	442.69
332.715	480.69
332.943	516.69
333.172	489.69
333.4	506.69
333.629	533.69
333.857	501.69
334.085	523.69
334.314	540.69
334.542	552.69
334.771	558.69
334.999	532.69
335.227	511.69
335.455	506.69
335.684	477.69
335.912	510.69
336.14	483.69
336.369	452.69
336.597	477.69
336.825	466.69
337.053	472.69
337.281	456.69
337.51	454.69
337.738	455.69
337.966	459.69
338.194	427.69
338.422	460.69
338.65	444.69
338.878	443.69
339.106	424.69
339.334	457.69
339.562	459.69
339.79	432.69
340.018	423.69
340.246	430.69
340.474	444.69
340.702	418.69
340.93	448.69
341.158	434.69
341.386	430.69
341.614	458.69
341.842	442.69
342.07	441.69
342.298	410.69
342.526	431.69
342.754	403.69
342.981	416.69
343.209	432.69
343.437	435.69
343.665	445.69
343.893	467.69
344.12	519.69
344.348	481.69
344.576	468.69
344.804	436.69
345.031	436.69
345.259	432.69
345.487	430.69
345.714	422.69
345.942	422.69
346.17	415.69
346.397	407.69
346.625	405.69
346.853	431.69
347.08	401.69
347.308	406.69
347.535	415.69
347.763	426.69
347.99	416.69
348.218	404.69
348.445	409.69
348.673	408.69
348.9	420.69
349.128	414.69
349.355	420.69
349.583	408.69
349.81	406.69
350.037	395.69
350.265	409.69
350.492	408.69
350.72	396.69
350.947	402.69
351.174	407.69
351.402	414.69
351.629	404.69
351.856	422.69
352.083	403.69
352.311	408.69
352.538	427.69
352.765	414.69
352.992	416.69
353.22	420.69
353.447	405.69
353.674	398.69
353.901	391.69
354.128	405.69
354.355	395.69
354.583	404.69
354.81	414.69
355.037	388.69
355.264	395.69
355.491	402.69
355.718	411.69
355.945	390.69
356.172	416.69
356.399	420.69
356.626	400.69
356.853	402.69
357.08	399.69
357.307	389.69
357.534	385.69
357.761	397.69
357.988	413.69
358.215	404.69
358.441	407.69
358.668	406.69
358.895	403.69
359.122	402.69
359.349	387.69
359.576	412.69
359.802	436.69
360.029	428.69
360.256	458.69
360.483	423.69
360.709	427.69
360.936	426.69
361.163	420.69
361.39	410.69
361.616	416.69
361.843	410.69
362.07	420.69
362.296	424.69
362.523	412.69
362.749	419.69
362.976	405.69
363.203	423.69
363.429	397.69
363.656	409.69
363.882	419.69
364.109	379.69
364.335	406.69
364.562	405.69
364.788	418.69
365.015	402.69
365.241	409.69
365.468	395.69
365.694	411.69
365.92	401.69
366.147	420.69
366.373	416.69
366.599	404.69
366.826	405.69
367.052	404.69
367.278	411.69
367.505	420.69
367.731	438.69
367.957	390.69
368.184	406.69
368.41	417.69
368.636	418.69
368.862	420.69
369.089	437.69
369.315	411.69
369.541	427.69
369.767	422.69
369.993	395.69
370.219	400.69
370.445	409.69
370.672	403.69
370.898	408.69
371.124	426.69
371.35	430.69
371.576	421.69
371.802	406.69
372.028	435.69
372.254	397.69
372.48	411.69
372.706	420.69
372.932	440.69
373.158	444.69
373.384	412.69
373.61	452.69
373.835	437.69
374.061	411.69
374.287	437.69
374.513	449.69
374.739	459.69
374.965	481.69
375.191	464.69
375.416	437.69
375.642	436.69
375.868	435.69
376.094	426.69
376.319	426.69
376.545	418.69
376.771	437.69
376.997	427.69
377.222	428.69
377.448	433.69
377.674	427.69
377.899	413.69
378.125	414.69
378.35	410.69
378.576	405.69
378.802	413.69
379.027	410.69
379.253	412.69
379.478	416.69
379.704	422.69
379.929	430.69
380.155	429.69
380.38	420.69
380.606	425.69
380.831	436.69
381.057	412.69
381.282	420.69
381.507	408.69
381.733	439.69
381.958	410.69
382.184	430.69
382.409	427.69
382.634	445.69
382.86	400.69
383.085	431.69
383.31	441.69
383.535	438.69
383.761	439.69
383.986	430.69
384.211	460.69
384.436	465.69
384.662	477.69
384.887	467.69
385.112	490.69
385.337	472.69
385.562	469.69
385.787	474.69
386.013	495.69
386.238	492.69
386.463	478.69
386.688	484.69
386.913	490.69
387.138	475.69
387.363	488.69
387.588	458.69
387.813	494.69
388.038	496.69
388.263	470.69
388.488	457.69
388.713	476.69
388.938	467.69
389.163	451.69
389.387	489.69
389.612	471.69
389.837	468.69
390.062	466.69
390.287	471.69
390.512	456.69
390.736	494.69
390.961	490.69
391.186	489.69
391.411	512.69
391.636	486.69
391.86	500.69
392.085	518.69
392.31	515.69
392.534	519.69
392.759	505.69
392.984	488.69
393.208	477.69
393.433	504.69
393.658	491.69
393.882	495.69
394.107	514.69
394.331	496.69
394.556	495.69
394.78	469.69
395.005	507.69
395.229	505.69
395.454	497.69
395.678	500.69
395.903	511.69
396.127	530.69
396.352	536.69
396.576	507.69
396.801	504.69
397.025	489.69
397.249	525.69
397.474	526.69
397.698	540.69
397.922	539.69
398.147	515.69
398.371	542.69
398.595	564.69
398.82	560.69
399.044	576.69
399.268	621.69
399.492	693.69
399.717	764.69
399.941	791.69
400.165	748.69
400.389	716.69
400.613	626.69
400.837	595.69
401.062	569.69
401.286	593.69
401.51	579.69
401.734	585.69
401.958	588.69
402.182	561.69
402.406	596.69
402.63	597.69
402.854	616.69
403.078	608.69
403.302	615.69
403.526	641.69
403.75	624.69
403.974	636.69
404.198	628.69
404.422	639.69
404.645	608.69
404.869	615.69
405.093	642.69
405.317	661.69
405.541	692.69
405.765	626.69
405.988	620.69
406.212	636.69
406.436	640.69
406.66	644.69
406.883	651.69
407.107	672.69
407.331	712.69
407.555	780.69
407.778	756.69
408.002	687.69
408.226	664.69
408.449	674.69
408.673	644.69
408.896	654.69
409.12	658.69
409.344	650.69
409.567	618.69
409.791	622.69
410.014	622.69
410.238	596.69
410.461	596.69
410.685	604.69
410.908	598.69
411.132	603.69
411.355	613.69
411.578	622.69
411.802	594.69
412.025	598.69
412.249	609.69
412.472	624.69
412.695	626.69
412.919	599.69
413.142	567.69
413.365	567.69
413.589	580.69
413.812	557.69
414.035	560.69
414.258	536.69
414.482	562.69
414.705	565.69
414.928	572.69
415.151	547.69
415.374	561.69
415.597	546.69
415.821	554.69
416.044	569.69
416.267	571.69
416.49	528.69
416.713	553.69
416.936	560.69
417.159	552.69
417.382	571.69
417.605	561.69
417.828	578.69
418.051	582.69
418.274	567.69
418.497	570.69
418.72	579.69
418.943	568.69
419.166	603.69
419.389	632.69
419.611	612.69
419.834	585.69
420.057	590.69
420.28	604.69
420.503	570.69
420.726	573.69
420.948	569.69
421.171	608.69
421.394	606.69
421.617	580.69
421.839	567.69
422.062	573.69
422.285	568.69
422.507	606.69
422.73	679.69
422.953	645.69
423.175	608.69
423.398	594.69
423.621	610.69
423.843	612.69
424.066	578.69
424.288	617.69
424.511	617.69
424.733	659.69
424.956	684.69
425.178	684.69
425.401	665.69
425.623	679.69
425.846	623.69
426.068	568.69
426.291	565.69
426.513	573.69
426.735	570.69
426.958	594.69
427.18	646.69
427.402	730.69
427.625	788.69
427.847	693.69
428.069	629.69
428.292	580.69
428.514	552.69
428.736	554.69
428.958	530.69
429.181	525.69
429.403	533.69
429.625	521.69
429.847	556.69
430.069	594.69
430.292	564.69
430.514	519.69
430.736	513.69
430.958	508.69
431.18	504.69
431.402	492.69
431.624	524.69
431.846	486.69
432.068	525.69
432.29	500.69
432.512	500.69
432.734	499.69
432.956	546.69
433.178	517.69
433.4	526.69
433.622	516.69
433.844	556.69
434.066	510.69
434.287	533.69
434.509	546.69
434.731	563.69
434.953	573.69
435.175	570.69
435.397	560.69
435.618	559.69
435.84	564.69
436.062	618.69
436.284	678.69
436.505	579.69
436.727	568.69
436.949	529.69
437.17	515.69
437.392	532.69
437.614	501.69
437.835	557.69
438.057	602.69
438.278	647.69
438.5	645.69
438.721	684.69
438.943	666.69
439.165	569.69
439.386	550.69
439.608	533.69
439.829	564.69
440.05	576.69
440.272	598.69
440.493	584.69
440.715	539.69
440.936	538.69
441.158	570.69
441.379	549.69
441.6	564.69
441.822	592.69
442.043	619.69
442.264	648.69
442.486	664.69
442.707	602.69
442.928	579.69
443.149	602.69
443.371	584.69
443.592	641.69
443.813	696.69
444.034	716.69
444.255	639.69
444.476	630.69
444.698	634.69
444.919	617.69
445.14	727.69
445.361	659.69
445.582	637.69
445.803	638.69
446.024	692.69
446.245	692.69
446.466	628.69
446.687	570.69
446.908	541.69
447.129	520.69
447.35	513.69
447.571	509.69
447.792	491.69
448.013	517.69
448.234	513.69
448.455	512.69
448.675	612.69
448.896	657.69
449.117	602.69
449.338	558.69
449.559	624.69
449.779	710.69
450	602.69
450.221	506.69
450.442	494.69
450.662	497.69
450.883	477.69
451.104	498.69
451.324	470.69
451.545	500.69
451.766	496.69
451.986	468.69
452.207	477.69
452.428	457.69
452.648	474.69
452.869	453.69
453.089	462.69
453.31	481.69
453.53	471.69
453.751	447.69
453.971	460.69
454.192	460.69
454.412	455.69
454.633	456.69
454.853	453.69
455.073	456.69
455.294	462.69
455.514	506.69
455.734	512.69
455.955	435.69
456.175	424.69
456.395	440.69
456.616	432.69
456.836	432.69
457.056	410.69
457.276	421.69
457.497	446.69
457.717	440.69
457.937	428.69
458.157	451.69
458.377	451.69
458.598	468.69
458.818	528.69
459.038	570.69
459.258	558.69
459.478	521.69
459.698	511.69
459.918	510.69
460.138	512.69
460.358	539.69
460.578	547.69
460.798	532.69
461.018	560.69
461.238	548.69
461.458	540.69
461.678	560.69
461.898	556.69
462.118	555.69
462.338	576.69
462.558	573.69
462.777	581.69
462.997	626.69
463.217	661.69
463.437	678.69
463.657	622.69
463.876	621.69
464.096	618.69
464.316	618.69
464.536	622.69
464.755	609.69
464.975	611.69
465.195	592.69
465.414	608.69
465.634	572.69
465.854	528.69
466.073	502.69
466.293	493.69
466.512	493.69
466.732	481.69
466.951	487.69
467.171	490.69
467.391	472.69
467.61	476.69
467.829	502.69
468.049	502.69
468.268	461.69
468.488	470.69
468.707	452.69
468.927	458.69
469.146	453.69
469.365	484.69
469.585	469.69
469.804	458.69
470.023	502.69
470.243	504.69
470.462	506.69
470.681	528.69
470.901	508.69
471.12	477.69
471.339	476.69
471.558	474.69
471.777	483.69
471.997	478.69
472.216	500.69
472.435	505.69
472.654	485.69
472.873	468.69
473.092	466.69
473.311	455.69
473.53	462.69
473.749	474.69
473.968	473.69
474.187	544.69
474.406	558.69
474.625	497.69
474.844	492.69
475.063	470.69
475.282	464.69
475.501	470.69
475.72	468.69
475.939	497.69
476.158	494.69
476.377	465.69
476.596	462.69
476.814	490.69
477.033	492.69
477.252	495.69
477.471	502.69
477.69	522.69
477.908	518.69
478.127	549.69
478.346	553.69
478.564	579.69
478.783	553.69
479.002	556.69
479.22	560.69
479.439	568.69
479.658	562.69
479.876	565.69
480.095	569.69
480.313	614.69
480.532	607.69
480.751	632.69
480.969	620.69
481.188	649.69
481.406	664.69
481.624	577.69
481.843	584.69
482.061	530.69
482.28	554.69
482.498	538.69
482.717	532.69
482.935	513.69
483.153	554.69
483.372	552.69
483.59	537.69
483.808	540.69
484.027	551.69
484.245	533.69
484.463	538.69
484.681	557.69
484.9	543.69
485.118	582.69
485.336	556.69
485.554	531.69
485.772	562.69
485.99	564.69
486.209	575.69
486.427	565.69
486.645	572.69
486.863	589.69
487.081	589.69
487.299	593.69
487.517	557.69
487.735	591.69
487.953	582.69
488.171	569.69
488.389	596.69
488.607	569.69
488.825	564.69
489.043	578.69
489.261	567.69
489.479	574.69
489.696	565.69
489.914	582.69
490.132	574.69
490.35	609.69
490.568	594.69
490.786	616.69
491.003	600.69
491.221	635.69
491.439	624.69
491.657	633.69
491.874	652.69
492.092	642.69
492.31	647.69
492.527	634.69
492.745	652.69
492.963	642.69
493.18	665.69
493.398	667.69
493.615	653.69
493.833	651.69
494.05	676.69
494.268	662.69
494.485	645.69
494.703	652.69
494.92	644.69
495.138	663.69
495.355	686.69
495.573	676.69
495.79	658.69
496.008	656.69
496.225	675.69
496.442	648.69
496.66	648.69
496.877	657.69
497.094	688.69
497.312	682.69
497.529	699.69
497.746	712.69
497.963	696.69
498.181	741.69
498.398	731.69
498.615	736.69
498.832	806.69
499.049	855.69
499.267	890.69
499.484	929.69
499.701	1032.69
499.918	1068.69
500.135	1186.69
500.352	1290.69
500.569	1284.69
500.786	1260.69
501.003	1241.69
501.22	1156.69
501.437	1104.69
501.654	998.69
501.871	966.69
502.088	907.69
502.305	806.69
502.522	811.69
502.739	788.69
502.956	748.69
503.172	729.69
503.389	701.69
503.606	703.69
503.823	681.69
504.04	698.69
504.256	686.69
504.473	705.69
504.69	700.69
504.907	695.69
505.123	666.69
505.34	659.69
505.557	658.69
505.773	644.69
505.99	604.69
506.207	618.69
506.423	627.69
506.64	620.69
506.856	603.69
507.073	581.69
507.289	568.69
507.506	597.69
507.722	574.69
507.939	607.69
508.155	579.69
508.372	572.69
508.588	557.69
508.805	582.69
509.021	551.69
509.238	590.69
509.454	559.69
509.67	548.69
509.887	551.69
510.103	547.69
510.319	556.69
510.536	615.69
510.752	889.69
510.968	732.69
511.184	548.69
511.401	539.69
511.617	554.69
511.833	538.69
512.049	548.69
512.265	531.69
512.481	531.69
512.698	529.69
512.914	526.69
513.13	525.69
513.346	521.69
513.562	512.69
513.778	529.69
513.994	519.69
514.21	540.69
514.426	560.69
514.642	573.69
514.858	588.69
515.074	600.69
515.29	682.69
515.506	958.69
515.721	810.69
515.937	618.69
516.153	570.69
516.369	587.69
516.585	589.69
516.801	561.69
517.016	592.69
517.232	605.69
517.448	628.69
517.664	643.69
517.879	636.69
518.095	664.69
518.311	634.69
518.527	614.69
518.742	603.69
518.958	586.69
519.173	566.69
519.389	558.69
519.605	558.69
519.82	563.69
520.036	546.69
520.251	563.69
520.467	560.69
520.682	564.69
520.898	570.69
521.113	580.69
521.329	580.69
521.544	590.69
521.76	736.69
521.975	1132.69
522.19	1125.69
522.406	676.69
522.621	566.69
522.836	532.69
523.052	514.69
523.267	499.69
523.482	492.69
523.698	502.69
523.913	484.69
524.128	482.69
524.343	488.69
524.559	482.69
524.774	471.69
524.989	462.69
525.204	467.69
525.419	470.69
525.634	464.69
525.849	488.69
526.064	470.69
526.28	458.69
526.495	460.69
526.71	447.69
526.925	452.69
527.14	458.69
527.355	452.69
527.57	452.69
527.785	460.69
527.999	454.69
528.214	464.69
528.429	464.69
528.644	449.69
528.859	468.69
529.074	457.69
529.289	491.69
529.503	528.69
529.718	508.69
529.933	466.69
530.148	442.69
530.363	465.69
530.577	452.69
530.792	447.69
531.007	458.69
531.221	469.69
531.436	450.69
531.651	431.69
531.865	445.69
532.08	445.69
532.295	432.69
532.509	441.69
532.724	435.69
532.938	461.69
533.153	463.69
533.367	437.69
533.582	464.69
533.796	443.69
534.011	440.69
534.225	448.69
534.44	443.69
534.654	424.69
534.868	424.69
535.083	422.69
535.297	449.69
535.511	425.69
535.726	451.69
535.94	421.69
536.154	418.69
536.369	434.69
536.583	412.69
536.797	423.69
537.011	429.69
537.225	418.69
537.44	409.69
537.654	424.69
537.868	425.69
538.082	417.69
538.296	438.69
538.51	426.69
538.724	410.69
538.938	426.69
539.153	441.69
539.367	444.69
539.581	429.69
539.795	415.69
540.009	433.69
540.222	427.69
540.436	424.69
540.65	419.69
540.864	408.69
541.078	420.69
541.292	422.69
541.506	425.69
541.72	412.69
541.934	428.69
542.147	442.69
542.361	422.69
542.575	421.69
542.789	416.69
543.002	404.69
543.216	418.69
543.43	422.69
543.644	427.69
543.857	417.69
544.071	420.69
544.285	422.69
544.498	420.69
544.712	433.69
544.925	418.69
545.139	408.69
545.352	428.69
545.566	433.69
545.779	422.69
545.993	425.69
546.206	438.69
546.42	415.69
546.633	424.69
546.847	435.69
547.06	420.69
547.274	432.69
547.487	432.69
547.7	424.69
547.914	412.69
548.127	422.69
548.34	427.69
548.554	419.69
548.767	408.69
548.98	422.69
549.193	406.69
549.407	409.69
549.62	451.69
549.833	432.69
550.046	422.69
550.259	436.69
550.473	410.69
550.686	434.69
550.899	428.69
551.112	404.69
551.325	405.69
551.538	415.69
551.751	412.69
551.964	407.69
552.177	414.69
552.39	411.69
552.603	428.69
552.816	425.69
553.029	429.69
553.242	442.69
553.455	461.69
553.667	473.69
553.88	448.69
554.093	458.69
554.306	423.69
554.519	432.69
554.732	432.69
554.944	397.69
555.157	408.69
555.37	398.69
555.583	395.69
555.795	386.69
556.008	377.69
556.221	405.69
556.433	412.69
556.646	390.69
556.859	386.69
557.071	386.69
557.284	385.69
557.496	386.69
557.709	360.69
557.921	361.69
558.134	357.69
558.346	368.69
558.559	388.69
558.771	356.69
558.984	347.69
559.196	378.69
559.409	356.69
559.621	363.69
559.833	371.69
560.046	334.69
560.258	378.69
560.47	357.69
560.683	354.69
560.895	359.69
561.107	339.69
561.32	344.69
561.532	360.69
561.744	339.69
561.956	368.69
562.168	368.69
562.381	372.69
562.593	364.69
562.805	343.69
563.017	370.69
563.229	377.69
563.441	372.69
563.653	372.69
563.865	380.69
564.077	372.69
564.289	375.69
564.501	405.69
564.713	380.69
564.925	380.69
565.137	399.69
565.349	406.69
565.561	396.69
565.773	425.69
565.985	436.69
566.197	436.69
566.408	468.69
566.62	505.69
566.832	515.69
567.044	516.69
567.255	541.69
567.467	516.69
567.679	541.69
567.891	562.69
568.102	574.69
568.314	564.69
568.526	529.69
568.737	492.69
568.949	472.69
569.161	436.69
569.372	409.69
569.584	404.69
569.795	388.69
570.007	376.69
570.218	392.69
570.43	366.69
570.641	347.69
570.853	335.69
571.064	362.69
571.276	366.69
571.487	375.69
571.698	366.69
571.91	348.69
572.121	340.69
572.333	325.69
572.544	338.69
572.755	338.69
572.966	328.69
573.178	312.69
573.389	304.69
573.6	315.69
573.811	315.69
574.023	301.69
574.234	316.69
574.445	294.69
574.656	309.69
574.867	330.69
575.078	317.69
575.289	309.69
575.501	318.69
575.712	292.69
575.923	309.69
576.134	302.69
576.345	284.69
576.556	292.69
576.767	294.69
576.978	299.69
577.188	294.69
577.399	288.69
577.61	285.69
577.821	292.69
578.032	284.69
578.243	312.69
578.454	409.69
578.665	344.69
578.875	292.69
579.086	281.69
579.297	283.69
579.508	279.69
579.718	280.69
579.929	280.69
580.14	277.69
580.35	264.69
580.561	286.69
580.772	274.69
580.982	285.69
581.193	279.69
581.403	309.69
581.614	277.69
581.825	291.69
582.035	269.69
582.246	262.69
582.456	263.69
582.667	272.69
582.877	264.69
583.087	267.69
583.298	268.69
583.508	281.69
583.719	276.69
583.929	278.69
584.139	261.69
584.35	289.69
584.56	279.69
584.77	270.69
584.981	255.69
585.191	270.69
585.401	269.69
585.611	278.69
585.821	275.69
586.032	285.69
586.242	252.69
586.452	261.69
586.662	272.69
586.872	265.69
587.082	279.69
587.292	270.69
587.502	268.69
587.713	273.69
587.923	265.69
588.133	259.69
588.343	258.69
588.553	292.69
588.762	265.69
588.972	270.69
589.182	284.69
589.392	280.69
589.602	274.69
589.812	294.69
590.022	279.69
590.232	280.69
590.441	279.69
590.651	265.69
590.861	272.69
591.071	258.69
591.281	283.69
591.49	253.69
591.7	274.69
591.91	275.69
592.119	281.69
592.329	282.69
592.539	311.69
592.748	296.69
592.958	311.69
593.167	310.69
593.377	312.69
593.587	326.69
593.796	311.69
594.006	322.69
594.215	330.69
594.424	312.69
594.634	306.69
594.843	313.69
595.053	304.69
595.262	299.69
595.472	280.69
595.681	289.69
595.89	276.69
596.1	262.69
596.309	269.69
596.518	282.69
596.727	258.69
596.937	254.69
597.146	272.69
597.355	240.69
597.564	244.69
597.774	254.69
597.983	251.69
598.192	246.69
598.401	246.69
598.61	244.69
598.819	244.69
599.028	230.69
599.237	241.69
599.446	220.69
599.655	230.69
599.864	238.69
600.073	243.69
600.282	210.69
600.491	237.69
600.7	246.69
600.909	242.69
601.118	234.69
601.327	242.69
601.536	227.69
601.745	244.69
601.953	245.69
602.162	252.69
602.371	240.69
602.58	239.69
602.789	232.69
602.997	243.69
603.206	240.69
603.415	230.69
603.623	209.69
603.832	204.69
604.041	238.69
604.249	244.69
604.458	206.69
604.666	210.69
604.875	220.69
605.084	219.69
605.292	218.69
605.501	219.69
605.709	220.69
605.918	220.69
606.126	242.69
606.334	249.69
606.543	203.69
606.751	216.69
606.96	195.69
607.168	224.69
607.376	226.69
607.585	212.69
607.793	240.69
608.001	243.69
608.21	208.69
608.418	222.69
608.626	217.69
608.834	224.69
609.043	217.69
609.251	220.69
609.459	211.69
609.667	231.69
609.875	236.69
610.083	228.69
610.291	230.69
610.499	225.69
610.707	217.69
610.916	228.69
611.124	218.69
611.332	231.69
611.54	224.69
611.748	213.69
611.955	229.69
612.163	227.69
612.371	216.69
612.579	218.69
612.787	219.69
612.995	204.69
613.203	219.69
613.411	205.69
613.618	212.69
613.826	215.69
614.034	205.69
614.242	225.69
614.449	234.69
614.657	228.69
614.865	211.69
615.072	225.69
615.28	208.69
615.488	212.69
615.695	224.69
615.903	220.69
616.111	208.69
616.318	244.69
616.526	210.69
616.733	214.69
616.941	202.69
617.148	224.69
617.356	230.69
617.563	220.69
617.771	223.69
617.978	222.69
618.185	210.69
618.393	208.69
618.6	223.69
618.807	210.69
619.015	210.69
619.222	213.69
619.429	200.69
619.637	231.69
619.844	221.69
620.051	207.69
620.258	205.69
620.466	221.69
620.673	218.69
620.88	201.69
621.087	206.69
621.294	189.69
621.501	204.69
621.708	197.69
621.915	194.69
622.122	209.69
622.329	219.69
622.536	212.69
622.743	199.69
622.95	214.69
623.157	213.69
623.364	201.69
623.571	202.69
623.778	200.69
623.985	203.69
624.192	209.69
624.399	194.69
624.606	189.69
624.812	202.69
625.019	189.69
625.226	192.69
625.433	195.69
625.639	194.69
625.846	197.69
626.053	192.69
626.259	178.69
626.466	174.69
626.673	177.69
626.879	179.69
627.086	178.69
627.293	184.69
627.499	198.69
627.706	193.69
627.912	184.69
628.119	189.69
628.325	194.69
628.532	185.69
628.738	193.69
628.945	186.69
629.151	197.69
629.357	186.69
629.564	194.69
629.77	190.69
629.976	188.69
630.183	178.69
630.389	186.69
630.595	187.69
630.802	189.69
631.008	187.69
631.214	191.69
631.42	176.69
631.627	182.69
631.833	186.69
632.039	178.69
632.245	160.69
632.451	168.69
632.657	185.69
632.863	173.69
633.069	153.69
633.275	171.69
633.481	185.69
633.688	191.69
633.893	181.69
634.099	189.69
634.305	173.69
634.511	174.69
634.717	176.69
634.923	161.69
635.129	180.69
635.335	182.69
635.541	186.69
635.747	173.69
635.952	168.69
636.158	172.69
636.364	164.69
636.57	176.69
636.775	171.69
636.981	171.69
637.187	158.69
637.392	164.69
637.598	171.69
637.804	169.69
638.009	167.69
638.215	168.69
638.421	168.69
638.626	169.69
638.832	179.69
639.037	164.69
639.243	162.69
639.448	162.69
639.654	160.69
639.859	175.69
640.065	171.69
640.27	176.69
640.475	169.69
640.681	139.69
640.886	154.69
641.091	154.69
641.297	164.69
641.502	154.69
641.707	170.69
641.913	174.69
642.118	171.69
642.323	164.69
642.528	164.69
642.733	155.69
642.939	155.69
643.144	154.69
643.349	156.69
643.554	163.69
643.759	156.69
643.964	150.69
644.169	160.69
644.374	155.69
644.579	165.69
644.784	163.69
644.989	158.69
645.194	132.69
645.399	140.69
645.604	160.69
645.809	162.69
646.014	142.69
646.219	158.69
646.423	139.69
646.628	167.69
646.833	178.69
647.038	158.69
647.243	149.69
647.447	149.69
647.652	158.69
647.857	170.69
648.062	161.69
648.266	166.69
648.471	164.69
648.676	158.69
648.88	154.69
649.085	162.69
649.289	164.69
649.494	169.69
649.698	184.69
649.903	183.69
650.107	158.69
650.312	155.69
650.516	150.69
650.721	156.69
650.925	149.69
651.13	156.69
651.334	160.69
651.539	137.69
651.743	148.69
651.947	158.69
652.152	150.69
652.356	148.69
652.56	151.69
652.764	137.69
652.969	149.69
653.173	132.69
653.377	142.69
653.581	135.69
653.785	145.69
653.99	138.69
654.194	134.69
654.398	130.69
654.602	139.69
654.806	132.69
655.01	137.69
655.214	132.69
655.418	139.69
655.622	130.69
655.826	148.69
656.03	130.69
656.234	138.69
656.438	146.69
656.642	141.69
656.846	135.69
657.049	140.69
657.253	129.69
657.457	127.69
657.661	121.69
657.865	138.69
658.068	116.69
658.272	111.69
658.476	119.69
658.68	102.69
658.883	112.69
659.087	114.69
659.291	112.69
659.494	92.69
659.698	96.69
659.901	101.69
660.105	105.69
660.309	111.69
660.512	100.69
660.716	87.69
660.919	97.69
661.123	90.69
661.326	98.69
661.53	104.69
661.733	93.69
661.936	100.69
662.14	85.69
662.343	86.69
662.546	90.69
662.75	84.69
662.953	93.69
663.156	85.69
663.36	69.69
663.563	96.69
663.766	78.69
663.969	90.69
664.173	89.69
664.376	93.69
664.579	92.69
664.782	79.69
664.985	91.69
665.188	85.69
665.391	99.69
665.594	99.69
665.797	79.69
666	91.69
666.203	88.69
666.406	99.69
666.609	71.69
666.812	79.69
667.015	85.69
667.218	80.69
667.421	72.69
667.624	87.69
667.827	81.69
668.03	85.69
668.232	90.69
668.435	91.69
668.638	89.69
668.841	85.69
669.043	82.69
669.246	86.69
669.449	91.69
669.651	91.69
669.854	85.69
670.057	76.69
670.259	89.69
670.462	94.69
670.665	84.69
670.867	92.69
671.07	89.69
671.272	83.69
671.475	80.69
671.677	88.69
671.88	83.69
672.082	81.69
672.284	83.69
672.487	84.69
672.689	89.69
672.892	90.69
