Data from 1960PennyLincolnUp.LampE6.200Scan.07172019.P1_HRD10591_13-06-30-002.txt Node
Date: Thu Jul 18 13:06:30 EDT 2019
User: cochatt
Spectrometer: HR+D1059
Trigger mode: 1
Integration Time (sec): 1.000000E-1
Scans to average: 1
Electric dark correction enabled: true
Nonlinearity correction enabled: false
Boxcar width: 0
XAxis mode: Wavelengths
Number of Pixels in Spectrum: 2048
>>>>>Begin Spectral Data<<<<<
223.165	-8.25
223.4	-8.25
223.635	-8.25
223.869	-18.25
224.104	-19.25
224.338	-16.25
224.573	-26.25
224.808	-17.25
225.042	-2.25
225.277	4.75
225.511	-6.25
225.746	4.75
225.98	17.75
226.215	3.75
226.449	10.75
226.683	15.75
226.918	21.75
227.152	34.75
227.387	30.75
227.621	36.75
227.856	34.75
228.09	50.75
228.324	42.75
228.559	57.75
228.793	65.75
229.027	86.75
229.262	101.75
229.496	102.75
229.73	101.75
229.964	115.75
230.199	118.75
230.433	102.75
230.667	100.75
230.901	112.75
231.136	104.75
231.37	104.75
231.604	100.75
231.838	117.75
232.072	106.75
232.306	117.75
232.541	112.75
232.775	111.75
233.009	109.75
233.243	100.75
233.477	87.75
233.711	129.75
233.945	120.75
234.179	114.75
234.413	105.75
234.647	116.75
234.881	115.75
235.115	127.75
235.349	118.75
235.583	117.75
235.817	118.75
236.051	122.75
236.285	122.75
236.519	110.75
236.753	122.75
236.987	133.75
237.221	141.75
237.455	161.75
237.689	135.75
237.922	117.75
238.156	108.75
238.39	131.75
238.624	120.75
238.858	110.75
239.091	115.75
239.325	108.75
239.559	135.75
239.793	114.75
240.027	136.75
240.26	125.75
240.494	125.75
240.728	132.75
240.961	127.75
241.195	136.75
241.429	131.75
241.662	121.75
241.896	122.75
242.13	122.75
242.363	136.75
242.597	126.75
242.83	139.75
243.064	132.75
243.298	123.75
243.531	140.75
243.765	129.75
243.998	140.75
244.232	143.75
244.465	133.75
244.699	147.75
244.932	130.75
245.166	133.75
245.399	146.75
245.633	158.75
245.866	144.75
246.099	153.75
246.333	142.75
246.566	145.75
246.8	148.75
247.033	146.75
247.266	148.75
247.5	150.75
247.733	147.75
247.966	137.75
248.2	157.75
248.433	146.75
248.666	159.75
248.899	168.75
249.133	160.75
249.366	183.75
249.599	178.75
249.832	154.75
250.066	169.75
250.299	169.75
250.532	175.75
250.765	166.75
250.998	208.75
251.231	187.75
251.465	186.75
251.698	179.75
251.931	179.75
252.164	174.75
252.397	182.75
252.63	192.75
252.863	185.75
253.096	189.75
253.329	198.75
253.562	193.75
253.795	178.75
254.028	194.75
254.261	189.75
254.494	191.75
254.727	210.75
254.96	213.75
255.193	222.75
255.426	193.75
255.659	185.75
255.892	189.75
256.124	205.75
256.357	208.75
256.59	203.75
256.823	184.75
257.056	191.75
257.289	186.75
257.521	175.75
257.754	188.75
257.987	213.75
258.22	196.75
258.452	196.75
258.685	192.75
258.918	175.75
259.151	174.75
259.383	199.75
259.616	194.75
259.849	204.75
260.081	196.75
260.314	230.75
260.547	234.75
260.779	226.75
261.012	210.75
261.244	233.75
261.477	203.75
261.71	210.75
261.942	202.75
262.175	208.75
262.407	209.75
262.64	209.75
262.872	194.75
263.105	218.75
263.337	205.75
263.57	206.75
263.802	202.75
264.035	195.75
264.267	200.75
264.499	208.75
264.732	210.75
264.964	208.75
265.197	206.75
265.429	196.75
265.661	198.75
265.894	209.75
266.126	209.75
266.358	199.75
266.591	202.75
266.823	206.75
267.055	229.75
267.287	226.75
267.52	200.75
267.752	211.75
267.984	220.75
268.216	215.75
268.448	220.75
268.681	219.75
268.913	230.75
269.145	236.75
269.377	262.75
269.609	240.75
269.841	240.75
270.073	241.75
270.306	256.75
270.538	279.75
270.77	272.75
271.002	265.75
271.234	249.75
271.466	259.75
271.698	272.75
271.93	260.75
272.162	261.75
272.394	261.75
272.626	257.75
272.858	242.75
273.09	249.75
273.322	232.75
273.553	229.75
273.785	248.75
274.017	246.75
274.249	249.75
274.481	252.75
274.713	257.75
274.945	232.75
275.176	251.75
275.408	261.75
275.64	244.75
275.872	256.75
276.104	260.75
276.335	248.75
276.567	265.75
276.799	255.75
277.031	277.75
277.262	303.75
277.494	282.75
277.726	265.75
277.957	267.75
278.189	255.75
278.421	256.75
278.652	255.75
278.884	256.75
279.115	250.75
279.347	262.75
279.579	279.75
279.81	268.75
280.042	251.75
280.273	245.75
280.505	256.75
280.736	256.75
280.968	256.75
281.199	247.75
281.431	245.75
281.662	244.75
281.894	265.75
282.125	273.75
282.356	276.75
282.588	288.75
282.819	286.75
283.051	258.75
283.282	265.75
283.513	285.75
283.745	286.75
283.976	273.75
284.207	292.75
284.439	270.75
284.67	266.75
284.901	270.75
285.132	269.75
285.364	281.75
285.595	274.75
285.826	283.75
286.057	278.75
286.288	270.75
286.52	269.75
286.751	288.75
286.982	281.75
287.213	286.75
287.444	288.75
287.675	278.75
287.906	292.75
288.138	309.75
288.369	294.75
288.6	287.75
288.831	304.75
289.062	299.75
289.293	296.75
289.524	286.75
289.755	295.75
289.986	277.75
290.217	288.75
290.448	283.75
290.679	305.75
290.91	301.75
291.141	300.75
291.371	306.75
291.602	289.75
291.833	292.75
292.064	286.75
292.295	285.75
292.526	298.75
292.757	300.75
292.987	301.75
293.218	286.75
293.449	289.75
293.68	300.75
293.91	284.75
294.141	278.75
294.372	303.75
294.603	301.75
294.833	306.75
295.064	304.75
295.295	305.75
295.525	303.75
295.756	301.75
295.987	322.75
296.217	331.75
296.448	319.75
296.679	326.75
296.909	311.75
297.14	304.75
297.37	304.75
297.601	309.75
297.831	303.75
298.062	318.75
298.292	316.75
298.523	318.75
298.753	320.75
298.984	315.75
299.214	333.75
299.445	320.75
299.675	312.75
299.905	348.75
300.136	319.75
300.366	322.75
300.597	329.75
300.827	340.75
301.057	321.75
301.288	342.75
301.518	324.75
301.748	314.75
301.979	323.75
302.209	329.75
302.439	328.75
302.669	351.75
302.9	341.75
303.13	330.75
303.36	341.75
303.59	344.75
303.82	349.75
304.051	344.75
304.281	343.75
304.511	342.75
304.741	350.75
304.971	355.75
305.201	342.75
305.431	352.75
305.661	325.75
305.891	342.75
306.121	337.75
306.352	359.75
306.582	340.75
306.812	325.75
307.042	330.75
307.272	332.75
307.502	324.75
307.731	348.75
307.961	343.75
308.191	323.75
308.421	323.75
308.651	352.75
308.881	344.75
309.111	334.75
309.341	343.75
309.571	341.75
309.8	351.75
310.03	360.75
310.26	339.75
310.49	354.75
310.72	372.75
310.949	360.75
311.179	379.75
311.409	374.75
311.639	345.75
311.868	360.75
312.098	368.75
312.328	374.75
312.557	374.75
312.787	372.75
313.017	372.75
313.246	379.75
313.476	368.75
313.706	388.75
313.935	376.75
314.165	376.75
314.394	381.75
314.624	388.75
314.853	373.75
315.083	384.75
315.312	374.75
315.542	379.75
315.771	362.75
316.001	364.75
316.23	360.75
316.46	369.75
316.689	377.75
316.919	383.75
317.148	359.75
317.377	378.75
317.607	391.75
317.836	371.75
318.065	368.75
318.295	363.75
318.524	375.75
318.753	390.75
318.983	374.75
319.212	368.75
319.441	358.75
319.67	375.75
319.9	368.75
320.129	373.75
320.358	356.75
320.587	369.75
320.816	363.75
321.046	391.75
321.275	406.75
321.504	381.75
321.733	386.75
321.962	367.75
322.191	365.75
322.42	396.75
322.649	380.75
322.878	409.75
323.108	398.75
323.337	414.75
323.566	415.75
323.795	442.75
324.024	458.75
324.253	520.75
324.482	688.75
324.71	966.75
324.939	1308.75
325.168	1060.75
325.397	619.75
325.626	508.75
325.855	458.75
326.084	423.75
326.313	424.75
326.542	434.75
326.77	478.75
326.999	524.75
327.228	652.75
327.457	875.75
327.686	1013.75
327.914	724.75
328.143	526.75
328.372	482.75
328.6	468.75
328.829	457.75
329.058	470.75
329.287	464.75
329.515	454.75
329.744	447.75
329.972	464.75
330.201	458.75
330.43	473.75
330.658	489.75
330.887	517.75
331.115	499.75
331.344	462.75
331.572	439.75
331.801	468.75
332.03	449.75
332.258	479.75
332.486	455.75
332.715	469.75
332.943	469.75
333.172	484.75
333.4	495.75
333.629	501.75
333.857	533.75
334.085	534.75
334.314	525.75
334.542	543.75
334.771	530.75
334.999	512.75
335.227	481.75
335.455	492.75
335.684	480.75
335.912	477.75
336.14	461.75
336.369	467.75
336.597	462.75
336.825	473.75
337.053	437.75
337.281	469.75
337.51	440.75
337.738	443.75
337.966	452.75
338.194	440.75
338.422	454.75
338.65	443.75
338.878	436.75
339.106	421.75
339.334	436.75
339.562	428.75
339.79	427.75
340.018	391.75
340.246	448.75
340.474	433.75
340.702	426.75
340.93	433.75
341.158	413.75
341.386	422.75
341.614	428.75
341.842	446.75
342.07	411.75
342.298	403.75
342.526	427.75
342.754	405.75
342.981	420.75
343.209	430.75
343.437	429.75
343.665	452.75
343.893	481.75
344.12	480.75
344.348	478.75
344.576	465.75
344.804	451.75
345.031	428.75
345.259	430.75
345.487	433.75
345.714	430.75
345.942	415.75
346.17	416.75
346.397	415.75
346.625	410.75
346.853	399.75
347.08	399.75
347.308	395.75
347.535	415.75
347.763	406.75
347.99	406.75
348.218	412.75
348.445	420.75
348.673	408.75
348.9	397.75
349.128	391.75
349.355	396.75
349.583	390.75
349.81	399.75
350.037	419.75
350.265	391.75
350.492	404.75
350.72	391.75
350.947	403.75
351.174	390.75
351.402	381.75
351.629	408.75
351.856	398.75
352.083	413.75
352.311	389.75
352.538	417.75
352.765	420.75
352.992	404.75
353.22	410.75
353.447	396.75
353.674	393.75
353.901	396.75
354.128	405.75
354.355	387.75
354.583	387.75
354.81	394.75
355.037	384.75
355.264	400.75
355.491	394.75
355.718	396.75
355.945	388.75
356.172	403.75
356.399	415.75
356.626	412.75
356.853	397.75
357.08	374.75
357.307	392.75
357.534	403.75
357.761	374.75
357.988	399.75
358.215	396.75
358.441	394.75
358.668	397.75
358.895	376.75
359.122	396.75
359.349	413.75
359.576	406.75
359.802	418.75
360.029	424.75
360.256	424.75
360.483	431.75
360.709	417.75
360.936	409.75
361.163	386.75
361.39	379.75
361.616	417.75
361.843	396.75
362.07	402.75
362.296	403.75
362.523	408.75
362.749	418.75
362.976	384.75
363.203	381.75
363.429	413.75
363.656	405.75
363.882	409.75
364.109	399.75
364.335	396.75
364.562	402.75
364.788	384.75
365.015	410.75
365.241	393.75
365.468	390.75
365.694	410.75
365.92	393.75
366.147	396.75
366.373	412.75
366.599	418.75
366.826	392.75
367.052	387.75
367.278	387.75
367.505	402.75
367.731	408.75
367.957	388.75
368.184	392.75
368.41	395.75
368.636	418.75
368.862	416.75
369.089	427.75
369.315	409.75
369.541	404.75
369.767	402.75
369.993	405.75
370.219	432.75
370.445	414.75
370.672	424.75
370.898	396.75
371.124	417.75
371.35	400.75
371.576	424.75
371.802	401.75
372.028	420.75
372.254	420.75
372.48	416.75
372.706	431.75
372.932	430.75
373.158	413.75
373.384	402.75
373.61	415.75
373.835	421.75
374.061	428.75
374.287	421.75
374.513	426.75
374.739	439.75
374.965	445.75
375.191	440.75
375.416	450.75
375.642	437.75
375.868	422.75
376.094	447.75
376.319	428.75
376.545	402.75
376.771	422.75
376.997	415.75
377.222	416.75
377.448	411.75
377.674	415.75
377.899	417.75
378.125	421.75
378.35	414.75
378.576	416.75
378.802	420.75
379.027	434.75
379.253	418.75
379.478	390.75
379.704	405.75
379.929	417.75
380.155	422.75
380.38	424.75
380.606	426.75
380.831	391.75
381.057	390.75
381.282	425.75
381.507	417.75
381.733	406.75
381.958	425.75
382.184	431.75
382.409	400.75
382.634	430.75
382.86	416.75
383.085	428.75
383.31	432.75
383.535	465.75
383.761	457.75
383.986	446.75
384.211	451.75
384.436	460.75
384.662	468.75
384.887	480.75
385.112	462.75
385.337	476.75
385.562	473.75
385.787	468.75
386.013	473.75
386.238	483.75
386.463	488.75
386.688	476.75
386.913	488.75
387.138	479.75
387.363	493.75
387.588	497.75
387.813	467.75
388.038	457.75
388.263	465.75
388.488	455.75
388.713	477.75
388.938	449.75
389.163	481.75
389.387	465.75
389.612	464.75
389.837	479.75
390.062	455.75
390.287	455.75
390.512	450.75
390.736	465.75
390.961	466.75
391.186	494.75
391.411	487.75
391.636	505.75
391.86	500.75
392.085	505.75
392.31	492.75
392.534	490.75
392.759	480.75
392.984	494.75
393.208	517.75
393.433	487.75
393.658	477.75
393.882	500.75
394.107	468.75
394.331	485.75
394.556	480.75
394.78	505.75
395.005	498.75
395.229	489.75
395.454	514.75
395.678	513.75
395.903	520.75
396.127	512.75
396.352	526.75
396.576	499.75
396.801	482.75
397.025	499.75
397.249	508.75
397.474	519.75
397.698	529.75
397.922	548.75
398.147	534.75
398.371	523.75
398.595	541.75
398.82	553.75
399.044	576.75
399.268	630.75
399.492	702.75
399.717	745.75
399.941	743.75
400.165	737.75
400.389	705.75
400.613	629.75
400.837	616.75
401.062	581.75
401.286	585.75
401.51	551.75
401.734	566.75
401.958	574.75
402.182	553.75
402.406	582.75
402.63	562.75
402.854	590.75
403.078	579.75
403.302	595.75
403.526	631.75
403.75	615.75
403.974	623.75
404.198	625.75
404.422	635.75
404.645	616.75
404.869	591.75
405.093	629.75
405.317	631.75
405.541	681.75
405.765	632.75
405.988	616.75
406.212	624.75
406.436	633.75
406.66	643.75
406.883	624.75
407.107	666.75
407.331	710.75
407.555	746.75
407.778	726.75
408.002	706.75
408.226	653.75
408.449	634.75
408.673	664.75
408.896	644.75
409.12	668.75
409.344	649.75
409.567	628.75
409.791	599.75
410.014	598.75
410.238	609.75
410.461	591.75
410.685	584.75
410.908	589.75
411.132	606.75
411.355	628.75
411.578	614.75
411.802	570.75
412.025	599.75
412.249	592.75
412.472	610.75
412.695	624.75
412.919	617.75
413.142	593.75
413.365	584.75
413.589	590.75
413.812	569.75
414.035	533.75
414.258	550.75
414.482	585.75
414.705	552.75
414.928	551.75
415.151	570.75
415.374	573.75
415.597	551.75
415.821	544.75
416.044	565.75
416.267	546.75
416.49	538.75
416.713	547.75
416.936	546.75
417.159	551.75
417.382	541.75
417.605	558.75
417.828	557.75
418.051	548.75
418.274	568.75
418.497	572.75
418.72	570.75
418.943	570.75
419.166	587.75
419.389	623.75
419.611	583.75
419.834	595.75
420.057	565.75
420.28	574.75
420.503	559.75
420.726	548.75
420.948	564.75
421.171	579.75
421.394	613.75
421.617	572.75
421.839	569.75
422.062	547.75
422.285	576.75
422.507	594.75
422.73	652.75
422.953	635.75
423.175	600.75
423.398	576.75
423.621	594.75
423.843	619.75
424.066	613.75
424.288	600.75
424.511	609.75
424.733	629.75
424.956	662.75
425.178	625.75
425.401	610.75
425.623	656.75
425.846	580.75
426.068	582.75
426.291	564.75
426.513	550.75
426.735	554.75
426.958	556.75
427.18	621.75
427.402	702.75
427.625	760.75
427.847	659.75
428.069	636.75
428.292	563.75
428.514	520.75
428.736	494.75
428.958	514.75
429.181	515.75
429.403	519.75
429.625	523.75
429.847	550.75
430.069	583.75
430.292	564.75
430.514	522.75
430.736	533.75
430.958	507.75
431.18	505.75
431.402	495.75
431.624	485.75
431.846	510.75
432.068	503.75
432.29	514.75
432.512	519.75
432.734	515.75
432.956	496.75
433.178	506.75
433.4	501.75
433.622	508.75
433.844	523.75
434.066	496.75
434.287	509.75
434.509	510.75
434.731	534.75
434.953	538.75
435.175	553.75
435.397	546.75
435.618	562.75
435.84	568.75
436.062	613.75
436.284	666.75
436.505	568.75
436.727	564.75
436.949	530.75
437.17	519.75
437.392	480.75
437.614	521.75
437.835	531.75
438.057	589.75
438.278	627.75
438.5	648.75
438.721	662.75
438.943	659.75
439.165	559.75
439.386	526.75
439.608	525.75
439.829	524.75
440.05	579.75
440.272	585.75
440.493	545.75
440.715	553.75
440.936	525.75
441.158	538.75
441.379	556.75
441.6	584.75
441.822	584.75
442.043	602.75
442.264	615.75
442.486	678.75
442.707	581.75
442.928	565.75
443.149	574.75
443.371	588.75
443.592	621.75
443.813	677.75
444.034	721.75
444.255	642.75
444.476	598.75
444.698	616.75
444.919	628.75
445.14	710.75
445.361	626.75
445.582	604.75
445.803	608.75
446.024	683.75
446.245	672.75
446.466	623.75
446.687	549.75
446.908	541.75
447.129	511.75
447.35	495.75
447.571	496.75
447.792	492.75
448.013	484.75
448.234	485.75
448.455	532.75
448.675	596.75
448.896	658.75
449.117	577.75
449.338	547.75
449.559	638.75
449.779	681.75
450	582.75
450.221	529.75
450.442	501.75
450.662	485.75
450.883	463.75
451.104	483.75
451.324	489.75
451.545	460.75
451.766	461.75
451.986	446.75
452.207	466.75
452.428	470.75
452.648	454.75
452.869	460.75
453.089	447.75
453.31	473.75
453.53	473.75
453.751	477.75
453.971	458.75
454.192	467.75
454.412	450.75
454.633	432.75
454.853	456.75
455.073	448.75
455.294	476.75
455.514	478.75
455.734	472.75
455.955	434.75
456.175	420.75
456.395	414.75
456.616	426.75
456.836	452.75
457.056	452.75
457.276	425.75
457.497	416.75
457.717	430.75
457.937	431.75
458.157	433.75
458.377	442.75
458.598	458.75
458.818	512.75
459.038	530.75
459.258	548.75
459.478	512.75
459.698	517.75
459.918	506.75
460.138	504.75
460.358	535.75
460.578	534.75
460.798	549.75
461.018	532.75
461.238	540.75
461.458	547.75
461.678	515.75
461.898	561.75
462.118	562.75
462.338	568.75
462.558	572.75
462.777	586.75
462.997	593.75
463.217	656.75
463.437	672.75
463.657	624.75
463.876	599.75
464.096	607.75
464.316	576.75
464.536	604.75
464.755	579.75
464.975	563.75
465.195	572.75
465.414	614.75
465.634	514.75
465.854	533.75
466.073	497.75
466.293	463.75
466.512	490.75
466.732	477.75
466.951	477.75
467.171	477.75
467.391	490.75
467.61	482.75
467.829	473.75
468.049	479.75
468.268	473.75
468.488	452.75
468.707	470.75
468.927	442.75
469.146	480.75
469.365	460.75
469.585	476.75
469.804	481.75
470.023	506.75
470.243	505.75
470.462	508.75
470.681	500.75
470.901	505.75
471.12	483.75
471.339	467.75
471.558	471.75
471.777	485.75
471.997	464.75
472.216	483.75
472.435	497.75
472.654	465.75
472.873	482.75
473.092	456.75
473.311	444.75
473.53	455.75
473.749	454.75
473.968	469.75
474.187	541.75
474.406	529.75
474.625	489.75
474.844	483.75
475.063	451.75
475.282	455.75
475.501	451.75
475.72	481.75
475.939	478.75
476.158	481.75
476.377	463.75
476.596	470.75
476.814	474.75
477.033	503.75
477.252	493.75
477.471	487.75
477.69	495.75
477.908	525.75
478.127	507.75
478.346	525.75
478.564	551.75
478.783	550.75
479.002	565.75
479.22	567.75
479.439	568.75
479.658	563.75
479.876	560.75
480.095	565.75
480.313	584.75
480.532	575.75
480.751	598.75
480.969	591.75
481.188	628.75
481.406	638.75
481.624	578.75
481.843	557.75
482.061	554.75
482.28	532.75
482.498	520.75
482.717	521.75
482.935	529.75
483.153	517.75
483.372	543.75
483.59	551.75
483.808	529.75
484.027	518.75
484.245	546.75
484.463	533.75
484.681	546.75
484.9	558.75
485.118	536.75
485.336	530.75
485.554	554.75
485.772	549.75
485.99	556.75
486.209	553.75
486.427	548.75
486.645	570.75
486.863	575.75
487.081	554.75
487.299	579.75
487.517	563.75
487.735	570.75
487.953	570.75
488.171	570.75
488.389	572.75
488.607	570.75
488.825	565.75
489.043	555.75
489.261	565.75
489.479	558.75
489.696	575.75
489.914	580.75
490.132	598.75
490.35	584.75
490.568	581.75
490.786	576.75
491.003	599.75
491.221	640.75
491.439	630.75
491.657	611.75
491.874	622.75
492.092	622.75
492.31	652.75
492.527	624.75
492.745	633.75
492.963	628.75
493.18	633.75
493.398	659.75
493.615	656.75
493.833	653.75
494.05	641.75
494.268	641.75
494.485	656.75
494.703	641.75
494.92	646.75
495.138	653.75
495.355	660.75
495.573	686.75
495.79	650.75
496.008	637.75
496.225	668.75
496.442	654.75
496.66	643.75
496.877	642.75
497.094	664.75
497.312	670.75
497.529	708.75
497.746	690.75
497.963	689.75
498.181	742.75
498.398	754.75
498.615	768.75
498.832	847.75
499.049	824.75
499.267	884.75
499.484	932.75
499.701	980.75
499.918	1056.75
500.135	1170.75
500.352	1262.75
500.569	1270.75
500.786	1258.75
501.003	1228.75
501.22	1148.75
501.437	1060.75
501.654	981.75
501.871	955.75
502.088	866.75
502.305	822.75
502.522	808.75
502.739	781.75
502.956	728.75
503.172	707.75
503.389	706.75
503.606	683.75
503.823	706.75
504.04	693.75
504.256	684.75
504.473	685.75
504.69	682.75
504.907	707.75
505.123	642.75
505.34	622.75
505.557	619.75
505.773	607.75
505.99	635.75
506.207	605.75
506.423	599.75
506.64	591.75
506.856	598.75
507.073	577.75
507.289	583.75
507.506	591.75
507.722	594.75
507.939	601.75
508.155	577.75
508.372	551.75
508.588	559.75
508.805	555.75
509.021	562.75
509.238	565.75
509.454	573.75
509.67	574.75
509.887	554.75
510.103	530.75
510.319	527.75
510.536	586.75
510.752	852.75
510.968	679.75
511.184	568.75
511.401	544.75
511.617	537.75
511.833	518.75
512.049	540.75
512.265	517.75
512.481	532.75
512.698	519.75
512.914	527.75
513.13	512.75
513.346	553.75
513.562	502.75
513.778	524.75
513.994	526.75
514.21	530.75
514.426	536.75
514.642	557.75
514.858	577.75
515.074	587.75
515.29	636.75
515.506	913.75
515.721	766.75
515.937	607.75
516.153	569.75
516.369	561.75
516.585	589.75
516.801	577.75
517.016	570.75
517.232	600.75
517.448	628.75
517.664	640.75
517.879	636.75
518.095	649.75
518.311	638.75
518.527	597.75
518.742	599.75
518.958	584.75
519.173	562.75
519.389	560.75
519.605	530.75
519.82	542.75
520.036	538.75
520.251	547.75
520.467	548.75
520.682	546.75
520.898	558.75
521.113	520.75
521.329	559.75
521.544	615.75
521.76	711.75
521.975	1070.75
522.19	1090.75
522.406	650.75
522.621	541.75
522.836	535.75
523.052	497.75
523.267	481.75
523.482	468.75
523.698	470.75
523.913	470.75
524.128	465.75
524.343	471.75
524.559	470.75
524.774	470.75
524.989	461.75
525.204	455.75
525.419	477.75
525.634	463.75
525.849	446.75
526.064	448.75
526.28	450.75
526.495	450.75
526.71	449.75
526.925	448.75
527.14	438.75
527.355	447.75
527.57	441.75
527.785	466.75
527.999	433.75
528.214	433.75
528.429	436.75
528.644	459.75
528.859	445.75
529.074	465.75
529.289	463.75
529.503	501.75
529.718	485.75
529.933	465.75
530.148	455.75
530.363	429.75
530.577	441.75
530.792	437.75
531.007	437.75
531.221	437.75
531.436	442.75
531.651	438.75
531.865	440.75
532.08	433.75
532.295	431.75
532.509	443.75
532.724	430.75
532.938	418.75
533.153	442.75
533.367	441.75
533.582	450.75
533.796	440.75
534.011	424.75
534.225	428.75
534.44	446.75
534.654	465.75
534.868	425.75
535.083	433.75
535.297	429.75
535.511	434.75
535.726	442.75
535.94	410.75
536.154	415.75
536.369	428.75
536.583	426.75
536.797	408.75
537.011	410.75
537.225	399.75
537.44	436.75
537.654	409.75
537.868	415.75
538.082	417.75
538.296	407.75
538.51	417.75
538.724	414.75
538.938	430.75
539.153	410.75
539.367	432.75
539.581	408.75
539.795	409.75
540.009	415.75
540.222	400.75
540.436	402.75
540.65	398.75
540.864	399.75
541.078	416.75
541.292	422.75
541.506	407.75
541.72	410.75
541.934	414.75
542.147	396.75
542.361	401.75
542.575	407.75
542.789	393.75
543.002	417.75
543.216	399.75
543.43	414.75
543.644	405.75
543.857	412.75
544.071	410.75
544.285	388.75
544.498	399.75
544.712	452.75
544.925	445.75
545.139	420.75
545.352	418.75
545.566	419.75
545.779	420.75
545.993	412.75
546.206	438.75
546.42	413.75
546.633	380.75
546.847	430.75
547.06	400.75
547.274	400.75
547.487	404.75
547.7	431.75
547.914	417.75
548.127	413.75
548.34	420.75
548.554	423.75
548.767	416.75
548.98	426.75
549.193	402.75
549.407	428.75
549.62	420.75
549.833	420.75
550.046	425.75
550.259	406.75
550.473	391.75
550.686	418.75
550.899	409.75
551.112	406.75
551.325	426.75
551.538	412.75
551.751	405.75
551.964	386.75
552.177	418.75
552.39	419.75
552.603	400.75
552.816	443.75
553.029	436.75
553.242	437.75
553.455	439.75
553.667	464.75
553.88	448.75
554.093	459.75
554.306	422.75
554.519	407.75
554.732	424.75
554.944	414.75
555.157	382.75
555.37	409.75
555.583	378.75
555.795	384.75
556.008	385.75
556.221	386.75
556.433	382.75
556.646	365.75
556.859	364.75
557.071	376.75
557.284	372.75
557.496	372.75
557.709	367.75
557.921	363.75
558.134	366.75
558.346	362.75
558.559	376.75
558.771	358.75
558.984	364.75
559.196	334.75
559.409	352.75
559.621	348.75
559.833	355.75
560.046	328.75
560.258	352.75
560.47	358.75
560.683	356.75
560.895	346.75
561.107	360.75
561.32	340.75
561.532	335.75
561.744	358.75
561.956	353.75
562.168	352.75
562.381	348.75
562.593	348.75
562.805	358.75
563.017	371.75
563.229	356.75
563.441	356.75
563.653	369.75
563.865	368.75
564.077	362.75
564.289	374.75
564.501	352.75
564.713	387.75
564.925	375.75
565.137	389.75
565.349	386.75
565.561	388.75
565.773	400.75
565.985	420.75
566.197	417.75
566.408	466.75
566.62	497.75
566.832	507.75
567.044	516.75
567.255	518.75
567.467	528.75
567.679	532.75
567.891	579.75
568.102	560.75
568.314	556.75
568.526	536.75
568.737	507.75
568.949	447.75
569.161	434.75
569.372	418.75
569.584	386.75
569.795	394.75
570.007	380.75
570.218	396.75
570.43	377.75
570.641	376.75
570.853	377.75
571.064	352.75
571.276	358.75
571.487	360.75
571.698	357.75
571.91	354.75
572.121	335.75
572.333	332.75
572.544	325.75
572.755	338.75
572.966	313.75
573.178	313.75
573.389	316.75
573.6	307.75
573.811	305.75
574.023	303.75
574.234	290.75
574.445	307.75
574.656	300.75
574.867	318.75
575.078	304.75
575.289	295.75
575.501	304.75
575.712	296.75
575.923	301.75
576.134	312.75
576.345	289.75
576.556	317.75
576.767	300.75
576.978	302.75
577.188	304.75
577.399	282.75
577.61	289.75
577.821	290.75
578.032	285.75
578.243	306.75
578.454	412.75
578.665	336.75
578.875	276.75
579.086	285.75
579.297	286.75
579.508	277.75
579.718	268.75
579.929	276.75
580.14	279.75
580.35	273.75
580.561	272.75
580.772	282.75
580.982	274.75
581.193	272.75
581.403	285.75
581.614	284.75
581.825	279.75
582.035	264.75
582.246	270.75
582.456	270.75
582.667	261.75
582.877	273.75
583.087	260.75
583.298	260.75
583.508	268.75
583.719	242.75
583.929	258.75
584.139	259.75
584.35	245.75
584.56	246.75
584.77	275.75
584.981	264.75
585.191	259.75
585.401	277.75
585.611	268.75
585.821	260.75
586.032	260.75
586.242	255.75
586.452	269.75
586.662	262.75
586.872	260.75
587.082	245.75
587.292	244.75
587.502	248.75
587.713	249.75
587.923	248.75
588.133	266.75
588.343	250.75
588.553	265.75
588.762	252.75
588.972	274.75
589.182	293.75
589.392	270.75
589.602	270.75
589.812	272.75
590.022	270.75
590.232	263.75
590.441	268.75
590.651	276.75
590.861	267.75
591.071	247.75
591.281	273.75
591.49	276.75
591.7	268.75
591.91	276.75
592.119	267.75
592.329	273.75
592.539	296.75
592.748	298.75
592.958	310.75
593.167	320.75
593.377	287.75
593.587	317.75
593.796	324.75
594.006	299.75
594.215	338.75
594.424	312.75
594.634	299.75
594.843	302.75
595.053	292.75
595.262	296.75
595.472	286.75
595.681	253.75
595.89	265.75
596.1	256.75
596.309	258.75
596.518	261.75
596.727	261.75
596.937	257.75
597.146	250.75
597.355	243.75
597.564	248.75
597.774	253.75
597.983	238.75
598.192	242.75
598.401	251.75
598.61	220.75
598.819	237.75
599.028	250.75
599.237	247.75
599.446	233.75
599.655	232.75
599.864	231.75
600.073	227.75
600.282	240.75
600.491	237.75
600.7	214.75
600.909	226.75
601.118	236.75
601.327	204.75
601.536	229.75
601.745	225.75
601.953	237.75
602.162	228.75
602.371	216.75
602.58	231.75
602.789	235.75
602.997	240.75
603.206	233.75
603.415	239.75
603.623	228.75
603.832	229.75
604.041	215.75
604.249	213.75
604.458	230.75
604.666	208.75
604.875	217.75
605.084	233.75
605.292	216.75
605.501	201.75
605.709	213.75
605.918	222.75
606.126	222.75
606.334	220.75
606.543	221.75
606.751	215.75
606.96	209.75
607.168	227.75
607.376	222.75
607.585	222.75
607.793	212.75
608.001	206.75
608.21	207.75
608.418	220.75
608.626	215.75
608.834	227.75
609.043	222.75
609.251	195.75
609.459	213.75
609.667	209.75
609.875	202.75
610.083	205.75
610.291	203.75
610.499	206.75
610.707	216.75
610.916	209.75
611.124	228.75
611.332	195.75
611.54	214.75
611.748	206.75
611.955	201.75
612.163	222.75
612.371	216.75
612.579	220.75
612.787	209.75
612.995	201.75
613.203	215.75
613.411	213.75
613.618	226.75
613.826	206.75
614.034	222.75
614.242	215.75
614.449	205.75
614.657	220.75
614.865	202.75
615.072	207.75
615.28	203.75
615.488	201.75
615.695	206.75
615.903	216.75
616.111	213.75
616.318	226.75
616.526	220.75
616.733	218.75
616.941	206.75
617.148	212.75
617.356	200.75
617.563	196.75
617.771	208.75
617.978	220.75
618.185	223.75
618.393	197.75
618.6	220.75
618.807	200.75
619.015	208.75
619.222	205.75
619.429	212.75
619.637	238.75
619.844	194.75
620.051	198.75
620.258	200.75
620.466	205.75
620.673	209.75
620.88	205.75
621.087	198.75
621.294	205.75
621.501	198.75
621.708	197.75
621.915	202.75
622.122	190.75
622.329	199.75
622.536	210.75
622.743	189.75
622.95	215.75
623.157	195.75
623.364	184.75
623.571	197.75
623.778	190.75
623.985	200.75
624.192	195.75
624.399	190.75
624.606	178.75
624.812	180.75
625.019	194.75
625.226	192.75
625.433	175.75
625.639	193.75
625.846	182.75
626.053	188.75
626.259	181.75
626.466	190.75
626.673	202.75
626.879	184.75
627.086	196.75
627.293	185.75
627.499	181.75
627.706	187.75
627.912	185.75
628.119	189.75
628.325	188.75
628.532	183.75
628.738	192.75
628.945	170.75
629.151	190.75
629.357	166.75
629.564	183.75
629.77	194.75
629.976	169.75
630.183	192.75
630.389	181.75
630.595	182.75
630.802	173.75
631.008	166.75
631.214	172.75
631.42	180.75
631.627	165.75
631.833	158.75
632.039	178.75
632.245	162.75
632.451	174.75
632.657	164.75
632.863	178.75
633.069	165.75
633.275	165.75
633.481	145.75
633.688	164.75
633.893	160.75
634.099	181.75
634.305	169.75
634.511	153.75
634.717	179.75
634.923	158.75
635.129	167.75
635.335	169.75
635.541	179.75
635.747	167.75
635.952	169.75
636.158	147.75
636.364	166.75
636.57	168.75
636.775	159.75
636.981	167.75
637.187	169.75
637.392	174.75
637.598	175.75
637.804	180.75
638.009	173.75
638.215	157.75
638.421	169.75
638.626	167.75
638.832	168.75
639.037	152.75
639.243	164.75
639.448	160.75
639.654	169.75
639.859	156.75
640.065	167.75
640.27	173.75
640.475	156.75
640.681	149.75
640.886	164.75
641.091	166.75
641.297	166.75
641.502	153.75
641.707	173.75
641.913	156.75
642.118	164.75
642.323	171.75
642.528	165.75
642.733	148.75
642.939	153.75
643.144	170.75
643.349	150.75
643.554	152.75
643.759	166.75
643.964	168.75
644.169	140.75
644.374	147.75
644.579	151.75
644.784	160.75
644.989	157.75
645.194	161.75
645.399	164.75
645.604	152.75
645.809	147.75
646.014	167.75
646.219	141.75
646.423	143.75
646.628	152.75
646.833	149.75
647.038	160.75
647.243	148.75
647.447	168.75
647.652	157.75
647.857	149.75
648.062	173.75
648.266	160.75
648.471	143.75
648.676	167.75
648.88	169.75
649.085	162.75
649.289	162.75
649.494	145.75
649.698	168.75
649.903	169.75
650.107	132.75
650.312	162.75
650.516	151.75
650.721	152.75
650.925	136.75
651.13	155.75
651.334	140.75
651.539	135.75
651.743	130.75
651.947	132.75
652.152	160.75
652.356	141.75
652.56	149.75
652.764	136.75
652.969	127.75
653.173	133.75
653.377	126.75
653.581	144.75
653.785	129.75
653.99	136.75
654.194	136.75
654.398	136.75
654.602	136.75
654.806	128.75
655.01	132.75
655.214	140.75
655.418	139.75
655.622	129.75
655.826	139.75
656.03	130.75
656.234	127.75
656.438	137.75
656.642	138.75
656.846	140.75
657.049	138.75
657.253	126.75
657.457	124.75
657.661	119.75
657.865	121.75
658.068	114.75
658.272	120.75
658.476	108.75
658.68	106.75
658.883	93.75
659.087	100.75
659.291	103.75
659.494	95.75
659.698	83.75
659.901	92.75
660.105	96.75
660.309	84.75
660.512	89.75
660.716	104.75
660.919	108.75
661.123	93.75
661.326	97.75
661.53	82.75
661.733	97.75
661.936	81.75
662.14	112.75
662.343	87.75
662.546	78.75
662.75	78.75
662.953	73.75
663.156	89.75
663.36	80.75
663.563	92.75
663.766	83.75
663.969	75.75
664.173	72.75
664.376	79.75
664.579	73.75
664.782	85.75
664.985	77.75
665.188	79.75
665.391	92.75
665.594	85.75
665.797	78.75
666	79.75
666.203	87.75
666.406	61.75
666.609	74.75
666.812	89.75
667.015	83.75
667.218	72.75
667.421	74.75
667.624	85.75
667.827	70.75
668.03	77.75
668.232	85.75
668.435	79.75
668.638	84.75
668.841	88.75
669.043	76.75
669.246	79.75
669.449	79.75
669.651	71.75
669.854	82.75
670.057	83.75
670.259	82.75
670.462	96.75
670.665	85.75
670.867	62.75
671.07	94.75
671.272	79.75
671.475	90.75
671.677	95.75
671.88	78.75
672.082	79.75
672.284	89.75
672.487	66.75
672.689	87.75
672.892	79.75
