Data from 1960PennyLincolnUp.LampE5.5.200Scan.07172019.P1.ChangedAngle_HRD10591_13-15-32-822.txt Node
Date: Thu Jul 18 13:15:32 EDT 2019
User: cochatt
Spectrometer: HR+D1059
Trigger mode: 1
Integration Time (sec): 1.000000E-1
Scans to average: 1
Electric dark correction enabled: true
Nonlinearity correction enabled: false
Boxcar width: 0
XAxis mode: Wavelengths
Number of Pixels in Spectrum: 2048
>>>>>Begin Spectral Data<<<<<
223.165	-19.12
223.4	-19.12
223.635	-19.12
223.869	-30.12
224.104	-11.12
224.338	2.88
224.573	-22.12
224.808	-17.12
225.042	-18.12
225.277	11.88
225.511	-5.12
225.746	8.88
225.98	18.88
226.215	8.88
226.449	14.88
226.683	7.88
226.918	22.88
227.152	25.88
227.387	45.88
227.621	36.88
227.856	54.88
228.09	37.88
228.324	44.88
228.559	44.88
228.793	64.88
229.027	87.88
229.262	106.88
229.496	114.88
229.73	116.88
229.964	126.88
230.199	101.88
230.433	97.88
230.667	84.88
230.901	99.88
231.136	123.88
231.37	114.88
231.604	106.88
231.838	102.88
232.072	108.88
232.306	114.88
232.541	108.88
232.775	100.88
233.009	100.88
233.243	107.88
233.477	118.88
233.711	118.88
233.945	106.88
234.179	124.88
234.413	104.88
234.647	121.88
234.881	108.88
235.115	122.88
235.349	122.88
235.583	124.88
235.817	116.88
236.051	120.88
236.285	116.88
236.519	109.88
236.753	116.88
236.987	127.88
237.221	155.88
237.455	185.88
237.689	176.88
237.922	130.88
238.156	138.88
238.39	142.88
238.624	122.88
238.858	131.88
239.091	114.88
239.325	131.88
239.559	128.88
239.793	132.88
240.027	113.88
240.26	137.88
240.494	146.88
240.728	143.88
240.961	130.88
241.195	137.88
241.429	151.88
241.662	126.88
241.896	131.88
242.13	123.88
242.363	140.88
242.597	137.88
242.83	139.88
243.064	120.88
243.298	139.88
243.531	128.88
243.765	124.88
243.998	154.88
244.232	145.88
244.465	135.88
244.699	137.88
244.932	133.88
245.166	146.88
245.399	151.88
245.633	139.88
245.866	136.88
246.099	150.88
246.333	136.88
246.566	150.88
246.8	159.88
247.033	128.88
247.266	154.88
247.5	149.88
247.733	163.88
247.966	168.88
248.2	158.88
248.433	163.88
248.666	167.88
248.899	170.88
249.133	159.88
249.366	174.88
249.599	179.88
249.832	175.88
250.066	161.88
250.299	174.88
250.532	168.88
250.765	191.88
250.998	203.88
251.231	202.88
251.465	195.88
251.698	189.88
251.931	180.88
252.164	177.88
252.397	196.88
252.63	211.88
252.863	188.88
253.096	194.88
253.329	190.88
253.562	196.88
253.795	188.88
254.028	191.88
254.261	208.88
254.494	210.88
254.727	238.88
254.96	259.88
255.193	250.88
255.426	220.88
255.659	208.88
255.892	217.88
256.124	229.88
256.357	234.88
256.59	214.88
256.823	197.88
257.056	191.88
257.289	186.88
257.521	193.88
257.754	212.88
257.987	199.88
258.22	198.88
258.452	203.88
258.685	194.88
258.918	203.88
259.151	202.88
259.383	204.88
259.616	214.88
259.849	201.88
260.081	221.88
260.314	255.88
260.547	240.88
260.779	231.88
261.012	223.88
261.244	218.88
261.477	215.88
261.71	213.88
261.942	215.88
262.175	232.88
262.407	213.88
262.64	198.88
262.872	211.88
263.105	216.88
263.337	195.88
263.57	213.88
263.802	213.88
264.035	210.88
264.267	215.88
264.499	187.88
264.732	206.88
264.964	222.88
265.197	217.88
265.429	208.88
265.661	219.88
265.894	192.88
266.126	226.88
266.358	218.88
266.591	214.88
266.823	215.88
267.055	222.88
267.287	236.88
267.52	219.88
267.752	224.88
267.984	217.88
268.216	237.88
268.448	238.88
268.681	219.88
268.913	246.88
269.145	244.88
269.377	279.88
269.609	248.88
269.841	267.88
270.073	241.88
270.306	271.88
270.538	289.88
270.77	273.88
271.002	265.88
271.234	273.88
271.466	261.88
271.698	295.88
271.93	287.88
272.162	291.88
272.394	271.88
272.626	271.88
272.858	272.88
273.09	264.88
273.322	247.88
273.553	265.88
273.785	246.88
274.017	251.88
274.249	264.88
274.481	261.88
274.713	247.88
274.945	263.88
275.176	263.88
275.408	260.88
275.64	243.88
275.872	252.88
276.104	271.88
276.335	276.88
276.567	276.88
276.799	265.88
277.031	294.88
277.262	285.88
277.494	280.88
277.726	291.88
277.957	270.88
278.189	267.88
278.421	272.88
278.652	260.88
278.884	286.88
279.115	257.88
279.347	266.88
279.579	297.88
279.81	283.88
280.042	264.88
280.273	279.88
280.505	254.88
280.736	274.88
280.968	267.88
281.199	290.88
281.431	256.88
281.662	269.88
281.894	270.88
282.125	272.88
282.356	264.88
282.588	292.88
282.819	290.88
283.051	271.88
283.282	278.88
283.513	278.88
283.745	271.88
283.976	289.88
284.207	274.88
284.439	273.88
284.67	271.88
284.901	279.88
285.132	275.88
285.364	283.88
285.595	276.88
285.826	281.88
286.057	271.88
286.288	287.88
286.52	267.88
286.751	277.88
286.982	278.88
287.213	265.88
287.444	287.88
287.675	313.88
287.906	302.88
288.138	303.88
288.369	298.88
288.6	308.88
288.831	303.88
289.062	322.88
289.293	272.88
289.524	283.88
289.755	275.88
289.986	285.88
290.217	298.88
290.448	275.88
290.679	288.88
290.91	295.88
291.141	288.88
291.371	278.88
291.602	304.88
291.833	306.88
292.064	293.88
292.295	317.88
292.526	303.88
292.757	304.88
292.987	287.88
293.218	284.88
293.449	309.88
293.68	300.88
293.91	280.88
294.141	300.88
294.372	274.88
294.603	306.88
294.833	305.88
295.064	317.88
295.295	307.88
295.525	300.88
295.756	314.88
295.987	303.88
296.217	310.88
296.448	305.88
296.679	305.88
296.909	324.88
297.14	290.88
297.37	283.88
297.601	291.88
297.831	283.88
298.062	297.88
298.292	291.88
298.523	304.88
298.753	288.88
298.984	305.88
299.214	324.88
299.445	311.88
299.675	314.88
299.905	322.88
300.136	300.88
300.366	321.88
300.597	301.88
300.827	342.88
301.057	312.88
301.288	333.88
301.518	358.88
301.748	311.88
301.979	308.88
302.209	331.88
302.439	320.88
302.669	313.88
302.9	338.88
303.13	311.88
303.36	341.88
303.59	344.88
303.82	344.88
304.051	334.88
304.281	325.88
304.511	333.88
304.741	330.88
304.971	329.88
305.201	315.88
305.431	314.88
305.661	341.88
305.891	338.88
306.121	355.88
306.352	326.88
306.582	332.88
306.812	315.88
307.042	333.88
307.272	341.88
307.502	336.88
307.731	328.88
307.961	353.88
308.191	346.88
308.421	336.88
308.651	344.88
308.881	343.88
309.111	335.88
309.341	336.88
309.571	341.88
309.8	348.88
310.03	369.88
310.26	354.88
310.49	372.88
310.72	369.88
310.949	394.88
311.179	366.88
311.409	371.88
311.639	366.88
311.868	359.88
312.098	362.88
312.328	382.88
312.557	402.88
312.787	377.88
313.017	382.88
313.246	374.88
313.476	365.88
313.706	379.88
313.935	367.88
314.165	389.88
314.394	361.88
314.624	387.88
314.853	385.88
315.083	379.88
315.312	377.88
315.542	391.88
315.771	363.88
316.001	385.88
316.23	388.88
316.46	387.88
316.689	385.88
316.919	364.88
317.148	385.88
317.377	387.88
317.607	385.88
317.836	366.88
318.065	377.88
318.295	376.88
318.524	362.88
318.753	372.88
318.983	373.88
319.212	376.88
319.441	372.88
319.67	386.88
319.9	388.88
320.129	379.88
320.358	380.88
320.587	373.88
320.816	390.88
321.046	370.88
321.275	390.88
321.504	377.88
321.733	401.88
321.962	392.88
322.191	396.88
322.42	405.88
322.649	420.88
322.878	416.88
323.108	440.88
323.337	435.88
323.566	433.88
323.795	456.88
324.024	521.88
324.253	606.88
324.482	806.88
324.71	1142.88
324.939	1496.88
325.168	1296.88
325.397	731.88
325.626	542.88
325.855	477.88
326.084	456.88
326.313	458.88
326.542	456.88
326.77	491.88
326.999	561.88
327.228	729.88
327.457	1010.88
327.686	1142.88
327.914	790.88
328.143	578.88
328.372	548.88
328.6	511.88
328.829	480.88
329.058	486.88
329.287	470.88
329.515	458.88
329.744	459.88
329.972	449.88
330.201	483.88
330.43	491.88
330.658	482.88
330.887	525.88
331.115	496.88
331.344	476.88
331.572	455.88
331.801	446.88
332.03	451.88
332.258	459.88
332.486	428.88
332.715	444.88
332.943	451.88
333.172	430.88
333.4	423.88
333.629	449.88
333.857	459.88
334.085	470.88
334.314	467.88
334.542	488.88
334.771	506.88
334.999	464.88
335.227	427.88
335.455	424.88
335.684	433.88
335.912	447.88
336.14	447.88
336.369	436.88
336.597	426.88
336.825	446.88
337.053	429.88
337.281	428.88
337.51	411.88
337.738	430.88
337.966	423.88
338.194	422.88
338.422	397.88
338.65	414.88
338.878	427.88
339.106	425.88
339.334	408.88
339.562	395.88
339.79	422.88
340.018	394.88
340.246	414.88
340.474	426.88
340.702	419.88
340.93	408.88
341.158	415.88
341.386	434.88
341.614	429.88
341.842	405.88
342.07	438.88
342.298	423.88
342.526	414.88
342.754	391.88
342.981	406.88
343.209	404.88
343.437	387.88
343.665	402.88
343.893	414.88
344.12	422.88
344.348	434.88
344.576	405.88
344.804	408.88
345.031	404.88
345.259	438.88
345.487	401.88
345.714	418.88
345.942	418.88
346.17	396.88
346.397	402.88
346.625	417.88
346.853	394.88
347.08	375.88
347.308	410.88
347.535	394.88
347.763	430.88
347.99	415.88
348.218	415.88
348.445	410.88
348.673	381.88
348.9	400.88
349.128	415.88
349.355	397.88
349.583	377.88
349.81	398.88
350.037	370.88
350.265	386.88
350.492	381.88
350.72	402.88
350.947	402.88
351.174	392.88
351.402	395.88
351.629	387.88
351.856	380.88
352.083	389.88
352.311	407.88
352.538	386.88
352.765	376.88
352.992	380.88
353.22	392.88
353.447	386.88
353.674	385.88
353.901	387.88
354.128	387.88
354.355	369.88
354.583	389.88
354.81	365.88
355.037	359.88
355.264	350.88
355.491	380.88
355.718	364.88
355.945	346.88
356.172	350.88
356.399	372.88
356.626	372.88
356.853	362.88
357.08	375.88
357.307	368.88
357.534	369.88
357.761	380.88
357.988	372.88
358.215	378.88
358.441	367.88
358.668	381.88
358.895	375.88
359.122	386.88
359.349	377.88
359.576	400.88
359.802	371.88
360.029	409.88
360.256	397.88
360.483	395.88
360.709	368.88
360.936	391.88
361.163	371.88
361.39	378.88
361.616	380.88
361.843	381.88
362.07	374.88
362.296	386.88
362.523	364.88
362.749	390.88
362.976	370.88
363.203	379.88
363.429	369.88
363.656	371.88
363.882	359.88
364.109	368.88
364.335	367.88
364.562	370.88
364.788	370.88
365.015	371.88
365.241	376.88
365.468	376.88
365.694	366.88
365.92	379.88
366.147	384.88
366.373	371.88
366.599	358.88
366.826	362.88
367.052	358.88
367.278	366.88
367.505	352.88
367.731	378.88
367.957	366.88
368.184	376.88
368.41	355.88
368.636	367.88
368.862	397.88
369.089	371.88
369.315	369.88
369.541	354.88
369.767	356.88
369.993	364.88
370.219	376.88
370.445	361.88
370.672	374.88
370.898	364.88
371.124	350.88
371.35	370.88
371.576	359.88
371.802	353.88
372.028	362.88
372.254	379.88
372.48	355.88
372.706	360.88
372.932	368.88
373.158	353.88
373.384	376.88
373.61	368.88
373.835	364.88
374.061	351.88
374.287	380.88
374.513	389.88
374.739	389.88
374.965	371.88
375.191	390.88
375.416	376.88
375.642	371.88
375.868	347.88
376.094	356.88
376.319	363.88
376.545	358.88
376.771	362.88
376.997	389.88
377.222	358.88
377.448	350.88
377.674	354.88
377.899	360.88
378.125	363.88
378.35	349.88
378.576	360.88
378.802	355.88
379.027	343.88
379.253	359.88
379.478	354.88
379.704	354.88
379.929	368.88
380.155	361.88
380.38	345.88
380.606	364.88
380.831	353.88
381.057	356.88
381.282	354.88
381.507	352.88
381.733	356.88
381.958	349.88
382.184	348.88
382.409	376.88
382.634	378.88
382.86	370.88
383.085	361.88
383.31	381.88
383.535	395.88
383.761	393.88
383.986	364.88
384.211	370.88
384.436	381.88
384.662	363.88
384.887	379.88
385.112	385.88
385.337	372.88
385.562	364.88
385.787	377.88
386.013	393.88
386.238	398.88
386.463	381.88
386.688	394.88
386.913	368.88
387.138	382.88
387.363	376.88
387.588	401.88
387.813	398.88
388.038	400.88
388.263	374.88
388.488	387.88
388.713	378.88
388.938	407.88
389.163	376.88
389.387	396.88
389.612	370.88
389.837	386.88
390.062	387.88
390.287	401.88
390.512	369.88
390.736	393.88
390.961	376.88
391.186	392.88
391.411	368.88
391.636	389.88
391.86	415.88
392.085	397.88
392.31	407.88
392.534	394.88
392.759	409.88
392.984	391.88
393.208	386.88
393.433	376.88
393.658	393.88
393.882	380.88
394.107	393.88
394.331	385.88
394.556	377.88
394.78	385.88
395.005	396.88
395.229	374.88
395.454	388.88
395.678	412.88
395.903	424.88
396.127	422.88
396.352	410.88
396.576	406.88
396.801	402.88
397.025	426.88
397.249	394.88
397.474	417.88
397.698	406.88
397.922	403.88
398.147	426.88
398.371	415.88
398.595	400.88
398.82	440.88
399.044	452.88
399.268	454.88
399.492	492.88
399.717	496.88
399.941	518.88
400.165	542.88
400.389	521.88
400.613	488.88
400.837	436.88
401.062	431.88
401.286	447.88
401.51	433.88
401.734	429.88
401.958	435.88
402.182	424.88
402.406	429.88
402.63	431.88
402.854	432.88
403.078	447.88
403.302	419.88
403.526	458.88
403.75	446.88
403.974	445.88
404.198	422.88
404.422	433.88
404.645	440.88
404.869	460.88
405.093	482.88
405.317	511.88
405.541	522.88
405.765	479.88
405.988	474.88
406.212	481.88
406.436	478.88
406.66	490.88
406.883	472.88
407.107	507.88
407.331	522.88
407.555	586.88
407.778	566.88
408.002	515.88
408.226	497.88
408.449	481.88
408.673	483.88
408.896	493.88
409.12	526.88
409.344	510.88
409.567	456.88
409.791	435.88
410.014	446.88
410.238	451.88
410.461	432.88
410.685	431.88
410.908	448.88
411.132	452.88
411.355	472.88
411.578	492.88
411.802	451.88
412.025	449.88
412.249	437.88
412.472	478.88
412.695	482.88
412.919	481.88
413.142	465.88
413.365	423.88
413.589	451.88
413.812	432.88
414.035	412.88
414.258	415.88
414.482	404.88
414.705	417.88
414.928	408.88
415.151	422.88
415.374	416.88
415.597	395.88
415.821	427.88
416.044	414.88
416.267	413.88
416.49	395.88
416.713	391.88
416.936	409.88
417.159	406.88
417.382	414.88
417.605	436.88
417.828	422.88
418.051	434.88
418.274	429.88
418.497	423.88
418.72	404.88
418.943	404.88
419.166	431.88
419.389	446.88
419.611	439.88
419.834	430.88
420.057	432.88
420.28	427.88
420.503	428.88
420.726	427.88
420.948	451.88
421.171	480.88
421.394	482.88
421.617	422.88
421.839	413.88
422.062	406.88
422.285	433.88
422.507	472.88
422.73	549.88
422.953	513.88
423.175	451.88
423.398	444.88
423.621	443.88
423.843	461.88
424.066	439.88
424.288	430.88
424.511	470.88
424.733	499.88
424.956	545.88
425.178	542.88
425.401	527.88
425.623	533.88
425.846	478.88
426.068	476.88
426.291	452.88
426.513	438.88
426.735	447.88
426.958	460.88
427.18	524.88
427.402	622.88
427.625	661.88
427.847	588.88
428.069	491.88
428.292	466.88
428.514	443.88
428.736	462.88
428.958	440.88
429.181	422.88
429.403	395.88
429.625	412.88
429.847	438.88
430.069	495.88
430.292	508.88
430.514	418.88
430.736	410.88
430.958	413.88
431.18	411.88
431.402	397.88
431.624	379.88
431.846	384.88
432.068	388.88
432.29	400.88
432.512	379.88
432.734	400.88
432.956	401.88
433.178	419.88
433.4	413.88
433.622	397.88
433.844	402.88
434.066	386.88
434.287	383.88
434.509	392.88
434.731	403.88
434.953	401.88
435.175	412.88
435.397	432.88
435.618	445.88
435.84	459.88
436.062	529.88
436.284	571.88
436.505	481.88
436.727	449.88
436.949	435.88
437.17	409.88
437.392	424.88
437.614	428.88
437.835	451.88
438.057	496.88
438.278	577.88
438.5	573.88
438.721	605.88
438.943	588.88
439.165	488.88
439.386	451.88
439.608	442.88
439.829	453.88
440.05	480.88
440.272	507.88
440.493	466.88
440.715	428.88
440.936	405.88
441.158	392.88
441.379	423.88
441.6	427.88
441.822	439.88
442.043	474.88
442.264	526.88
442.486	531.88
442.707	484.88
442.928	447.88
443.149	449.88
443.371	481.88
443.592	509.88
443.813	566.88
444.034	580.88
444.255	507.88
444.476	471.88
444.698	455.88
444.919	448.88
445.14	548.88
445.361	488.88
445.582	496.88
445.803	512.88
446.024	570.88
446.245	577.88
446.466	533.88
446.687	467.88
446.908	430.88
447.129	417.88
447.35	414.88
447.571	406.88
447.792	406.88
448.013	401.88
448.234	420.88
448.455	466.88
448.675	538.88
448.896	597.88
449.117	515.88
449.338	510.88
449.559	569.88
449.779	633.88
450	511.88
450.221	466.88
450.442	412.88
450.662	402.88
450.883	406.88
451.104	411.88
451.324	400.88
451.545	396.88
451.766	380.88
451.986	359.88
452.207	370.88
452.428	380.88
452.648	369.88
452.869	355.88
453.089	371.88
453.31	383.88
453.53	402.88
453.751	354.88
453.971	371.88
454.192	378.88
454.412	378.88
454.633	374.88
454.853	371.88
455.073	378.88
455.294	380.88
455.514	426.88
455.734	429.88
455.955	372.88
456.175	363.88
456.395	365.88
456.616	366.88
456.836	347.88
457.056	348.88
457.276	345.88
457.497	346.88
457.717	351.88
457.937	348.88
458.157	356.88
458.377	360.88
458.598	368.88
458.818	411.88
459.038	465.88
459.258	466.88
459.478	427.88
459.698	391.88
459.918	416.88
460.138	403.88
460.358	399.88
460.578	406.88
460.798	407.88
461.018	398.88
461.238	399.88
461.458	409.88
461.678	387.88
461.898	404.88
462.118	412.88
462.338	422.88
462.558	414.88
462.777	440.88
462.997	432.88
463.217	435.88
463.437	449.88
463.657	423.88
463.876	457.88
464.096	436.88
464.316	422.88
464.536	433.88
464.755	433.88
464.975	413.88
465.195	431.88
465.414	463.88
465.634	436.88
465.854	415.88
466.073	395.88
466.293	384.88
466.512	372.88
466.732	384.88
466.951	365.88
467.171	388.88
467.391	382.88
467.61	395.88
467.829	382.88
468.049	370.88
468.268	374.88
468.488	367.88
468.707	375.88
468.927	389.88
469.146	358.88
469.365	371.88
469.585	386.88
469.804	378.88
470.023	375.88
470.243	397.88
470.462	402.88
470.681	377.88
470.901	376.88
471.12	375.88
471.339	391.88
471.558	417.88
471.777	398.88
471.997	377.88
472.216	408.88
472.435	399.88
472.654	395.88
472.873	379.88
473.092	379.88
473.311	365.88
473.53	398.88
473.749	384.88
473.968	426.88
474.187	474.88
474.406	478.88
474.625	420.88
474.844	397.88
475.063	379.88
475.282	372.88
475.501	370.88
475.72	382.88
475.939	384.88
476.158	403.88
476.377	396.88
476.596	396.88
476.814	399.88
477.033	410.88
477.252	420.88
477.471	416.88
477.69	401.88
477.908	415.88
478.127	455.88
478.346	438.88
478.564	427.88
478.783	414.88
479.002	420.88
479.22	413.88
479.439	457.88
479.658	458.88
479.876	465.88
480.095	447.88
480.313	477.88
480.532	462.88
480.751	467.88
480.969	474.88
481.188	509.88
481.406	512.88
481.624	469.88
481.843	459.88
482.061	451.88
482.28	449.88
482.498	442.88
482.717	455.88
482.935	454.88
483.153	442.88
483.372	436.88
483.59	428.88
483.808	445.88
484.027	444.88
484.245	439.88
484.463	444.88
484.681	448.88
484.9	445.88
485.118	451.88
485.336	460.88
485.554	452.88
485.772	439.88
485.99	441.88
486.209	457.88
486.427	447.88
486.645	460.88
486.863	474.88
487.081	473.88
487.299	479.88
487.517	476.88
487.735	475.88
487.953	465.88
488.171	458.88
488.389	481.88
488.607	467.88
488.825	448.88
489.043	450.88
489.261	485.88
489.479	480.88
489.696	482.88
489.914	464.88
490.132	480.88
490.35	467.88
490.568	483.88
490.786	478.88
491.003	496.88
491.221	508.88
491.439	508.88
491.657	516.88
491.874	516.88
492.092	528.88
492.31	514.88
492.527	496.88
492.745	537.88
492.963	537.88
493.18	534.88
493.398	534.88
493.615	541.88
493.833	539.88
494.05	538.88
494.268	552.88
494.485	527.88
494.703	539.88
494.92	567.88
495.138	555.88
495.355	565.88
495.573	551.88
495.79	534.88
496.008	543.88
496.225	557.88
496.442	522.88
496.66	555.88
496.877	560.88
497.094	570.88
497.312	557.88
497.529	570.88
497.746	562.88
497.963	575.88
498.181	580.88
498.398	603.88
498.615	639.88
498.832	619.88
499.049	638.88
499.267	630.88
499.484	660.88
499.701	703.88
499.918	712.88
500.135	731.88
500.352	748.88
500.569	768.88
500.786	790.88
501.003	772.88
501.22	754.88
501.437	736.88
501.654	710.88
501.871	694.88
502.088	686.88
502.305	656.88
502.522	634.88
502.739	618.88
502.956	590.88
503.172	597.88
503.389	570.88
503.606	584.88
503.823	587.88
504.04	560.88
504.256	562.88
504.473	555.88
504.69	564.88
504.907	546.88
505.123	554.88
505.34	544.88
505.557	526.88
505.773	555.88
505.99	526.88
506.207	511.88
506.423	550.88
506.64	509.88
506.856	494.88
507.073	511.88
507.289	496.88
507.506	513.88
507.722	494.88
507.939	522.88
508.155	485.88
508.372	489.88
508.588	476.88
508.805	472.88
509.021	476.88
509.238	500.88
509.454	487.88
509.67	513.88
509.887	479.88
510.103	491.88
510.319	471.88
510.536	551.88
510.752	803.88
510.968	670.88
511.184	489.88
511.401	473.88
511.617	463.88
511.833	471.88
512.049	463.88
512.265	487.88
512.481	478.88
512.698	459.88
512.914	441.88
513.13	470.88
513.346	462.88
513.562	488.88
513.778	435.88
513.994	457.88
514.21	483.88
514.426	467.88
514.642	502.88
514.858	497.88
515.074	532.88
515.29	595.88
515.506	793.88
515.721	662.88
515.937	513.88
516.153	502.88
516.369	504.88
516.585	472.88
516.801	475.88
517.016	472.88
517.232	471.88
517.448	476.88
517.664	494.88
517.879	485.88
518.095	483.88
518.311	471.88
518.527	469.88
518.742	470.88
518.958	483.88
519.173	457.88
519.389	476.88
519.605	443.88
519.82	458.88
520.036	471.88
520.251	464.88
520.467	480.88
520.682	499.88
520.898	488.88
521.113	502.88
521.329	530.88
521.544	540.88
521.76	671.88
521.975	1006.88
522.19	932.88
522.406	606.88
522.621	504.88
522.836	464.88
523.052	450.88
523.267	428.88
523.482	411.88
523.698	420.88
523.913	405.88
524.128	433.88
524.343	422.88
524.559	400.88
524.774	430.88
524.989	409.88
525.204	387.88
525.419	414.88
525.634	407.88
525.849	403.88
526.064	395.88
526.28	407.88
526.495	399.88
526.71	394.88
526.925	395.88
527.14	380.88
527.355	387.88
527.57	390.88
527.785	402.88
527.999	394.88
528.214	392.88
528.429	369.88
528.644	393.88
528.859	393.88
529.074	393.88
529.289	404.88
529.503	432.88
529.718	423.88
529.933	404.88
530.148	401.88
530.363	402.88
530.577	380.88
530.792	388.88
531.007	386.88
531.221	394.88
531.436	378.88
531.651	344.88
531.865	378.88
532.08	386.88
532.295	411.88
532.509	385.88
532.724	383.88
532.938	394.88
533.153	387.88
533.367	379.88
533.582	371.88
533.796	385.88
534.011	386.88
534.225	381.88
534.44	331.88
534.654	378.88
534.868	394.88
535.083	364.88
535.297	388.88
535.511	375.88
535.726	365.88
535.94	365.88
536.154	364.88
536.369	373.88
536.583	351.88
536.797	368.88
537.011	363.88
537.225	371.88
537.44	366.88
537.654	365.88
537.868	362.88
538.082	366.88
538.296	363.88
538.51	356.88
538.724	360.88
538.938	365.88
539.153	368.88
539.367	382.88
539.581	363.88
539.795	357.88
540.009	370.88
540.222	363.88
540.436	376.88
540.65	336.88
540.864	376.88
541.078	367.88
541.292	372.88
541.506	364.88
541.72	367.88
541.934	360.88
542.147	370.88
542.361	367.88
542.575	358.88
542.789	348.88
543.002	374.88
543.216	350.88
543.43	366.88
543.644	370.88
543.857	359.88
544.071	347.88
544.285	349.88
544.498	355.88
544.712	365.88
544.925	337.88
545.139	355.88
545.352	369.88
545.566	366.88
545.779	354.88
545.993	354.88
546.206	350.88
546.42	357.88
546.633	351.88
546.847	351.88
547.06	338.88
547.274	330.88
547.487	345.88
547.7	353.88
547.914	324.88
548.127	330.88
548.34	360.88
548.554	347.88
548.767	348.88
548.98	333.88
549.193	345.88
549.407	341.88
549.62	343.88
549.833	349.88
550.046	330.88
550.259	339.88
550.473	340.88
550.686	346.88
550.899	329.88
551.112	350.88
551.325	329.88
551.538	324.88
551.751	354.88
551.964	344.88
552.177	361.88
552.39	342.88
552.603	363.88
552.816	371.88
553.029	344.88
553.242	336.88
553.455	370.88
553.667	354.88
553.88	369.88
554.093	362.88
554.306	349.88
554.519	356.88
554.732	355.88
554.944	336.88
555.157	342.88
555.37	328.88
555.583	323.88
555.795	345.88
556.008	332.88
556.221	344.88
556.433	325.88
556.646	330.88
556.859	326.88
557.071	317.88
557.284	324.88
557.496	301.88
557.709	310.88
557.921	315.88
558.134	324.88
558.346	314.88
558.559	302.88
558.771	320.88
558.984	311.88
559.196	321.88
559.409	309.88
559.621	325.88
559.833	316.88
560.046	310.88
560.258	286.88
560.47	311.88
560.683	314.88
560.895	308.88
561.107	313.88
561.32	290.88
561.532	307.88
561.744	304.88
561.956	319.88
562.168	323.88
562.381	290.88
562.593	316.88
562.805	320.88
563.017	306.88
563.229	329.88
563.441	311.88
563.653	320.88
563.865	326.88
564.077	314.88
564.289	326.88
564.501	327.88
564.713	334.88
564.925	345.88
565.137	350.88
565.349	336.88
565.561	336.88
565.773	329.88
565.985	330.88
566.197	351.88
566.408	341.88
566.62	380.88
566.832	388.88
567.044	371.88
567.255	400.88
567.467	393.88
567.679	379.88
567.891	398.88
568.102	382.88
568.314	379.88
568.526	374.88
568.737	366.88
568.949	356.88
569.161	334.88
569.372	323.88
569.584	333.88
569.795	328.88
570.007	343.88
570.218	346.88
570.43	325.88
570.641	324.88
570.853	323.88
571.064	326.88
571.276	287.88
571.487	308.88
571.698	295.88
571.91	302.88
572.121	297.88
572.333	298.88
572.544	290.88
572.755	285.88
572.966	285.88
573.178	287.88
573.389	288.88
573.6	274.88
573.811	281.88
574.023	272.88
574.234	297.88
574.445	298.88
574.656	273.88
574.867	279.88
575.078	272.88
575.289	265.88
575.501	270.88
575.712	249.88
575.923	261.88
576.134	281.88
576.345	248.88
576.556	271.88
576.767	264.88
576.978	275.88
577.188	287.88
577.399	258.88
577.61	254.88
577.821	275.88
578.032	262.88
578.243	280.88
578.454	402.88
578.665	306.88
578.875	270.88
579.086	275.88
579.297	271.88
579.508	260.88
579.718	267.88
579.929	250.88
580.14	247.88
580.35	255.88
580.561	265.88
580.772	255.88
580.982	256.88
581.193	249.88
581.403	240.88
581.614	265.88
581.825	249.88
582.035	255.88
582.246	252.88
582.456	252.88
582.667	256.88
582.877	269.88
583.087	254.88
583.298	239.88
583.508	259.88
583.719	225.88
583.929	249.88
584.139	257.88
584.35	244.88
584.56	273.88
584.77	250.88
584.981	254.88
585.191	240.88
585.401	232.88
585.611	243.88
585.821	251.88
586.032	235.88
586.242	235.88
586.452	250.88
586.662	242.88
586.872	236.88
587.082	249.88
587.292	258.88
587.502	241.88
587.713	238.88
587.923	232.88
588.133	251.88
588.343	229.88
588.553	241.88
588.762	244.88
588.972	251.88
589.182	275.88
589.392	264.88
589.602	241.88
589.812	264.88
590.022	251.88
590.232	253.88
590.441	246.88
590.651	232.88
590.861	218.88
591.071	255.88
591.281	255.88
591.49	242.88
591.7	250.88
591.91	249.88
592.119	235.88
592.329	249.88
592.539	268.88
592.748	265.88
592.958	245.88
593.167	256.88
593.377	279.88
593.587	271.88
593.796	258.88
594.006	245.88
594.215	250.88
594.424	244.88
594.634	250.88
594.843	251.88
595.053	262.88
595.262	254.88
595.472	251.88
595.681	236.88
595.89	243.88
596.1	234.88
596.309	248.88
596.518	250.88
596.727	240.88
596.937	240.88
597.146	242.88
597.355	237.88
597.564	216.88
597.774	230.88
597.983	210.88
598.192	211.88
598.401	221.88
598.61	222.88
598.819	227.88
599.028	211.88
599.237	223.88
599.446	229.88
599.655	213.88
599.864	219.88
600.073	219.88
600.282	218.88
600.491	212.88
600.7	211.88
600.909	211.88
601.118	216.88
601.327	227.88
601.536	233.88
601.745	197.88
601.953	214.88
602.162	219.88
602.371	216.88
602.58	208.88
602.789	203.88
602.997	201.88
603.206	215.88
603.415	206.88
603.623	189.88
603.832	206.88
604.041	207.88
604.249	211.88
604.458	215.88
604.666	194.88
604.875	202.88
605.084	211.88
605.292	202.88
605.501	211.88
605.709	219.88
605.918	224.88
606.126	214.88
606.334	210.88
606.543	206.88
606.751	214.88
606.96	209.88
607.168	208.88
607.376	199.88
607.585	219.88
607.793	206.88
608.001	206.88
608.21	201.88
608.418	198.88
608.626	219.88
608.834	194.88
609.043	207.88
609.251	214.88
609.459	200.88
609.667	209.88
609.875	218.88
610.083	203.88
610.291	216.88
610.499	198.88
610.707	203.88
610.916	213.88
611.124	212.88
611.332	208.88
611.54	205.88
611.748	194.88
611.955	196.88
612.163	215.88
612.371	196.88
612.579	179.88
612.787	194.88
612.995	201.88
613.203	214.88
613.411	190.88
613.618	196.88
613.826	200.88
614.034	206.88
614.242	200.88
614.449	208.88
614.657	216.88
614.865	188.88
615.072	193.88
615.28	194.88
615.488	194.88
615.695	203.88
615.903	189.88
616.111	171.88
616.318	204.88
616.526	190.88
616.733	190.88
616.941	208.88
617.148	212.88
617.356	204.88
617.563	201.88
617.771	189.88
617.978	194.88
618.185	196.88
618.393	186.88
618.6	181.88
618.807	197.88
619.015	183.88
619.222	210.88
619.429	204.88
619.637	174.88
619.844	185.88
620.051	197.88
620.258	193.88
620.466	193.88
620.673	182.88
620.88	184.88
621.087	195.88
621.294	184.88
621.501	185.88
621.708	189.88
621.915	190.88
622.122	198.88
622.329	190.88
622.536	178.88
622.743	179.88
622.95	180.88
623.157	192.88
623.364	194.88
623.571	172.88
623.778	179.88
623.985	195.88
624.192	190.88
624.399	182.88
624.606	195.88
624.812	172.88
625.019	178.88
625.226	185.88
625.433	184.88
625.639	172.88
625.846	184.88
626.053	163.88
626.259	167.88
626.466	161.88
626.673	182.88
626.879	166.88
627.086	174.88
627.293	163.88
627.499	183.88
627.706	180.88
627.912	173.88
628.119	171.88
628.325	178.88
628.532	182.88
628.738	181.88
628.945	175.88
629.151	174.88
629.357	159.88
629.564	158.88
629.77	170.88
629.976	167.88
630.183	154.88
630.389	174.88
630.595	176.88
630.802	167.88
631.008	155.88
631.214	159.88
631.42	176.88
631.627	171.88
631.833	161.88
632.039	162.88
632.245	160.88
632.451	151.88
632.657	165.88
632.863	164.88
633.069	161.88
633.275	151.88
633.481	159.88
633.688	164.88
633.893	155.88
634.099	162.88
634.305	159.88
634.511	180.88
634.717	145.88
634.923	154.88
635.129	172.88
635.335	172.88
635.541	159.88
635.747	162.88
635.952	154.88
636.158	173.88
636.364	160.88
636.57	151.88
636.775	162.88
636.981	171.88
637.187	163.88
637.392	149.88
637.598	140.88
637.804	162.88
638.009	160.88
638.215	154.88
638.421	136.88
638.626	154.88
638.832	178.88
639.037	169.88
639.243	145.88
639.448	141.88
639.654	166.88
639.859	161.88
640.065	155.88
640.27	153.88
640.475	154.88
640.681	148.88
640.886	154.88
641.091	144.88
641.297	166.88
641.502	163.88
641.707	170.88
641.913	148.88
642.118	167.88
642.323	158.88
642.528	139.88
642.733	160.88
642.939	159.88
643.144	135.88
643.349	150.88
643.554	172.88
643.759	144.88
643.964	138.88
644.169	147.88
644.374	148.88
644.579	159.88
644.784	145.88
644.989	166.88
645.194	140.88
645.399	148.88
645.604	135.88
645.809	158.88
646.014	146.88
646.219	139.88
646.423	159.88
646.628	152.88
646.833	166.88
647.038	156.88
647.243	145.88
647.447	150.88
647.652	151.88
647.857	151.88
648.062	144.88
648.266	151.88
648.471	151.88
648.676	167.88
648.88	159.88
649.085	140.88
649.289	153.88
649.494	158.88
649.698	166.88
649.903	165.88
650.107	143.88
650.312	158.88
650.516	155.88
650.721	140.88
650.925	147.88
651.13	149.88
651.334	150.88
651.539	150.88
651.743	141.88
651.947	139.88
652.152	127.88
652.356	138.88
652.56	142.88
652.764	135.88
652.969	121.88
653.173	138.88
653.377	128.88
653.581	126.88
653.785	132.88
653.99	140.88
654.194	131.88
654.398	115.88
654.602	129.88
654.806	130.88
655.01	140.88
655.214	146.88
655.418	116.88
655.622	126.88
655.826	118.88
656.03	130.88
656.234	123.88
656.438	139.88
656.642	133.88
656.846	130.88
657.049	134.88
657.253	118.88
657.457	128.88
657.661	125.88
657.865	127.88
658.068	122.88
658.272	112.88
658.476	107.88
658.68	117.88
658.883	97.88
659.087	104.88
659.291	106.88
659.494	107.88
659.698	107.88
659.901	113.88
660.105	97.88
660.309	106.88
660.512	98.88
660.716	90.88
660.919	106.88
661.123	110.88
661.326	90.88
661.53	91.88
661.733	87.88
661.936	94.88
662.14	85.88
662.343	93.88
662.546	83.88
662.75	92.88
662.953	102.88
663.156	89.88
663.36	105.88
663.563	89.88
663.766	83.88
663.969	86.88
664.173	104.88
664.376	89.88
664.579	94.88
664.782	96.88
664.985	83.88
665.188	73.88
665.391	83.88
665.594	92.88
665.797	88.88
666	90.88
666.203	94.88
666.406	84.88
666.609	80.88
666.812	79.88
667.015	80.88
667.218	73.88
667.421	94.88
667.624	83.88
667.827	84.88
668.03	83.88
668.232	89.88
668.435	73.88
668.638	87.88
668.841	89.88
669.043	96.88
669.246	87.88
669.449	98.88
669.651	92.88
669.854	90.88
670.057	77.88
670.259	88.88
670.462	73.88
670.665	82.88
670.867	69.88
671.07	86.88
671.272	77.88
671.475	97.88
671.677	95.88
671.88	105.88
672.082	86.88
672.284	90.88
672.487	80.88
672.689	81.88
672.892	106.88
