Data from 1960PennyLincolnUp.LampE6.200Scan.07172019.P1_HRD10591_13-05-06-001.txt Node
Date: Thu Jul 18 13:05:06 EDT 2019
User: cochatt
Spectrometer: HR+D1059
Trigger mode: 1
Integration Time (sec): 1.000000E-1
Scans to average: 1
Electric dark correction enabled: true
Nonlinearity correction enabled: false
Boxcar width: 0
XAxis mode: Wavelengths
Number of Pixels in Spectrum: 2048
>>>>>Begin Spectral Data<<<<<
223.165	-26.12
223.4	-26.12
223.635	-26.12
223.869	-9.12
224.104	-12.12
224.338	-31.12
224.573	-4.12
224.808	-3.12
225.042	-16.12
225.277	-12.12
225.511	3.88
225.746	0.88
225.98	7.88
226.215	17.88
226.449	1.88
226.683	12.88
226.918	34.88
227.152	33.88
227.387	38.88
227.621	45.88
227.856	36.88
228.09	52.88
228.324	60.88
228.559	55.88
228.793	65.88
229.027	77.88
229.262	92.88
229.496	93.88
229.73	106.88
229.964	90.88
230.199	109.88
230.433	100.88
230.667	100.88
230.901	92.88
231.136	93.88
231.37	95.88
231.604	103.88
231.838	109.88
232.072	102.88
232.306	115.88
232.541	101.88
232.775	107.88
233.009	112.88
233.243	105.88
233.477	97.88
233.711	103.88
233.945	109.88
234.179	119.88
234.413	115.88
234.647	118.88
234.881	110.88
235.115	108.88
235.349	119.88
235.583	119.88
235.817	120.88
236.051	112.88
236.285	119.88
236.519	124.88
236.753	113.88
236.987	135.88
237.221	124.88
237.455	157.88
237.689	139.88
237.922	108.88
238.156	122.88
238.39	135.88
238.624	108.88
238.858	116.88
239.091	108.88
239.325	100.88
239.559	136.88
239.793	120.88
240.027	106.88
240.26	124.88
240.494	134.88
240.728	118.88
240.961	121.88
241.195	137.88
241.429	134.88
241.662	123.88
241.896	134.88
242.13	129.88
242.363	142.88
242.597	123.88
242.83	129.88
243.064	131.88
243.298	133.88
243.531	116.88
243.765	128.88
243.998	127.88
244.232	141.88
244.465	124.88
244.699	137.88
244.932	147.88
245.166	137.88
245.399	129.88
245.633	126.88
245.866	145.88
246.099	138.88
246.333	138.88
246.566	147.88
246.8	125.88
247.033	143.88
247.266	144.88
247.5	145.88
247.733	137.88
247.966	145.88
248.2	160.88
248.433	159.88
248.666	159.88
248.899	171.88
249.133	163.88
249.366	167.88
249.599	144.88
249.832	161.88
250.066	150.88
250.299	151.88
250.532	167.88
250.765	168.88
250.998	171.88
251.231	171.88
251.465	179.88
251.698	165.88
251.931	171.88
252.164	172.88
252.397	183.88
252.63	162.88
252.863	176.88
253.096	194.88
253.329	180.88
253.562	160.88
253.795	165.88
254.028	181.88
254.261	179.88
254.494	196.88
254.727	191.88
254.96	219.88
255.193	202.88
255.426	188.88
255.659	194.88
255.892	193.88
256.124	179.88
256.357	191.88
256.59	200.88
256.823	189.88
257.056	179.88
257.289	192.88
257.521	178.88
257.754	185.88
257.987	177.88
258.22	199.88
258.452	167.88
258.685	186.88
258.918	186.88
259.151	166.88
259.383	171.88
259.616	194.88
259.849	185.88
260.081	199.88
260.314	191.88
260.547	213.88
260.779	194.88
261.012	202.88
261.244	187.88
261.477	186.88
261.71	195.88
261.942	206.88
262.175	203.88
262.407	210.88
262.64	186.88
262.872	189.88
263.105	196.88
263.337	208.88
263.57	195.88
263.802	219.88
264.035	185.88
264.267	198.88
264.499	200.88
264.732	196.88
264.964	202.88
265.197	204.88
265.429	196.88
265.661	197.88
265.894	205.88
266.126	203.88
266.358	207.88
266.591	210.88
266.823	205.88
267.055	186.88
267.287	215.88
267.52	212.88
267.752	208.88
267.984	210.88
268.216	214.88
268.448	208.88
268.681	221.88
268.913	230.88
269.145	215.88
269.377	229.88
269.609	245.88
269.841	238.88
270.073	243.88
270.306	238.88
270.538	257.88
270.77	245.88
271.002	248.88
271.234	260.88
271.466	254.88
271.698	247.88
271.93	243.88
272.162	259.88
272.394	266.88
272.626	255.88
272.858	252.88
273.09	239.88
273.322	232.88
273.553	241.88
273.785	231.88
274.017	225.88
274.249	228.88
274.481	252.88
274.713	252.88
274.945	240.88
275.176	241.88
275.408	238.88
275.64	234.88
275.872	245.88
276.104	256.88
276.335	246.88
276.567	253.88
276.799	257.88
277.031	260.88
277.262	256.88
277.494	269.88
277.726	259.88
277.957	245.88
278.189	269.88
278.421	262.88
278.652	244.88
278.884	252.88
279.115	256.88
279.347	270.88
279.579	244.88
279.81	271.88
280.042	266.88
280.273	263.88
280.505	287.88
280.736	267.88
280.968	269.88
281.199	261.88
281.431	251.88
281.662	259.88
281.894	267.88
282.125	261.88
282.356	291.88
282.588	277.88
282.819	273.88
283.051	256.88
283.282	269.88
283.513	277.88
283.745	265.88
283.976	282.88
284.207	277.88
284.439	263.88
284.67	269.88
284.901	275.88
285.132	272.88
285.364	281.88
285.595	276.88
285.826	268.88
286.057	281.88
286.288	283.88
286.52	282.88
286.751	273.88
286.982	295.88
287.213	266.88
287.444	293.88
287.675	296.88
287.906	299.88
288.138	298.88
288.369	295.88
288.6	295.88
288.831	290.88
289.062	283.88
289.293	289.88
289.524	272.88
289.755	287.88
289.986	284.88
290.217	295.88
290.448	296.88
290.679	284.88
290.91	293.88
291.141	282.88
291.371	287.88
291.602	306.88
291.833	287.88
292.064	282.88
292.295	300.88
292.526	300.88
292.757	293.88
292.987	298.88
293.218	299.88
293.449	293.88
293.68	301.88
293.91	308.88
294.141	302.88
294.372	288.88
294.603	291.88
294.833	284.88
295.064	281.88
295.295	303.88
295.525	294.88
295.756	305.88
295.987	297.88
296.217	314.88
296.448	323.88
296.679	301.88
296.909	308.88
297.14	314.88
297.37	317.88
297.601	322.88
297.831	314.88
298.062	323.88
298.292	325.88
298.523	325.88
298.753	309.88
298.984	315.88
299.214	315.88
299.445	323.88
299.675	310.88
299.905	317.88
300.136	328.88
300.366	320.88
300.597	312.88
300.827	322.88
301.057	320.88
301.288	330.88
301.518	329.88
301.748	325.88
301.979	321.88
302.209	324.88
302.439	332.88
302.669	348.88
302.9	338.88
303.13	331.88
303.36	324.88
303.59	371.88
303.82	327.88
304.051	331.88
304.281	343.88
304.511	334.88
304.741	330.88
304.971	333.88
305.201	349.88
305.431	331.88
305.661	326.88
305.891	334.88
306.121	337.88
306.352	326.88
306.582	339.88
306.812	333.88
307.042	338.88
307.272	323.88
307.502	315.88
307.731	321.88
307.961	323.88
308.191	341.88
308.421	333.88
308.651	322.88
308.881	343.88
309.111	332.88
309.341	321.88
309.571	355.88
309.8	342.88
310.03	340.88
310.26	345.88
310.49	342.88
310.72	347.88
310.949	355.88
311.179	343.88
311.409	361.88
311.639	354.88
311.868	361.88
312.098	351.88
312.328	363.88
312.557	386.88
312.787	373.88
313.017	364.88
313.246	370.88
313.476	372.88
313.706	357.88
313.935	362.88
314.165	358.88
314.394	364.88
314.624	372.88
314.853	371.88
315.083	367.88
315.312	363.88
315.542	348.88
315.771	381.88
316.001	369.88
316.23	368.88
316.46	337.88
316.689	365.88
316.919	363.88
317.148	360.88
317.377	371.88
317.607	363.88
317.836	373.88
318.065	351.88
318.295	369.88
318.524	364.88
318.753	376.88
318.983	370.88
319.212	367.88
319.441	365.88
319.67	368.88
319.9	356.88
320.129	371.88
320.358	360.88
320.587	373.88
320.816	368.88
321.046	362.88
321.275	356.88
321.504	367.88
321.733	390.88
321.962	377.88
322.191	385.88
322.42	379.88
322.649	375.88
322.878	377.88
323.108	387.88
323.337	401.88
323.566	379.88
323.795	393.88
324.024	415.88
324.253	482.88
324.482	592.88
324.71	843.88
324.939	1093.88
325.168	930.88
325.397	539.88
325.626	445.88
325.855	428.88
326.084	402.88
326.313	423.88
326.542	408.88
326.77	433.88
326.999	491.88
327.228	597.88
327.457	790.88
327.686	888.88
327.914	646.88
328.143	480.88
328.372	469.88
328.6	444.88
328.829	441.88
329.058	444.88
329.287	459.88
329.515	435.88
329.744	441.88
329.972	417.88
330.201	452.88
330.43	463.88
330.658	473.88
330.887	445.88
331.115	469.88
331.344	429.88
331.572	431.88
331.801	410.88
332.03	442.88
332.258	440.88
332.486	449.88
332.715	456.88
332.943	455.88
333.172	492.88
333.4	487.88
333.629	488.88
333.857	505.88
334.085	489.88
334.314	526.88
334.542	503.88
334.771	509.88
334.999	472.88
335.227	454.88
335.455	473.88
335.684	475.88
335.912	456.88
336.14	445.88
336.369	451.88
336.597	457.88
336.825	450.88
337.053	450.88
337.281	453.88
337.51	426.88
337.738	449.88
337.966	440.88
338.194	435.88
338.422	431.88
338.65	428.88
338.878	436.88
339.106	421.88
339.334	427.88
339.562	426.88
339.79	415.88
340.018	415.88
340.246	398.88
340.474	398.88
340.702	424.88
340.93	424.88
341.158	427.88
341.386	411.88
341.614	401.88
341.842	397.88
342.07	409.88
342.298	425.88
342.526	413.88
342.754	428.88
342.981	410.88
343.209	421.88
343.437	415.88
343.665	457.88
343.893	458.88
344.12	462.88
344.348	468.88
344.576	429.88
344.804	433.88
345.031	410.88
345.259	413.88
345.487	428.88
345.714	405.88
345.942	405.88
346.17	416.88
346.397	403.88
346.625	411.88
346.853	391.88
347.08	400.88
347.308	395.88
347.535	399.88
347.763	417.88
347.99	392.88
348.218	400.88
348.445	398.88
348.673	404.88
348.9	396.88
349.128	399.88
349.355	390.88
349.583	392.88
349.81	392.88
350.037	373.88
350.265	392.88
350.492	395.88
350.72	380.88
350.947	387.88
351.174	396.88
351.402	396.88
351.629	371.88
351.856	393.88
352.083	402.88
352.311	396.88
352.538	402.88
352.765	386.88
352.992	394.88
353.22	391.88
353.447	387.88
353.674	385.88
353.901	395.88
354.128	391.88
354.355	403.88
354.583	384.88
354.81	386.88
355.037	396.88
355.264	388.88
355.491	397.88
355.718	385.88
355.945	371.88
356.172	384.88
356.399	393.88
356.626	396.88
356.853	398.88
357.08	385.88
357.307	397.88
357.534	403.88
357.761	377.88
357.988	400.88
358.215	409.88
358.441	385.88
358.668	396.88
358.895	395.88
359.122	382.88
359.349	401.88
359.576	395.88
359.802	419.88
360.029	394.88
360.256	417.88
360.483	411.88
360.709	393.88
360.936	394.88
361.163	404.88
361.39	405.88
361.616	396.88
361.843	393.88
362.07	382.88
362.296	393.88
362.523	403.88
362.749	397.88
362.976	400.88
363.203	396.88
363.429	402.88
363.656	401.88
363.882	390.88
364.109	417.88
364.335	379.88
364.562	387.88
364.788	378.88
365.015	387.88
365.241	373.88
365.468	378.88
365.694	395.88
365.92	387.88
366.147	386.88
366.373	391.88
366.599	389.88
366.826	385.88
367.052	386.88
367.278	410.88
367.505	412.88
367.731	388.88
367.957	365.88
368.184	371.88
368.41	400.88
368.636	388.88
368.862	409.88
369.089	398.88
369.315	396.88
369.541	395.88
369.767	404.88
369.993	408.88
370.219	393.88
370.445	411.88
370.672	415.88
370.898	402.88
371.124	417.88
371.35	423.88
371.576	410.88
371.802	389.88
372.028	413.88
372.254	422.88
372.48	408.88
372.706	424.88
372.932	418.88
373.158	415.88
373.384	419.88
373.61	425.88
373.835	418.88
374.061	435.88
374.287	425.88
374.513	422.88
374.739	431.88
374.965	445.88
375.191	443.88
375.416	435.88
375.642	406.88
375.868	417.88
376.094	406.88
376.319	427.88
376.545	411.88
376.771	413.88
376.997	400.88
377.222	396.88
377.448	398.88
377.674	416.88
377.899	389.88
378.125	403.88
378.35	399.88
378.576	402.88
378.802	393.88
379.027	411.88
379.253	418.88
379.478	389.88
379.704	424.88
379.929	399.88
380.155	405.88
380.38	417.88
380.606	415.88
380.831	410.88
381.057	424.88
381.282	413.88
381.507	412.88
381.733	418.88
381.958	412.88
382.184	389.88
382.409	424.88
382.634	424.88
382.86	420.88
383.085	438.88
383.31	422.88
383.535	430.88
383.761	452.88
383.986	439.88
384.211	427.88
384.436	451.88
384.662	468.88
384.887	484.88
385.112	470.88
385.337	468.88
385.562	469.88
385.787	463.88
386.013	491.88
386.238	483.88
386.463	482.88
386.688	487.88
386.913	470.88
387.138	477.88
387.363	485.88
387.588	467.88
387.813	456.88
388.038	479.88
388.263	484.88
388.488	498.88
388.713	458.88
388.938	459.88
389.163	476.88
389.387	458.88
389.612	468.88
389.837	459.88
390.062	460.88
390.287	460.88
390.512	467.88
390.736	482.88
390.961	475.88
391.186	453.88
391.411	468.88
391.636	479.88
391.86	503.88
392.085	528.88
392.31	497.88
392.534	501.88
392.759	494.88
392.984	505.88
393.208	515.88
393.433	551.88
393.658	523.88
393.882	495.88
394.107	472.88
394.331	487.88
394.556	491.88
394.78	485.88
395.005	482.88
395.229	494.88
395.454	500.88
395.678	518.88
395.903	511.88
396.127	514.88
396.352	525.88
396.576	515.88
396.801	496.88
397.025	499.88
397.249	508.88
397.474	514.88
397.698	519.88
397.922	520.88
398.147	509.88
398.371	531.88
398.595	536.88
398.82	530.88
399.044	564.88
399.268	608.88
399.492	722.88
399.717	750.88
399.941	757.88
400.165	717.88
400.389	671.88
400.613	625.88
400.837	602.88
401.062	560.88
401.286	571.88
401.51	547.88
401.734	559.88
401.958	549.88
402.182	578.88
402.406	568.88
402.63	599.88
402.854	598.88
403.078	573.88
403.302	582.88
403.526	596.88
403.75	619.88
403.974	621.88
404.198	584.88
404.422	625.88
404.645	601.88
404.869	618.88
405.093	619.88
405.317	629.88
405.541	643.88
405.765	636.88
405.988	630.88
406.212	592.88
406.436	634.88
406.66	633.88
406.883	624.88
407.107	681.88
407.331	683.88
407.555	709.88
407.778	715.88
408.002	655.88
408.226	658.88
408.449	630.88
408.673	642.88
408.896	613.88
409.12	625.88
409.344	622.88
409.567	619.88
409.791	580.88
410.014	580.88
410.238	578.88
410.461	565.88
410.685	592.88
410.908	589.88
411.132	611.88
411.355	611.88
411.578	593.88
411.802	560.88
412.025	597.88
412.249	573.88
412.472	586.88
412.695	586.88
412.919	595.88
413.142	559.88
413.365	557.88
413.589	540.88
413.812	553.88
414.035	531.88
414.258	553.88
414.482	545.88
414.705	555.88
414.928	557.88
415.151	554.88
415.374	566.88
415.597	536.88
415.821	540.88
416.044	534.88
416.267	524.88
416.49	536.88
416.713	528.88
416.936	541.88
417.159	563.88
417.382	547.88
417.605	553.88
417.828	558.88
418.051	561.88
418.274	559.88
418.497	545.88
418.72	555.88
418.943	558.88
419.166	584.88
419.389	588.88
419.611	585.88
419.834	583.88
420.057	591.88
420.28	565.88
420.503	553.88
420.726	552.88
420.948	556.88
421.171	580.88
421.394	580.88
421.617	562.88
421.839	567.88
422.062	556.88
422.285	570.88
422.507	593.88
422.73	617.88
422.953	625.88
423.175	591.88
423.398	579.88
423.621	563.88
423.843	604.88
424.066	594.88
424.288	588.88
424.511	592.88
424.733	615.88
424.956	661.88
425.178	609.88
425.401	623.88
425.623	622.88
425.846	588.88
426.068	571.88
426.291	539.88
426.513	543.88
426.735	555.88
426.958	582.88
427.18	616.88
427.402	658.88
427.625	679.88
427.847	628.88
428.069	583.88
428.292	538.88
428.514	517.88
428.736	497.88
428.958	505.88
429.181	508.88
429.403	498.88
429.625	514.88
429.847	515.88
430.069	555.88
430.292	527.88
430.514	519.88
430.736	496.88
430.958	493.88
431.18	481.88
431.402	507.88
431.624	505.88
431.846	489.88
432.068	507.88
432.29	512.88
432.512	490.88
432.734	507.88
432.956	499.88
433.178	490.88
433.4	480.88
433.622	516.88
433.844	515.88
434.066	511.88
434.287	511.88
434.509	514.88
434.731	531.88
434.953	541.88
435.175	553.88
435.397	546.88
435.618	547.88
435.84	558.88
436.062	621.88
436.284	611.88
436.505	552.88
436.727	517.88
436.949	509.88
437.17	533.88
437.392	491.88
437.614	496.88
437.835	483.88
438.057	568.88
438.278	591.88
438.5	580.88
438.721	627.88
438.943	602.88
439.165	524.88
439.386	493.88
439.608	508.88
439.829	509.88
440.05	517.88
440.272	560.88
440.493	522.88
440.715	528.88
440.936	495.88
441.158	518.88
441.379	521.88
441.6	556.88
441.822	582.88
442.043	572.88
442.264	596.88
442.486	620.88
442.707	551.88
442.928	519.88
443.149	567.88
443.371	542.88
443.592	592.88
443.813	641.88
444.034	633.88
444.255	586.88
444.476	591.88
444.698	604.88
444.919	611.88
445.14	693.88
445.361	609.88
445.582	581.88
445.803	585.88
446.024	621.88
446.245	614.88
446.466	563.88
446.687	531.88
446.908	489.88
447.129	476.88
447.35	483.88
447.571	491.88
447.792	470.88
448.013	483.88
448.234	495.88
448.455	528.88
448.675	557.88
448.896	620.88
449.117	530.88
449.338	536.88
449.559	584.88
449.779	619.88
450	537.88
450.221	500.88
450.442	504.88
450.662	471.88
450.883	459.88
451.104	467.88
451.324	462.88
451.545	441.88
451.766	459.88
451.986	436.88
452.207	440.88
452.428	455.88
452.648	420.88
452.869	442.88
453.089	447.88
453.31	460.88
453.53	445.88
453.751	451.88
453.971	431.88
454.192	457.88
454.412	425.88
454.633	456.88
454.853	429.88
455.073	435.88
455.294	461.88
455.514	491.88
455.734	464.88
455.955	430.88
456.175	424.88
456.395	424.88
456.616	422.88
456.836	424.88
457.056	403.88
457.276	405.88
457.497	416.88
457.717	427.88
457.937	411.88
458.157	452.88
458.377	440.88
458.598	436.88
458.818	472.88
459.038	513.88
459.258	514.88
459.478	485.88
459.698	489.88
459.918	513.88
460.138	510.88
460.358	531.88
460.578	549.88
460.798	565.88
461.018	545.88
461.238	509.88
461.458	526.88
461.678	535.88
461.898	538.88
462.118	553.88
462.338	580.88
462.558	572.88
462.777	594.88
462.997	615.88
463.217	651.88
463.437	663.88
463.657	600.88
463.876	596.88
464.096	596.88
464.316	565.88
464.536	602.88
464.755	584.88
464.975	575.88
465.195	577.88
465.414	570.88
465.634	524.88
465.854	519.88
466.073	495.88
466.293	481.88
466.512	487.88
466.732	467.88
466.951	471.88
467.171	474.88
467.391	469.88
467.61	468.88
467.829	458.88
468.049	473.88
468.268	463.88
468.488	465.88
468.707	475.88
468.927	466.88
469.146	443.88
469.365	443.88
469.585	470.88
469.804	455.88
470.023	460.88
470.243	464.88
470.462	486.88
470.681	519.88
470.901	492.88
471.12	515.88
471.339	483.88
471.558	461.88
471.777	463.88
471.997	474.88
472.216	466.88
472.435	481.88
472.654	459.88
472.873	455.88
473.092	442.88
473.311	442.88
473.53	445.88
473.749	455.88
473.968	487.88
474.187	512.88
474.406	515.88
474.625	482.88
474.844	476.88
475.063	460.88
475.282	461.88
475.501	456.88
475.72	450.88
475.939	468.88
476.158	474.88
476.377	465.88
476.596	459.88
476.814	462.88
477.033	463.88
477.252	492.88
477.471	502.88
477.69	507.88
477.908	525.88
478.127	534.88
478.346	531.88
478.564	533.88
478.783	547.88
479.002	559.88
479.22	563.88
479.439	538.88
479.658	557.88
479.876	583.88
480.095	554.88
480.313	614.88
480.532	599.88
480.751	579.88
480.969	593.88
481.188	608.88
481.406	607.88
481.624	567.88
481.843	552.88
482.061	537.88
482.28	541.88
482.498	515.88
482.717	536.88
482.935	517.88
483.153	526.88
483.372	549.88
483.59	534.88
483.808	516.88
484.027	523.88
484.245	537.88
484.463	530.88
484.681	533.88
484.9	545.88
485.118	539.88
485.336	549.88
485.554	562.88
485.772	545.88
485.99	532.88
486.209	531.88
486.427	561.88
486.645	558.88
486.863	561.88
487.081	552.88
487.299	576.88
487.517	562.88
487.735	572.88
487.953	585.88
488.171	572.88
488.389	549.88
488.607	563.88
488.825	574.88
489.043	551.88
489.261	571.88
489.479	563.88
489.696	551.88
489.914	571.88
490.132	600.88
490.35	597.88
490.568	583.88
490.786	588.88
491.003	598.88
491.221	575.88
491.439	601.88
491.657	598.88
491.874	610.88
492.092	607.88
492.31	625.88
492.527	625.88
492.745	598.88
492.963	619.88
493.18	637.88
493.398	616.88
493.615	637.88
493.833	627.88
494.05	614.88
494.268	640.88
494.485	617.88
494.703	630.88
494.92	602.88
495.138	630.88
495.355	635.88
495.573	631.88
495.79	609.88
496.008	638.88
496.225	621.88
496.442	621.88
496.66	645.88
496.877	660.88
497.094	649.88
497.312	631.88
497.529	652.88
497.746	673.88
497.963	685.88
498.181	706.88
498.398	738.88
498.615	753.88
498.832	791.88
499.049	823.88
499.267	860.88
499.484	914.88
499.701	969.88
499.918	1058.88
500.135	1141.88
500.352	1267.88
500.569	1324.88
500.786	1329.88
501.003	1235.88
501.22	1135.88
501.437	1050.88
501.654	1005.88
501.871	917.88
502.088	852.88
502.305	842.88
502.522	781.88
502.739	757.88
502.956	712.88
503.172	713.88
503.389	699.88
503.606	690.88
503.823	657.88
504.04	671.88
504.256	681.88
504.473	663.88
504.69	691.88
504.907	671.88
505.123	653.88
505.34	604.88
505.557	605.88
505.773	613.88
505.99	583.88
506.207	580.88
506.423	585.88
506.64	550.88
506.856	571.88
507.073	575.88
507.289	536.88
507.506	551.88
507.722	569.88
507.939	572.88
508.155	560.88
508.372	535.88
508.588	547.88
508.805	536.88
509.021	548.88
509.238	533.88
509.454	534.88
509.67	554.88
509.887	527.88
510.103	516.88
510.319	538.88
510.536	579.88
510.752	768.88
510.968	656.88
511.184	549.88
511.401	517.88
511.617	530.88
511.833	511.88
512.049	500.88
512.265	517.88
512.481	510.88
512.698	522.88
512.914	492.88
513.13	498.88
513.346	505.88
513.562	508.88
513.778	516.88
513.994	494.88
514.21	500.88
514.426	517.88
514.642	535.88
514.858	525.88
515.074	541.88
515.29	612.88
515.506	745.88
515.721	683.88
515.937	557.88
516.153	546.88
516.369	562.88
516.585	543.88
516.801	576.88
517.016	557.88
517.232	577.88
517.448	633.88
517.664	643.88
517.879	613.88
518.095	643.88
518.311	619.88
518.527	604.88
518.742	577.88
518.958	564.88
519.173	553.88
519.389	551.88
519.605	544.88
519.82	534.88
520.036	527.88
520.251	523.88
520.467	535.88
520.682	523.88
520.898	514.88
521.113	516.88
521.329	532.88
521.544	545.88
521.76	602.88
521.975	869.88
522.19	857.88
522.406	577.88
522.621	528.88
522.836	483.88
523.052	483.88
523.267	469.88
523.482	468.88
523.698	474.88
523.913	463.88
524.128	455.88
524.343	455.88
524.559	441.88
524.774	446.88
524.989	466.88
525.204	445.88
525.419	447.88
525.634	445.88
525.849	459.88
526.064	449.88
526.28	429.88
526.495	423.88
526.71	442.88
526.925	451.88
527.14	426.88
527.355	444.88
527.57	447.88
527.785	442.88
527.999	425.88
528.214	456.88
528.429	437.88
528.644	443.88
528.859	440.88
529.074	454.88
529.289	455.88
529.503	496.88
529.718	455.88
529.933	456.88
530.148	450.88
530.363	445.88
530.577	432.88
530.792	441.88
531.007	440.88
531.221	427.88
531.436	451.88
531.651	426.88
531.865	451.88
532.08	439.88
532.295	449.88
532.509	437.88
532.724	452.88
532.938	448.88
533.153	434.88
533.367	447.88
533.582	440.88
533.796	457.88
534.011	436.88
534.225	426.88
534.44	408.88
534.654	423.88
534.868	437.88
535.083	432.88
535.297	434.88
535.511	419.88
535.726	449.88
535.94	436.88
536.154	425.88
536.369	420.88
536.583	406.88
536.797	416.88
537.011	424.88
537.225	420.88
537.44	403.88
537.654	419.88
537.868	399.88
538.082	418.88
538.296	400.88
538.51	402.88
538.724	396.88
538.938	403.88
539.153	420.88
539.367	429.88
539.581	409.88
539.795	403.88
540.009	409.88
540.222	395.88
540.436	412.88
540.65	411.88
540.864	409.88
541.078	393.88
541.292	418.88
541.506	398.88
541.72	419.88
541.934	425.88
542.147	415.88
542.361	407.88
542.575	417.88
542.789	417.88
543.002	410.88
543.216	408.88
543.43	399.88
543.644	398.88
543.857	423.88
544.071	421.88
544.285	409.88
544.498	418.88
544.712	417.88
544.925	420.88
545.139	416.88
545.352	393.88
545.566	433.88
545.779	418.88
545.993	425.88
546.206	424.88
546.42	425.88
546.633	412.88
546.847	436.88
547.06	410.88
547.274	425.88
547.487	425.88
547.7	419.88
547.914	426.88
548.127	425.88
548.34	427.88
548.554	423.88
548.767	435.88
548.98	422.88
549.193	421.88
549.407	421.88
549.62	428.88
549.833	426.88
550.046	424.88
550.259	424.88
550.473	408.88
550.686	427.88
550.899	407.88
551.112	408.88
551.325	416.88
551.538	431.88
551.751	393.88
551.964	410.88
552.177	425.88
552.39	431.88
552.603	436.88
552.816	414.88
553.029	427.88
553.242	459.88
553.455	456.88
553.667	451.88
553.88	465.88
554.093	443.88
554.306	453.88
554.519	419.88
554.732	414.88
554.944	423.88
555.157	402.88
555.37	421.88
555.583	412.88
555.795	405.88
556.008	406.88
556.221	374.88
556.433	391.88
556.646	381.88
556.859	371.88
557.071	375.88
557.284	384.88
557.496	375.88
557.709	367.88
557.921	360.88
558.134	373.88
558.346	378.88
558.559	375.88
558.771	360.88
558.984	380.88
559.196	361.88
559.409	368.88
559.621	349.88
559.833	356.88
560.046	370.88
560.258	384.88
560.47	367.88
560.683	356.88
560.895	355.88
561.107	363.88
561.32	366.88
561.532	371.88
561.744	364.88
561.956	359.88
562.168	367.88
562.381	354.88
562.593	379.88
562.805	374.88
563.017	362.88
563.229	378.88
563.441	377.88
563.653	364.88
563.865	382.88
564.077	365.88
564.289	376.88
564.501	390.88
564.713	376.88
564.925	392.88
565.137	380.88
565.349	377.88
565.561	403.88
565.773	405.88
565.985	424.88
566.197	449.88
566.408	471.88
566.62	492.88
566.832	534.88
567.044	531.88
567.255	534.88
567.467	537.88
567.679	575.88
567.891	585.88
568.102	572.88
568.314	567.88
568.526	549.88
568.737	499.88
568.949	471.88
569.161	434.88
569.372	404.88
569.584	399.88
569.795	388.88
570.007	379.88
570.218	393.88
570.43	385.88
570.641	373.88
570.853	370.88
571.064	369.88
571.276	367.88
571.487	370.88
571.698	360.88
571.91	319.88
572.121	344.88
572.333	327.88
572.544	327.88
572.755	305.88
572.966	328.88
573.178	315.88
573.389	329.88
573.6	315.88
573.811	316.88
574.023	308.88
574.234	320.88
574.445	305.88
574.656	316.88
574.867	334.88
575.078	313.88
575.289	290.88
575.501	311.88
575.712	290.88
575.923	305.88
576.134	293.88
576.345	290.88
576.556	303.88
576.767	283.88
576.978	308.88
577.188	317.88
577.399	288.88
577.61	290.88
577.821	277.88
578.032	279.88
578.243	311.88
578.454	377.88
578.665	332.88
578.875	291.88
579.086	276.88
579.297	292.88
579.508	298.88
579.718	279.88
579.929	272.88
580.14	277.88
580.35	275.88
580.561	293.88
580.772	267.88
580.982	277.88
581.193	277.88
581.403	283.88
581.614	276.88
581.825	271.88
582.035	278.88
582.246	279.88
582.456	280.88
582.667	271.88
582.877	281.88
583.087	267.88
583.298	277.88
583.508	278.88
583.719	265.88
583.929	271.88
584.139	288.88
584.35	254.88
584.56	269.88
584.77	282.88
584.981	264.88
585.191	259.88
585.401	272.88
585.611	267.88
585.821	272.88
586.032	277.88
586.242	252.88
586.452	269.88
586.662	250.88
586.872	276.88
587.082	276.88
587.292	273.88
587.502	289.88
587.713	246.88
587.923	284.88
588.133	275.88
588.343	272.88
588.553	267.88
588.762	273.88
588.972	280.88
589.182	388.88
589.392	384.88
589.602	296.88
589.812	354.88
590.022	331.88
590.232	280.88
590.441	272.88
590.651	277.88
590.861	272.88
591.071	284.88
591.281	279.88
591.49	288.88
591.7	279.88
591.91	276.88
592.119	299.88
592.329	295.88
592.539	295.88
592.748	312.88
592.958	286.88
593.167	322.88
593.377	326.88
593.587	324.88
593.796	313.88
594.006	328.88
594.215	335.88
594.424	325.88
594.634	325.88
594.843	307.88
595.053	293.88
595.262	298.88
595.472	297.88
595.681	294.88
595.89	288.88
596.1	296.88
596.309	265.88
596.518	263.88
596.727	272.88
596.937	273.88
597.146	275.88
597.355	257.88
597.564	253.88
597.774	267.88
597.983	259.88
598.192	241.88
598.401	258.88
598.61	234.88
598.819	251.88
599.028	244.88
599.237	240.88
599.446	241.88
599.655	255.88
599.864	223.88
600.073	235.88
600.282	251.88
600.491	242.88
600.7	241.88
600.909	217.88
601.118	239.88
601.327	252.88
601.536	244.88
601.745	250.88
601.953	240.88
602.162	248.88
602.371	226.88
602.58	242.88
602.789	248.88
602.997	253.88
603.206	245.88
603.415	231.88
603.623	223.88
603.832	222.88
604.041	226.88
604.249	220.88
604.458	227.88
604.666	230.88
604.875	232.88
605.084	198.88
605.292	239.88
605.501	227.88
605.709	225.88
605.918	216.88
606.126	216.88
606.334	238.88
606.543	248.88
606.751	246.88
606.96	218.88
607.168	227.88
607.376	235.88
607.585	218.88
607.793	225.88
608.001	238.88
608.21	244.88
608.418	235.88
608.626	227.88
608.834	219.88
609.043	209.88
609.251	214.88
609.459	222.88
609.667	226.88
609.875	218.88
610.083	220.88
610.291	228.88
610.499	239.88
610.707	229.88
610.916	227.88
611.124	228.88
611.332	250.88
611.54	236.88
611.748	225.88
611.955	205.88
612.163	226.88
612.371	214.88
612.579	221.88
612.787	228.88
612.995	209.88
613.203	239.88
613.411	223.88
613.618	216.88
613.826	213.88
614.034	238.88
614.242	210.88
614.449	199.88
614.657	251.88
614.865	207.88
615.072	209.88
615.28	221.88
615.488	205.88
615.695	218.88
615.903	215.88
616.111	213.88
616.318	229.88
616.526	230.88
616.733	249.88
616.941	239.88
617.148	225.88
617.356	224.88
617.563	235.88
617.771	230.88
617.978	218.88
618.185	225.88
618.393	214.88
618.6	217.88
618.807	200.88
619.015	225.88
619.222	220.88
619.429	215.88
619.637	211.88
619.844	212.88
620.051	200.88
620.258	218.88
620.466	208.88
620.673	212.88
620.88	212.88
621.087	202.88
621.294	220.88
621.501	227.88
621.708	194.88
621.915	209.88
622.122	210.88
622.329	198.88
622.536	206.88
622.743	201.88
622.95	219.88
623.157	212.88
623.364	203.88
623.571	201.88
623.778	204.88
623.985	202.88
624.192	204.88
624.399	211.88
624.606	197.88
624.812	200.88
625.019	200.88
625.226	197.88
625.433	197.88
625.639	199.88
625.846	177.88
626.053	209.88
626.259	202.88
626.466	196.88
626.673	208.88
626.879	186.88
627.086	205.88
627.293	212.88
627.499	208.88
627.706	183.88
627.912	204.88
628.119	188.88
628.325	186.88
628.532	183.88
628.738	193.88
628.945	179.88
629.151	194.88
629.357	189.88
629.564	197.88
629.77	179.88
629.976	185.88
630.183	183.88
630.389	176.88
630.595	194.88
630.802	188.88
631.008	197.88
631.214	181.88
631.42	189.88
631.627	186.88
631.833	175.88
632.039	175.88
632.245	201.88
632.451	175.88
632.657	182.88
632.863	163.88
633.069	179.88
633.275	180.88
633.481	178.88
633.688	181.88
633.893	184.88
634.099	189.88
634.305	183.88
634.511	196.88
634.717	168.88
634.923	178.88
635.129	172.88
635.335	187.88
635.541	175.88
635.747	172.88
635.952	165.88
636.158	177.88
636.364	187.88
636.57	173.88
636.775	168.88
636.981	181.88
637.187	161.88
637.392	171.88
637.598	183.88
637.804	179.88
638.009	174.88
638.215	174.88
638.421	170.88
638.626	168.88
638.832	174.88
639.037	178.88
639.243	176.88
639.448	165.88
639.654	165.88
639.859	173.88
640.065	153.88
640.27	182.88
640.475	168.88
640.681	161.88
640.886	166.88
641.091	174.88
641.297	175.88
641.502	155.88
641.707	169.88
641.913	171.88
642.118	181.88
642.323	164.88
642.528	162.88
642.733	175.88
642.939	164.88
643.144	152.88
643.349	178.88
643.554	159.88
643.759	154.88
643.964	153.88
644.169	161.88
644.374	163.88
644.579	173.88
644.784	149.88
644.989	163.88
645.194	154.88
645.399	161.88
645.604	152.88
645.809	155.88
646.014	162.88
646.219	164.88
646.423	177.88
646.628	167.88
646.833	171.88
647.038	156.88
647.243	171.88
647.447	157.88
647.652	172.88
647.857	164.88
648.062	179.88
648.266	179.88
648.471	188.88
648.676	178.88
648.88	182.88
649.085	185.88
649.289	169.88
649.494	175.88
649.698	166.88
649.903	181.88
650.107	176.88
650.312	156.88
650.516	164.88
650.721	171.88
650.925	151.88
651.13	157.88
651.334	163.88
651.539	140.88
651.743	151.88
651.947	153.88
652.152	167.88
652.356	153.88
652.56	141.88
652.764	153.88
652.969	160.88
653.173	139.88
653.377	142.88
653.581	132.88
653.785	149.88
653.99	161.88
654.194	132.88
654.398	140.88
654.602	147.88
654.806	144.88
655.01	147.88
655.214	158.88
655.418	143.88
655.622	151.88
655.826	150.88
656.03	153.88
656.234	168.88
656.438	156.88
656.642	166.88
656.846	165.88
657.049	145.88
657.253	148.88
657.457	139.88
657.661	130.88
657.865	132.88
658.068	119.88
658.272	122.88
658.476	125.88
658.68	124.88
658.883	116.88
659.087	108.88
659.291	103.88
659.494	106.88
659.698	98.88
659.901	105.88
660.105	102.88
660.309	101.88
660.512	111.88
660.716	95.88
660.919	93.88
661.123	93.88
661.326	89.88
661.53	95.88
661.733	96.88
661.936	97.88
662.14	90.88
662.343	99.88
662.546	100.88
662.75	89.88
662.953	92.88
663.156	87.88
663.36	82.88
663.563	93.88
663.766	91.88
663.969	97.88
664.173	81.88
664.376	83.88
664.579	76.88
664.782	89.88
664.985	71.88
665.188	89.88
665.391	99.88
665.594	67.88
665.797	88.88
666	81.88
666.203	92.88
666.406	88.88
666.609	87.88
666.812	76.88
667.015	92.88
667.218	85.88
667.421	80.88
667.624	104.88
667.827	91.88
668.03	83.88
668.232	88.88
668.435	87.88
668.638	82.88
668.841	95.88
669.043	80.88
669.246	72.88
669.449	79.88
669.651	84.88
669.854	82.88
670.057	90.88
670.259	102.88
670.462	83.88
670.665	96.88
670.867	87.88
671.07	86.88
671.272	96.88
671.475	85.88
671.677	83.88
671.88	74.88
672.082	88.88
672.284	93.88
672.487	97.88
672.689	81.88
672.892	74.88
