Data from 1960PennyLincolnUp.LampE5.5.200Scan.07172019.P1.ChangedAngle_HRD10591_13-15-34-821.txt Node
Date: Thu Jul 18 13:15:34 EDT 2019
User: cochatt
Spectrometer: HR+D1059
Trigger mode: 1
Integration Time (sec): 1.000000E-1
Scans to average: 1
Electric dark correction enabled: true
Nonlinearity correction enabled: false
Boxcar width: 0
XAxis mode: Wavelengths
Number of Pixels in Spectrum: 2048
>>>>>Begin Spectral Data<<<<<
223.165	-20.12
223.4	-20.12
223.635	-20.12
223.869	-24.12
224.104	-18.12
224.338	-15.12
224.573	-6.12
224.808	0.88
225.042	-1.12
225.277	-11.12
225.511	-4.12
225.746	-1.12
225.98	2.88
226.215	20.88
226.449	14.88
226.683	23.88
226.918	16.88
227.152	20.88
227.387	42.88
227.621	42.88
227.856	58.88
228.09	42.88
228.324	57.88
228.559	41.88
228.793	72.88
229.027	84.88
229.262	94.88
229.496	98.88
229.73	116.88
229.964	138.88
230.199	108.88
230.433	101.88
230.667	88.88
230.901	110.88
231.136	102.88
231.37	97.88
231.604	120.88
231.838	124.88
232.072	106.88
232.306	124.88
232.541	114.88
232.775	126.88
233.009	117.88
233.243	114.88
233.477	119.88
233.711	114.88
233.945	103.88
234.179	106.88
234.413	114.88
234.647	132.88
234.881	107.88
235.115	112.88
235.349	106.88
235.583	121.88
235.817	101.88
236.051	114.88
236.285	130.88
236.519	124.88
236.753	120.88
236.987	135.88
237.221	158.88
237.455	190.88
237.689	147.88
237.922	129.88
238.156	136.88
238.39	127.88
238.624	128.88
238.858	117.88
239.091	115.88
239.325	124.88
239.559	112.88
239.793	127.88
240.027	129.88
240.26	139.88
240.494	148.88
240.728	125.88
240.961	129.88
241.195	137.88
241.429	126.88
241.662	141.88
241.896	145.88
242.13	126.88
242.363	118.88
242.597	126.88
242.83	116.88
243.064	138.88
243.298	129.88
243.531	129.88
243.765	132.88
243.998	129.88
244.232	139.88
244.465	132.88
244.699	120.88
244.932	146.88
245.166	139.88
245.399	140.88
245.633	156.88
245.866	153.88
246.099	143.88
246.333	166.88
246.566	156.88
246.8	146.88
247.033	155.88
247.266	152.88
247.5	144.88
247.733	143.88
247.966	154.88
248.2	157.88
248.433	155.88
248.666	158.88
248.899	154.88
249.133	182.88
249.366	175.88
249.599	185.88
249.832	159.88
250.066	180.88
250.299	160.88
250.532	184.88
250.765	178.88
250.998	198.88
251.231	186.88
251.465	208.88
251.698	192.88
251.931	203.88
252.164	180.88
252.397	187.88
252.63	192.88
252.863	186.88
253.096	199.88
253.329	219.88
253.562	196.88
253.795	197.88
254.028	196.88
254.261	206.88
254.494	211.88
254.727	230.88
254.96	235.88
255.193	251.88
255.426	219.88
255.659	229.88
255.892	198.88
256.124	212.88
256.357	216.88
256.59	206.88
256.823	209.88
257.056	201.88
257.289	188.88
257.521	188.88
257.754	203.88
257.987	206.88
258.22	201.88
258.452	187.88
258.685	204.88
258.918	198.88
259.151	201.88
259.383	212.88
259.616	210.88
259.849	207.88
260.081	218.88
260.314	244.88
260.547	233.88
260.779	210.88
261.012	215.88
261.244	229.88
261.477	212.88
261.71	202.88
261.942	226.88
262.175	201.88
262.407	207.88
262.64	206.88
262.872	201.88
263.105	211.88
263.337	209.88
263.57	216.88
263.802	211.88
264.035	203.88
264.267	215.88
264.499	214.88
264.732	214.88
264.964	215.88
265.197	208.88
265.429	221.88
265.661	210.88
265.894	221.88
266.126	203.88
266.358	206.88
266.591	197.88
266.823	212.88
267.055	239.88
267.287	232.88
267.52	218.88
267.752	221.88
267.984	236.88
268.216	216.88
268.448	232.88
268.681	240.88
268.913	235.88
269.145	241.88
269.377	262.88
269.609	266.88
269.841	271.88
270.073	264.88
270.306	276.88
270.538	273.88
270.77	290.88
271.002	299.88
271.234	295.88
271.466	257.88
271.698	283.88
271.93	285.88
272.162	296.88
272.394	287.88
272.626	273.88
272.858	264.88
273.09	251.88
273.322	280.88
273.553	268.88
273.785	260.88
274.017	259.88
274.249	254.88
274.481	268.88
274.713	233.88
274.945	253.88
275.176	253.88
275.408	254.88
275.64	254.88
275.872	262.88
276.104	240.88
276.335	253.88
276.567	267.88
276.799	257.88
277.031	273.88
277.262	280.88
277.494	273.88
277.726	288.88
277.957	275.88
278.189	268.88
278.421	254.88
278.652	253.88
278.884	272.88
279.115	282.88
279.347	261.88
279.579	271.88
279.81	259.88
280.042	276.88
280.273	275.88
280.505	261.88
280.736	282.88
280.968	256.88
281.199	289.88
281.431	287.88
281.662	248.88
281.894	261.88
282.125	282.88
282.356	279.88
282.588	294.88
282.819	287.88
283.051	273.88
283.282	271.88
283.513	279.88
283.745	273.88
283.976	296.88
284.207	274.88
284.439	293.88
284.67	265.88
284.901	283.88
285.132	272.88
285.364	280.88
285.595	287.88
285.826	274.88
286.057	279.88
286.288	277.88
286.52	300.88
286.751	280.88
286.982	299.88
287.213	270.88
287.444	307.88
287.675	296.88
287.906	294.88
288.138	305.88
288.369	304.88
288.6	305.88
288.831	288.88
289.062	308.88
289.293	288.88
289.524	296.88
289.755	283.88
289.986	276.88
290.217	283.88
290.448	293.88
290.679	275.88
290.91	302.88
291.141	301.88
291.371	296.88
291.602	288.88
291.833	295.88
292.064	300.88
292.295	293.88
292.526	280.88
292.757	292.88
292.987	295.88
293.218	297.88
293.449	296.88
293.68	298.88
293.91	283.88
294.141	294.88
294.372	296.88
294.603	276.88
294.833	309.88
295.064	288.88
295.295	291.88
295.525	289.88
295.756	310.88
295.987	312.88
296.217	308.88
296.448	305.88
296.679	293.88
296.909	290.88
297.14	296.88
297.37	305.88
297.601	307.88
297.831	304.88
298.062	297.88
298.292	302.88
298.523	319.88
298.753	316.88
298.984	307.88
299.214	301.88
299.445	320.88
299.675	304.88
299.905	322.88
300.136	325.88
300.366	325.88
300.597	328.88
300.827	320.88
301.057	323.88
301.288	327.88
301.518	310.88
301.748	307.88
301.979	331.88
302.209	335.88
302.439	347.88
302.669	338.88
302.9	331.88
303.13	329.88
303.36	314.88
303.59	328.88
303.82	327.88
304.051	334.88
304.281	336.88
304.511	325.88
304.741	310.88
304.971	315.88
305.201	306.88
305.431	347.88
305.661	325.88
305.891	336.88
306.121	339.88
306.352	343.88
306.582	336.88
306.812	329.88
307.042	325.88
307.272	349.88
307.502	324.88
307.731	320.88
307.961	331.88
308.191	352.88
308.421	327.88
308.651	340.88
308.881	353.88
309.111	342.88
309.341	321.88
309.571	366.88
309.8	345.88
310.03	361.88
310.26	360.88
310.49	365.88
310.72	359.88
310.949	385.88
311.179	358.88
311.409	380.88
311.639	359.88
311.868	368.88
312.098	361.88
312.328	368.88
312.557	380.88
312.787	394.88
313.017	376.88
313.246	365.88
313.476	364.88
313.706	367.88
313.935	378.88
314.165	386.88
314.394	376.88
314.624	381.88
314.853	352.88
315.083	374.88
315.312	364.88
315.542	384.88
315.771	346.88
316.001	363.88
316.23	366.88
316.46	352.88
316.689	378.88
316.919	375.88
317.148	384.88
317.377	372.88
317.607	377.88
317.836	364.88
318.065	366.88
318.295	376.88
318.524	384.88
318.753	369.88
318.983	362.88
319.212	378.88
319.441	375.88
319.67	366.88
319.9	376.88
320.129	368.88
320.358	361.88
320.587	385.88
320.816	385.88
321.046	379.88
321.275	386.88
321.504	389.88
321.733	406.88
321.962	377.88
322.191	388.88
322.42	401.88
322.649	435.88
322.878	425.88
323.108	417.88
323.337	446.88
323.566	462.88
323.795	452.88
324.024	509.88
324.253	584.88
324.482	790.88
324.71	1134.88
324.939	1565.88
325.168	1336.88
325.397	727.88
325.626	549.88
325.855	460.88
326.084	458.88
326.313	462.88
326.542	463.88
326.77	500.88
326.999	579.88
327.228	739.88
327.457	984.88
327.686	1158.88
327.914	796.88
328.143	582.88
328.372	520.88
328.6	494.88
328.829	492.88
329.058	512.88
329.287	480.88
329.515	468.88
329.744	480.88
329.972	480.88
330.201	466.88
330.43	468.88
330.658	518.88
330.887	505.88
331.115	497.88
331.344	450.88
331.572	463.88
331.801	462.88
332.03	455.88
332.258	426.88
332.486	452.88
332.715	439.88
332.943	422.88
333.172	431.88
333.4	447.88
333.629	420.88
333.857	473.88
334.085	459.88
334.314	466.88
334.542	483.88
334.771	481.88
334.999	457.88
335.227	437.88
335.455	443.88
335.684	437.88
335.912	428.88
336.14	438.88
336.369	418.88
336.597	432.88
336.825	433.88
337.053	425.88
337.281	420.88
337.51	424.88
337.738	453.88
337.966	408.88
338.194	423.88
338.422	435.88
338.65	436.88
338.878	435.88
339.106	432.88
339.334	417.88
339.562	421.88
339.79	400.88
340.018	422.88
340.246	420.88
340.474	427.88
340.702	390.88
340.93	401.88
341.158	404.88
341.386	396.88
341.614	411.88
341.842	414.88
342.07	411.88
342.298	389.88
342.526	402.88
342.754	384.88
342.981	389.88
343.209	393.88
343.437	415.88
343.665	412.88
343.893	406.88
344.12	434.88
344.348	429.88
344.576	430.88
344.804	437.88
345.031	423.88
345.259	424.88
345.487	428.88
345.714	404.88
345.942	404.88
346.17	401.88
346.397	398.88
346.625	384.88
346.853	387.88
347.08	399.88
347.308	396.88
347.535	395.88
347.763	397.88
347.99	405.88
348.218	413.88
348.445	402.88
348.673	385.88
348.9	393.88
349.128	386.88
349.355	396.88
349.583	399.88
349.81	374.88
350.037	378.88
350.265	367.88
350.492	385.88
350.72	382.88
350.947	404.88
351.174	390.88
351.402	406.88
351.629	370.88
351.856	372.88
352.083	394.88
352.311	388.88
352.538	393.88
352.765	403.88
352.992	384.88
353.22	370.88
353.447	388.88
353.674	373.88
353.901	394.88
354.128	368.88
354.355	367.88
354.583	387.88
354.81	369.88
355.037	366.88
355.264	368.88
355.491	360.88
355.718	370.88
355.945	370.88
356.172	352.88
356.399	372.88
356.626	357.88
356.853	348.88
357.08	384.88
357.307	372.88
357.534	368.88
357.761	365.88
357.988	351.88
358.215	380.88
358.441	372.88
358.668	368.88
358.895	376.88
359.122	368.88
359.349	361.88
359.576	386.88
359.802	393.88
360.029	399.88
360.256	417.88
360.483	392.88
360.709	374.88
360.936	392.88
361.163	378.88
361.39	375.88
361.616	388.88
361.843	365.88
362.07	374.88
362.296	376.88
362.523	356.88
362.749	385.88
362.976	363.88
363.203	366.88
363.429	384.88
363.656	378.88
363.882	363.88
364.109	355.88
364.335	363.88
364.562	363.88
364.788	359.88
365.015	389.88
365.241	390.88
365.468	377.88
365.694	383.88
365.92	357.88
366.147	360.88
366.373	368.88
366.599	360.88
366.826	365.88
367.052	367.88
367.278	360.88
367.505	347.88
367.731	348.88
367.957	346.88
368.184	364.88
368.41	372.88
368.636	376.88
368.862	377.88
369.089	372.88
369.315	364.88
369.541	384.88
369.767	351.88
369.993	372.88
370.219	364.88
370.445	362.88
370.672	384.88
370.898	353.88
371.124	359.88
371.35	351.88
371.576	358.88
371.802	370.88
372.028	368.88
372.254	362.88
372.48	373.88
372.706	348.88
372.932	368.88
373.158	373.88
373.384	368.88
373.61	365.88
373.835	367.88
374.061	366.88
374.287	376.88
374.513	380.88
374.739	373.88
374.965	373.88
375.191	366.88
375.416	380.88
375.642	362.88
375.868	383.88
376.094	367.88
376.319	369.88
376.545	369.88
376.771	367.88
376.997	377.88
377.222	358.88
377.448	361.88
377.674	357.88
377.899	368.88
378.125	350.88
378.35	356.88
378.576	350.88
378.802	342.88
379.027	363.88
379.253	346.88
379.478	356.88
379.704	346.88
379.929	360.88
380.155	364.88
380.38	359.88
380.606	360.88
380.831	353.88
381.057	358.88
381.282	360.88
381.507	342.88
381.733	349.88
381.958	354.88
382.184	365.88
382.409	369.88
382.634	364.88
382.86	353.88
383.085	364.88
383.31	383.88
383.535	358.88
383.761	377.88
383.986	344.88
384.211	389.88
384.436	378.88
384.662	381.88
384.887	374.88
385.112	378.88
385.337	375.88
385.562	386.88
385.787	374.88
386.013	375.88
386.238	393.88
386.463	382.88
386.688	402.88
386.913	391.88
387.138	370.88
387.363	388.88
387.588	377.88
387.813	370.88
388.038	365.88
388.263	371.88
388.488	380.88
388.713	396.88
388.938	379.88
389.163	396.88
389.387	374.88
389.612	371.88
389.837	377.88
390.062	378.88
390.287	375.88
390.512	376.88
390.736	359.88
390.961	380.88
391.186	390.88
391.411	400.88
391.636	388.88
391.86	395.88
392.085	380.88
392.31	398.88
392.534	382.88
392.759	379.88
392.984	372.88
393.208	386.88
393.433	408.88
393.658	399.88
393.882	395.88
394.107	397.88
394.331	372.88
394.556	376.88
394.78	380.88
395.005	373.88
395.229	392.88
395.454	396.88
395.678	401.88
395.903	412.88
396.127	413.88
396.352	437.88
396.576	412.88
396.801	398.88
397.025	386.88
397.249	396.88
397.474	419.88
397.698	389.88
397.922	415.88
398.147	414.88
398.371	423.88
398.595	426.88
398.82	441.88
399.044	428.88
399.268	440.88
399.492	486.88
399.717	504.88
399.941	519.88
400.165	514.88
400.389	541.88
400.613	471.88
400.837	451.88
401.062	465.88
401.286	448.88
401.51	426.88
401.734	426.88
401.958	418.88
402.182	438.88
402.406	431.88
402.63	435.88
402.854	432.88
403.078	443.88
403.302	432.88
403.526	450.88
403.75	441.88
403.974	454.88
404.198	411.88
404.422	450.88
404.645	443.88
404.869	459.88
405.093	480.88
405.317	481.88
405.541	508.88
405.765	484.88
405.988	455.88
406.212	451.88
406.436	434.88
406.66	465.88
406.883	468.88
407.107	471.88
407.331	511.88
407.555	563.88
407.778	554.88
408.002	504.88
408.226	474.88
408.449	481.88
408.673	476.88
408.896	486.88
409.12	517.88
409.344	505.88
409.567	462.88
409.791	431.88
410.014	417.88
410.238	429.88
410.461	440.88
410.685	453.88
410.908	460.88
411.132	462.88
411.355	488.88
411.578	476.88
411.802	449.88
412.025	422.88
412.249	467.88
412.472	460.88
412.695	479.88
412.919	500.88
413.142	468.88
413.365	412.88
413.589	443.88
413.812	416.88
414.035	438.88
414.258	430.88
414.482	416.88
414.705	409.88
414.928	424.88
415.151	424.88
415.374	424.88
415.597	425.88
415.821	407.88
416.044	418.88
416.267	424.88
416.49	412.88
416.713	412.88
416.936	398.88
417.159	413.88
417.382	422.88
417.605	400.88
417.828	431.88
418.051	420.88
418.274	417.88
418.497	395.88
418.72	398.88
418.943	431.88
419.166	408.88
419.389	417.88
419.611	431.88
419.834	415.88
420.057	434.88
420.28	422.88
420.503	420.88
420.726	416.88
420.948	412.88
421.171	462.88
421.394	481.88
421.617	420.88
421.839	423.88
422.062	420.88
422.285	429.88
422.507	460.88
422.73	478.88
422.953	501.88
423.175	465.88
423.398	414.88
423.621	420.88
423.843	439.88
424.066	422.88
424.288	455.88
424.511	464.88
424.733	500.88
424.956	542.88
425.178	520.88
425.401	524.88
425.623	529.88
425.846	482.88
426.068	462.88
426.291	441.88
426.513	445.88
426.735	451.88
426.958	474.88
427.18	531.88
427.402	643.88
427.625	661.88
427.847	577.88
428.069	493.88
428.292	461.88
428.514	420.88
428.736	430.88
428.958	430.88
429.181	402.88
429.403	386.88
429.625	430.88
429.847	447.88
430.069	472.88
430.292	488.88
430.514	424.88
430.736	402.88
430.958	408.88
431.18	412.88
431.402	409.88
431.624	382.88
431.846	404.88
432.068	376.88
432.29	392.88
432.512	385.88
432.734	385.88
432.956	404.88
433.178	392.88
433.4	410.88
433.622	389.88
433.844	413.88
434.066	402.88
434.287	395.88
434.509	413.88
434.731	424.88
434.953	400.88
435.175	385.88
435.397	426.88
435.618	434.88
435.84	475.88
436.062	536.88
436.284	588.88
436.505	473.88
436.727	459.88
436.949	428.88
437.17	404.88
437.392	426.88
437.614	432.88
437.835	437.88
438.057	494.88
438.278	553.88
438.5	561.88
438.721	631.88
438.943	614.88
439.165	494.88
439.386	475.88
439.608	453.88
439.829	434.88
440.05	450.88
440.272	470.88
440.493	471.88
440.715	451.88
440.936	411.88
441.158	441.88
441.379	404.88
441.6	402.88
441.822	450.88
442.043	473.88
442.264	532.88
442.486	534.88
442.707	485.88
442.928	441.88
443.149	449.88
443.371	463.88
443.592	477.88
443.813	577.88
444.034	604.88
444.255	528.88
444.476	461.88
444.698	424.88
444.919	428.88
445.14	512.88
445.361	478.88
445.582	484.88
445.803	515.88
446.024	568.88
446.245	578.88
446.466	534.88
446.687	454.88
446.908	429.88
447.129	415.88
447.35	407.88
447.571	404.88
447.792	398.88
448.013	416.88
448.234	441.88
448.455	438.88
448.675	537.88
448.896	597.88
449.117	502.88
449.338	509.88
449.559	587.88
449.779	626.88
450	509.88
450.221	454.88
450.442	431.88
450.662	394.88
450.883	381.88
451.104	378.88
451.324	385.88
451.545	377.88
451.766	378.88
451.986	354.88
452.207	360.88
452.428	343.88
452.648	366.88
452.869	372.88
453.089	380.88
453.31	375.88
453.53	389.88
453.751	358.88
453.971	367.88
454.192	359.88
454.412	370.88
454.633	351.88
454.853	351.88
455.073	354.88
455.294	387.88
455.514	424.88
455.734	412.88
455.955	364.88
456.175	363.88
456.395	350.88
456.616	337.88
456.836	356.88
457.056	359.88
457.276	340.88
457.497	347.88
457.717	331.88
457.937	342.88
458.157	358.88
458.377	353.88
458.598	372.88
458.818	416.88
459.038	445.88
459.258	468.88
459.478	426.88
459.698	406.88
459.918	407.88
460.138	393.88
460.358	389.88
460.578	392.88
460.798	392.88
461.018	404.88
461.238	422.88
461.458	388.88
461.678	390.88
461.898	395.88
462.118	394.88
462.338	418.88
462.558	423.88
462.777	426.88
462.997	437.88
463.217	452.88
463.437	443.88
463.657	428.88
463.876	436.88
464.096	425.88
464.316	423.88
464.536	403.88
464.755	402.88
464.975	426.88
465.195	437.88
465.414	470.88
465.634	443.88
465.854	423.88
466.073	403.88
466.293	380.88
466.512	387.88
466.732	398.88
466.951	376.88
467.171	376.88
467.391	367.88
467.61	379.88
467.829	394.88
468.049	377.88
468.268	376.88
468.488	373.88
468.707	365.88
468.927	381.88
469.146	367.88
469.365	378.88
469.585	382.88
469.804	371.88
470.023	366.88
470.243	376.88
470.462	392.88
470.681	380.88
470.901	374.88
471.12	385.88
471.339	380.88
471.558	396.88
471.777	396.88
471.997	385.88
472.216	390.88
472.435	406.88
472.654	375.88
472.873	393.88
473.092	392.88
473.311	379.88
473.53	381.88
473.749	394.88
473.968	436.88
474.187	488.88
474.406	501.88
474.625	414.88
474.844	413.88
475.063	389.88
475.282	404.88
475.501	401.88
475.72	425.88
475.939	389.88
476.158	378.88
476.377	383.88
476.596	382.88
476.814	402.88
477.033	405.88
477.252	398.88
477.471	430.88
477.69	408.88
477.908	420.88
478.127	411.88
478.346	407.88
478.564	436.88
478.783	422.88
479.002	437.88
479.22	429.88
479.439	450.88
479.658	424.88
479.876	453.88
480.095	446.88
480.313	466.88
480.532	479.88
480.751	481.88
480.969	455.88
481.188	495.88
481.406	505.88
481.624	464.88
481.843	459.88
482.061	438.88
482.28	424.88
482.498	442.88
482.717	438.88
482.935	436.88
483.153	450.88
483.372	427.88
483.59	415.88
483.808	442.88
484.027	436.88
484.245	421.88
484.463	442.88
484.681	453.88
484.9	447.88
485.118	441.88
485.336	436.88
485.554	465.88
485.772	466.88
485.99	472.88
486.209	449.88
486.427	434.88
486.645	489.88
486.863	469.88
487.081	484.88
487.299	465.88
487.517	464.88
487.735	473.88
487.953	476.88
488.171	454.88
488.389	481.88
488.607	465.88
488.825	473.88
489.043	458.88
489.261	478.88
489.479	474.88
489.696	467.88
489.914	485.88
490.132	496.88
490.35	478.88
490.568	500.88
490.786	478.88
491.003	488.88
491.221	518.88
491.439	508.88
491.657	518.88
491.874	526.88
492.092	519.88
492.31	514.88
492.527	524.88
492.745	504.88
492.963	528.88
493.18	526.88
493.398	517.88
493.615	537.88
493.833	529.88
494.05	556.88
494.268	554.88
494.485	538.88
494.703	546.88
494.92	534.88
495.138	521.88
495.355	550.88
495.573	556.88
495.79	532.88
496.008	532.88
496.225	525.88
496.442	544.88
496.66	550.88
496.877	559.88
497.094	566.88
497.312	554.88
497.529	545.88
497.746	564.88
497.963	576.88
498.181	598.88
498.398	596.88
498.615	585.88
498.832	636.88
499.049	641.88
499.267	631.88
499.484	668.88
499.701	693.88
499.918	728.88
500.135	737.88
500.352	760.88
500.569	772.88
500.786	763.88
501.003	760.88
501.22	747.88
501.437	732.88
501.654	701.88
501.871	689.88
502.088	680.88
502.305	682.88
502.522	633.88
502.739	625.88
502.956	586.88
503.172	570.88
503.389	584.88
503.606	562.88
503.823	570.88
504.04	565.88
504.256	554.88
504.473	550.88
504.69	542.88
504.907	554.88
505.123	544.88
505.34	537.88
505.557	535.88
505.773	529.88
505.99	506.88
506.207	524.88
506.423	514.88
506.64	508.88
506.856	522.88
507.073	490.88
507.289	496.88
507.506	512.88
507.722	527.88
507.939	514.88
508.155	480.88
508.372	500.88
508.588	485.88
508.805	466.88
509.021	469.88
509.238	504.88
509.454	487.88
509.67	517.88
509.887	493.88
510.103	503.88
510.319	487.88
510.536	542.88
510.752	804.88
510.968	643.88
511.184	490.88
511.401	481.88
511.617	477.88
511.833	484.88
512.049	456.88
512.265	461.88
512.481	446.88
512.698	458.88
512.914	450.88
513.13	456.88
513.346	449.88
513.562	460.88
513.778	465.88
513.994	460.88
514.21	479.88
514.426	468.88
514.642	513.88
514.858	514.88
515.074	537.88
515.29	623.88
515.506	797.88
515.721	676.88
515.937	523.88
516.153	492.88
516.369	502.88
516.585	506.88
516.801	478.88
517.016	504.88
517.232	512.88
517.448	466.88
517.664	488.88
517.879	483.88
518.095	470.88
518.311	465.88
518.527	477.88
518.742	488.88
518.958	466.88
519.173	484.88
519.389	442.88
519.605	463.88
519.82	458.88
520.036	463.88
520.251	483.88
520.467	476.88
520.682	506.88
520.898	490.88
521.113	504.88
521.329	500.88
521.544	571.88
521.76	656.88
521.975	983.88
522.19	956.88
522.406	621.88
522.621	506.88
522.836	460.88
523.052	451.88
523.267	457.88
523.482	432.88
523.698	424.88
523.913	434.88
524.128	425.88
524.343	404.88
524.559	415.88
524.774	406.88
524.989	420.88
525.204	429.88
525.419	408.88
525.634	397.88
525.849	402.88
526.064	411.88
526.28	392.88
526.495	388.88
526.71	391.88
526.925	377.88
527.14	400.88
527.355	368.88
527.57	387.88
527.785	406.88
527.999	384.88
528.214	383.88
528.429	407.88
528.644	398.88
528.859	385.88
529.074	400.88
529.289	397.88
529.503	454.88
529.718	428.88
529.933	412.88
530.148	394.88
530.363	387.88
530.577	395.88
530.792	390.88
531.007	372.88
531.221	381.88
531.436	388.88
531.651	401.88
531.865	379.88
532.08	383.88
532.295	382.88
532.509	370.88
532.724	357.88
532.938	391.88
533.153	368.88
533.367	378.88
533.582	372.88
533.796	372.88
534.011	366.88
534.225	379.88
534.44	376.88
534.654	362.88
534.868	364.88
535.083	364.88
535.297	367.88
535.511	367.88
535.726	362.88
535.94	367.88
536.154	384.88
536.369	381.88
536.583	368.88
536.797	363.88
537.011	370.88
537.225	346.88
537.44	362.88
537.654	348.88
537.868	340.88
538.082	370.88
538.296	384.88
538.51	364.88
538.724	361.88
538.938	362.88
539.153	366.88
539.367	349.88
539.581	378.88
539.795	343.88
540.009	362.88
540.222	360.88
540.436	351.88
540.65	364.88
540.864	375.88
541.078	351.88
541.292	365.88
541.506	374.88
541.72	373.88
541.934	361.88
542.147	362.88
542.361	352.88
542.575	357.88
542.789	366.88
543.002	356.88
543.216	348.88
543.43	363.88
543.644	363.88
543.857	359.88
544.071	352.88
544.285	376.88
544.498	364.88
544.712	362.88
544.925	373.88
545.139	368.88
545.352	366.88
545.566	352.88
545.779	352.88
545.993	357.88
546.206	358.88
546.42	349.88
546.633	348.88
546.847	344.88
547.06	343.88
547.274	342.88
547.487	362.88
547.7	349.88
547.914	358.88
548.127	352.88
548.34	339.88
548.554	360.88
548.767	352.88
548.98	348.88
549.193	361.88
549.407	342.88
549.62	351.88
549.833	338.88
550.046	334.88
550.259	358.88
550.473	353.88
550.686	337.88
550.899	341.88
551.112	323.88
551.325	349.88
551.538	345.88
551.751	345.88
551.964	337.88
552.177	329.88
552.39	349.88
552.603	347.88
552.816	350.88
553.029	330.88
553.242	356.88
553.455	340.88
553.667	336.88
553.88	362.88
554.093	370.88
554.306	362.88
554.519	351.88
554.732	349.88
554.944	341.88
555.157	336.88
555.37	317.88
555.583	334.88
555.795	331.88
556.008	330.88
556.221	329.88
556.433	325.88
556.646	322.88
556.859	322.88
557.071	308.88
557.284	311.88
557.496	319.88
557.709	323.88
557.921	318.88
558.134	311.88
558.346	320.88
558.559	318.88
558.771	285.88
558.984	303.88
559.196	313.88
559.409	312.88
559.621	316.88
559.833	311.88
560.046	310.88
560.258	299.88
560.47	314.88
560.683	312.88
560.895	294.88
561.107	290.88
561.32	313.88
561.532	306.88
561.744	306.88
561.956	296.88
562.168	312.88
562.381	296.88
562.593	298.88
562.805	305.88
563.017	330.88
563.229	309.88
563.441	308.88
563.653	308.88
563.865	306.88
564.077	324.88
564.289	305.88
564.501	310.88
564.713	316.88
564.925	320.88
565.137	320.88
565.349	330.88
565.561	322.88
565.773	344.88
565.985	358.88
566.197	350.88
566.408	386.88
566.62	380.88
566.832	367.88
567.044	382.88
567.255	390.88
567.467	392.88
567.679	372.88
567.891	398.88
568.102	394.88
568.314	381.88
568.526	368.88
568.737	330.88
568.949	332.88
569.161	349.88
569.372	336.88
569.584	323.88
569.795	314.88
570.007	310.88
570.218	333.88
570.43	346.88
570.641	325.88
570.853	302.88
571.064	299.88
571.276	289.88
571.487	304.88
571.698	286.88
571.91	293.88
572.121	293.88
572.333	283.88
572.544	312.88
572.755	271.88
572.966	286.88
573.178	289.88
573.389	281.88
573.6	295.88
573.811	272.88
574.023	267.88
574.234	279.88
574.445	275.88
574.656	278.88
574.867	282.88
575.078	260.88
575.289	276.88
575.501	294.88
575.712	269.88
575.923	273.88
576.134	263.88
576.345	281.88
576.556	261.88
576.767	260.88
576.978	271.88
577.188	268.88
577.399	254.88
577.61	261.88
577.821	260.88
578.032	262.88
578.243	272.88
578.454	390.88
578.665	345.88
578.875	248.88
579.086	261.88
579.297	261.88
579.508	267.88
579.718	284.88
579.929	262.88
580.14	252.88
580.35	254.88
580.561	256.88
580.772	244.88
580.982	255.88
581.193	264.88
581.403	242.88
581.614	264.88
581.825	241.88
582.035	241.88
582.246	253.88
582.456	256.88
582.667	256.88
582.877	255.88
583.087	250.88
583.298	231.88
583.508	235.88
583.719	247.88
583.929	247.88
584.139	245.88
584.35	248.88
584.56	258.88
584.77	253.88
584.981	223.88
585.191	234.88
585.401	222.88
585.611	253.88
585.821	255.88
586.032	258.88
586.242	240.88
586.452	238.88
586.662	232.88
586.872	249.88
587.082	248.88
587.292	241.88
587.502	237.88
587.713	229.88
587.923	244.88
588.133	244.88
588.343	241.88
588.553	253.88
588.762	246.88
588.972	255.88
589.182	279.88
589.392	265.88
589.602	233.88
589.812	268.88
590.022	264.88
590.232	228.88
590.441	233.88
590.651	240.88
590.861	250.88
591.071	230.88
591.281	221.88
591.49	249.88
591.7	235.88
591.91	237.88
592.119	263.88
592.329	264.88
592.539	264.88
592.748	245.88
592.958	256.88
593.167	252.88
593.377	234.88
593.587	253.88
593.796	254.88
594.006	277.88
594.215	240.88
594.424	268.88
594.634	250.88
594.843	252.88
595.053	236.88
595.262	250.88
595.472	246.88
595.681	246.88
595.89	229.88
596.1	223.88
596.309	225.88
596.518	236.88
596.727	232.88
596.937	223.88
597.146	226.88
597.355	224.88
597.564	236.88
597.774	215.88
597.983	236.88
598.192	216.88
598.401	224.88
598.61	215.88
598.819	238.88
599.028	221.88
599.237	202.88
599.446	208.88
599.655	213.88
599.864	230.88
600.073	210.88
600.282	215.88
600.491	228.88
600.7	205.88
600.909	207.88
601.118	217.88
601.327	217.88
601.536	221.88
601.745	204.88
601.953	219.88
602.162	217.88
602.371	210.88
602.58	215.88
602.789	206.88
602.997	198.88
603.206	189.88
603.415	204.88
603.623	202.88
603.832	200.88
604.041	192.88
604.249	186.88
604.458	190.88
604.666	199.88
604.875	183.88
605.084	208.88
605.292	202.88
605.501	198.88
605.709	210.88
605.918	184.88
606.126	201.88
606.334	212.88
606.543	200.88
606.751	217.88
606.96	203.88
607.168	190.88
607.376	197.88
607.585	197.88
607.793	212.88
608.001	200.88
608.21	197.88
608.418	189.88
608.626	209.88
608.834	200.88
609.043	200.88
609.251	197.88
609.459	190.88
609.667	185.88
609.875	200.88
610.083	214.88
610.291	208.88
610.499	213.88
610.707	201.88
610.916	201.88
611.124	211.88
611.332	189.88
611.54	199.88
611.748	183.88
611.955	208.88
612.163	188.88
612.371	207.88
612.579	187.88
612.787	187.88
612.995	193.88
613.203	199.88
613.411	175.88
613.618	202.88
613.826	199.88
614.034	182.88
614.242	187.88
614.449	190.88
614.657	182.88
614.865	198.88
615.072	197.88
615.28	195.88
615.488	192.88
615.695	190.88
615.903	178.88
616.111	221.88
616.318	208.88
616.526	198.88
616.733	207.88
616.941	194.88
617.148	193.88
617.356	205.88
617.563	181.88
617.771	193.88
617.978	198.88
618.185	195.88
618.393	183.88
618.6	196.88
618.807	188.88
619.015	201.88
619.222	181.88
619.429	190.88
619.637	204.88
619.844	207.88
620.051	188.88
620.258	173.88
620.466	179.88
620.673	189.88
620.88	184.88
621.087	170.88
621.294	193.88
621.501	175.88
621.708	200.88
621.915	180.88
622.122	186.88
622.329	184.88
622.536	188.88
622.743	181.88
622.95	196.88
623.157	172.88
623.364	173.88
623.571	196.88
623.778	181.88
623.985	188.88
624.192	166.88
624.399	161.88
624.606	176.88
624.812	185.88
625.019	187.88
625.226	189.88
625.433	174.88
625.639	183.88
625.846	181.88
626.053	183.88
626.259	184.88
626.466	188.88
626.673	171.88
626.879	164.88
627.086	173.88
627.293	170.88
627.499	183.88
627.706	185.88
627.912	167.88
628.119	166.88
628.325	178.88
628.532	158.88
628.738	172.88
628.945	158.88
629.151	164.88
629.357	174.88
629.564	166.88
629.77	161.88
629.976	170.88
630.183	160.88
630.389	166.88
630.595	168.88
630.802	149.88
631.008	156.88
631.214	156.88
631.42	174.88
631.627	157.88
631.833	178.88
632.039	159.88
632.245	174.88
632.451	153.88
632.657	160.88
632.863	154.88
633.069	168.88
633.275	159.88
633.481	160.88
633.688	156.88
633.893	157.88
634.099	171.88
634.305	164.88
634.511	159.88
634.717	153.88
634.923	155.88
635.129	167.88
635.335	155.88
635.541	162.88
635.747	161.88
635.952	165.88
636.158	153.88
636.364	142.88
636.57	159.88
636.775	160.88
636.981	173.88
637.187	157.88
637.392	167.88
637.598	159.88
637.804	152.88
638.009	169.88
638.215	155.88
638.421	146.88
638.626	148.88
638.832	158.88
639.037	149.88
639.243	133.88
639.448	152.88
639.654	144.88
639.859	149.88
640.065	148.88
640.27	149.88
640.475	149.88
640.681	151.88
640.886	143.88
641.091	161.88
641.297	167.88
641.502	152.88
641.707	149.88
641.913	139.88
642.118	145.88
642.323	153.88
642.528	153.88
642.733	156.88
642.939	153.88
643.144	157.88
643.349	134.88
643.554	148.88
643.759	140.88
643.964	135.88
644.169	138.88
644.374	149.88
644.579	149.88
644.784	140.88
644.989	142.88
645.194	161.88
645.399	152.88
645.604	149.88
645.809	149.88
646.014	135.88
646.219	136.88
646.423	150.88
646.628	142.88
646.833	137.88
647.038	147.88
647.243	158.88
647.447	144.88
647.652	155.88
647.857	143.88
648.062	151.88
648.266	164.88
648.471	154.88
648.676	154.88
648.88	146.88
649.085	146.88
649.289	147.88
649.494	157.88
649.698	164.88
649.903	161.88
650.107	143.88
650.312	153.88
650.516	140.88
650.721	136.88
650.925	137.88
651.13	129.88
651.334	143.88
651.539	134.88
651.743	133.88
651.947	127.88
652.152	131.88
652.356	127.88
652.56	136.88
652.764	127.88
652.969	122.88
653.173	125.88
653.377	150.88
653.581	140.88
653.785	120.88
653.99	138.88
654.194	134.88
654.398	136.88
654.602	128.88
654.806	114.88
655.01	140.88
655.214	128.88
655.418	142.88
655.622	118.88
655.826	136.88
656.03	116.88
656.234	125.88
656.438	132.88
656.642	132.88
656.846	133.88
657.049	124.88
657.253	134.88
657.457	120.88
657.661	112.88
657.865	109.88
658.068	109.88
658.272	120.88
658.476	110.88
658.68	116.88
658.883	107.88
659.087	106.88
659.291	103.88
659.494	100.88
659.698	89.88
659.901	97.88
660.105	90.88
660.309	95.88
660.512	106.88
660.716	93.88
660.919	104.88
661.123	95.88
661.326	97.88
661.53	103.88
661.733	90.88
661.936	104.88
662.14	80.88
662.343	80.88
662.546	95.88
662.75	92.88
662.953	78.88
663.156	89.88
663.36	85.88
663.563	92.88
663.766	81.88
663.969	81.88
664.173	85.88
664.376	91.88
664.579	76.88
664.782	62.88
664.985	66.88
665.188	77.88
665.391	90.88
665.594	90.88
665.797	82.88
666	87.88
666.203	99.88
666.406	69.88
666.609	80.88
666.812	93.88
667.015	85.88
667.218	93.88
667.421	91.88
667.624	97.88
667.827	88.88
668.03	64.88
668.232	89.88
668.435	87.88
668.638	95.88
668.841	87.88
669.043	92.88
669.246	80.88
669.449	76.88
669.651	87.88
669.854	99.88
670.057	88.88
670.259	93.88
670.462	89.88
670.665	83.88
670.867	77.88
671.07	83.88
671.272	102.88
671.475	83.88
671.677	96.88
671.88	87.88
672.082	78.88
672.284	89.88
672.487	105.88
672.689	69.88
672.892	75.88
