Data from 1960PennyLincolnUp.LampE5.5.200Scan.07172019.P1.ChangedAngle_HRD10591_13-14-41-821.txt Node
Date: Thu Jul 18 13:14:41 EDT 2019
User: cochatt
Spectrometer: HR+D1059
Trigger mode: 1
Integration Time (sec): 1.000000E-1
Scans to average: 1
Electric dark correction enabled: true
Nonlinearity correction enabled: false
Boxcar width: 0
XAxis mode: Wavelengths
Number of Pixels in Spectrum: 2048
>>>>>Begin Spectral Data<<<<<
223.165	-1.62
223.4	-1.62
223.635	-1.62
223.869	-2.62
224.104	-15.62
224.338	-31.62
224.573	-2.62
224.808	-2.62
225.042	-3.62
225.277	-5.62
225.511	8.38
225.746	-5.62
225.98	9.38
226.215	2.38
226.449	11.38
226.683	-10.62
226.918	28.38
227.152	22.38
227.387	37.38
227.621	41.38
227.856	43.38
228.09	46.38
228.324	39.38
228.559	55.38
228.793	73.38
229.027	89.38
229.262	99.38
229.496	111.38
229.73	110.38
229.964	126.38
230.199	112.38
230.433	103.38
230.667	115.38
230.901	106.38
231.136	126.38
231.37	123.38
231.604	117.38
231.838	111.38
232.072	116.38
232.306	99.38
232.541	113.38
232.775	114.38
233.009	112.38
233.243	108.38
233.477	111.38
233.711	107.38
233.945	110.38
234.179	116.38
234.413	113.38
234.647	107.38
234.881	115.38
235.115	114.38
235.349	133.38
235.583	115.38
235.817	125.38
236.051	119.38
236.285	119.38
236.519	127.38
236.753	121.38
236.987	118.38
237.221	159.38
237.455	190.38
237.689	140.38
237.922	128.38
238.156	126.38
238.39	116.38
238.624	118.38
238.858	109.38
239.091	103.38
239.325	118.38
239.559	119.38
239.793	116.38
240.027	121.38
240.26	130.38
240.494	141.38
240.728	144.38
240.961	142.38
241.195	129.38
241.429	127.38
241.662	114.38
241.896	119.38
242.13	123.38
242.363	119.38
242.597	133.38
242.83	141.38
243.064	115.38
243.298	133.38
243.531	124.38
243.765	143.38
243.998	125.38
244.232	134.38
244.465	143.38
244.699	147.38
244.932	147.38
245.166	157.38
245.399	162.38
245.633	137.38
245.866	134.38
246.099	142.38
246.333	147.38
246.566	136.38
246.8	144.38
247.033	144.38
247.266	149.38
247.5	142.38
247.733	172.38
247.966	176.38
248.2	154.38
248.433	174.38
248.666	182.38
248.899	180.38
249.133	170.38
249.366	186.38
249.599	175.38
249.832	168.38
250.066	184.38
250.299	171.38
250.532	167.38
250.765	180.38
250.998	187.38
251.231	205.38
251.465	221.38
251.698	186.38
251.931	181.38
252.164	185.38
252.397	192.38
252.63	202.38
252.863	190.38
253.096	185.38
253.329	183.38
253.562	206.38
253.795	185.38
254.028	206.38
254.261	193.38
254.494	213.38
254.727	210.38
254.96	227.38
255.193	203.38
255.426	208.38
255.659	202.38
255.892	227.38
256.124	205.38
256.357	199.38
256.59	207.38
256.823	194.38
257.056	202.38
257.289	210.38
257.521	197.38
257.754	203.38
257.987	199.38
258.22	205.38
258.452	196.38
258.685	205.38
258.918	199.38
259.151	198.38
259.383	195.38
259.616	222.38
259.849	208.38
260.081	210.38
260.314	215.38
260.547	234.38
260.779	215.38
261.012	223.38
261.244	217.38
261.477	195.38
261.71	215.38
261.942	215.38
262.175	232.38
262.407	205.38
262.64	205.38
262.872	193.38
263.105	197.38
263.337	208.38
263.57	212.38
263.802	200.38
264.035	207.38
264.267	215.38
264.499	207.38
264.732	207.38
264.964	208.38
265.197	220.38
265.429	210.38
265.661	204.38
265.894	204.38
266.126	217.38
266.358	220.38
266.591	202.38
266.823	228.38
267.055	213.38
267.287	213.38
267.52	219.38
267.752	223.38
267.984	216.38
268.216	220.38
268.448	232.38
268.681	229.38
268.913	249.38
269.145	235.38
269.377	249.38
269.609	262.38
269.841	235.38
270.073	247.38
270.306	284.38
270.538	265.38
270.77	268.38
271.002	269.38
271.234	257.38
271.466	281.38
271.698	281.38
271.93	281.38
272.162	284.38
272.394	274.38
272.626	272.38
272.858	252.38
273.09	249.38
273.322	239.38
273.553	255.38
273.785	251.38
274.017	257.38
274.249	264.38
274.481	256.38
274.713	269.38
274.945	268.38
275.176	257.38
275.408	259.38
275.64	266.38
275.872	266.38
276.104	263.38
276.335	265.38
276.567	244.38
276.799	279.38
277.031	285.38
277.262	290.38
277.494	292.38
277.726	278.38
277.957	268.38
278.189	280.38
278.421	271.38
278.652	256.38
278.884	251.38
279.115	264.38
279.347	255.38
279.579	274.38
279.81	267.38
280.042	271.38
280.273	265.38
280.505	245.38
280.736	265.38
280.968	250.38
281.199	288.38
281.431	265.38
281.662	266.38
281.894	273.38
282.125	274.38
282.356	301.38
282.588	290.38
282.819	301.38
283.051	265.38
283.282	249.38
283.513	298.38
283.745	271.38
283.976	280.38
284.207	299.38
284.439	287.38
284.67	259.38
284.901	288.38
285.132	299.38
285.364	284.38
285.595	283.38
285.826	271.38
286.057	285.38
286.288	290.38
286.52	283.38
286.751	296.38
286.982	296.38
287.213	277.38
287.444	283.38
287.675	289.38
287.906	289.38
288.138	293.38
288.369	303.38
288.6	284.38
288.831	292.38
289.062	285.38
289.293	286.38
289.524	281.38
289.755	286.38
289.986	298.38
290.217	291.38
290.448	288.38
290.679	287.38
290.91	299.38
291.141	277.38
291.371	298.38
291.602	295.38
291.833	289.38
292.064	299.38
292.295	299.38
292.526	311.38
292.757	297.38
292.987	285.38
293.218	262.38
293.449	299.38
293.68	289.38
293.91	265.38
294.141	291.38
294.372	286.38
294.603	305.38
294.833	297.38
295.064	292.38
295.295	290.38
295.525	301.38
295.756	291.38
295.987	298.38
296.217	297.38
296.448	298.38
296.679	311.38
296.909	292.38
297.14	314.38
297.37	297.38
297.601	301.38
297.831	304.38
298.062	307.38
298.292	305.38
298.523	320.38
298.753	314.38
298.984	312.38
299.214	312.38
299.445	298.38
299.675	331.38
299.905	298.38
300.136	308.38
300.366	306.38
300.597	295.38
300.827	321.38
301.057	330.38
301.288	335.38
301.518	312.38
301.748	320.38
301.979	318.38
302.209	330.38
302.439	322.38
302.669	323.38
302.9	327.38
303.13	324.38
303.36	318.38
303.59	331.38
303.82	346.38
304.051	344.38
304.281	321.38
304.511	334.38
304.741	327.38
304.971	328.38
305.201	324.38
305.431	340.38
305.661	326.38
305.891	337.38
306.121	317.38
306.352	323.38
306.582	360.38
306.812	329.38
307.042	327.38
307.272	328.38
307.502	333.38
307.731	332.38
307.961	328.38
308.191	327.38
308.421	313.38
308.651	332.38
308.881	342.38
309.111	338.38
309.341	319.38
309.571	341.38
309.8	344.38
310.03	336.38
310.26	350.38
310.49	347.38
310.72	364.38
310.949	364.38
311.179	362.38
311.409	357.38
311.639	345.38
311.868	351.38
312.098	334.38
312.328	356.38
312.557	369.38
312.787	377.38
313.017	368.38
313.246	365.38
313.476	349.38
313.706	346.38
313.935	377.38
314.165	372.38
314.394	393.38
314.624	383.38
314.853	369.38
315.083	369.38
315.312	366.38
315.542	377.38
315.771	367.38
316.001	364.38
316.23	362.38
316.46	346.38
316.689	369.38
316.919	369.38
317.148	373.38
317.377	371.38
317.607	393.38
317.836	366.38
318.065	383.38
318.295	361.38
318.524	383.38
318.753	375.38
318.983	375.38
319.212	372.38
319.441	377.38
319.67	367.38
319.9	383.38
320.129	372.38
320.358	371.38
320.587	378.38
320.816	379.38
321.046	378.38
321.275	401.38
321.504	380.38
321.733	385.38
321.962	383.38
322.191	392.38
322.42	394.38
322.649	409.38
322.878	411.38
323.108	403.38
323.337	427.38
323.566	446.38
323.795	420.38
324.024	481.38
324.253	570.38
324.482	739.38
324.71	1047.38
324.939	1354.38
325.168	1160.38
325.397	668.38
325.626	520.38
325.855	460.38
326.084	426.38
326.313	430.38
326.542	463.38
326.77	447.38
326.999	526.38
327.228	683.38
327.457	925.38
327.686	1033.38
327.914	743.38
328.143	577.38
328.372	503.38
328.6	495.38
328.829	476.38
329.058	474.38
329.287	458.38
329.515	453.38
329.744	463.38
329.972	453.38
330.201	452.38
330.43	479.38
330.658	492.38
330.887	497.38
331.115	457.38
331.344	457.38
331.572	424.38
331.801	434.38
332.03	436.38
332.258	444.38
332.486	433.38
332.715	423.38
332.943	417.38
333.172	440.38
333.4	447.38
333.629	451.38
333.857	451.38
334.085	452.38
334.314	467.38
334.542	470.38
334.771	455.38
334.999	468.38
335.227	451.38
335.455	431.38
335.684	434.38
335.912	456.38
336.14	450.38
336.369	446.38
336.597	436.38
336.825	417.38
337.053	431.38
337.281	424.38
337.51	444.38
337.738	411.38
337.966	428.38
338.194	419.38
338.422	430.38
338.65	413.38
338.878	407.38
339.106	412.38
339.334	426.38
339.562	409.38
339.79	405.38
340.018	407.38
340.246	409.38
340.474	404.38
340.702	403.38
340.93	379.38
341.158	393.38
341.386	409.38
341.614	408.38
341.842	405.38
342.07	385.38
342.298	418.38
342.526	402.38
342.754	414.38
342.981	397.38
343.209	415.38
343.437	403.38
343.665	427.38
343.893	419.38
344.12	433.38
344.348	420.38
344.576	410.38
344.804	415.38
345.031	396.38
345.259	410.38
345.487	418.38
345.714	408.38
345.942	388.38
346.17	375.38
346.397	388.38
346.625	388.38
346.853	394.38
347.08	383.38
347.308	377.38
347.535	410.38
347.763	385.38
347.99	402.38
348.218	381.38
348.445	388.38
348.673	394.38
348.9	410.38
349.128	385.38
349.355	375.38
349.583	393.38
349.81	384.38
350.037	371.38
350.265	376.38
350.492	379.38
350.72	384.38
350.947	359.38
351.174	392.38
351.402	394.38
351.629	401.38
351.856	382.38
352.083	399.38
352.311	393.38
352.538	405.38
352.765	400.38
352.992	389.38
353.22	374.38
353.447	376.38
353.674	359.38
353.901	359.38
354.128	360.38
354.355	355.38
354.583	344.38
354.81	367.38
355.037	365.38
355.264	354.38
355.491	362.38
355.718	357.38
355.945	343.38
356.172	371.38
356.399	371.38
356.626	330.38
356.853	364.38
357.08	356.38
357.307	375.38
357.534	373.38
357.761	353.38
357.988	360.38
358.215	361.38
358.441	376.38
358.668	359.38
358.895	375.38
359.122	360.38
359.349	363.38
359.576	370.38
359.802	386.38
360.029	404.38
360.256	403.38
360.483	405.38
360.709	390.38
360.936	385.38
361.163	370.38
361.39	372.38
361.616	373.38
361.843	404.38
362.07	375.38
362.296	372.38
362.523	389.38
362.749	367.38
362.976	362.38
363.203	370.38
363.429	340.38
363.656	361.38
363.882	383.38
364.109	350.38
364.335	375.38
364.562	361.38
364.788	359.38
365.015	368.38
365.241	348.38
365.468	351.38
365.694	385.38
365.92	368.38
366.147	363.38
366.373	372.38
366.599	370.38
366.826	359.38
367.052	345.38
367.278	351.38
367.505	371.38
367.731	364.38
367.957	383.38
368.184	367.38
368.41	370.38
368.636	373.38
368.862	374.38
369.089	368.38
369.315	361.38
369.541	354.38
369.767	367.38
369.993	353.38
370.219	355.38
370.445	352.38
370.672	348.38
370.898	370.38
371.124	363.38
371.35	372.38
371.576	357.38
371.802	361.38
372.028	365.38
372.254	371.38
372.48	375.38
372.706	367.38
372.932	367.38
373.158	372.38
373.384	390.38
373.61	369.38
373.835	365.38
374.061	373.38
374.287	376.38
374.513	354.38
374.739	371.38
374.965	385.38
375.191	368.38
375.416	374.38
375.642	373.38
375.868	375.38
376.094	370.38
376.319	375.38
376.545	366.38
376.771	375.38
376.997	364.38
377.222	345.38
377.448	359.38
377.674	367.38
377.899	356.38
378.125	357.38
378.35	354.38
378.576	357.38
378.802	364.38
379.027	352.38
379.253	361.38
379.478	363.38
379.704	339.38
379.929	355.38
380.155	360.38
380.38	370.38
380.606	357.38
380.831	369.38
381.057	369.38
381.282	333.38
381.507	362.38
381.733	356.38
381.958	363.38
382.184	361.38
382.409	362.38
382.634	352.38
382.86	367.38
383.085	371.38
383.31	368.38
383.535	386.38
383.761	363.38
383.986	380.38
384.211	394.38
384.436	378.38
384.662	391.38
384.887	404.38
385.112	373.38
385.337	380.38
385.562	398.38
385.787	379.38
386.013	410.38
386.238	383.38
386.463	381.38
386.688	388.38
386.913	377.38
387.138	381.38
387.363	416.38
387.588	377.38
387.813	403.38
388.038	388.38
388.263	398.38
388.488	402.38
388.713	388.38
388.938	383.38
389.163	396.38
389.387	377.38
389.612	384.38
389.837	388.38
390.062	385.38
390.287	381.38
390.512	395.38
390.736	396.38
390.961	388.38
391.186	401.38
391.411	393.38
391.636	380.38
391.86	397.38
392.085	417.38
392.31	408.38
392.534	406.38
392.759	384.38
392.984	381.38
393.208	389.38
393.433	392.38
393.658	393.38
393.882	372.38
394.107	402.38
394.331	386.38
394.556	392.38
394.78	391.38
395.005	418.38
395.229	399.38
395.454	385.38
395.678	403.38
395.903	407.38
396.127	407.38
396.352	433.38
396.576	400.38
396.801	386.38
397.025	412.38
397.249	415.38
397.474	411.38
397.698	401.38
397.922	427.38
398.147	417.38
398.371	429.38
398.595	428.38
398.82	424.38
399.044	457.38
399.268	438.38
399.492	474.38
399.717	493.38
399.941	514.38
400.165	509.38
400.389	540.38
400.613	508.38
400.837	469.38
401.062	440.38
401.286	449.38
401.51	453.38
401.734	431.38
401.958	426.38
402.182	426.38
402.406	440.38
402.63	436.38
402.854	422.38
403.078	425.38
403.302	440.38
403.526	432.38
403.75	435.38
403.974	450.38
404.198	450.38
404.422	435.38
404.645	435.38
404.869	452.38
405.093	484.38
405.317	500.38
405.541	523.38
405.765	489.38
405.988	454.38
406.212	468.38
406.436	476.38
406.66	466.38
406.883	462.38
407.107	499.38
407.331	526.38
407.555	565.38
407.778	561.38
408.002	515.38
408.226	488.38
408.449	489.38
408.673	482.38
408.896	486.38
409.12	529.38
409.344	515.38
409.567	477.38
409.791	455.38
410.014	427.38
410.238	454.38
410.461	466.38
410.685	455.38
410.908	432.38
411.132	482.38
411.355	480.38
411.578	447.38
411.802	450.38
412.025	466.38
412.249	451.38
412.472	470.38
412.695	503.38
412.919	474.38
413.142	455.38
413.365	432.38
413.589	447.38
413.812	415.38
414.035	428.38
414.258	449.38
414.482	437.38
414.705	418.38
414.928	418.38
415.151	417.38
415.374	409.38
415.597	397.38
415.821	415.38
416.044	396.38
416.267	423.38
416.49	409.38
416.713	403.38
416.936	412.38
417.159	416.38
417.382	424.38
417.605	418.38
417.828	427.38
418.051	436.38
418.274	416.38
418.497	411.38
418.72	411.38
418.943	403.38
419.166	416.38
419.389	441.38
419.611	412.38
419.834	413.38
420.057	441.38
420.28	407.38
420.503	416.38
420.726	409.38
420.948	440.38
421.171	463.38
421.394	471.38
421.617	428.38
421.839	423.38
422.062	431.38
422.285	431.38
422.507	461.38
422.73	536.38
422.953	499.38
423.175	460.38
423.398	435.38
423.621	457.38
423.843	445.38
424.066	459.38
424.288	432.38
424.511	459.38
424.733	492.38
424.956	527.38
425.178	514.38
425.401	510.38
425.623	561.38
425.846	462.38
426.068	432.38
426.291	447.38
426.513	430.38
426.735	446.38
426.958	489.38
427.18	535.38
427.402	590.38
427.625	643.38
427.847	562.38
428.069	521.38
428.292	467.38
428.514	444.38
428.736	399.38
428.958	405.38
429.181	406.38
429.403	434.38
429.625	424.38
429.847	442.38
430.069	450.38
430.292	480.38
430.514	425.38
430.736	394.38
430.958	407.38
431.18	393.38
431.402	413.38
431.624	380.38
431.846	404.38
432.068	400.38
432.29	415.38
432.512	398.38
432.734	386.38
432.956	395.38
433.178	396.38
433.4	393.38
433.622	414.38
433.844	392.38
434.066	398.38
434.287	388.38
434.509	393.38
434.731	406.38
434.953	408.38
435.175	419.38
435.397	435.38
435.618	439.38
435.84	472.38
436.062	516.38
436.284	532.38
436.505	466.38
436.727	420.38
436.949	416.38
437.17	409.38
437.392	397.38
437.614	408.38
437.835	438.38
438.057	480.38
438.278	538.38
438.5	533.38
438.721	585.38
438.943	581.38
439.165	457.38
439.386	440.38
439.608	425.38
439.829	434.38
440.05	466.38
440.272	459.38
440.493	470.38
440.715	428.38
440.936	434.38
441.158	419.38
441.379	425.38
441.6	412.38
441.822	423.38
442.043	455.38
442.264	484.38
442.486	529.38
442.707	454.38
442.928	435.38
443.149	454.38
443.371	471.38
443.592	468.38
443.813	543.38
444.034	572.38
444.255	501.38
444.476	467.38
444.698	436.38
444.919	437.38
445.14	548.38
445.361	486.38
445.582	480.38
445.803	492.38
446.024	548.38
446.245	554.38
446.466	507.38
446.687	463.38
446.908	431.38
447.129	410.38
447.35	406.38
447.571	401.38
447.792	380.38
448.013	416.38
448.234	399.38
448.455	452.38
448.675	532.38
448.896	582.38
449.117	511.38
449.338	464.38
449.559	567.38
449.779	635.38
450	495.38
450.221	430.38
450.442	405.38
450.662	389.38
450.883	396.38
451.104	397.38
451.324	385.38
451.545	366.38
451.766	375.38
451.986	354.38
452.207	358.38
452.428	373.38
452.648	356.38
452.869	372.38
453.089	382.38
453.31	368.38
453.53	376.38
453.751	368.38
453.971	361.38
454.192	359.38
454.412	356.38
454.633	373.38
454.853	364.38
455.073	362.38
455.294	387.38
455.514	415.38
455.734	402.38
455.955	351.38
456.175	369.38
456.395	332.38
456.616	327.38
456.836	350.38
457.056	366.38
457.276	347.38
457.497	347.38
457.717	354.38
457.937	360.38
458.157	330.38
458.377	340.38
458.598	369.38
458.818	407.38
459.038	446.38
459.258	436.38
459.478	415.38
459.698	394.38
459.918	380.38
460.138	401.38
460.358	383.38
460.578	373.38
460.798	391.38
461.018	403.38
461.238	417.38
461.458	398.38
461.678	392.38
461.898	420.38
462.118	413.38
462.338	407.38
462.558	427.38
462.777	408.38
462.997	425.38
463.217	459.38
463.437	445.38
463.657	441.38
463.876	450.38
464.096	438.38
464.316	441.38
464.536	414.38
464.755	436.38
464.975	435.38
465.195	425.38
465.414	476.38
465.634	420.38
465.854	395.38
466.073	395.38
466.293	380.38
466.512	365.38
466.732	371.38
466.951	373.38
467.171	372.38
467.391	401.38
467.61	372.38
467.829	382.38
468.049	385.38
468.268	367.38
468.488	356.38
468.707	364.38
468.927	364.38
469.146	364.38
469.365	369.38
469.585	368.38
469.804	393.38
470.023	382.38
470.243	362.38
470.462	399.38
470.681	391.38
470.901	373.38
471.12	376.38
471.339	377.38
471.558	379.38
471.777	396.38
471.997	366.38
472.216	386.38
472.435	396.38
472.654	385.38
472.873	394.38
473.092	378.38
473.311	375.38
473.53	387.38
473.749	388.38
473.968	408.38
474.187	475.38
474.406	476.38
474.625	418.38
474.844	379.38
475.063	390.38
475.282	382.38
475.501	379.38
475.72	387.38
475.939	391.38
476.158	391.38
476.377	375.38
476.596	375.38
476.814	400.38
477.033	396.38
477.252	416.38
477.471	404.38
477.69	401.38
477.908	415.38
478.127	412.38
478.346	421.38
478.564	430.38
478.783	412.38
479.002	421.38
479.22	452.38
479.439	441.38
479.658	443.38
479.876	463.38
480.095	472.38
480.313	445.38
480.532	462.38
480.751	458.38
480.969	470.38
481.188	468.38
481.406	468.38
481.624	466.38
481.843	442.38
482.061	442.38
482.28	436.38
482.498	428.38
482.717	438.38
482.935	442.38
483.153	440.38
483.372	456.38
483.59	443.38
483.808	435.38
484.027	419.38
484.245	452.38
484.463	452.38
484.681	445.38
484.9	450.38
485.118	466.38
485.336	462.38
485.554	476.38
485.772	458.38
485.99	450.38
486.209	443.38
486.427	447.38
486.645	466.38
486.863	463.38
487.081	468.38
487.299	449.38
487.517	450.38
487.735	463.38
487.953	475.38
488.171	483.38
488.389	480.38
488.607	464.38
488.825	457.38
489.043	456.38
489.261	466.38
489.479	484.38
489.696	482.38
489.914	496.38
490.132	491.38
490.35	478.38
490.568	476.38
490.786	477.38
491.003	490.38
491.221	504.38
491.439	511.38
491.657	507.38
491.874	504.38
492.092	529.38
492.31	540.38
492.527	523.38
492.745	512.38
492.963	497.38
493.18	523.38
493.398	527.38
493.615	534.38
493.833	520.38
494.05	517.38
494.268	514.38
494.485	517.38
494.703	525.38
494.92	532.38
495.138	528.38
495.355	529.38
495.573	539.38
495.79	514.38
496.008	547.38
496.225	511.38
496.442	517.38
496.66	528.38
496.877	536.38
497.094	548.38
497.312	564.38
497.529	536.38
497.746	565.38
497.963	568.38
498.181	589.38
498.398	591.38
498.615	610.38
498.832	580.38
499.049	641.38
499.267	648.38
499.484	687.38
499.701	705.38
499.918	718.38
500.135	761.38
500.352	773.38
500.569	787.38
500.786	779.38
501.003	779.38
501.22	749.38
501.437	744.38
501.654	704.38
501.871	664.38
502.088	668.38
502.305	653.38
502.522	611.38
502.739	612.38
502.956	578.38
503.172	575.38
503.389	582.38
503.606	590.38
503.823	556.38
504.04	531.38
504.256	559.38
504.473	561.38
504.69	549.38
504.907	539.38
505.123	504.38
505.34	533.38
505.557	505.38
505.773	508.38
505.99	522.38
506.207	496.38
506.423	511.38
506.64	514.38
506.856	507.38
507.073	505.38
507.289	510.38
507.506	500.38
507.722	505.38
507.939	489.38
508.155	478.38
508.372	483.38
508.588	468.38
508.805	484.38
509.021	486.38
509.238	471.38
509.454	473.38
509.67	476.38
509.887	468.38
510.103	489.38
510.319	490.38
510.536	540.38
510.752	778.38
510.968	629.38
511.184	471.38
511.401	474.38
511.617	444.38
511.833	461.38
512.049	480.38
512.265	456.38
512.481	465.38
512.698	463.38
512.914	460.38
513.13	475.38
513.346	449.38
513.562	448.38
513.778	461.38
513.994	452.38
514.21	460.38
514.426	459.38
514.642	507.38
514.858	509.38
515.074	517.38
515.29	587.38
515.506	741.38
515.721	656.38
515.937	519.38
516.153	488.38
516.369	505.38
516.585	469.38
516.801	465.38
517.016	473.38
517.232	483.38
517.448	481.38
517.664	505.38
517.879	491.38
518.095	489.38
518.311	497.38
518.527	463.38
518.742	465.38
518.958	473.38
519.173	454.38
519.389	460.38
519.605	464.38
519.82	450.38
520.036	437.38
520.251	516.38
520.467	503.38
520.682	497.38
520.898	488.38
521.113	477.38
521.329	483.38
521.544	517.38
521.76	619.38
521.975	899.38
522.19	883.38
522.406	564.38
522.621	493.38
522.836	456.38
523.052	424.38
523.267	419.38
523.482	415.38
523.698	434.38
523.913	428.38
524.128	434.38
524.343	428.38
524.559	396.38
524.774	395.38
524.989	406.38
525.204	440.38
525.419	391.38
525.634	399.38
525.849	390.38
526.064	401.38
526.28	397.38
526.495	373.38
526.71	370.38
526.925	385.38
527.14	383.38
527.355	386.38
527.57	392.38
527.785	415.38
527.999	369.38
528.214	392.38
528.429	375.38
528.644	388.38
528.859	399.38
529.074	389.38
529.289	393.38
529.503	447.38
529.718	419.38
529.933	393.38
530.148	390.38
530.363	390.38
530.577	387.38
530.792	396.38
531.007	392.38
531.221	377.38
531.436	371.38
531.651	373.38
531.865	373.38
532.08	370.38
532.295	378.38
532.509	364.38
532.724	389.38
532.938	381.38
533.153	376.38
533.367	389.38
533.582	371.38
533.796	364.38
534.011	380.38
534.225	381.38
534.44	353.38
534.654	364.38
534.868	371.38
535.083	364.38
535.297	375.38
535.511	361.38
535.726	372.38
535.94	377.38
536.154	373.38
536.369	366.38
536.583	365.38
536.797	376.38
537.011	364.38
537.225	365.38
537.44	361.38
537.654	372.38
537.868	345.38
538.082	358.38
538.296	349.38
538.51	349.38
538.724	369.38
538.938	373.38
539.153	368.38
539.367	367.38
539.581	363.38
539.795	333.38
540.009	369.38
540.222	368.38
540.436	359.38
540.65	346.38
540.864	355.38
541.078	380.38
541.292	369.38
541.506	356.38
541.72	363.38
541.934	369.38
542.147	383.38
542.361	363.38
542.575	342.38
542.789	359.38
543.002	363.38
543.216	347.38
543.43	363.38
543.644	363.38
543.857	353.38
544.071	350.38
544.285	361.38
544.498	361.38
544.712	353.38
544.925	374.38
545.139	355.38
545.352	341.38
545.566	354.38
545.779	359.38
545.993	349.38
546.206	367.38
546.42	368.38
546.633	364.38
546.847	348.38
547.06	369.38
547.274	348.38
547.487	354.38
547.7	350.38
547.914	344.38
548.127	354.38
548.34	338.38
548.554	343.38
548.767	361.38
548.98	339.38
549.193	350.38
549.407	336.38
549.62	346.38
549.833	340.38
550.046	351.38
550.259	345.38
550.473	348.38
550.686	361.38
550.899	372.38
551.112	335.38
551.325	337.38
551.538	343.38
551.751	353.38
551.964	356.38
552.177	352.38
552.39	340.38
552.603	359.38
552.816	369.38
553.029	345.38
553.242	358.38
553.455	368.38
553.667	369.38
553.88	365.38
554.093	354.38
554.306	348.38
554.519	364.38
554.732	335.38
554.944	357.38
555.157	356.38
555.37	331.38
555.583	336.38
555.795	322.38
556.008	327.38
556.221	315.38
556.433	314.38
556.646	328.38
556.859	334.38
557.071	350.38
557.284	314.38
557.496	336.38
557.709	334.38
557.921	318.38
558.134	309.38
558.346	319.38
558.559	320.38
558.771	320.38
558.984	325.38
559.196	313.38
559.409	324.38
559.621	303.38
559.833	308.38
560.046	324.38
560.258	311.38
560.47	325.38
560.683	290.38
560.895	318.38
561.107	311.38
561.32	295.38
561.532	329.38
561.744	324.38
561.956	330.38
562.168	316.38
562.381	303.38
562.593	307.38
562.805	301.38
563.017	315.38
563.229	325.38
563.441	320.38
563.653	338.38
563.865	321.38
564.077	315.38
564.289	325.38
564.501	312.38
564.713	326.38
564.925	333.38
565.137	338.38
565.349	332.38
565.561	335.38
565.773	339.38
565.985	335.38
566.197	366.38
566.408	369.38
566.62	371.38
566.832	383.38
567.044	385.38
567.255	389.38
567.467	398.38
567.679	409.38
567.891	386.38
568.102	379.38
568.314	388.38
568.526	383.38
568.737	363.38
568.949	366.38
569.161	341.38
569.372	322.38
569.584	330.38
569.795	332.38
570.007	309.38
570.218	370.38
570.43	336.38
570.641	303.38
570.853	293.38
571.064	329.38
571.276	313.38
571.487	311.38
571.698	295.38
571.91	303.38
572.121	282.38
572.333	288.38
572.544	288.38
572.755	281.38
572.966	296.38
573.178	299.38
573.389	292.38
573.6	286.38
573.811	276.38
574.023	279.38
574.234	268.38
574.445	281.38
574.656	285.38
574.867	284.38
575.078	275.38
575.289	274.38
575.501	252.38
575.712	276.38
575.923	269.38
576.134	271.38
576.345	269.38
576.556	276.38
576.767	252.38
576.978	290.38
577.188	256.38
577.399	271.38
577.61	282.38
577.821	273.38
578.032	271.38
578.243	280.38
578.454	368.38
578.665	307.38
578.875	267.38
579.086	266.38
579.297	253.38
579.508	264.38
579.718	271.38
579.929	267.38
580.14	253.38
580.35	252.38
580.561	264.38
580.772	248.38
580.982	257.38
581.193	260.38
581.403	245.38
581.614	237.38
581.825	263.38
582.035	255.38
582.246	257.38
582.456	255.38
582.667	251.38
582.877	247.38
583.087	257.38
583.298	245.38
583.508	272.38
583.719	267.38
583.929	264.38
584.139	243.38
584.35	261.38
584.56	248.38
584.77	254.38
584.981	256.38
585.191	237.38
585.401	262.38
585.611	243.38
585.821	236.38
586.032	251.38
586.242	238.38
586.452	223.38
586.662	234.38
586.872	230.38
587.082	239.38
587.292	265.38
587.502	244.38
587.713	248.38
587.923	247.38
588.133	241.38
588.343	237.38
588.553	241.38
588.762	236.38
588.972	246.38
589.182	324.38
589.392	311.38
589.602	265.38
589.812	299.38
590.022	281.38
590.232	247.38
590.441	239.38
590.651	219.38
590.861	242.38
591.071	247.38
591.281	246.38
591.49	272.38
591.7	254.38
591.91	261.38
592.119	236.38
592.329	255.38
592.539	261.38
592.748	254.38
592.958	250.38
593.167	253.38
593.377	261.38
593.587	277.38
593.796	253.38
594.006	248.38
594.215	249.38
594.424	251.38
594.634	275.38
594.843	250.38
595.053	256.38
595.262	260.38
595.472	256.38
595.681	247.38
595.89	243.38
596.1	247.38
596.309	236.38
596.518	235.38
596.727	236.38
596.937	230.38
597.146	244.38
597.355	216.38
597.564	233.38
597.774	243.38
597.983	216.38
598.192	238.38
598.401	217.38
598.61	229.38
598.819	224.38
599.028	219.38
599.237	235.38
599.446	214.38
599.655	214.38
599.864	219.38
600.073	210.38
600.282	210.38
600.491	223.38
600.7	227.38
600.909	213.38
601.118	208.38
601.327	201.38
601.536	226.38
601.745	221.38
601.953	224.38
602.162	211.38
602.371	201.38
602.58	211.38
602.789	224.38
602.997	220.38
603.206	219.38
603.415	220.38
603.623	224.38
603.832	221.38
604.041	223.38
604.249	213.38
604.458	208.38
604.666	207.38
604.875	205.38
605.084	214.38
605.292	223.38
605.501	216.38
605.709	206.38
605.918	208.38
606.126	209.38
606.334	212.38
606.543	202.38
606.751	201.38
606.96	197.38
607.168	215.38
607.376	192.38
607.585	191.38
607.793	191.38
608.001	191.38
608.21	204.38
608.418	201.38
608.626	195.38
608.834	213.38
609.043	223.38
609.251	204.38
609.459	198.38
609.667	203.38
609.875	204.38
610.083	195.38
610.291	201.38
610.499	193.38
610.707	185.38
610.916	200.38
611.124	209.38
611.332	187.38
611.54	216.38
611.748	202.38
611.955	186.38
612.163	190.38
612.371	191.38
612.579	200.38
612.787	211.38
612.995	202.38
613.203	202.38
613.411	208.38
613.618	202.38
613.826	193.38
614.034	212.38
614.242	197.38
614.449	196.38
614.657	204.38
614.865	196.38
615.072	201.38
615.28	195.38
615.488	207.38
615.695	184.38
615.903	198.38
616.111	202.38
616.318	222.38
616.526	214.38
616.733	215.38
616.941	202.38
617.148	202.38
617.356	219.38
617.563	183.38
617.771	191.38
617.978	190.38
618.185	186.38
618.393	184.38
618.6	190.38
618.807	207.38
619.015	193.38
619.222	201.38
619.429	197.38
619.637	195.38
619.844	211.38
620.051	193.38
620.258	195.38
620.466	184.38
620.673	197.38
620.88	197.38
621.087	194.38
621.294	209.38
621.501	192.38
621.708	184.38
621.915	186.38
622.122	188.38
622.329	200.38
622.536	188.38
622.743	197.38
622.95	189.38
623.157	187.38
623.364	189.38
623.571	176.38
623.778	191.38
623.985	180.38
624.192	203.38
624.399	199.38
624.606	181.38
624.812	196.38
625.019	175.38
625.226	183.38
625.433	176.38
625.639	186.38
625.846	179.38
626.053	185.38
626.259	177.38
626.466	183.38
626.673	171.38
626.879	172.38
627.086	176.38
627.293	178.38
627.499	191.38
627.706	171.38
627.912	171.38
628.119	165.38
628.325	165.38
628.532	179.38
628.738	176.38
628.945	187.38
629.151	171.38
629.357	167.38
629.564	189.38
629.77	163.38
629.976	167.38
630.183	191.38
630.389	169.38
630.595	157.38
630.802	162.38
631.008	158.38
631.214	151.38
631.42	151.38
631.627	159.38
631.833	158.38
632.039	175.38
632.245	159.38
632.451	156.38
632.657	168.38
632.863	176.38
633.069	171.38
633.275	162.38
633.481	160.38
633.688	162.38
633.893	176.38
634.099	172.38
634.305	172.38
634.511	149.38
634.717	169.38
634.923	164.38
635.129	167.38
635.335	163.38
635.541	156.38
635.747	150.38
635.952	152.38
636.158	171.38
636.364	156.38
636.57	156.38
636.775	179.38
636.981	135.38
637.187	173.38
637.392	167.38
637.598	176.38
637.804	178.38
638.009	155.38
638.215	157.38
638.421	155.38
638.626	144.38
638.832	165.38
639.037	141.38
639.243	160.38
639.448	165.38
639.654	159.38
639.859	148.38
640.065	160.38
640.27	163.38
640.475	172.38
640.681	161.38
640.886	171.38
641.091	151.38
641.297	160.38
641.502	159.38
641.707	159.38
641.913	168.38
642.118	155.38
642.323	147.38
642.528	159.38
642.733	157.38
642.939	164.38
643.144	149.38
643.349	140.38
643.554	156.38
643.759	150.38
643.964	148.38
644.169	152.38
644.374	138.38
644.579	155.38
644.784	156.38
644.989	139.38
645.194	130.38
645.399	148.38
645.604	146.38
645.809	162.38
646.014	137.38
646.219	144.38
646.423	153.38
646.628	141.38
646.833	140.38
647.038	149.38
647.243	157.38
647.447	149.38
647.652	154.38
647.857	156.38
648.062	155.38
648.266	165.38
648.471	149.38
648.676	153.38
648.88	154.38
649.085	144.38
649.289	151.38
649.494	151.38
649.698	167.38
649.903	168.38
650.107	164.38
650.312	150.38
650.516	134.38
650.721	138.38
650.925	145.38
651.13	141.38
651.334	147.38
651.539	145.38
651.743	149.38
651.947	130.38
652.152	139.38
652.356	143.38
652.56	149.38
652.764	143.38
652.969	127.38
653.173	150.38
653.377	143.38
653.581	134.38
653.785	142.38
653.99	139.38
654.194	129.38
654.398	118.38
654.602	124.38
654.806	132.38
655.01	147.38
655.214	135.38
655.418	146.38
655.622	143.38
655.826	137.38
656.03	145.38
656.234	146.38
656.438	148.38
656.642	131.38
656.846	149.38
657.049	130.38
657.253	129.38
657.457	131.38
657.661	133.38
657.865	133.38
658.068	110.38
658.272	117.38
658.476	120.38
658.68	123.38
658.883	118.38
659.087	104.38
659.291	105.38
659.494	106.38
659.698	97.38
659.901	105.38
660.105	110.38
660.309	98.38
660.512	110.38
660.716	90.38
660.919	99.38
661.123	93.38
661.326	89.38
661.53	100.38
661.733	91.38
661.936	94.38
662.14	103.38
662.343	96.38
662.546	94.38
662.75	80.38
662.953	101.38
663.156	92.38
663.36	81.38
663.563	92.38
663.766	79.38
663.969	84.38
664.173	72.38
664.376	99.38
664.579	85.38
664.782	81.38
664.985	80.38
665.188	76.38
665.391	97.38
665.594	78.38
665.797	99.38
666	103.38
666.203	88.38
666.406	80.38
666.609	88.38
666.812	86.38
667.015	77.38
667.218	86.38
667.421	89.38
667.624	85.38
667.827	89.38
668.03	87.38
668.232	88.38
668.435	111.38
668.638	90.38
668.841	90.38
669.043	96.38
669.246	94.38
669.449	97.38
669.651	97.38
669.854	84.38
670.057	90.38
670.259	85.38
670.462	75.38
670.665	80.38
670.867	88.38
671.07	81.38
671.272	97.38
671.475	97.38
671.677	99.38
671.88	96.38
672.082	98.38
672.284	83.38
672.487	91.38
672.689	92.38
672.892	96.38
