Data from 1960PennyLincolnUp.LampE6.200Scan.07172019.P1_HRD10591_13-05-00-003.txt Node
Date: Thu Jul 18 13:05:00 EDT 2019
User: cochatt
Spectrometer: HR+D1059
Trigger mode: 1
Integration Time (sec): 1.000000E-1
Scans to average: 1
Electric dark correction enabled: true
Nonlinearity correction enabled: false
Boxcar width: 0
XAxis mode: Wavelengths
Number of Pixels in Spectrum: 2048
>>>>>Begin Spectral Data<<<<<
223.165	-22.62
223.4	-22.62
223.635	-22.62
223.869	-28.62
224.104	-15.62
224.338	-1.62
224.573	-5.62
224.808	-11.62
225.042	-14.62
225.277	-14.62
225.511	-9.62
225.746	6.38
225.98	5.38
226.215	12.38
226.449	19.38
226.683	23.38
226.918	26.38
227.152	31.38
227.387	19.38
227.621	45.38
227.856	39.38
228.09	49.38
228.324	56.38
228.559	46.38
228.793	59.38
229.027	86.38
229.262	85.38
229.496	107.38
229.73	117.38
229.964	133.38
230.199	119.38
230.433	113.38
230.667	106.38
230.901	109.38
231.136	108.38
231.37	108.38
231.604	104.38
231.838	109.38
232.072	104.38
232.306	118.38
232.541	119.38
232.775	105.38
233.009	124.38
233.243	121.38
233.477	109.38
233.711	116.38
233.945	122.38
234.179	112.38
234.413	118.38
234.647	118.38
234.881	118.38
235.115	119.38
235.349	108.38
235.583	129.38
235.817	120.38
236.051	121.38
236.285	104.38
236.519	117.38
236.753	113.38
236.987	135.38
237.221	160.38
237.455	179.38
237.689	153.38
237.922	131.38
238.156	129.38
238.39	119.38
238.624	127.38
238.858	135.38
239.091	123.38
239.325	122.38
239.559	126.38
239.793	129.38
240.027	134.38
240.26	135.38
240.494	134.38
240.728	128.38
240.961	145.38
241.195	144.38
241.429	123.38
241.662	132.38
241.896	125.38
242.13	134.38
242.363	131.38
242.597	134.38
242.83	148.38
243.064	143.38
243.298	142.38
243.531	134.38
243.765	123.38
243.998	153.38
244.232	135.38
244.465	130.38
244.699	143.38
244.932	150.38
245.166	162.38
245.399	153.38
245.633	143.38
245.866	127.38
246.099	134.38
246.333	140.38
246.566	155.38
246.8	141.38
247.033	150.38
247.266	137.38
247.5	150.38
247.733	144.38
247.966	158.38
248.2	164.38
248.433	172.38
248.666	147.38
248.899	147.38
249.133	183.38
249.366	181.38
249.599	184.38
249.832	175.38
250.066	165.38
250.299	173.38
250.532	179.38
250.765	182.38
250.998	197.38
251.231	187.38
251.465	178.38
251.698	183.38
251.931	169.38
252.164	188.38
252.397	178.38
252.63	179.38
252.863	181.38
253.096	188.38
253.329	194.38
253.562	187.38
253.795	200.38
254.028	192.38
254.261	193.38
254.494	193.38
254.727	206.38
254.96	217.38
255.193	205.38
255.426	184.38
255.659	186.38
255.892	201.38
256.124	206.38
256.357	196.38
256.59	200.38
256.823	182.38
257.056	178.38
257.289	175.38
257.521	196.38
257.754	192.38
257.987	197.38
258.22	195.38
258.452	192.38
258.685	185.38
258.918	205.38
259.151	202.38
259.383	192.38
259.616	190.38
259.849	197.38
260.081	221.38
260.314	212.38
260.547	222.38
260.779	209.38
261.012	205.38
261.244	205.38
261.477	202.38
261.71	223.38
261.942	208.38
262.175	221.38
262.407	215.38
262.64	207.38
262.872	210.38
263.105	198.38
263.337	211.38
263.57	198.38
263.802	210.38
264.035	186.38
264.267	200.38
264.499	198.38
264.732	198.38
264.964	197.38
265.197	198.38
265.429	222.38
265.661	228.38
265.894	218.38
266.126	214.38
266.358	202.38
266.591	216.38
266.823	212.38
267.055	209.38
267.287	225.38
267.52	222.38
267.752	219.38
267.984	222.38
268.216	218.38
268.448	223.38
268.681	212.38
268.913	222.38
269.145	243.38
269.377	247.38
269.609	245.38
269.841	235.38
270.073	231.38
270.306	266.38
270.538	254.38
270.77	245.38
271.002	248.38
271.234	252.38
271.466	251.38
271.698	255.38
271.93	273.38
272.162	275.38
272.394	270.38
272.626	253.38
272.858	252.38
273.09	239.38
273.322	226.38
273.553	243.38
273.785	272.38
274.017	253.38
274.249	241.38
274.481	256.38
274.713	264.38
274.945	255.38
275.176	267.38
275.408	247.38
275.64	250.38
275.872	247.38
276.104	239.38
276.335	257.38
276.567	258.38
276.799	281.38
277.031	271.38
277.262	279.38
277.494	303.38
277.726	282.38
277.957	277.38
278.189	261.38
278.421	254.38
278.652	275.38
278.884	262.38
279.115	261.38
279.347	271.38
279.579	320.38
279.81	357.38
280.042	351.38
280.273	329.38
280.505	310.38
280.736	304.38
280.968	269.38
281.199	281.38
281.431	276.38
281.662	273.38
281.894	263.38
282.125	273.38
282.356	275.38
282.588	300.38
282.819	302.38
283.051	275.38
283.282	281.38
283.513	274.38
283.745	281.38
283.976	289.38
284.207	274.38
284.439	288.38
284.67	278.38
284.901	289.38
285.132	291.38
285.364	299.38
285.595	302.38
285.826	288.38
286.057	286.38
286.288	281.38
286.52	285.38
286.751	288.38
286.982	282.38
287.213	289.38
287.444	285.38
287.675	286.38
287.906	290.38
288.138	314.38
288.369	338.38
288.6	310.38
288.831	310.38
289.062	291.38
289.293	305.38
289.524	301.38
289.755	307.38
289.986	312.38
290.217	312.38
290.448	294.38
290.679	299.38
290.91	309.38
291.141	322.38
291.371	300.38
291.602	303.38
291.833	285.38
292.064	299.38
292.295	290.38
292.526	314.38
292.757	317.38
292.987	281.38
293.218	298.38
293.449	310.38
293.68	306.38
293.91	326.38
294.141	305.38
294.372	303.38
294.603	305.38
294.833	317.38
295.064	326.38
295.295	311.38
295.525	316.38
295.756	308.38
295.987	317.38
296.217	351.38
296.448	349.38
296.679	316.38
296.909	320.38
297.14	308.38
297.37	326.38
297.601	323.38
297.831	296.38
298.062	306.38
298.292	341.38
298.523	343.38
298.753	343.38
298.984	321.38
299.214	327.38
299.445	320.38
299.675	295.38
299.905	331.38
300.136	323.38
300.366	317.38
300.597	334.38
300.827	336.38
301.057	330.38
301.288	363.38
301.518	344.38
301.748	325.38
301.979	327.38
302.209	357.38
302.439	376.38
302.669	349.38
302.9	345.38
303.13	347.38
303.36	342.38
303.59	338.38
303.82	355.38
304.051	361.38
304.281	340.38
304.511	354.38
304.741	344.38
304.971	349.38
305.201	341.38
305.431	330.38
305.661	352.38
305.891	344.38
306.121	330.38
306.352	347.38
306.582	333.38
306.812	340.38
307.042	347.38
307.272	330.38
307.502	336.38
307.731	361.38
307.961	342.38
308.191	347.38
308.421	355.38
308.651	353.38
308.881	352.38
309.111	362.38
309.341	358.38
309.571	342.38
309.8	354.38
310.03	361.38
310.26	369.38
310.49	368.38
310.72	385.38
310.949	383.38
311.179	387.38
311.409	380.38
311.639	362.38
311.868	369.38
312.098	367.38
312.328	402.38
312.557	391.38
312.787	405.38
313.017	402.38
313.246	408.38
313.476	394.38
313.706	392.38
313.935	411.38
314.165	387.38
314.394	388.38
314.624	391.38
314.853	389.38
315.083	388.38
315.312	390.38
315.542	384.38
315.771	371.38
316.001	403.38
316.23	387.38
316.46	407.38
316.689	385.38
316.919	389.38
317.148	397.38
317.377	391.38
317.607	397.38
317.836	398.38
318.065	393.38
318.295	401.38
318.524	410.38
318.753	402.38
318.983	387.38
319.212	373.38
319.441	392.38
319.67	395.38
319.9	387.38
320.129	396.38
320.358	389.38
320.587	392.38
320.816	383.38
321.046	401.38
321.275	401.38
321.504	385.38
321.733	422.38
321.962	426.38
322.191	414.38
322.42	430.38
322.649	431.38
322.878	430.38
323.108	432.38
323.337	441.38
323.566	475.38
323.795	507.38
324.024	527.38
324.253	640.38
324.482	885.38
324.71	1346.38
324.939	1878.38
325.168	1529.38
325.397	778.38
325.626	566.38
325.855	505.38
326.084	492.38
326.313	467.38
326.542	486.38
326.77	539.38
326.999	621.38
327.228	853.38
327.457	1254.38
327.686	1438.38
327.914	950.38
328.143	637.38
328.372	573.38
328.6	543.38
328.829	520.38
329.058	507.38
329.287	527.38
329.515	511.38
329.744	470.38
329.972	504.38
330.201	509.38
330.43	538.38
330.658	549.38
330.887	549.38
331.115	565.38
331.344	495.38
331.572	470.38
331.801	502.38
332.03	495.38
332.258	500.38
332.486	500.38
332.715	489.38
332.943	475.38
333.172	495.38
333.4	526.38
333.629	529.38
333.857	539.38
334.085	550.38
334.314	561.38
334.542	583.38
334.771	587.38
334.999	538.38
335.227	520.38
335.455	496.38
335.684	494.38
335.912	503.38
336.14	477.38
336.369	485.38
336.597	494.38
336.825	477.38
337.053	465.38
337.281	451.38
337.51	468.38
337.738	472.38
337.966	480.38
338.194	474.38
338.422	465.38
338.65	446.38
338.878	443.38
339.106	456.38
339.334	461.38
339.562	454.38
339.79	442.38
340.018	434.38
340.246	443.38
340.474	453.38
340.702	445.38
340.93	427.38
341.158	450.38
341.386	448.38
341.614	463.38
341.842	440.38
342.07	424.38
342.298	439.38
342.526	439.38
342.754	411.38
342.981	439.38
343.209	441.38
343.437	434.38
343.665	458.38
343.893	486.38
344.12	501.38
344.348	501.38
344.576	454.38
344.804	460.38
345.031	436.38
345.259	473.38
345.487	470.38
345.714	439.38
345.942	420.38
346.17	435.38
346.397	419.38
346.625	418.38
346.853	438.38
347.08	428.38
347.308	431.38
347.535	417.38
347.763	437.38
347.99	446.38
348.218	431.38
348.445	438.38
348.673	422.38
348.9	410.38
349.128	437.38
349.355	415.38
349.583	425.38
349.81	411.38
350.037	405.38
350.265	414.38
350.492	384.38
350.72	403.38
350.947	434.38
351.174	427.38
351.402	443.38
351.629	448.38
351.856	425.38
352.083	418.38
352.311	449.38
352.538	442.38
352.765	423.38
352.992	414.38
353.22	410.38
353.447	421.38
353.674	425.38
353.901	414.38
354.128	402.38
354.355	392.38
354.583	400.38
354.81	415.38
355.037	404.38
355.264	405.38
355.491	396.38
355.718	410.38
355.945	412.38
356.172	399.38
356.399	400.38
356.626	405.38
356.853	404.38
357.08	405.38
357.307	390.38
357.534	425.38
357.761	424.38
357.988	404.38
358.215	395.38
358.441	402.38
358.668	420.38
358.895	440.38
359.122	413.38
359.349	418.38
359.576	435.38
359.802	442.38
360.029	456.38
360.256	464.38
360.483	457.38
360.709	420.38
360.936	426.38
361.163	425.38
361.39	408.38
361.616	429.38
361.843	435.38
362.07	423.38
362.296	439.38
362.523	407.38
362.749	403.38
362.976	401.38
363.203	417.38
363.429	413.38
363.656	426.38
363.882	406.38
364.109	398.38
364.335	387.38
364.562	410.38
364.788	399.38
365.015	400.38
365.241	417.38
365.468	408.38
365.694	413.38
365.92	414.38
366.147	419.38
366.373	430.38
366.599	419.38
366.826	400.38
367.052	414.38
367.278	399.38
367.505	413.38
367.731	413.38
367.957	435.38
368.184	410.38
368.41	431.38
368.636	436.38
368.862	435.38
369.089	426.38
369.315	410.38
369.541	406.38
369.767	407.38
369.993	406.38
370.219	422.38
370.445	410.38
370.672	427.38
370.898	418.38
371.124	403.38
371.35	421.38
371.576	429.38
371.802	407.38
372.028	447.38
372.254	438.38
372.48	438.38
372.706	431.38
372.932	446.38
373.158	442.38
373.384	440.38
373.61	435.38
373.835	453.38
374.061	450.38
374.287	431.38
374.513	437.38
374.739	457.38
374.965	443.38
375.191	453.38
375.416	451.38
375.642	436.38
375.868	440.38
376.094	448.38
376.319	448.38
376.545	427.38
376.771	421.38
376.997	434.38
377.222	431.38
377.448	441.38
377.674	435.38
377.899	421.38
378.125	430.38
378.35	431.38
378.576	425.38
378.802	418.38
379.027	438.38
379.253	426.38
379.478	425.38
379.704	438.38
379.929	421.38
380.155	419.38
380.38	438.38
380.606	433.38
380.831	452.38
381.057	421.38
381.282	405.38
381.507	433.38
381.733	438.38
381.958	440.38
382.184	436.38
382.409	446.38
382.634	451.38
382.86	456.38
383.085	488.38
383.31	462.38
383.535	441.38
383.761	471.38
383.986	477.38
384.211	486.38
384.436	495.38
384.662	499.38
384.887	499.38
385.112	486.38
385.337	519.38
385.562	499.38
385.787	484.38
386.013	516.38
386.238	523.38
386.463	518.38
386.688	517.38
386.913	481.38
387.138	513.38
387.363	501.38
387.588	501.38
387.813	495.38
388.038	505.38
388.263	523.38
388.488	510.38
388.713	502.38
388.938	495.38
389.163	472.38
389.387	489.38
389.612	488.38
389.837	480.38
390.062	474.38
390.287	469.38
390.512	481.38
390.736	481.38
390.961	494.38
391.186	488.38
391.411	493.38
391.636	511.38
391.86	519.38
392.085	551.38
392.31	545.38
392.534	533.38
392.759	547.38
392.984	578.38
393.208	671.38
393.433	843.38
393.658	861.38
393.882	605.38
394.107	522.38
394.331	530.38
394.556	528.38
394.78	520.38
395.005	511.38
395.229	529.38
395.454	519.38
395.678	533.38
395.903	540.38
396.127	565.38
396.352	578.38
396.576	563.38
396.801	655.38
397.025	752.38
397.249	653.38
397.474	560.38
397.698	554.38
397.922	533.38
398.147	552.38
398.371	564.38
398.595	533.38
398.82	580.38
399.044	615.38
399.268	655.38
399.492	705.38
399.717	763.38
399.941	783.38
400.165	729.38
400.389	712.38
400.613	645.38
400.837	617.38
401.062	610.38
401.286	582.38
401.51	593.38
401.734	579.38
401.958	582.38
402.182	571.38
402.406	611.38
402.63	594.38
402.854	627.38
403.078	623.38
403.302	634.38
403.526	640.38
403.75	622.38
403.974	633.38
404.198	629.38
404.422	633.38
404.645	647.38
404.869	618.38
405.093	662.38
405.317	679.38
405.541	688.38
405.765	669.38
405.988	641.38
406.212	648.38
406.436	673.38
406.66	673.38
406.883	650.38
407.107	706.38
407.331	757.38
407.555	793.38
407.778	757.38
408.002	738.38
408.226	696.38
408.449	659.38
408.673	661.38
408.896	663.38
409.12	693.38
409.344	658.38
409.567	620.38
409.791	616.38
410.014	609.38
410.238	609.38
410.461	636.38
410.685	603.38
410.908	610.38
411.132	643.38
411.355	657.38
411.578	630.38
411.802	609.38
412.025	610.38
412.249	626.38
412.472	619.38
412.695	628.38
412.919	621.38
413.142	612.38
413.365	601.38
413.589	582.38
413.812	583.38
414.035	575.38
414.258	588.38
414.482	555.38
414.705	591.38
414.928	567.38
415.151	578.38
415.374	577.38
415.597	576.38
415.821	552.38
416.044	558.38
416.267	573.38
416.49	570.38
416.713	573.38
416.936	554.38
417.159	565.38
417.382	558.38
417.605	584.38
417.828	561.38
418.051	606.38
418.274	598.38
418.497	573.38
418.72	583.38
418.943	575.38
419.166	584.38
419.389	623.38
419.611	654.38
419.834	603.38
420.057	611.38
420.28	600.38
420.503	590.38
420.726	577.38
420.948	584.38
421.171	615.38
421.394	629.38
421.617	587.38
421.839	586.38
422.062	593.38
422.285	590.38
422.507	638.38
422.73	747.38
422.953	763.38
423.175	642.38
423.398	605.38
423.621	606.38
423.843	615.38
424.066	623.38
424.288	595.38
424.511	601.38
424.733	660.38
424.956	697.38
425.178	682.38
425.401	665.38
425.623	679.38
425.846	621.38
426.068	595.38
426.291	603.38
426.513	578.38
426.735	566.38
426.958	568.38
427.18	662.38
427.402	749.38
427.625	820.38
427.847	751.38
428.069	648.38
428.292	595.38
428.514	557.38
428.736	544.38
428.958	530.38
429.181	521.38
429.403	515.38
429.625	527.38
429.847	557.38
430.069	607.38
430.292	594.38
430.514	532.38
430.736	536.38
430.958	515.38
431.18	507.38
431.402	510.38
431.624	506.38
431.846	526.38
432.068	515.38
432.29	545.38
432.512	530.38
432.734	506.38
432.956	537.38
433.178	539.38
433.4	550.38
433.622	536.38
433.844	533.38
434.066	523.38
434.287	536.38
434.509	550.38
434.731	553.38
434.953	569.38
435.175	590.38
435.397	583.38
435.618	581.38
435.84	601.38
436.062	624.38
436.284	679.38
436.505	599.38
436.727	577.38
436.949	566.38
437.17	531.38
437.392	524.38
437.614	541.38
437.835	569.38
438.057	616.38
438.278	678.38
438.5	672.38
438.721	749.38
438.943	724.38
439.165	614.38
439.386	547.38
439.608	559.38
439.829	567.38
440.05	590.38
440.272	616.38
440.493	583.38
440.715	549.38
440.936	564.38
441.158	540.38
441.379	586.38
441.6	586.38
441.822	588.38
442.043	615.38
442.264	653.38
442.486	682.38
442.707	608.38
442.928	595.38
443.149	601.38
443.371	621.38
443.592	639.38
443.813	702.38
444.034	728.38
444.255	662.38
444.476	637.38
444.698	654.38
444.919	655.38
445.14	706.38
445.361	669.38
445.582	643.38
445.803	689.38
446.024	740.38
446.245	728.38
446.466	650.38
446.687	584.38
446.908	551.38
447.129	552.38
447.35	531.38
447.571	518.38
447.792	502.38
448.013	504.38
448.234	530.38
448.455	563.38
448.675	622.38
448.896	683.38
449.117	607.38
449.338	585.38
449.559	635.38
449.779	715.38
450	586.38
450.221	488.38
450.442	496.38
450.662	495.38
450.883	515.38
451.104	532.38
451.324	502.38
451.545	520.38
451.766	467.38
451.986	489.38
452.207	476.38
452.428	472.38
452.648	486.38
452.869	475.38
453.089	511.38
453.31	471.38
453.53	490.38
453.751	470.38
453.971	461.38
454.192	479.38
454.412	458.38
454.633	455.38
454.853	449.38
455.073	448.38
455.294	468.38
455.514	520.38
455.734	508.38
455.955	463.38
456.175	453.38
456.395	450.38
456.616	440.38
456.836	451.38
457.056	456.38
457.276	443.38
457.497	473.38
457.717	435.38
457.937	457.38
458.157	462.38
458.377	457.38
458.598	465.38
458.818	523.38
459.038	608.38
459.258	589.38
459.478	552.38
459.698	539.38
459.918	523.38
460.138	530.38
460.358	579.38
460.578	545.38
460.798	553.38
461.018	568.38
461.238	574.38
461.458	564.38
461.678	565.38
461.898	558.38
462.118	571.38
462.338	591.38
462.558	601.38
462.777	614.38
462.997	662.38
463.217	663.38
463.437	699.38
463.657	633.38
463.876	615.38
464.096	646.38
464.316	621.38
464.536	641.38
464.755	615.38
464.975	611.38
465.195	628.38
465.414	685.38
465.634	569.38
465.854	567.38
466.073	537.38
466.293	523.38
466.512	509.38
466.732	496.38
466.951	478.38
467.171	495.38
467.391	517.38
467.61	509.38
467.829	535.38
468.049	519.38
468.268	511.38
468.488	495.38
468.707	495.38
468.927	495.38
469.146	461.38
469.365	483.38
469.585	500.38
469.804	511.38
470.023	517.38
470.243	509.38
470.462	520.38
470.681	548.38
470.901	515.38
471.12	521.38
471.339	517.38
471.558	499.38
471.777	498.38
471.997	484.38
472.216	511.38
472.435	548.38
472.654	518.38
472.873	485.38
473.092	461.38
473.311	478.38
473.53	472.38
473.749	479.38
473.968	520.38
474.187	522.38
474.406	576.38
474.625	534.38
474.844	496.38
475.063	490.38
475.282	511.38
475.501	484.38
475.72	504.38
475.939	502.38
476.158	507.38
476.377	517.38
476.596	517.38
476.814	523.38
477.033	512.38
477.252	521.38
477.471	538.38
477.69	526.38
477.908	529.38
478.127	558.38
478.346	553.38
478.564	574.38
478.783	592.38
479.002	596.38
479.22	583.38
479.439	581.38
479.658	609.38
479.876	593.38
480.095	596.38
480.313	660.38
480.532	653.38
480.751	629.38
480.969	629.38
481.188	695.38
481.406	700.38
481.624	635.38
481.843	586.38
482.061	581.38
482.28	550.38
482.498	571.38
482.717	567.38
482.935	557.38
483.153	578.38
483.372	565.38
483.59	582.38
483.808	566.38
484.027	581.38
484.245	581.38
484.463	562.38
484.681	607.38
484.9	596.38
485.118	596.38
485.336	589.38
485.554	597.38
485.772	598.38
485.99	605.38
486.209	605.38
486.427	599.38
486.645	598.38
486.863	625.38
487.081	615.38
487.299	589.38
487.517	592.38
487.735	601.38
487.953	597.38
488.171	577.38
488.389	601.38
488.607	600.38
488.825	610.38
489.043	598.38
489.261	596.38
489.479	584.38
489.696	622.38
489.914	625.38
490.132	632.38
490.35	622.38
490.568	603.38
490.786	602.38
491.003	592.38
491.221	646.38
491.439	641.38
491.657	625.38
491.874	628.38
492.092	641.38
492.31	667.38
492.527	649.38
492.745	652.38
492.963	653.38
493.18	660.38
493.398	679.38
493.615	671.38
493.833	670.38
494.05	663.38
494.268	667.38
494.485	659.38
494.703	662.38
494.92	666.38
495.138	658.38
495.355	675.38
495.573	679.38
495.79	682.38
496.008	672.38
496.225	659.38
496.442	681.38
496.66	666.38
496.877	679.38
497.094	679.38
497.312	684.38
497.529	691.38
497.746	709.38
497.963	705.38
498.181	763.38
498.398	798.38
498.615	782.38
498.832	832.38
499.049	885.38
499.267	910.38
499.484	996.38
499.701	1040.38
499.918	1115.38
500.135	1231.38
500.352	1329.38
500.569	1328.38
500.786	1356.38
501.003	1305.38
501.22	1200.38
501.437	1090.38
501.654	1050.38
501.871	991.38
502.088	933.38
502.305	873.38
502.522	816.38
502.739	813.38
502.956	785.38
503.172	782.38
503.389	757.38
503.606	733.38
503.823	727.38
504.04	703.38
504.256	721.38
504.473	721.38
504.69	742.38
504.907	730.38
505.123	679.38
505.34	672.38
505.557	647.38
505.773	649.38
505.99	631.38
506.207	611.38
506.423	630.38
506.64	611.38
506.856	603.38
507.073	594.38
507.289	618.38
507.506	618.38
507.722	623.38
507.939	615.38
508.155	595.38
508.372	593.38
508.588	581.38
508.805	594.38
509.021	545.38
509.238	583.38
509.454	562.38
509.67	586.38
509.887	572.38
510.103	580.38
510.319	584.38
510.536	666.38
510.752	1157.38
510.968	907.38
511.184	593.38
511.401	572.38
511.617	537.38
511.833	538.38
512.049	548.38
512.265	549.38
512.481	565.38
512.698	547.38
512.914	548.38
513.13	562.38
513.346	552.38
513.562	536.38
513.778	551.38
513.994	570.38
514.21	584.38
514.426	589.38
514.642	633.38
514.858	662.38
515.074	678.38
515.29	834.38
515.506	1198.38
515.721	997.38
515.937	690.38
516.153	643.38
516.369	636.38
516.585	623.38
516.801	625.38
517.016	667.38
517.232	649.38
517.448	649.38
517.664	680.38
517.879	666.38
518.095	673.38
518.311	682.38
518.527	634.38
518.742	642.38
518.958	609.38
519.173	594.38
519.389	592.38
519.605	584.38
519.82	575.38
520.036	585.38
520.251	578.38
520.467	617.38
520.682	583.38
520.898	585.38
521.113	615.38
521.329	652.38
521.544	716.38
521.76	930.38
521.975	1559.38
522.19	1480.38
522.406	822.38
522.621	631.38
522.836	589.38
523.052	554.38
523.267	555.38
523.482	523.38
523.698	519.38
523.913	538.38
524.128	523.38
524.343	518.38
524.559	492.38
524.774	502.38
524.989	481.38
525.204	514.38
525.419	497.38
525.634	505.38
525.849	475.38
526.064	457.38
526.28	485.38
526.495	491.38
526.71	471.38
526.925	461.38
527.14	474.38
527.355	479.38
527.57	469.38
527.785	461.38
527.999	476.38
528.214	479.38
528.429	484.38
528.644	505.38
528.859	497.38
529.074	474.38
529.289	489.38
529.503	578.38
529.718	534.38
529.933	508.38
530.148	464.38
530.363	460.38
530.577	466.38
530.792	458.38
531.007	457.38
531.221	453.38
531.436	443.38
531.651	461.38
531.865	447.38
532.08	486.38
532.295	437.38
532.509	455.38
532.724	457.38
532.938	457.38
533.153	457.38
533.367	456.38
533.582	462.38
533.796	474.38
534.011	461.38
534.225	461.38
534.44	451.38
534.654	468.38
534.868	461.38
535.083	446.38
535.297	469.38
535.511	474.38
535.726	456.38
535.94	460.38
536.154	431.38
536.369	458.38
536.583	448.38
536.797	434.38
537.011	438.38
537.225	444.38
537.44	454.38
537.654	444.38
537.868	432.38
538.082	450.38
538.296	436.38
538.51	462.38
538.724	441.38
538.938	433.38
539.153	418.38
539.367	453.38
539.581	448.38
539.795	423.38
540.009	425.38
540.222	437.38
540.436	444.38
540.65	427.38
540.864	438.38
541.078	424.38
541.292	442.38
541.506	441.38
541.72	434.38
541.934	442.38
542.147	446.38
542.361	429.38
542.575	428.38
542.789	425.38
543.002	420.38
543.216	434.38
543.43	435.38
543.644	450.38
543.857	445.38
544.071	447.38
544.285	440.38
544.498	442.38
544.712	438.38
544.925	447.38
545.139	446.38
545.352	450.38
545.566	448.38
545.779	430.38
545.993	441.38
546.206	422.38
546.42	452.38
546.633	429.38
546.847	440.38
547.06	443.38
547.274	433.38
547.487	445.38
547.7	432.38
547.914	449.38
548.127	442.38
548.34	447.38
548.554	420.38
548.767	445.38
548.98	446.38
549.193	435.38
549.407	442.38
549.62	465.38
549.833	447.38
550.046	435.38
550.259	444.38
550.473	428.38
550.686	413.38
550.899	439.38
551.112	424.38
551.325	422.38
551.538	418.38
551.751	428.38
551.964	448.38
552.177	427.38
552.39	431.38
552.603	460.38
552.816	450.38
553.029	469.38
553.242	457.38
553.455	474.38
553.667	479.38
553.88	483.38
554.093	468.38
554.306	464.38
554.519	426.38
554.732	414.38
554.944	438.38
555.157	422.38
555.37	434.38
555.583	422.38
555.795	410.38
556.008	396.38
556.221	394.38
556.433	391.38
556.646	399.38
556.859	383.38
557.071	391.38
557.284	377.38
557.496	393.38
557.709	389.38
557.921	393.38
558.134	377.38
558.346	387.38
558.559	397.38
558.771	379.38
558.984	367.38
559.196	410.38
559.409	403.38
559.621	387.38
559.833	382.38
560.046	374.38
560.258	385.38
560.47	395.38
560.683	379.38
560.895	391.38
561.107	392.38
561.32	387.38
561.532	372.38
561.744	395.38
561.956	385.38
562.168	380.38
562.381	370.38
562.593	383.38
562.805	391.38
563.017	397.38
563.229	376.38
563.441	381.38
563.653	369.38
563.865	396.38
564.077	398.38
564.289	381.38
564.501	399.38
564.713	389.38
564.925	410.38
565.137	414.38
565.349	397.38
565.561	422.38
565.773	437.38
565.985	472.38
566.197	470.38
566.408	503.38
566.62	514.38
566.832	529.38
567.044	538.38
567.255	559.38
567.467	565.38
567.679	591.38
567.891	625.38
568.102	617.38
568.314	623.38
568.526	563.38
568.737	506.38
568.949	472.38
569.161	470.38
569.372	431.38
569.584	420.38
569.795	401.38
570.007	409.38
570.218	442.38
570.43	427.38
570.641	401.38
570.853	396.38
571.064	405.38
571.276	394.38
571.487	379.38
571.698	378.38
571.91	360.38
572.121	367.38
572.333	354.38
572.544	345.38
572.755	313.38
572.966	334.38
573.178	343.38
573.389	331.38
573.6	335.38
573.811	328.38
574.023	341.38
574.234	331.38
574.445	323.38
574.656	350.38
574.867	315.38
575.078	326.38
575.289	319.38
575.501	327.38
575.712	324.38
575.923	319.38
576.134	331.38
576.345	337.38
576.556	318.38
576.767	308.38
576.978	321.38
577.188	315.38
577.399	296.38
577.61	310.38
577.821	317.38
578.032	312.38
578.243	361.38
578.454	568.38
578.665	409.38
578.875	330.38
579.086	301.38
579.297	287.38
579.508	300.38
579.718	312.38
579.929	295.38
580.14	310.38
580.35	281.38
580.561	291.38
580.772	283.38
580.982	300.38
581.193	295.38
581.403	308.38
581.614	306.38
581.825	299.38
582.035	301.38
582.246	295.38
582.456	305.38
582.667	301.38
582.877	285.38
583.087	285.38
583.298	267.38
583.508	285.38
583.719	297.38
583.929	291.38
584.139	264.38
584.35	292.38
584.56	278.38
584.77	304.38
584.981	285.38
585.191	269.38
585.401	291.38
585.611	275.38
585.821	292.38
586.032	315.38
586.242	296.38
586.452	274.38
586.662	263.38
586.872	287.38
587.082	290.38
587.292	270.38
587.502	286.38
587.713	287.38
587.923	290.38
588.133	287.38
588.343	274.38
588.553	289.38
588.762	317.38
588.972	380.38
589.182	881.38
589.392	857.38
589.602	470.38
589.812	777.38
590.022	594.38
590.232	336.38
590.441	321.38
590.651	298.38
590.861	308.38
591.071	302.38
591.281	298.38
591.49	288.38
591.7	307.38
591.91	304.38
592.119	292.38
592.329	314.38
592.539	329.38
592.748	332.38
592.958	338.38
593.167	323.38
593.377	339.38
593.587	336.38
593.796	324.38
594.006	333.38
594.215	349.38
594.424	344.38
594.634	334.38
594.843	326.38
595.053	315.38
595.262	297.38
595.472	315.38
595.681	282.38
595.89	297.38
596.1	272.38
596.309	275.38
596.518	263.38
596.727	274.38
596.937	275.38
597.146	291.38
597.355	272.38
597.564	263.38
597.774	272.38
597.983	262.38
598.192	257.38
598.401	255.38
598.61	257.38
598.819	254.38
599.028	271.38
599.237	245.38
599.446	245.38
599.655	247.38
599.864	251.38
600.073	257.38
600.282	254.38
600.491	259.38
600.7	243.38
600.909	253.38
601.118	245.38
601.327	243.38
601.536	250.38
601.745	245.38
601.953	232.38
602.162	249.38
602.371	237.38
602.58	253.38
602.789	245.38
602.997	248.38
603.206	255.38
603.415	238.38
603.623	233.38
603.832	237.38
604.041	237.38
604.249	227.38
604.458	241.38
604.666	222.38
604.875	239.38
605.084	242.38
605.292	238.38
605.501	245.38
605.709	253.38
605.918	235.38
606.126	256.38
606.334	227.38
606.543	232.38
606.751	230.38
606.96	234.38
607.168	226.38
607.376	239.38
607.585	242.38
607.793	222.38
608.001	227.38
608.21	256.38
608.418	234.38
608.626	233.38
608.834	242.38
609.043	244.38
609.251	255.38
609.459	245.38
609.667	254.38
609.875	245.38
610.083	230.38
610.291	233.38
610.499	251.38
610.707	242.38
610.916	242.38
611.124	235.38
611.332	241.38
611.54	239.38
611.748	224.38
611.955	235.38
612.163	237.38
612.371	251.38
612.579	239.38
612.787	227.38
612.995	237.38
613.203	240.38
613.411	223.38
613.618	229.38
613.826	230.38
614.034	226.38
614.242	239.38
614.449	241.38
614.657	226.38
614.865	232.38
615.072	228.38
615.28	227.38
615.488	252.38
615.695	227.38
615.903	247.38
616.111	244.38
616.318	264.38
616.526	243.38
616.733	243.38
616.941	237.38
617.148	234.38
617.356	231.38
617.563	230.38
617.771	232.38
617.978	223.38
618.185	243.38
618.393	243.38
618.6	221.38
618.807	253.38
619.015	244.38
619.222	220.38
619.429	218.38
619.637	249.38
619.844	227.38
620.051	229.38
620.258	224.38
620.466	214.38
620.673	216.38
620.88	218.38
621.087	225.38
621.294	215.38
621.501	213.38
621.708	208.38
621.915	226.38
622.122	231.38
622.329	235.38
622.536	232.38
622.743	222.38
622.95	214.38
623.157	233.38
623.364	227.38
623.571	217.38
623.778	222.38
623.985	197.38
624.192	217.38
624.399	222.38
624.606	239.38
624.812	221.38
625.019	212.38
625.226	212.38
625.433	199.38
625.639	200.38
625.846	194.38
626.053	206.38
626.259	193.38
626.466	220.38
626.673	197.38
626.879	202.38
627.086	218.38
627.293	200.38
627.499	192.38
627.706	198.38
627.912	194.38
628.119	195.38
628.325	205.38
628.532	211.38
628.738	205.38
628.945	199.38
629.151	204.38
629.357	196.38
629.564	196.38
629.77	201.38
629.976	178.38
630.183	184.38
630.389	194.38
630.595	200.38
630.802	210.38
631.008	189.38
631.214	203.38
631.42	205.38
631.627	181.38
631.833	171.38
632.039	182.38
632.245	186.38
632.451	194.38
632.657	195.38
632.863	188.38
633.069	181.38
633.275	175.38
633.481	178.38
633.688	182.38
633.893	185.38
634.099	185.38
634.305	183.38
634.511	181.38
634.717	193.38
634.923	190.38
635.129	184.38
635.335	184.38
635.541	185.38
635.747	173.38
635.952	188.38
636.158	172.38
636.364	175.38
636.57	191.38
636.775	190.38
636.981	174.38
637.187	179.38
637.392	179.38
637.598	187.38
637.804	199.38
638.009	182.38
638.215	170.38
638.421	176.38
638.626	160.38
638.832	177.38
639.037	182.38
639.243	178.38
639.448	180.38
639.654	165.38
639.859	160.38
640.065	155.38
640.27	163.38
640.475	166.38
640.681	171.38
640.886	169.38
641.091	185.38
641.297	167.38
641.502	181.38
641.707	171.38
641.913	170.38
642.118	158.38
642.323	157.38
642.528	175.38
642.733	167.38
642.939	162.38
643.144	165.38
643.349	177.38
643.554	167.38
643.759	170.38
643.964	166.38
644.169	180.38
644.374	179.38
644.579	161.38
644.784	187.38
644.989	178.38
645.194	172.38
645.399	167.38
645.604	175.38
645.809	170.38
646.014	164.38
646.219	170.38
646.423	168.38
646.628	176.38
646.833	163.38
647.038	166.38
647.243	171.38
647.447	175.38
647.652	184.38
647.857	195.38
648.062	189.38
648.266	197.38
648.471	187.38
648.676	191.38
648.88	180.38
649.085	173.38
649.289	175.38
649.494	200.38
649.698	208.38
649.903	211.38
650.107	186.38
650.312	169.38
650.516	167.38
650.721	177.38
650.925	161.38
651.13	166.38
651.334	181.38
651.539	159.38
651.743	168.38
651.947	152.38
652.152	153.38
652.356	145.38
652.56	149.38
652.764	141.38
652.969	160.38
653.173	157.38
653.377	170.38
653.581	152.38
653.785	161.38
653.99	175.38
654.194	154.38
654.398	161.38
654.602	167.38
654.806	169.38
655.01	161.38
655.214	163.38
655.418	161.38
655.622	170.38
655.826	163.38
656.03	194.38
656.234	179.38
656.438	193.38
656.642	197.38
656.846	201.38
657.049	181.38
657.253	165.38
657.457	161.38
657.661	152.38
657.865	123.38
658.068	138.38
658.272	139.38
658.476	134.38
658.68	109.38
658.883	114.38
659.087	117.38
659.291	109.38
659.494	103.38
659.698	105.38
659.901	105.38
660.105	96.38
660.309	113.38
660.512	114.38
660.716	102.38
660.919	85.38
661.123	103.38
661.326	103.38
661.53	100.38
661.733	101.38
661.936	99.38
662.14	91.38
662.343	90.38
662.546	79.38
662.75	86.38
662.953	96.38
663.156	81.38
663.36	85.38
663.563	99.38
663.766	88.38
663.969	82.38
664.173	88.38
664.376	87.38
664.579	75.38
664.782	84.38
664.985	88.38
665.188	94.38
665.391	85.38
665.594	88.38
665.797	80.38
666	79.38
666.203	85.38
666.406	97.38
666.609	88.38
666.812	86.38
667.015	81.38
667.218	90.38
667.421	92.38
667.624	95.38
667.827	77.38
668.03	84.38
668.232	86.38
668.435	94.38
668.638	73.38
668.841	85.38
669.043	82.38
669.246	82.38
669.449	81.38
669.651	80.38
669.854	86.38
670.057	83.38
670.259	77.38
670.462	85.38
670.665	88.38
670.867	94.38
671.07	77.38
671.272	83.38
671.475	97.38
671.677	76.38
671.88	80.38
672.082	82.38
672.284	90.38
672.487	87.38
672.689	71.38
672.892	88.38
