Data from 1960PennyLincolnUp.LampE5.5.200Scan.07172019.P1.ChangedAngle_HRD10591_13-15-07-822.txt Node
Date: Thu Jul 18 13:15:07 EDT 2019
User: cochatt
Spectrometer: HR+D1059
Trigger mode: 1
Integration Time (sec): 1.000000E-1
Scans to average: 1
Electric dark correction enabled: true
Nonlinearity correction enabled: false
Boxcar width: 0
XAxis mode: Wavelengths
Number of Pixels in Spectrum: 2048
>>>>>Begin Spectral Data<<<<<
223.165	-13.94
223.4	-13.94
223.635	-13.94
223.869	-2.94
224.104	-16.94
224.338	-21.94
224.573	-7.94
224.808	-1.94
225.042	-5.94
225.277	-6.94
225.511	0.06
225.746	2.06
225.98	-7.94
226.215	9.06
226.449	13.06
226.683	25.06
226.918	11.06
227.152	26.06
227.387	26.06
227.621	13.06
227.856	37.06
228.09	44.06
228.324	45.06
228.559	41.06
228.793	69.06
229.027	87.06
229.262	104.06
229.496	95.06
229.73	98.06
229.964	107.06
230.199	122.06
230.433	90.06
230.667	99.06
230.901	108.06
231.136	101.06
231.37	104.06
231.604	104.06
231.838	107.06
232.072	104.06
232.306	113.06
232.541	87.06
232.775	94.06
233.009	104.06
233.243	112.06
233.477	110.06
233.711	99.06
233.945	111.06
234.179	101.06
234.413	99.06
234.647	108.06
234.881	109.06
235.115	109.06
235.349	106.06
235.583	109.06
235.817	97.06
236.051	118.06
236.285	124.06
236.519	110.06
236.753	121.06
236.987	116.06
237.221	145.06
237.455	180.06
237.689	143.06
237.922	124.06
238.156	115.06
238.39	126.06
238.624	103.06
238.858	111.06
239.091	103.06
239.325	118.06
239.559	113.06
239.793	102.06
240.027	105.06
240.26	117.06
240.494	137.06
240.728	123.06
240.961	129.06
241.195	128.06
241.429	128.06
241.662	117.06
241.896	123.06
242.13	103.06
242.363	116.06
242.597	117.06
242.83	117.06
243.064	133.06
243.298	122.06
243.531	125.06
243.765	125.06
243.998	133.06
244.232	121.06
244.465	126.06
244.699	116.06
244.932	124.06
245.166	118.06
245.399	126.06
245.633	135.06
245.866	139.06
246.099	120.06
246.333	133.06
246.566	129.06
246.8	142.06
247.033	131.06
247.266	131.06
247.5	141.06
247.733	151.06
247.966	139.06
248.2	147.06
248.433	151.06
248.666	158.06
248.899	170.06
249.133	172.06
249.366	172.06
249.599	176.06
249.832	147.06
250.066	159.06
250.299	161.06
250.532	182.06
250.765	189.06
250.998	177.06
251.231	182.06
251.465	178.06
251.698	172.06
251.931	181.06
252.164	174.06
252.397	174.06
252.63	188.06
252.863	178.06
253.096	186.06
253.329	200.06
253.562	191.06
253.795	192.06
254.028	192.06
254.261	188.06
254.494	204.06
254.727	229.06
254.96	243.06
255.193	217.06
255.426	212.06
255.659	211.06
255.892	203.06
256.124	197.06
256.357	201.06
256.59	196.06
256.823	178.06
257.056	194.06
257.289	188.06
257.521	194.06
257.754	190.06
257.987	201.06
258.22	202.06
258.452	185.06
258.685	185.06
258.918	175.06
259.151	184.06
259.383	188.06
259.616	196.06
259.849	200.06
260.081	198.06
260.314	221.06
260.547	204.06
260.779	214.06
261.012	229.06
261.244	204.06
261.477	193.06
261.71	190.06
261.942	193.06
262.175	212.06
262.407	215.06
262.64	202.06
262.872	188.06
263.105	191.06
263.337	201.06
263.57	202.06
263.802	197.06
264.035	193.06
264.267	209.06
264.499	195.06
264.732	208.06
264.964	195.06
265.197	180.06
265.429	193.06
265.661	172.06
265.894	190.06
266.126	210.06
266.358	205.06
266.591	213.06
266.823	195.06
267.055	201.06
267.287	211.06
267.52	211.06
267.752	214.06
267.984	207.06
268.216	213.06
268.448	213.06
268.681	218.06
268.913	209.06
269.145	235.06
269.377	254.06
269.609	251.06
269.841	228.06
270.073	255.06
270.306	250.06
270.538	275.06
270.77	245.06
271.002	247.06
271.234	262.06
271.466	258.06
271.698	248.06
271.93	262.06
272.162	272.06
272.394	268.06
272.626	263.06
272.858	243.06
273.09	244.06
273.322	253.06
273.553	244.06
273.785	251.06
274.017	243.06
274.249	233.06
274.481	229.06
274.713	240.06
274.945	234.06
275.176	255.06
275.408	253.06
275.64	246.06
275.872	243.06
276.104	255.06
276.335	240.06
276.567	273.06
276.799	252.06
277.031	257.06
277.262	271.06
277.494	277.06
277.726	265.06
277.957	257.06
278.189	257.06
278.421	246.06
278.652	273.06
278.884	266.06
279.115	255.06
279.347	252.06
279.579	264.06
279.81	249.06
280.042	257.06
280.273	258.06
280.505	251.06
280.736	245.06
280.968	249.06
281.199	240.06
281.431	253.06
281.662	235.06
281.894	243.06
282.125	278.06
282.356	261.06
282.588	265.06
282.819	271.06
283.051	262.06
283.282	268.06
283.513	259.06
283.745	253.06
283.976	270.06
284.207	281.06
284.439	261.06
284.67	263.06
284.901	276.06
285.132	253.06
285.364	263.06
285.595	268.06
285.826	265.06
286.057	276.06
286.288	258.06
286.52	273.06
286.751	275.06
286.982	266.06
287.213	289.06
287.444	285.06
287.675	272.06
287.906	265.06
288.138	278.06
288.369	296.06
288.6	283.06
288.831	282.06
289.062	277.06
289.293	264.06
289.524	269.06
289.755	269.06
289.986	291.06
290.217	266.06
290.448	269.06
290.679	282.06
290.91	264.06
291.141	273.06
291.371	274.06
291.602	262.06
291.833	285.06
292.064	296.06
292.295	276.06
292.526	279.06
292.757	281.06
292.987	271.06
293.218	290.06
293.449	275.06
293.68	283.06
293.91	280.06
294.141	273.06
294.372	275.06
294.603	263.06
294.833	283.06
295.064	296.06
295.295	293.06
295.525	293.06
295.756	300.06
295.987	260.06
296.217	308.06
296.448	301.06
296.679	280.06
296.909	286.06
297.14	286.06
297.37	305.06
297.601	279.06
297.831	271.06
298.062	277.06
298.292	307.06
298.523	279.06
298.753	279.06
298.984	295.06
299.214	286.06
299.445	302.06
299.675	280.06
299.905	304.06
300.136	289.06
300.366	315.06
300.597	301.06
300.827	298.06
301.057	328.06
301.288	301.06
301.518	307.06
301.748	319.06
301.979	302.06
302.209	310.06
302.439	305.06
302.669	317.06
302.9	315.06
303.13	306.06
303.36	320.06
303.59	327.06
303.82	315.06
304.051	318.06
304.281	326.06
304.511	295.06
304.741	311.06
304.971	317.06
305.201	309.06
305.431	314.06
305.661	323.06
305.891	313.06
306.121	308.06
306.352	325.06
306.582	302.06
306.812	325.06
307.042	307.06
307.272	328.06
307.502	305.06
307.731	310.06
307.961	332.06
308.191	307.06
308.421	323.06
308.651	318.06
308.881	316.06
309.111	331.06
309.341	316.06
309.571	316.06
309.8	339.06
310.03	323.06
310.26	330.06
310.49	361.06
310.72	355.06
310.949	349.06
311.179	351.06
311.409	351.06
311.639	347.06
311.868	347.06
312.098	361.06
312.328	348.06
312.557	353.06
312.787	375.06
313.017	339.06
313.246	336.06
313.476	359.06
313.706	352.06
313.935	381.06
314.165	361.06
314.394	353.06
314.624	344.06
314.853	353.06
315.083	355.06
315.312	345.06
315.542	353.06
315.771	342.06
316.001	361.06
316.23	346.06
316.46	351.06
316.689	358.06
316.919	357.06
317.148	345.06
317.377	365.06
317.607	360.06
317.836	355.06
318.065	345.06
318.295	339.06
318.524	359.06
318.753	349.06
318.983	333.06
319.212	340.06
319.441	339.06
319.67	369.06
319.9	364.06
320.129	363.06
320.358	341.06
320.587	353.06
320.816	355.06
321.046	362.06
321.275	363.06
321.504	372.06
321.733	378.06
321.962	371.06
322.191	385.06
322.42	380.06
322.649	368.06
322.878	388.06
323.108	405.06
323.337	427.06
323.566	429.06
323.795	438.06
324.024	470.06
324.253	555.06
324.482	716.06
324.71	1075.06
324.939	1401.06
325.168	1215.06
325.397	668.06
325.626	512.06
325.855	461.06
326.084	430.06
326.313	455.06
326.542	430.06
326.77	474.06
326.999	526.06
327.228	680.06
327.457	973.06
327.686	1045.06
327.914	738.06
328.143	533.06
328.372	495.06
328.6	480.06
328.829	465.06
329.058	453.06
329.287	463.06
329.515	438.06
329.744	439.06
329.972	437.06
330.201	455.06
330.43	475.06
330.658	481.06
330.887	475.06
331.115	466.06
331.344	438.06
331.572	443.06
331.801	438.06
332.03	404.06
332.258	418.06
332.486	407.06
332.715	415.06
332.943	403.06
333.172	406.06
333.4	451.06
333.629	426.06
333.857	422.06
334.085	433.06
334.314	464.06
334.542	473.06
334.771	462.06
334.999	444.06
335.227	431.06
335.455	416.06
335.684	428.06
335.912	407.06
336.14	430.06
336.369	390.06
336.597	414.06
336.825	429.06
337.053	417.06
337.281	408.06
337.51	394.06
337.738	404.06
337.966	390.06
338.194	413.06
338.422	412.06
338.65	397.06
338.878	378.06
339.106	380.06
339.334	394.06
339.562	399.06
339.79	383.06
340.018	403.06
340.246	393.06
340.474	406.06
340.702	381.06
340.93	393.06
341.158	373.06
341.386	377.06
341.614	406.06
341.842	399.06
342.07	371.06
342.298	386.06
342.526	365.06
342.754	369.06
342.981	371.06
343.209	382.06
343.437	377.06
343.665	382.06
343.893	388.06
344.12	391.06
344.348	405.06
344.576	383.06
344.804	399.06
345.031	409.06
345.259	408.06
345.487	402.06
345.714	376.06
345.942	381.06
346.17	375.06
346.397	380.06
346.625	371.06
346.853	370.06
347.08	378.06
347.308	376.06
347.535	347.06
347.763	367.06
347.99	372.06
348.218	387.06
348.445	367.06
348.673	379.06
348.9	381.06
349.128	399.06
349.355	375.06
349.583	365.06
349.81	353.06
350.037	342.06
350.265	353.06
350.492	357.06
350.72	375.06
350.947	373.06
351.174	363.06
351.402	367.06
351.629	388.06
351.856	368.06
352.083	350.06
352.311	377.06
352.538	362.06
352.765	378.06
352.992	383.06
353.22	369.06
353.447	346.06
353.674	358.06
353.901	358.06
354.128	334.06
354.355	349.06
354.583	333.06
354.81	378.06
355.037	361.06
355.264	356.06
355.491	361.06
355.718	346.06
355.945	335.06
356.172	332.06
356.399	333.06
356.626	338.06
356.853	346.06
357.08	342.06
357.307	357.06
357.534	365.06
357.761	346.06
357.988	335.06
358.215	359.06
358.441	357.06
358.668	335.06
358.895	347.06
359.122	377.06
359.349	341.06
359.576	359.06
359.802	363.06
360.029	406.06
360.256	410.06
360.483	377.06
360.709	346.06
360.936	355.06
361.163	375.06
361.39	373.06
361.616	363.06
361.843	369.06
362.07	353.06
362.296	361.06
362.523	373.06
362.749	337.06
362.976	353.06
363.203	356.06
363.429	361.06
363.656	334.06
363.882	357.06
364.109	349.06
364.335	359.06
364.562	357.06
364.788	330.06
365.015	357.06
365.241	353.06
365.468	359.06
365.694	340.06
365.92	347.06
366.147	352.06
366.373	359.06
366.599	322.06
366.826	357.06
367.052	339.06
367.278	357.06
367.505	342.06
367.731	345.06
367.957	365.06
368.184	343.06
368.41	369.06
368.636	347.06
368.862	365.06
369.089	337.06
369.315	356.06
369.541	327.06
369.767	341.06
369.993	342.06
370.219	345.06
370.445	333.06
370.672	350.06
370.898	366.06
371.124	334.06
371.35	345.06
371.576	340.06
371.802	357.06
372.028	340.06
372.254	355.06
372.48	362.06
372.706	358.06
372.932	365.06
373.158	350.06
373.384	354.06
373.61	347.06
373.835	353.06
374.061	340.06
374.287	347.06
374.513	341.06
374.739	355.06
374.965	369.06
375.191	353.06
375.416	358.06
375.642	349.06
375.868	345.06
376.094	350.06
376.319	361.06
376.545	344.06
376.771	341.06
376.997	347.06
377.222	333.06
377.448	346.06
377.674	348.06
377.899	338.06
378.125	337.06
378.35	329.06
378.576	319.06
378.802	316.06
379.027	353.06
379.253	346.06
379.478	348.06
379.704	348.06
379.929	341.06
380.155	342.06
380.38	335.06
380.606	356.06
380.831	329.06
381.057	333.06
381.282	345.06
381.507	335.06
381.733	341.06
381.958	335.06
382.184	335.06
382.409	344.06
382.634	347.06
382.86	357.06
383.085	369.06
383.31	345.06
383.535	355.06
383.761	346.06
383.986	348.06
384.211	363.06
384.436	348.06
384.662	359.06
384.887	378.06
385.112	386.06
385.337	363.06
385.562	357.06
385.787	363.06
386.013	367.06
386.238	378.06
386.463	368.06
386.688	365.06
386.913	383.06
387.138	370.06
387.363	378.06
387.588	358.06
387.813	375.06
388.038	357.06
388.263	377.06
388.488	382.06
388.713	367.06
388.938	359.06
389.163	372.06
389.387	377.06
389.612	380.06
389.837	369.06
390.062	368.06
390.287	365.06
390.512	358.06
390.736	367.06
390.961	374.06
391.186	354.06
391.411	390.06
391.636	362.06
391.86	351.06
392.085	381.06
392.31	375.06
392.534	388.06
392.759	365.06
392.984	389.06
393.208	379.06
393.433	373.06
393.658	365.06
393.882	373.06
394.107	378.06
394.331	382.06
394.556	358.06
394.78	377.06
395.005	351.06
395.229	373.06
395.454	371.06
395.678	374.06
395.903	404.06
396.127	393.06
396.352	392.06
396.576	386.06
396.801	381.06
397.025	397.06
397.249	381.06
397.474	385.06
397.698	391.06
397.922	392.06
398.147	408.06
398.371	412.06
398.595	400.06
398.82	423.06
399.044	419.06
399.268	418.06
399.492	452.06
399.717	471.06
399.941	479.06
400.165	495.06
400.389	502.06
400.613	460.06
400.837	437.06
401.062	420.06
401.286	433.06
401.51	410.06
401.734	410.06
401.958	420.06
402.182	425.06
402.406	408.06
402.63	417.06
402.854	411.06
403.078	433.06
403.302	419.06
403.526	425.06
403.75	424.06
403.974	412.06
404.198	432.06
404.422	436.06
404.645	430.06
404.869	413.06
405.093	443.06
405.317	466.06
405.541	477.06
405.765	465.06
405.988	454.06
406.212	462.06
406.436	458.06
406.66	460.06
406.883	453.06
407.107	482.06
407.331	511.06
407.555	525.06
407.778	553.06
408.002	486.06
408.226	451.06
408.449	441.06
408.673	469.06
408.896	482.06
409.12	507.06
409.344	468.06
409.567	435.06
409.791	447.06
410.014	443.06
410.238	426.06
410.461	414.06
410.685	425.06
410.908	437.06
411.132	457.06
411.355	449.06
411.578	450.06
411.802	419.06
412.025	424.06
412.249	435.06
412.472	425.06
412.695	451.06
412.919	455.06
413.142	447.06
413.365	437.06
413.589	436.06
413.812	413.06
414.035	409.06
414.258	417.06
414.482	399.06
414.705	391.06
414.928	398.06
415.151	392.06
415.374	383.06
415.597	368.06
415.821	409.06
416.044	390.06
416.267	389.06
416.49	381.06
416.713	397.06
416.936	399.06
417.159	394.06
417.382	409.06
417.605	363.06
417.828	398.06
418.051	396.06
418.274	411.06
418.497	378.06
418.72	397.06
418.943	387.06
419.166	413.06
419.389	414.06
419.611	417.06
419.834	414.06
420.057	392.06
420.28	404.06
420.503	433.06
420.726	418.06
420.948	443.06
421.171	442.06
421.394	446.06
421.617	425.06
421.839	403.06
422.062	406.06
422.285	409.06
422.507	443.06
422.73	506.06
422.953	505.06
423.175	449.06
423.398	418.06
423.621	429.06
423.843	426.06
424.066	423.06
424.288	437.06
424.511	458.06
424.733	475.06
424.956	519.06
425.178	487.06
425.401	503.06
425.623	494.06
425.846	450.06
426.068	414.06
426.291	414.06
426.513	422.06
426.735	421.06
426.958	467.06
427.18	486.06
427.402	583.06
427.625	622.06
427.847	547.06
428.069	483.06
428.292	449.06
428.514	421.06
428.736	405.06
428.958	443.06
429.181	414.06
429.403	394.06
429.625	412.06
429.847	436.06
430.069	450.06
430.292	455.06
430.514	406.06
430.736	400.06
430.958	383.06
431.18	378.06
431.402	388.06
431.624	386.06
431.846	364.06
432.068	384.06
432.29	380.06
432.512	390.06
432.734	380.06
432.956	387.06
433.178	380.06
433.4	396.06
433.622	396.06
433.844	370.06
434.066	385.06
434.287	369.06
434.509	375.06
434.731	395.06
434.953	372.06
435.175	385.06
435.397	417.06
435.618	429.06
435.84	438.06
436.062	522.06
436.284	539.06
436.505	466.06
436.727	423.06
436.949	398.06
437.17	405.06
437.392	392.06
437.614	395.06
437.835	423.06
438.057	481.06
438.278	511.06
438.5	541.06
438.721	582.06
438.943	563.06
439.165	460.06
439.386	419.06
439.608	409.06
439.829	412.06
440.05	453.06
440.272	460.06
440.493	427.06
440.715	409.06
440.936	383.06
441.158	379.06
441.379	403.06
441.6	424.06
441.822	409.06
442.043	435.06
442.264	471.06
442.486	508.06
442.707	438.06
442.928	436.06
443.149	431.06
443.371	466.06
443.592	460.06
443.813	513.06
444.034	571.06
444.255	473.06
444.476	430.06
444.698	430.06
444.919	430.06
445.14	505.06
445.361	460.06
445.582	449.06
445.803	466.06
446.024	532.06
446.245	537.06
446.466	499.06
446.687	434.06
446.908	412.06
447.129	395.06
447.35	388.06
447.571	389.06
447.792	371.06
448.013	395.06
448.234	383.06
448.455	422.06
448.675	476.06
448.896	572.06
449.117	482.06
449.338	470.06
449.559	549.06
449.779	593.06
450	497.06
450.221	425.06
450.442	395.06
450.662	389.06
450.883	367.06
451.104	354.06
451.324	368.06
451.545	370.06
451.766	358.06
451.986	344.06
452.207	344.06
452.428	323.06
452.648	362.06
452.869	344.06
453.089	359.06
453.31	357.06
453.53	366.06
453.751	333.06
453.971	355.06
454.192	358.06
454.412	335.06
454.633	341.06
454.853	342.06
455.073	357.06
455.294	374.06
455.514	394.06
455.734	407.06
455.955	353.06
456.175	330.06
456.395	324.06
456.616	320.06
456.836	322.06
457.056	338.06
457.276	337.06
457.497	339.06
457.717	353.06
457.937	339.06
458.157	355.06
458.377	341.06
458.598	349.06
458.818	390.06
459.038	421.06
459.258	421.06
459.478	402.06
459.698	373.06
459.918	366.06
460.138	377.06
460.358	358.06
460.578	373.06
460.798	378.06
461.018	402.06
461.238	376.06
461.458	381.06
461.678	389.06
461.898	397.06
462.118	377.06
462.338	417.06
462.558	401.06
462.777	380.06
462.997	423.06
463.217	419.06
463.437	421.06
463.657	406.06
463.876	405.06
464.096	413.06
464.316	434.06
464.536	411.06
464.755	388.06
464.975	399.06
465.195	399.06
465.414	460.06
465.634	427.06
465.854	392.06
466.073	373.06
466.293	367.06
466.512	369.06
466.732	359.06
466.951	344.06
467.171	349.06
467.391	366.06
467.61	379.06
467.829	370.06
468.049	366.06
468.268	368.06
468.488	367.06
468.707	373.06
468.927	364.06
469.146	365.06
469.365	350.06
469.585	345.06
469.804	347.06
470.023	366.06
470.243	375.06
470.462	367.06
470.681	376.06
470.901	377.06
471.12	361.06
471.339	364.06
471.558	360.06
471.777	358.06
471.997	348.06
472.216	355.06
472.435	374.06
472.654	366.06
472.873	363.06
473.092	362.06
473.311	357.06
473.53	374.06
473.749	389.06
473.968	390.06
474.187	463.06
474.406	477.06
474.625	392.06
474.844	402.06
475.063	365.06
475.282	369.06
475.501	380.06
475.72	363.06
475.939	367.06
476.158	355.06
476.377	380.06
476.596	371.06
476.814	370.06
477.033	383.06
477.252	385.06
477.471	405.06
477.69	399.06
477.908	390.06
478.127	406.06
478.346	406.06
478.564	394.06
478.783	396.06
479.002	406.06
479.22	417.06
479.439	430.06
479.658	420.06
479.876	409.06
480.095	437.06
480.313	462.06
480.532	427.06
480.751	413.06
480.969	445.06
481.188	489.06
481.406	477.06
481.624	447.06
481.843	427.06
482.061	442.06
482.28	422.06
482.498	425.06
482.717	417.06
482.935	451.06
483.153	432.06
483.372	421.06
483.59	431.06
483.808	427.06
484.027	430.06
484.245	405.06
484.463	419.06
484.681	449.06
484.9	442.06
485.118	444.06
485.336	442.06
485.554	450.06
485.772	435.06
485.99	433.06
486.209	452.06
486.427	440.06
486.645	424.06
486.863	437.06
487.081	445.06
487.299	445.06
487.517	462.06
487.735	443.06
487.953	457.06
488.171	441.06
488.389	449.06
488.607	442.06
488.825	442.06
489.043	444.06
489.261	433.06
489.479	431.06
489.696	457.06
489.914	456.06
490.132	465.06
490.35	468.06
490.568	467.06
490.786	477.06
491.003	470.06
491.221	489.06
491.439	488.06
491.657	489.06
491.874	485.06
492.092	483.06
492.31	490.06
492.527	488.06
492.745	477.06
492.963	501.06
493.18	511.06
493.398	508.06
493.615	524.06
493.833	500.06
494.05	518.06
494.268	507.06
494.485	488.06
494.703	514.06
494.92	512.06
495.138	507.06
495.355	535.06
495.573	520.06
495.79	512.06
496.008	526.06
496.225	526.06
496.442	521.06
496.66	524.06
496.877	533.06
497.094	539.06
497.312	528.06
497.529	529.06
497.746	562.06
497.963	561.06
498.181	556.06
498.398	573.06
498.615	581.06
498.832	618.06
499.049	613.06
499.267	593.06
499.484	643.06
499.701	675.06
499.918	670.06
500.135	700.06
500.352	731.06
500.569	747.06
500.786	765.06
501.003	739.06
501.22	712.06
501.437	696.06
501.654	679.06
501.871	661.06
502.088	648.06
502.305	621.06
502.522	589.06
502.739	570.06
502.956	568.06
503.172	541.06
503.389	542.06
503.606	553.06
503.823	554.06
504.04	545.06
504.256	544.06
504.473	524.06
504.69	510.06
504.907	532.06
505.123	535.06
505.34	497.06
505.557	515.06
505.773	504.06
505.99	501.06
506.207	481.06
506.423	489.06
506.64	481.06
506.856	456.06
507.073	477.06
507.289	482.06
507.506	460.06
507.722	472.06
507.939	497.06
508.155	471.06
508.372	485.06
508.588	473.06
508.805	459.06
509.021	455.06
509.238	463.06
509.454	469.06
509.67	469.06
509.887	437.06
510.103	458.06
510.319	470.06
510.536	512.06
510.752	761.06
510.968	600.06
511.184	473.06
511.401	435.06
511.617	450.06
511.833	452.06
512.049	442.06
512.265	428.06
512.481	455.06
512.698	425.06
512.914	445.06
513.13	455.06
513.346	443.06
513.562	438.06
513.778	445.06
513.994	442.06
514.21	428.06
514.426	460.06
514.642	476.06
514.858	480.06
515.074	506.06
515.29	587.06
515.506	763.06
515.721	640.06
515.937	470.06
516.153	472.06
516.369	475.06
516.585	458.06
516.801	452.06
517.016	474.06
517.232	442.06
517.448	460.06
517.664	458.06
517.879	454.06
518.095	443.06
518.311	457.06
518.527	468.06
518.742	445.06
518.958	459.06
519.173	439.06
519.389	445.06
519.605	451.06
519.82	425.06
520.036	450.06
520.251	446.06
520.467	468.06
520.682	445.06
520.898	453.06
521.113	456.06
521.329	501.06
521.544	527.06
521.76	611.06
521.975	911.06
522.19	876.06
522.406	559.06
522.621	459.06
522.836	435.06
523.052	429.06
523.267	420.06
523.482	394.06
523.698	425.06
523.913	402.06
524.128	401.06
524.343	379.06
524.559	394.06
524.774	370.06
524.989	389.06
525.204	406.06
525.419	404.06
525.634	387.06
525.849	400.06
526.064	373.06
526.28	389.06
526.495	371.06
526.71	382.06
526.925	370.06
527.14	384.06
527.355	398.06
527.57	373.06
527.785	380.06
527.999	345.06
528.214	369.06
528.429	369.06
528.644	351.06
528.859	369.06
529.074	373.06
529.289	370.06
529.503	403.06
529.718	403.06
529.933	388.06
530.148	399.06
530.363	373.06
530.577	378.06
530.792	358.06
531.007	363.06
531.221	372.06
531.436	371.06
531.651	374.06
531.865	355.06
532.08	365.06
532.295	366.06
532.509	367.06
532.724	366.06
532.938	351.06
533.153	357.06
533.367	366.06
533.582	342.06
533.796	369.06
534.011	341.06
534.225	356.06
534.44	349.06
534.654	337.06
534.868	346.06
535.083	372.06
535.297	363.06
535.511	369.06
535.726	371.06
535.94	381.06
536.154	357.06
536.369	362.06
536.583	335.06
536.797	327.06
537.011	337.06
537.225	357.06
537.44	338.06
537.654	339.06
537.868	345.06
538.082	334.06
538.296	337.06
538.51	348.06
538.724	357.06
538.938	357.06
539.153	326.06
539.367	339.06
539.581	361.06
539.795	335.06
540.009	338.06
540.222	342.06
540.436	327.06
540.65	332.06
540.864	345.06
541.078	341.06
541.292	335.06
541.506	331.06
541.72	350.06
541.934	333.06
542.147	342.06
542.361	351.06
542.575	341.06
542.789	329.06
543.002	332.06
543.216	350.06
543.43	349.06
543.644	326.06
543.857	346.06
544.071	343.06
544.285	354.06
544.498	361.06
544.712	361.06
544.925	362.06
545.139	322.06
545.352	337.06
545.566	331.06
545.779	341.06
545.993	362.06
546.206	343.06
546.42	339.06
546.633	327.06
546.847	338.06
547.06	323.06
547.274	330.06
547.487	321.06
547.7	333.06
547.914	314.06
548.127	331.06
548.34	350.06
548.554	314.06
548.767	327.06
548.98	324.06
549.193	325.06
549.407	321.06
549.62	330.06
549.833	331.06
550.046	346.06
550.259	322.06
550.473	337.06
550.686	326.06
550.899	319.06
551.112	327.06
551.325	308.06
551.538	319.06
551.751	316.06
551.964	324.06
552.177	325.06
552.39	327.06
552.603	315.06
552.816	339.06
553.029	340.06
553.242	355.06
553.455	330.06
553.667	332.06
553.88	339.06
554.093	337.06
554.306	342.06
554.519	339.06
554.732	322.06
554.944	315.06
555.157	305.06
555.37	311.06
555.583	320.06
555.795	317.06
556.008	321.06
556.221	302.06
556.433	319.06
556.646	312.06
556.859	307.06
557.071	309.06
557.284	300.06
557.496	300.06
557.709	305.06
557.921	301.06
558.134	293.06
558.346	302.06
558.559	307.06
558.771	306.06
558.984	274.06
559.196	300.06
559.409	301.06
559.621	307.06
559.833	321.06
560.046	307.06
560.258	286.06
560.47	296.06
560.683	291.06
560.895	297.06
561.107	302.06
561.32	303.06
561.532	270.06
561.744	271.06
561.956	291.06
562.168	295.06
562.381	295.06
562.593	289.06
562.805	295.06
563.017	301.06
563.229	310.06
563.441	318.06
563.653	302.06
563.865	289.06
564.077	305.06
564.289	301.06
564.501	291.06
564.713	290.06
564.925	301.06
565.137	311.06
565.349	321.06
565.561	321.06
565.773	327.06
565.985	351.06
566.197	314.06
566.408	333.06
566.62	343.06
566.832	365.06
567.044	357.06
567.255	362.06
567.467	361.06
567.679	358.06
567.891	367.06
568.102	363.06
568.314	379.06
568.526	371.06
568.737	359.06
568.949	334.06
569.161	339.06
569.372	324.06
569.584	319.06
569.795	307.06
570.007	304.06
570.218	313.06
570.43	319.06
570.641	295.06
570.853	279.06
571.064	284.06
571.276	307.06
571.487	293.06
571.698	278.06
571.91	268.06
572.121	301.06
572.333	275.06
572.544	274.06
572.755	267.06
572.966	269.06
573.178	254.06
573.389	260.06
573.6	274.06
573.811	261.06
574.023	257.06
574.234	273.06
574.445	251.06
574.656	255.06
574.867	263.06
575.078	255.06
575.289	251.06
575.501	270.06
575.712	239.06
575.923	258.06
576.134	263.06
576.345	256.06
576.556	241.06
576.767	243.06
576.978	255.06
577.188	257.06
577.399	259.06
577.61	250.06
577.821	261.06
578.032	267.06
578.243	276.06
578.454	380.06
578.665	309.06
578.875	246.06
579.086	250.06
579.297	246.06
579.508	242.06
579.718	245.06
579.929	250.06
580.14	250.06
580.35	238.06
580.561	240.06
580.772	230.06
580.982	255.06
581.193	252.06
581.403	237.06
581.614	231.06
581.825	237.06
582.035	228.06
582.246	218.06
582.456	225.06
582.667	232.06
582.877	236.06
583.087	226.06
583.298	229.06
583.508	251.06
583.719	241.06
583.929	237.06
584.139	219.06
584.35	232.06
584.56	235.06
584.77	227.06
584.981	234.06
585.191	225.06
585.401	234.06
585.611	216.06
585.821	216.06
586.032	221.06
586.242	241.06
586.452	241.06
586.662	243.06
586.872	229.06
587.082	235.06
587.292	215.06
587.502	223.06
587.713	209.06
587.923	224.06
588.133	227.06
588.343	241.06
588.553	234.06
588.762	226.06
588.972	228.06
589.182	291.06
589.392	254.06
589.602	246.06
589.812	249.06
590.022	259.06
590.232	220.06
590.441	227.06
590.651	233.06
590.861	216.06
591.071	213.06
591.281	243.06
591.49	222.06
591.7	247.06
591.91	234.06
592.119	241.06
592.329	244.06
592.539	258.06
592.748	261.06
592.958	248.06
593.167	237.06
593.377	243.06
593.587	261.06
593.796	246.06
594.006	231.06
594.215	227.06
594.424	248.06
594.634	240.06
594.843	212.06
595.053	226.06
595.262	233.06
595.472	222.06
595.681	229.06
595.89	227.06
596.1	227.06
596.309	227.06
596.518	214.06
596.727	214.06
596.937	212.06
597.146	221.06
597.355	238.06
597.564	219.06
597.774	220.06
597.983	209.06
598.192	187.06
598.401	200.06
598.61	219.06
598.819	218.06
599.028	222.06
599.237	209.06
599.446	204.06
599.655	204.06
599.864	197.06
600.073	204.06
600.282	205.06
600.491	200.06
600.7	216.06
600.909	194.06
601.118	200.06
601.327	197.06
601.536	213.06
601.745	209.06
601.953	205.06
602.162	199.06
602.371	195.06
602.58	199.06
602.789	188.06
602.997	195.06
603.206	208.06
603.415	197.06
603.623	212.06
603.832	202.06
604.041	203.06
604.249	198.06
604.458	201.06
604.666	203.06
604.875	201.06
605.084	196.06
605.292	189.06
605.501	198.06
605.709	197.06
605.918	196.06
606.126	207.06
606.334	186.06
606.543	177.06
606.751	195.06
606.96	202.06
607.168	175.06
607.376	197.06
607.585	186.06
607.793	207.06
608.001	201.06
608.21	192.06
608.418	185.06
608.626	196.06
608.834	174.06
609.043	192.06
609.251	183.06
609.459	194.06
609.667	196.06
609.875	189.06
610.083	193.06
610.291	192.06
610.499	185.06
610.707	195.06
610.916	195.06
611.124	196.06
611.332	178.06
611.54	201.06
611.748	181.06
611.955	225.06
612.163	193.06
612.371	186.06
612.579	183.06
612.787	192.06
612.995	193.06
613.203	194.06
613.411	196.06
613.618	183.06
613.826	185.06
614.034	197.06
614.242	197.06
614.449	172.06
614.657	187.06
614.865	195.06
615.072	187.06
615.28	198.06
615.488	200.06
615.695	192.06
615.903	173.06
616.111	189.06
616.318	186.06
616.526	197.06
616.733	202.06
616.941	185.06
617.148	175.06
617.356	196.06
617.563	196.06
617.771	179.06
617.978	182.06
618.185	183.06
618.393	193.06
618.6	194.06
618.807	176.06
619.015	187.06
619.222	184.06
619.429	175.06
619.637	182.06
619.844	204.06
620.051	180.06
620.258	183.06
620.466	178.06
620.673	184.06
620.88	174.06
621.087	177.06
621.294	161.06
621.501	151.06
621.708	184.06
621.915	174.06
622.122	177.06
622.329	194.06
622.536	184.06
622.743	179.06
622.95	179.06
623.157	176.06
623.364	165.06
623.571	174.06
623.778	185.06
623.985	186.06
624.192	179.06
624.399	163.06
624.606	187.06
624.812	173.06
625.019	180.06
625.226	170.06
625.433	184.06
625.639	169.06
625.846	180.06
626.053	169.06
626.259	177.06
626.466	164.06
626.673	171.06
626.879	157.06
627.086	180.06
627.293	166.06
627.499	174.06
627.706	173.06
627.912	168.06
628.119	169.06
628.325	156.06
628.532	150.06
628.738	165.06
628.945	157.06
629.151	146.06
629.357	167.06
629.564	148.06
629.77	163.06
629.976	165.06
630.183	168.06
630.389	177.06
630.595	161.06
630.802	161.06
631.008	150.06
631.214	165.06
631.42	183.06
631.627	159.06
631.833	165.06
632.039	154.06
632.245	159.06
632.451	161.06
632.657	150.06
632.863	137.06
633.069	140.06
633.275	154.06
633.481	157.06
633.688	145.06
633.893	158.06
634.099	163.06
634.305	153.06
634.511	165.06
634.717	142.06
634.923	154.06
635.129	129.06
635.335	141.06
635.541	138.06
635.747	158.06
635.952	168.06
636.158	161.06
636.364	150.06
636.57	166.06
636.775	137.06
636.981	150.06
637.187	144.06
637.392	167.06
637.598	145.06
637.804	153.06
638.009	163.06
638.215	164.06
638.421	147.06
638.626	128.06
638.832	146.06
639.037	143.06
639.243	143.06
639.448	142.06
639.654	170.06
639.859	143.06
640.065	145.06
640.27	162.06
640.475	138.06
640.681	156.06
640.886	159.06
641.091	155.06
641.297	143.06
641.502	148.06
641.707	136.06
641.913	154.06
642.118	140.06
642.323	134.06
642.528	138.06
642.733	126.06
642.939	143.06
643.144	132.06
643.349	142.06
643.554	131.06
643.759	139.06
643.964	131.06
644.169	135.06
644.374	150.06
644.579	140.06
644.784	140.06
644.989	138.06
645.194	135.06
645.399	135.06
645.604	140.06
645.809	143.06
646.014	141.06
646.219	134.06
646.423	155.06
646.628	142.06
646.833	162.06
647.038	144.06
647.243	138.06
647.447	137.06
647.652	133.06
647.857	150.06
648.062	125.06
648.266	142.06
648.471	141.06
648.676	147.06
648.88	146.06
649.085	136.06
649.289	122.06
649.494	148.06
649.698	163.06
649.903	151.06
650.107	137.06
650.312	139.06
650.516	137.06
650.721	136.06
650.925	127.06
651.13	122.06
651.334	132.06
651.539	131.06
651.743	119.06
651.947	149.06
652.152	151.06
652.356	129.06
652.56	146.06
652.764	131.06
652.969	123.06
653.173	121.06
653.377	123.06
653.581	111.06
653.785	113.06
653.99	116.06
654.194	123.06
654.398	121.06
654.602	135.06
654.806	126.06
655.01	134.06
655.214	130.06
655.418	123.06
655.622	132.06
655.826	126.06
656.03	132.06
656.234	133.06
656.438	124.06
656.642	130.06
656.846	121.06
657.049	121.06
657.253	129.06
657.457	108.06
657.661	117.06
657.865	114.06
658.068	106.06
658.272	112.06
658.476	105.06
658.68	94.06
658.883	100.06
659.087	100.06
659.291	93.06
659.494	107.06
659.698	92.06
659.901	100.06
660.105	106.06
660.309	92.06
660.512	101.06
660.716	85.06
660.919	82.06
661.123	100.06
661.326	89.06
661.53	94.06
661.733	80.06
661.936	83.06
662.14	81.06
662.343	84.06
662.546	102.06
662.75	75.06
662.953	82.06
663.156	91.06
663.36	78.06
663.563	73.06
663.766	79.06
663.969	70.06
664.173	92.06
664.376	92.06
664.579	81.06
664.782	73.06
664.985	97.06
665.188	87.06
665.391	97.06
665.594	80.06
665.797	86.06
666	86.06
666.203	80.06
666.406	84.06
666.609	89.06
666.812	79.06
667.015	97.06
667.218	73.06
667.421	84.06
667.624	87.06
667.827	80.06
668.03	78.06
668.232	85.06
668.435	82.06
668.638	93.06
668.841	77.06
669.043	81.06
669.246	87.06
669.449	77.06
669.651	84.06
669.854	72.06
670.057	79.06
670.259	79.06
670.462	84.06
670.665	86.06
670.867	59.06
671.07	91.06
671.272	84.06
671.475	81.06
671.677	64.06
671.88	74.06
672.082	78.06
672.284	82.06
672.487	83.06
672.689	82.06
672.892	79.06
