Data from 1960PennyLincolnUp.LampE6.200Scan.07172019.P1_HRD10591_13-06-22-002.txt Node
Date: Thu Jul 18 13:06:22 EDT 2019
User: cochatt
Spectrometer: HR+D1059
Trigger mode: 1
Integration Time (sec): 1.000000E-1
Scans to average: 1
Electric dark correction enabled: true
Nonlinearity correction enabled: false
Boxcar width: 0
XAxis mode: Wavelengths
Number of Pixels in Spectrum: 2048
>>>>>Begin Spectral Data<<<<<
223.165	-15.94
223.4	-15.94
223.635	-15.94
223.869	-21.94
224.104	-16.94
224.338	-5.94
224.573	-6.94
224.808	-10.94
225.042	-22.94
225.277	-6.94
225.511	1.06
225.746	-3.94
225.98	15.06
226.215	6.06
226.449	10.06
226.683	23.06
226.918	34.06
227.152	23.06
227.387	29.06
227.621	51.06
227.856	53.06
228.09	31.06
228.324	57.06
228.559	62.06
228.793	66.06
229.027	80.06
229.262	88.06
229.496	108.06
229.73	112.06
229.964	126.06
230.199	90.06
230.433	111.06
230.667	121.06
230.901	115.06
231.136	114.06
231.37	107.06
231.604	104.06
231.838	110.06
232.072	105.06
232.306	107.06
232.541	112.06
232.775	121.06
233.009	113.06
233.243	123.06
233.477	126.06
233.711	131.06
233.945	111.06
234.179	116.06
234.413	107.06
234.647	117.06
234.881	113.06
235.115	113.06
235.349	111.06
235.583	130.06
235.817	118.06
236.051	115.06
236.285	129.06
236.519	120.06
236.753	125.06
236.987	122.06
237.221	144.06
237.455	172.06
237.689	150.06
237.922	134.06
238.156	109.06
238.39	119.06
238.624	121.06
238.858	122.06
239.091	115.06
239.325	117.06
239.559	121.06
239.793	123.06
240.027	138.06
240.26	128.06
240.494	146.06
240.728	152.06
240.961	148.06
241.195	129.06
241.429	123.06
241.662	120.06
241.896	121.06
242.13	119.06
242.363	129.06
242.597	137.06
242.83	138.06
243.064	143.06
243.298	146.06
243.531	130.06
243.765	120.06
243.998	129.06
244.232	128.06
244.465	130.06
244.699	149.06
244.932	158.06
245.166	141.06
245.399	147.06
245.633	137.06
245.866	148.06
246.099	138.06
246.333	152.06
246.566	159.06
246.8	169.06
247.033	161.06
247.266	160.06
247.5	167.06
247.733	169.06
247.966	159.06
248.2	169.06
248.433	158.06
248.666	165.06
248.899	159.06
249.133	182.06
249.366	186.06
249.599	173.06
249.832	175.06
250.066	170.06
250.299	158.06
250.532	172.06
250.765	186.06
250.998	217.06
251.231	196.06
251.465	195.06
251.698	186.06
251.931	176.06
252.164	183.06
252.397	201.06
252.63	197.06
252.863	199.06
253.096	197.06
253.329	194.06
253.562	211.06
253.795	207.06
254.028	192.06
254.261	200.06
254.494	206.06
254.727	219.06
254.96	241.06
255.193	234.06
255.426	214.06
255.659	207.06
255.892	213.06
256.124	211.06
256.357	207.06
256.59	198.06
256.823	196.06
257.056	196.06
257.289	207.06
257.521	195.06
257.754	209.06
257.987	191.06
258.22	205.06
258.452	212.06
258.685	189.06
258.918	180.06
259.151	201.06
259.383	199.06
259.616	208.06
259.849	216.06
260.081	216.06
260.314	224.06
260.547	213.06
260.779	206.06
261.012	216.06
261.244	206.06
261.477	190.06
261.71	199.06
261.942	215.06
262.175	211.06
262.407	208.06
262.64	186.06
262.872	215.06
263.105	201.06
263.337	208.06
263.57	210.06
263.802	206.06
264.035	199.06
264.267	219.06
264.499	199.06
264.732	207.06
264.964	181.06
265.197	217.06
265.429	199.06
265.661	202.06
265.894	211.06
266.126	208.06
266.358	210.06
266.591	225.06
266.823	220.06
267.055	227.06
267.287	228.06
267.52	230.06
267.752	238.06
267.984	211.06
268.216	221.06
268.448	224.06
268.681	215.06
268.913	227.06
269.145	261.06
269.377	275.06
269.609	249.06
269.841	243.06
270.073	247.06
270.306	275.06
270.538	259.06
270.77	278.06
271.002	255.06
271.234	280.06
271.466	269.06
271.698	279.06
271.93	281.06
272.162	293.06
272.394	289.06
272.626	265.06
272.858	244.06
273.09	255.06
273.322	251.06
273.553	244.06
273.785	245.06
274.017	253.06
274.249	273.06
274.481	250.06
274.713	255.06
274.945	274.06
275.176	257.06
275.408	267.06
275.64	242.06
275.872	273.06
276.104	237.06
276.335	257.06
276.567	253.06
276.799	284.06
277.031	276.06
277.262	296.06
277.494	291.06
277.726	263.06
277.957	267.06
278.189	263.06
278.421	262.06
278.652	266.06
278.884	268.06
279.115	262.06
279.347	262.06
279.579	263.06
279.81	273.06
280.042	280.06
280.273	270.06
280.505	281.06
280.736	286.06
280.968	257.06
281.199	276.06
281.431	267.06
281.662	286.06
281.894	267.06
282.125	268.06
282.356	287.06
282.588	301.06
282.819	288.06
283.051	277.06
283.282	294.06
283.513	266.06
283.745	290.06
283.976	274.06
284.207	274.06
284.439	278.06
284.67	280.06
284.901	294.06
285.132	315.06
285.364	299.06
285.595	290.06
285.826	283.06
286.057	307.06
286.288	292.06
286.52	287.06
286.751	275.06
286.982	299.06
287.213	278.06
287.444	311.06
287.675	315.06
287.906	314.06
288.138	326.06
288.369	323.06
288.6	321.06
288.831	310.06
289.062	294.06
289.293	299.06
289.524	289.06
289.755	302.06
289.986	313.06
290.217	309.06
290.448	301.06
290.679	291.06
290.91	311.06
291.141	299.06
291.371	325.06
291.602	303.06
291.833	305.06
292.064	307.06
292.295	314.06
292.526	327.06
292.757	309.06
292.987	298.06
293.218	303.06
293.449	306.06
293.68	314.06
293.91	320.06
294.141	318.06
294.372	318.06
294.603	312.06
294.833	320.06
295.064	291.06
295.295	314.06
295.525	298.06
295.756	330.06
295.987	317.06
296.217	331.06
296.448	325.06
296.679	329.06
296.909	325.06
297.14	321.06
297.37	351.06
297.601	310.06
297.831	326.06
298.062	318.06
298.292	328.06
298.523	336.06
298.753	322.06
298.984	323.06
299.214	331.06
299.445	343.06
299.675	334.06
299.905	334.06
300.136	321.06
300.366	343.06
300.597	347.06
300.827	343.06
301.057	343.06
301.288	345.06
301.518	339.06
301.748	345.06
301.979	353.06
302.209	350.06
302.439	345.06
302.669	336.06
302.9	337.06
303.13	336.06
303.36	331.06
303.59	363.06
303.82	359.06
304.051	363.06
304.281	333.06
304.511	338.06
304.741	367.06
304.971	344.06
305.201	359.06
305.431	325.06
305.661	330.06
305.891	354.06
306.121	327.06
306.352	349.06
306.582	360.06
306.812	332.06
307.042	350.06
307.272	353.06
307.502	354.06
307.731	355.06
307.961	334.06
308.191	343.06
308.421	348.06
308.651	356.06
308.881	358.06
309.111	342.06
309.341	361.06
309.571	335.06
309.8	358.06
310.03	356.06
310.26	385.06
310.49	361.06
310.72	369.06
310.949	374.06
311.179	367.06
311.409	362.06
311.639	371.06
311.868	377.06
312.098	373.06
312.328	379.06
312.557	387.06
312.787	391.06
313.017	415.06
313.246	374.06
313.476	391.06
313.706	380.06
313.935	396.06
314.165	403.06
314.394	390.06
314.624	394.06
314.853	389.06
315.083	401.06
315.312	380.06
315.542	378.06
315.771	374.06
316.001	385.06
316.23	378.06
316.46	372.06
316.689	375.06
316.919	378.06
317.148	405.06
317.377	401.06
317.607	369.06
317.836	381.06
318.065	389.06
318.295	374.06
318.524	381.06
318.753	385.06
318.983	394.06
319.212	389.06
319.441	389.06
319.67	388.06
319.9	375.06
320.129	361.06
320.358	379.06
320.587	414.06
320.816	392.06
321.046	388.06
321.275	391.06
321.504	383.06
321.733	387.06
321.962	398.06
322.191	400.06
322.42	398.06
322.649	426.06
322.878	417.06
323.108	419.06
323.337	430.06
323.566	430.06
323.795	454.06
324.024	497.06
324.253	538.06
324.482	739.06
324.71	1017.06
324.939	1373.06
325.168	1160.06
325.397	637.06
325.626	499.06
325.855	449.06
326.084	456.06
326.313	456.06
326.542	442.06
326.77	497.06
326.999	550.06
327.228	709.06
327.457	948.06
327.686	1087.06
327.914	773.06
328.143	551.06
328.372	507.06
328.6	486.06
328.829	481.06
329.058	499.06
329.287	506.06
329.515	486.06
329.744	459.06
329.972	473.06
330.201	494.06
330.43	489.06
330.658	522.06
330.887	515.06
331.115	527.06
331.344	465.06
331.572	467.06
331.801	464.06
332.03	470.06
332.258	458.06
332.486	490.06
332.715	495.06
332.943	498.06
333.172	473.06
333.4	497.06
333.629	525.06
333.857	537.06
334.085	525.06
334.314	547.06
334.542	563.06
334.771	567.06
334.999	557.06
335.227	514.06
335.455	512.06
335.684	494.06
335.912	486.06
336.14	471.06
336.369	472.06
336.597	504.06
336.825	471.06
337.053	483.06
337.281	487.06
337.51	440.06
337.738	449.06
337.966	449.06
338.194	463.06
338.422	463.06
338.65	459.06
338.878	456.06
339.106	447.06
339.334	457.06
339.562	440.06
339.79	445.06
340.018	455.06
340.246	446.06
340.474	455.06
340.702	441.06
340.93	449.06
341.158	433.06
341.386	433.06
341.614	431.06
341.842	468.06
342.07	424.06
342.298	431.06
342.526	441.06
342.754	442.06
342.981	443.06
343.209	446.06
343.437	453.06
343.665	470.06
343.893	480.06
344.12	487.06
344.348	466.06
344.576	476.06
344.804	456.06
345.031	456.06
345.259	442.06
345.487	455.06
345.714	441.06
345.942	447.06
346.17	433.06
346.397	408.06
346.625	430.06
346.853	410.06
347.08	413.06
347.308	449.06
347.535	403.06
347.763	424.06
347.99	419.06
348.218	431.06
348.445	429.06
348.673	404.06
348.9	418.06
349.128	421.06
349.355	415.06
349.583	423.06
349.81	438.06
350.037	398.06
350.265	408.06
350.492	399.06
350.72	404.06
350.947	421.06
351.174	422.06
351.402	424.06
351.629	420.06
351.856	446.06
352.083	420.06
352.311	414.06
352.538	433.06
352.765	449.06
352.992	421.06
353.22	415.06
353.447	421.06
353.674	418.06
353.901	413.06
354.128	429.06
354.355	406.06
354.583	390.06
354.81	417.06
355.037	406.06
355.264	416.06
355.491	403.06
355.718	406.06
355.945	406.06
356.172	393.06
356.399	419.06
356.626	404.06
356.853	407.06
357.08	415.06
357.307	399.06
357.534	394.06
357.761	409.06
357.988	410.06
358.215	421.06
358.441	423.06
358.668	428.06
358.895	421.06
359.122	405.06
359.349	428.06
359.576	436.06
359.802	443.06
360.029	459.06
360.256	466.06
360.483	441.06
360.709	406.06
360.936	432.06
361.163	399.06
361.39	409.06
361.616	408.06
361.843	415.06
362.07	421.06
362.296	438.06
362.523	423.06
362.749	401.06
362.976	397.06
363.203	422.06
363.429	416.06
363.656	418.06
363.882	395.06
364.109	383.06
364.335	401.06
364.562	414.06
364.788	433.06
365.015	440.06
365.241	421.06
365.468	409.06
365.694	402.06
365.92	424.06
366.147	396.06
366.373	402.06
366.599	413.06
366.826	383.06
367.052	424.06
367.278	431.06
367.505	408.06
367.731	432.06
367.957	406.06
368.184	433.06
368.41	432.06
368.636	429.06
368.862	421.06
369.089	433.06
369.315	426.06
369.541	408.06
369.767	429.06
369.993	433.06
370.219	457.06
370.445	420.06
370.672	418.06
370.898	420.06
371.124	425.06
371.35	425.06
371.576	445.06
371.802	421.06
372.028	432.06
372.254	421.06
372.48	423.06
372.706	426.06
372.932	448.06
373.158	437.06
373.384	429.06
373.61	424.06
373.835	462.06
374.061	438.06
374.287	434.06
374.513	424.06
374.739	455.06
374.965	461.06
375.191	463.06
375.416	455.06
375.642	425.06
375.868	448.06
376.094	427.06
376.319	436.06
376.545	438.06
376.771	438.06
376.997	402.06
377.222	434.06
377.448	426.06
377.674	428.06
377.899	423.06
378.125	429.06
378.35	413.06
378.576	428.06
378.802	439.06
379.027	430.06
379.253	429.06
379.478	408.06
379.704	433.06
379.929	417.06
380.155	413.06
380.38	428.06
380.606	423.06
380.831	423.06
381.057	424.06
381.282	415.06
381.507	436.06
381.733	422.06
381.958	435.06
382.184	453.06
382.409	451.06
382.634	451.06
382.86	451.06
383.085	447.06
383.31	450.06
383.535	429.06
383.761	447.06
383.986	446.06
384.211	474.06
384.436	473.06
384.662	479.06
384.887	479.06
385.112	465.06
385.337	504.06
385.562	489.06
385.787	499.06
386.013	495.06
386.238	492.06
386.463	487.06
386.688	502.06
386.913	483.06
387.138	493.06
387.363	473.06
387.588	487.06
387.813	487.06
388.038	484.06
388.263	485.06
388.488	500.06
388.713	482.06
388.938	472.06
389.163	483.06
389.387	483.06
389.612	496.06
389.837	488.06
390.062	471.06
390.287	497.06
390.512	508.06
390.736	476.06
390.961	499.06
391.186	502.06
391.411	510.06
391.636	528.06
391.86	538.06
392.085	521.06
392.31	538.06
392.534	515.06
392.759	522.06
392.984	518.06
393.208	505.06
393.433	511.06
393.658	530.06
393.882	501.06
394.107	494.06
394.331	493.06
394.556	513.06
394.78	511.06
395.005	528.06
395.229	514.06
395.454	516.06
395.678	529.06
395.903	513.06
396.127	546.06
396.352	528.06
396.576	502.06
396.801	494.06
397.025	513.06
397.249	512.06
397.474	538.06
397.698	508.06
397.922	552.06
398.147	535.06
398.371	555.06
398.595	547.06
398.82	578.06
399.044	617.06
399.268	625.06
399.492	710.06
399.717	783.06
399.941	775.06
400.165	741.06
400.389	693.06
400.613	659.06
400.837	609.06
401.062	588.06
401.286	581.06
401.51	595.06
401.734	585.06
401.958	567.06
402.182	563.06
402.406	615.06
402.63	578.06
402.854	597.06
403.078	613.06
403.302	623.06
403.526	629.06
403.75	627.06
403.974	649.06
404.198	623.06
404.422	647.06
404.645	633.06
404.869	626.06
405.093	645.06
405.317	688.06
405.541	695.06
405.765	628.06
405.988	638.06
406.212	627.06
406.436	656.06
406.66	661.06
406.883	640.06
407.107	705.06
407.331	723.06
407.555	783.06
407.778	777.06
408.002	717.06
408.226	663.06
408.449	659.06
408.673	640.06
408.896	653.06
409.12	665.06
409.344	666.06
409.567	628.06
409.791	621.06
410.014	598.06
410.238	612.06
410.461	609.06
410.685	605.06
410.908	608.06
411.132	638.06
411.355	640.06
411.578	625.06
411.802	592.06
412.025	607.06
412.249	570.06
412.472	623.06
412.695	648.06
412.919	611.06
413.142	603.06
413.365	581.06
413.589	597.06
413.812	562.06
414.035	564.06
414.258	579.06
414.482	586.06
414.705	571.06
414.928	567.06
415.151	551.06
415.374	557.06
415.597	577.06
415.821	548.06
416.044	557.06
416.267	580.06
416.49	552.06
416.713	549.06
416.936	557.06
417.159	546.06
417.382	579.06
417.605	549.06
417.828	562.06
418.051	593.06
418.274	580.06
418.497	570.06
418.72	576.06
418.943	558.06
419.166	613.06
419.389	623.06
419.611	614.06
419.834	622.06
420.057	602.06
420.28	598.06
420.503	586.06
420.726	582.06
420.948	566.06
421.171	615.06
421.394	623.06
421.617	594.06
421.839	573.06
422.062	579.06
422.285	595.06
422.507	613.06
422.73	673.06
422.953	646.06
423.175	633.06
423.398	627.06
423.621	603.06
423.843	633.06
424.066	621.06
424.288	618.06
424.511	617.06
424.733	674.06
424.956	717.06
425.178	697.06
425.401	673.06
425.623	675.06
425.846	633.06
426.068	602.06
426.291	575.06
426.513	568.06
426.735	578.06
426.958	601.06
427.18	650.06
427.402	719.06
427.625	767.06
427.847	700.06
428.069	632.06
428.292	599.06
428.514	550.06
428.736	547.06
428.958	525.06
429.181	507.06
429.403	538.06
429.625	510.06
429.847	569.06
430.069	592.06
430.292	592.06
430.514	523.06
430.736	545.06
430.958	521.06
431.18	510.06
431.402	512.06
431.624	493.06
431.846	514.06
432.068	495.06
432.29	546.06
432.512	528.06
432.734	520.06
432.956	512.06
433.178	513.06
433.4	542.06
433.622	532.06
433.844	549.06
434.066	531.06
434.287	529.06
434.509	530.06
434.731	539.06
434.953	553.06
435.175	579.06
435.397	580.06
435.618	581.06
435.84	590.06
436.062	669.06
436.284	680.06
436.505	606.06
436.727	537.06
436.949	541.06
437.17	532.06
437.392	513.06
437.614	541.06
437.835	545.06
438.057	611.06
438.278	647.06
438.5	643.06
438.721	709.06
438.943	700.06
439.165	598.06
439.386	555.06
439.608	562.06
439.829	535.06
440.05	591.06
440.272	601.06
440.493	577.06
440.715	547.06
440.936	552.06
441.158	557.06
441.379	563.06
441.6	574.06
441.822	600.06
442.043	615.06
442.264	658.06
442.486	680.06
442.707	587.06
442.928	577.06
443.149	569.06
443.371	597.06
443.592	636.06
443.813	687.06
444.034	741.06
444.255	669.06
444.476	629.06
444.698	654.06
444.919	644.06
445.14	749.06
445.361	678.06
445.582	635.06
445.803	642.06
446.024	712.06
446.245	706.06
446.466	630.06
446.687	590.06
446.908	553.06
447.129	526.06
447.35	531.06
447.571	541.06
447.792	497.06
448.013	514.06
448.234	525.06
448.455	553.06
448.675	605.06
448.896	687.06
449.117	599.06
449.338	589.06
449.559	642.06
449.779	715.06
450	585.06
450.221	521.06
450.442	501.06
450.662	509.06
450.883	500.06
451.104	515.06
451.324	508.06
451.545	479.06
451.766	467.06
451.986	464.06
452.207	469.06
452.428	461.06
452.648	470.06
452.869	465.06
453.089	470.06
453.31	478.06
453.53	472.06
453.751	450.06
453.971	465.06
454.192	454.06
454.412	455.06
454.633	446.06
454.853	457.06
455.073	475.06
455.294	480.06
455.514	501.06
455.734	474.06
455.955	457.06
456.175	449.06
456.395	454.06
456.616	419.06
456.836	431.06
457.056	438.06
457.276	429.06
457.497	450.06
457.717	446.06
457.937	447.06
458.157	462.06
458.377	445.06
458.598	466.06
458.818	510.06
459.038	550.06
459.258	574.06
459.478	535.06
459.698	527.06
459.918	529.06
460.138	535.06
460.358	551.06
460.578	547.06
460.798	553.06
461.018	557.06
461.238	569.06
461.458	553.06
461.678	523.06
461.898	560.06
462.118	576.06
462.338	560.06
462.558	575.06
462.777	611.06
462.997	607.06
463.217	710.06
463.437	665.06
463.657	617.06
463.876	605.06
464.096	614.06
464.316	603.06
464.536	618.06
464.755	605.06
464.975	591.06
465.195	597.06
465.414	631.06
465.634	573.06
465.854	528.06
466.073	511.06
466.293	487.06
466.512	494.06
466.732	513.06
466.951	495.06
467.171	485.06
467.391	480.06
467.61	495.06
467.829	497.06
468.049	491.06
468.268	499.06
468.488	474.06
468.707	488.06
468.927	474.06
469.146	450.06
469.365	450.06
469.585	479.06
469.804	501.06
470.023	510.06
470.243	499.06
470.462	508.06
470.681	515.06
470.901	507.06
471.12	508.06
471.339	475.06
471.558	504.06
471.777	507.06
471.997	459.06
472.216	475.06
472.435	487.06
472.654	497.06
472.873	481.06
473.092	486.06
473.311	497.06
473.53	478.06
473.749	471.06
473.968	503.06
474.187	550.06
474.406	564.06
474.625	490.06
474.844	473.06
475.063	477.06
475.282	479.06
475.501	475.06
475.72	490.06
475.939	492.06
476.158	494.06
476.377	484.06
476.596	506.06
476.814	503.06
477.033	507.06
477.252	510.06
477.471	506.06
477.69	525.06
477.908	529.06
478.127	537.06
478.346	555.06
478.564	557.06
478.783	554.06
479.002	570.06
479.22	561.06
479.439	569.06
479.658	571.06
479.876	606.06
480.095	594.06
480.313	633.06
480.532	619.06
480.751	614.06
480.969	612.06
481.188	661.06
481.406	637.06
481.624	565.06
481.843	573.06
482.061	576.06
482.28	557.06
482.498	525.06
482.717	537.06
482.935	551.06
483.153	555.06
483.372	558.06
483.59	545.06
483.808	552.06
484.027	531.06
484.245	557.06
484.463	557.06
484.681	565.06
484.9	533.06
485.118	569.06
485.336	557.06
485.554	547.06
485.772	576.06
485.99	553.06
486.209	564.06
486.427	582.06
486.645	554.06
486.863	571.06
487.081	593.06
487.299	585.06
487.517	589.06
487.735	584.06
487.953	597.06
488.171	568.06
488.389	591.06
488.607	577.06
488.825	598.06
489.043	590.06
489.261	574.06
489.479	593.06
489.696	584.06
489.914	583.06
490.132	575.06
490.35	609.06
490.568	605.06
490.786	609.06
491.003	635.06
491.221	623.06
491.439	623.06
491.657	638.06
491.874	653.06
492.092	675.06
492.31	662.06
492.527	677.06
492.745	646.06
492.963	645.06
493.18	675.06
493.398	669.06
493.615	690.06
493.833	663.06
494.05	654.06
494.268	665.06
494.485	665.06
494.703	688.06
494.92	689.06
495.138	702.06
495.355	658.06
495.573	681.06
495.79	677.06
496.008	681.06
496.225	672.06
496.442	657.06
496.66	679.06
496.877	657.06
497.094	701.06
497.312	710.06
497.529	710.06
497.746	705.06
497.963	730.06
498.181	742.06
498.398	773.06
498.615	793.06
498.832	823.06
499.049	861.06
499.267	907.06
499.484	983.06
499.701	1034.06
499.918	1067.06
500.135	1212.06
500.352	1303.06
500.569	1343.06
500.786	1331.06
501.003	1251.06
501.22	1154.06
501.437	1098.06
501.654	1010.06
501.871	967.06
502.088	899.06
502.305	842.06
502.522	824.06
502.739	801.06
502.956	766.06
503.172	741.06
503.389	713.06
503.606	731.06
503.823	707.06
504.04	711.06
504.256	705.06
504.473	729.06
504.69	713.06
504.907	691.06
505.123	670.06
505.34	648.06
505.557	643.06
505.773	638.06
505.99	622.06
506.207	625.06
506.423	624.06
506.64	591.06
506.856	633.06
507.073	595.06
507.289	598.06
507.506	601.06
507.722	591.06
507.939	639.06
508.155	616.06
508.372	586.06
508.588	577.06
508.805	607.06
509.021	561.06
509.238	586.06
509.454	592.06
509.67	581.06
509.887	580.06
510.103	562.06
510.319	570.06
510.536	644.06
510.752	913.06
510.968	753.06
511.184	567.06
511.401	551.06
511.617	524.06
511.833	561.06
512.049	546.06
512.265	542.06
512.481	523.06
512.698	527.06
512.914	529.06
513.13	529.06
513.346	556.06
513.562	538.06
513.778	540.06
513.994	534.06
514.21	571.06
514.426	565.06
514.642	592.06
514.858	587.06
515.074	614.06
515.29	695.06
515.506	981.06
515.721	836.06
515.937	630.06
516.153	616.06
516.369	597.06
516.585	578.06
516.801	590.06
517.016	639.06
517.232	647.06
517.448	654.06
517.664	658.06
517.879	661.06
518.095	627.06
518.311	618.06
518.527	616.06
518.742	604.06
518.958	588.06
519.173	573.06
519.389	557.06
519.605	578.06
519.82	577.06
520.036	565.06
520.251	565.06
520.467	591.06
520.682	567.06
520.898	564.06
521.113	558.06
521.329	582.06
521.544	645.06
521.76	729.06
521.975	1187.06
522.19	1212.06
522.406	704.06
522.621	564.06
522.836	544.06
523.052	525.06
523.267	531.06
523.482	478.06
523.698	506.06
523.913	472.06
524.128	469.06
524.343	469.06
524.559	485.06
524.774	482.06
524.989	474.06
525.204	466.06
525.419	481.06
525.634	477.06
525.849	464.06
526.064	465.06
526.28	471.06
526.495	473.06
526.71	465.06
526.925	457.06
527.14	449.06
527.355	472.06
527.57	443.06
527.785	479.06
527.999	442.06
528.214	469.06
528.429	461.06
528.644	458.06
528.859	478.06
529.074	480.06
529.289	484.06
529.503	522.06
529.718	528.06
529.933	497.06
530.148	486.06
530.363	467.06
530.577	450.06
530.792	455.06
531.007	435.06
531.221	441.06
531.436	442.06
531.651	457.06
531.865	469.06
532.08	439.06
532.295	445.06
532.509	457.06
532.724	450.06
532.938	447.06
533.153	472.06
533.367	460.06
533.582	452.06
533.796	448.06
534.011	451.06
534.225	456.06
534.44	454.06
534.654	450.06
534.868	448.06
535.083	453.06
535.297	451.06
535.511	442.06
535.726	449.06
535.94	456.06
536.154	433.06
536.369	451.06
536.583	441.06
536.797	442.06
537.011	424.06
537.225	425.06
537.44	417.06
537.654	435.06
537.868	414.06
538.082	416.06
538.296	438.06
538.51	446.06
538.724	425.06
538.938	424.06
539.153	409.06
539.367	425.06
539.581	395.06
539.795	424.06
540.009	418.06
540.222	420.06
540.436	423.06
540.65	427.06
540.864	450.06
541.078	442.06
541.292	466.06
541.506	423.06
541.72	434.06
541.934	423.06
542.147	407.06
542.361	416.06
542.575	414.06
542.789	415.06
543.002	404.06
543.216	418.06
543.43	410.06
543.644	429.06
543.857	431.06
544.071	438.06
544.285	429.06
544.498	433.06
544.712	437.06
544.925	434.06
545.139	426.06
545.352	414.06
545.566	432.06
545.779	427.06
545.993	434.06
546.206	423.06
546.42	431.06
546.633	427.06
546.847	434.06
547.06	432.06
547.274	441.06
547.487	427.06
547.7	427.06
547.914	418.06
548.127	436.06
548.34	432.06
548.554	424.06
548.767	437.06
548.98	440.06
549.193	447.06
549.407	436.06
549.62	425.06
549.833	430.06
550.046	423.06
550.259	446.06
550.473	427.06
550.686	445.06
550.899	387.06
551.112	416.06
551.325	426.06
551.538	420.06
551.751	413.06
551.964	411.06
552.177	441.06
552.39	437.06
552.603	447.06
552.816	444.06
553.029	454.06
553.242	454.06
553.455	469.06
553.667	470.06
553.88	461.06
554.093	449.06
554.306	442.06
554.519	459.06
554.732	415.06
554.944	414.06
555.157	431.06
555.37	395.06
555.583	404.06
555.795	414.06
556.008	409.06
556.221	390.06
556.433	375.06
556.646	405.06
556.859	385.06
557.071	402.06
557.284	389.06
557.496	405.06
557.709	356.06
557.921	355.06
558.134	389.06
558.346	373.06
558.559	383.06
558.771	365.06
558.984	345.06
559.196	375.06
559.409	367.06
559.621	371.06
559.833	370.06
560.046	371.06
560.258	362.06
560.47	361.06
560.683	346.06
560.895	374.06
561.107	358.06
561.32	356.06
561.532	382.06
561.744	369.06
561.956	385.06
562.168	378.06
562.381	381.06
562.593	362.06
562.805	367.06
563.017	365.06
563.229	366.06
563.441	373.06
563.653	368.06
563.865	374.06
564.077	395.06
564.289	371.06
564.501	385.06
564.713	394.06
564.925	403.06
565.137	403.06
565.349	402.06
565.561	411.06
565.773	430.06
565.985	427.06
566.197	458.06
566.408	470.06
566.62	504.06
566.832	534.06
567.044	532.06
567.255	535.06
567.467	544.06
567.679	559.06
567.891	582.06
568.102	579.06
568.314	575.06
568.526	546.06
568.737	508.06
568.949	467.06
569.161	441.06
569.372	419.06
569.584	428.06
569.795	407.06
570.007	386.06
570.218	425.06
570.43	387.06
570.641	377.06
570.853	375.06
571.064	392.06
571.276	362.06
571.487	363.06
571.698	362.06
571.91	356.06
572.121	349.06
572.333	327.06
572.544	328.06
572.755	351.06
572.966	333.06
573.178	315.06
573.389	331.06
573.6	329.06
573.811	303.06
574.023	321.06
574.234	333.06
574.445	319.06
574.656	312.06
574.867	325.06
575.078	337.06
575.289	320.06
575.501	318.06
575.712	297.06
575.923	311.06
576.134	297.06
576.345	306.06
576.556	300.06
576.767	296.06
576.978	296.06
577.188	309.06
577.399	293.06
577.61	288.06
577.821	296.06
578.032	295.06
578.243	316.06
578.454	426.06
578.665	346.06
578.875	295.06
579.086	286.06
579.297	296.06
579.508	282.06
579.718	276.06
579.929	267.06
580.14	282.06
580.35	300.06
580.561	289.06
580.772	296.06
580.982	280.06
581.193	274.06
581.403	279.06
581.614	287.06
581.825	265.06
582.035	274.06
582.246	272.06
582.456	289.06
582.667	277.06
582.877	277.06
583.087	263.06
583.298	280.06
583.508	260.06
583.719	270.06
583.929	299.06
584.139	276.06
584.35	268.06
584.56	294.06
584.77	271.06
584.981	277.06
585.191	275.06
585.401	278.06
585.611	297.06
585.821	269.06
586.032	287.06
586.242	278.06
586.452	282.06
586.662	283.06
586.872	292.06
587.082	269.06
587.292	273.06
587.502	273.06
587.713	271.06
587.923	271.06
588.133	252.06
588.343	269.06
588.553	262.06
588.762	259.06
588.972	262.06
589.182	289.06
589.392	278.06
589.602	255.06
589.812	298.06
590.022	284.06
590.232	278.06
590.441	277.06
590.651	269.06
590.861	275.06
591.071	279.06
591.281	295.06
591.49	289.06
591.7	278.06
591.91	287.06
592.119	279.06
592.329	295.06
592.539	303.06
592.748	296.06
592.958	307.06
593.167	312.06
593.377	316.06
593.587	336.06
593.796	339.06
594.006	323.06
594.215	324.06
594.424	349.06
594.634	313.06
594.843	313.06
595.053	304.06
595.262	294.06
595.472	290.06
595.681	270.06
595.89	273.06
596.1	270.06
596.309	269.06
596.518	265.06
596.727	264.06
596.937	283.06
597.146	259.06
597.355	258.06
597.564	252.06
597.774	254.06
597.983	237.06
598.192	245.06
598.401	250.06
598.61	246.06
598.819	274.06
599.028	244.06
599.237	236.06
599.446	249.06
599.655	242.06
599.864	236.06
600.073	244.06
600.282	234.06
600.491	260.06
600.7	232.06
600.909	248.06
601.118	241.06
601.327	250.06
601.536	237.06
601.745	205.06
601.953	237.06
602.162	242.06
602.371	241.06
602.58	250.06
602.789	224.06
602.997	236.06
603.206	226.06
603.415	241.06
603.623	230.06
603.832	233.06
604.041	226.06
604.249	219.06
604.458	232.06
604.666	234.06
604.875	245.06
605.084	230.06
605.292	225.06
605.501	243.06
605.709	232.06
605.918	232.06
606.126	228.06
606.334	225.06
606.543	242.06
606.751	238.06
606.96	219.06
607.168	232.06
607.376	216.06
607.585	224.06
607.793	212.06
608.001	207.06
608.21	215.06
608.418	219.06
608.626	232.06
608.834	217.06
609.043	227.06
609.251	219.06
609.459	253.06
609.667	231.06
609.875	210.06
610.083	227.06
610.291	224.06
610.499	227.06
610.707	243.06
610.916	231.06
611.124	225.06
611.332	224.06
611.54	223.06
611.748	229.06
611.955	209.06
612.163	241.06
612.371	240.06
612.579	229.06
612.787	215.06
612.995	210.06
613.203	228.06
613.411	215.06
613.618	225.06
613.826	221.06
614.034	232.06
614.242	212.06
614.449	213.06
614.657	194.06
614.865	229.06
615.072	212.06
615.28	223.06
615.488	208.06
615.695	241.06
615.903	229.06
616.111	241.06
616.318	225.06
616.526	245.06
616.733	239.06
616.941	230.06
617.148	214.06
617.356	214.06
617.563	231.06
617.771	215.06
617.978	206.06
618.185	225.06
618.393	214.06
618.6	212.06
618.807	214.06
619.015	228.06
619.222	210.06
619.429	198.06
619.637	208.06
619.844	200.06
620.051	209.06
620.258	203.06
620.466	217.06
620.673	208.06
620.88	199.06
621.087	212.06
621.294	206.06
621.501	203.06
621.708	198.06
621.915	195.06
622.122	212.06
622.329	202.06
622.536	202.06
622.743	211.06
622.95	205.06
623.157	194.06
623.364	190.06
623.571	206.06
623.778	202.06
623.985	200.06
624.192	180.06
624.399	195.06
624.606	214.06
624.812	210.06
625.019	214.06
625.226	208.06
625.433	200.06
625.639	191.06
625.846	195.06
626.053	182.06
626.259	193.06
626.466	206.06
626.673	196.06
626.879	178.06
627.086	185.06
627.293	199.06
627.499	203.06
627.706	184.06
627.912	186.06
628.119	205.06
628.325	191.06
628.532	198.06
628.738	164.06
628.945	206.06
629.151	197.06
629.357	184.06
629.564	190.06
629.77	195.06
629.976	180.06
630.183	194.06
630.389	185.06
630.595	182.06
630.802	187.06
631.008	173.06
631.214	170.06
631.42	170.06
631.627	154.06
631.833	151.06
632.039	175.06
632.245	165.06
632.451	188.06
632.657	170.06
632.863	165.06
633.069	171.06
633.275	169.06
633.481	176.06
633.688	177.06
633.893	175.06
634.099	181.06
634.305	184.06
634.511	179.06
634.717	178.06
634.923	181.06
635.129	192.06
635.335	167.06
635.541	163.06
635.747	165.06
635.952	159.06
636.158	178.06
636.364	161.06
636.57	170.06
636.775	184.06
636.981	159.06
637.187	163.06
637.392	157.06
637.598	175.06
637.804	159.06
638.009	158.06
638.215	179.06
638.421	160.06
638.626	155.06
638.832	165.06
639.037	169.06
639.243	163.06
639.448	183.06
639.654	161.06
639.859	161.06
640.065	151.06
640.27	162.06
640.475	170.06
640.681	158.06
640.886	174.06
641.091	161.06
641.297	154.06
641.502	160.06
641.707	140.06
641.913	166.06
642.118	159.06
642.323	159.06
642.528	172.06
642.733	153.06
642.939	175.06
643.144	167.06
643.349	154.06
643.554	162.06
643.759	150.06
643.964	152.06
644.169	164.06
644.374	140.06
644.579	159.06
644.784	156.06
644.989	162.06
645.194	158.06
645.399	174.06
645.604	162.06
645.809	174.06
646.014	168.06
646.219	153.06
646.423	165.06
646.628	168.06
646.833	159.06
647.038	159.06
647.243	151.06
647.447	157.06
647.652	138.06
647.857	153.06
648.062	161.06
648.266	178.06
648.471	170.06
648.676	163.06
648.88	171.06
649.085	163.06
649.289	154.06
649.494	174.06
649.698	156.06
649.903	182.06
650.107	158.06
650.312	177.06
650.516	155.06
650.721	150.06
650.925	159.06
651.13	143.06
651.334	160.06
651.539	150.06
651.743	146.06
651.947	150.06
652.152	137.06
652.356	135.06
652.56	139.06
652.764	144.06
652.969	150.06
653.173	134.06
653.377	152.06
653.581	132.06
653.785	131.06
653.99	135.06
654.194	134.06
654.398	136.06
654.602	131.06
654.806	128.06
655.01	133.06
655.214	133.06
655.418	134.06
655.622	127.06
655.826	130.06
656.03	140.06
656.234	153.06
656.438	145.06
656.642	144.06
656.846	129.06
657.049	102.06
657.253	132.06
657.457	107.06
657.661	119.06
657.865	101.06
658.068	117.06
658.272	110.06
658.476	109.06
658.68	112.06
658.883	105.06
659.087	100.06
659.291	95.06
659.494	97.06
659.698	103.06
659.901	101.06
660.105	102.06
660.309	94.06
660.512	88.06
660.716	101.06
660.919	86.06
661.123	93.06
661.326	90.06
661.53	78.06
661.733	96.06
661.936	98.06
662.14	103.06
662.343	86.06
662.546	90.06
662.75	89.06
662.953	78.06
663.156	79.06
663.36	79.06
663.563	89.06
663.766	69.06
663.969	69.06
664.173	90.06
664.376	94.06
664.579	89.06
664.782	77.06
664.985	77.06
665.188	86.06
665.391	67.06
665.594	89.06
665.797	81.06
666	93.06
666.203	87.06
666.406	69.06
666.609	88.06
666.812	79.06
667.015	94.06
667.218	69.06
667.421	65.06
667.624	71.06
667.827	89.06
668.03	81.06
668.232	84.06
668.435	71.06
668.638	81.06
668.841	95.06
669.043	82.06
669.246	85.06
669.449	78.06
669.651	74.06
669.854	84.06
670.057	81.06
670.259	99.06
670.462	85.06
670.665	66.06
670.867	73.06
671.07	77.06
671.272	95.06
671.475	84.06
671.677	81.06
671.88	76.06
672.082	71.06
672.284	99.06
672.487	84.06
672.689	88.06
672.892	93.06
