Data from 1960PennyLincolnUp.LampE5.5.200Scan.07172019.P1.ChangedAngle_HRD10591_13-14-27-824.txt Node
Date: Thu Jul 18 13:14:27 EDT 2019
User: cochatt
Spectrometer: HR+D1059
Trigger mode: 1
Integration Time (sec): 1.000000E-1
Scans to average: 1
Electric dark correction enabled: true
Nonlinearity correction enabled: false
Boxcar width: 0
XAxis mode: Wavelengths
Number of Pixels in Spectrum: 2048
>>>>>Begin Spectral Data<<<<<
223.165	-14.31
223.4	-14.31
223.635	-14.31
223.869	-14.31
224.104	-20.31
224.338	-9.31
224.573	-16.31
224.808	-12.31
225.042	-5.31
225.277	-17.31
225.511	-0.31
225.746	-0.31
225.98	11.69
226.215	0.69
226.449	11.69
226.683	34.69
226.918	26.69
227.152	24.69
227.387	32.69
227.621	27.69
227.856	37.69
228.09	38.69
228.324	37.69
228.559	53.69
228.793	59.69
229.027	71.69
229.262	83.69
229.496	102.69
229.73	110.69
229.964	105.69
230.199	101.69
230.433	81.69
230.667	102.69
230.901	94.69
231.136	104.69
231.37	75.69
231.604	99.69
231.838	115.69
232.072	95.69
232.306	98.69
232.541	104.69
232.775	112.69
233.009	106.69
233.243	105.69
233.477	115.69
233.711	99.69
233.945	100.69
234.179	102.69
234.413	115.69
234.647	94.69
234.881	101.69
235.115	94.69
235.349	99.69
235.583	102.69
235.817	105.69
236.051	100.69
236.285	108.69
236.519	124.69
236.753	112.69
236.987	117.69
237.221	125.69
237.455	134.69
237.689	142.69
237.922	129.69
238.156	108.69
238.39	103.69
238.624	115.69
238.858	113.69
239.091	107.69
239.325	102.69
239.559	104.69
239.793	107.69
240.027	115.69
240.26	114.69
240.494	129.69
240.728	112.69
240.961	108.69
241.195	124.69
241.429	125.69
241.662	132.69
241.896	112.69
242.13	118.69
242.363	119.69
242.597	115.69
242.83	118.69
243.064	126.69
243.298	112.69
243.531	128.69
243.765	114.69
243.998	120.69
244.232	138.69
244.465	122.69
244.699	150.69
244.932	143.69
245.166	115.69
245.399	129.69
245.633	137.69
245.866	120.69
246.099	130.69
246.333	130.69
246.566	141.69
246.8	125.69
247.033	124.69
247.266	130.69
247.5	130.69
247.733	121.69
247.966	142.69
248.2	138.69
248.433	145.69
248.666	148.69
248.899	159.69
249.133	158.69
249.366	159.69
249.599	166.69
249.832	150.69
250.066	156.69
250.299	149.69
250.532	166.69
250.765	154.69
250.998	186.69
251.231	192.69
251.465	176.69
251.698	175.69
251.931	150.69
252.164	176.69
252.397	172.69
252.63	169.69
252.863	162.69
253.096	175.69
253.329	182.69
253.562	183.69
253.795	175.69
254.028	184.69
254.261	163.69
254.494	186.69
254.727	199.69
254.96	189.69
255.193	190.69
255.426	199.69
255.659	199.69
255.892	199.69
256.124	180.69
256.357	188.69
256.59	186.69
256.823	176.69
257.056	182.69
257.289	177.69
257.521	177.69
257.754	188.69
257.987	178.69
258.22	176.69
258.452	178.69
258.685	182.69
258.918	175.69
259.151	192.69
259.383	194.69
259.616	181.69
259.849	197.69
260.081	192.69
260.314	224.69
260.547	219.69
260.779	206.69
261.012	206.69
261.244	201.69
261.477	193.69
261.71	188.69
261.942	182.69
262.175	192.69
262.407	197.69
262.64	193.69
262.872	182.69
263.105	186.69
263.337	202.69
263.57	182.69
263.802	187.69
264.035	197.69
264.267	194.69
264.499	185.69
264.732	192.69
264.964	193.69
265.197	203.69
265.429	188.69
265.661	182.69
265.894	196.69
266.126	191.69
266.358	200.69
266.591	195.69
266.823	188.69
267.055	205.69
267.287	194.69
267.52	187.69
267.752	206.69
267.984	210.69
268.216	203.69
268.448	225.69
268.681	215.69
268.913	207.69
269.145	210.69
269.377	225.69
269.609	231.69
269.841	234.69
270.073	224.69
270.306	244.69
270.538	237.69
270.77	227.69
271.002	265.69
271.234	251.69
271.466	242.69
271.698	237.69
271.93	251.69
272.162	251.69
272.394	252.69
272.626	260.69
272.858	266.69
273.09	248.69
273.322	235.69
273.553	225.69
273.785	244.69
274.017	237.69
274.249	238.69
274.481	234.69
274.713	232.69
274.945	247.69
275.176	241.69
275.408	251.69
275.64	230.69
275.872	222.69
276.104	233.69
276.335	227.69
276.567	233.69
276.799	252.69
277.031	253.69
277.262	249.69
277.494	266.69
277.726	269.69
277.957	261.69
278.189	256.69
278.421	242.69
278.652	228.69
278.884	226.69
279.115	239.69
279.347	262.69
279.579	239.69
279.81	238.69
280.042	242.69
280.273	230.69
280.505	251.69
280.736	231.69
280.968	239.69
281.199	241.69
281.431	249.69
281.662	262.69
281.894	243.69
282.125	250.69
282.356	267.69
282.588	258.69
282.819	265.69
283.051	237.69
283.282	259.69
283.513	255.69
283.745	255.69
283.976	233.69
284.207	251.69
284.439	261.69
284.67	238.69
284.901	261.69
285.132	263.69
285.364	252.69
285.595	257.69
285.826	254.69
286.057	258.69
286.288	247.69
286.52	268.69
286.751	272.69
286.982	239.69
287.213	249.69
287.444	256.69
287.675	257.69
287.906	273.69
288.138	271.69
288.369	279.69
288.6	270.69
288.831	269.69
289.062	276.69
289.293	266.69
289.524	258.69
289.755	274.69
289.986	275.69
290.217	243.69
290.448	264.69
290.679	279.69
290.91	262.69
291.141	279.69
291.371	280.69
291.602	265.69
291.833	280.69
292.064	274.69
292.295	257.69
292.526	277.69
292.757	294.69
292.987	263.69
293.218	265.69
293.449	262.69
293.68	264.69
293.91	278.69
294.141	239.69
294.372	272.69
294.603	268.69
294.833	266.69
295.064	290.69
295.295	289.69
295.525	270.69
295.756	284.69
295.987	292.69
296.217	287.69
296.448	274.69
296.679	275.69
296.909	283.69
297.14	275.69
297.37	267.69
297.601	276.69
297.831	274.69
298.062	277.69
298.292	266.69
298.523	298.69
298.753	287.69
298.984	288.69
299.214	296.69
299.445	269.69
299.675	294.69
299.905	283.69
300.136	278.69
300.366	293.69
300.597	282.69
300.827	296.69
301.057	319.69
301.288	311.69
301.518	293.69
301.748	297.69
301.979	301.69
302.209	302.69
302.439	300.69
302.669	276.69
302.9	307.69
303.13	299.69
303.36	299.69
303.59	293.69
303.82	287.69
304.051	308.69
304.281	310.69
304.511	301.69
304.741	281.69
304.971	305.69
305.201	322.69
305.431	284.69
305.661	305.69
305.891	303.69
306.121	298.69
306.352	303.69
306.582	314.69
306.812	299.69
307.042	309.69
307.272	297.69
307.502	288.69
307.731	338.69
307.961	292.69
308.191	296.69
308.421	286.69
308.651	299.69
308.881	307.69
309.111	296.69
309.341	314.69
309.571	328.69
309.8	323.69
310.03	331.69
310.26	322.69
310.49	329.69
310.72	328.69
310.949	318.69
311.179	336.69
311.409	329.69
311.639	328.69
311.868	312.69
312.098	320.69
312.328	329.69
312.557	338.69
312.787	342.69
313.017	341.69
313.246	334.69
313.476	315.69
313.706	347.69
313.935	356.69
314.165	322.69
314.394	351.69
314.624	337.69
314.853	324.69
315.083	340.69
315.312	350.69
315.542	347.69
315.771	334.69
316.001	326.69
316.23	333.69
316.46	334.69
316.689	336.69
316.919	349.69
317.148	354.69
317.377	344.69
317.607	347.69
317.836	340.69
318.065	332.69
318.295	336.69
318.524	341.69
318.753	322.69
318.983	335.69
319.212	319.69
319.441	347.69
319.67	368.69
319.9	339.69
320.129	330.69
320.358	347.69
320.587	335.69
320.816	344.69
321.046	359.69
321.275	354.69
321.504	357.69
321.733	354.69
321.962	356.69
322.191	363.69
322.42	374.69
322.649	372.69
322.878	372.69
323.108	368.69
323.337	393.69
323.566	401.69
323.795	408.69
324.024	456.69
324.253	505.69
324.482	665.69
324.71	926.69
324.939	1220.69
325.168	1054.69
325.397	614.69
325.626	478.69
325.855	426.69
326.084	390.69
326.313	390.69
326.542	394.69
326.77	424.69
326.999	484.69
327.228	606.69
327.457	798.69
327.686	938.69
327.914	664.69
328.143	505.69
328.372	430.69
328.6	434.69
328.829	407.69
329.058	425.69
329.287	420.69
329.515	399.69
329.744	420.69
329.972	388.69
330.201	422.69
330.43	441.69
330.658	434.69
330.887	460.69
331.115	455.69
331.344	400.69
331.572	400.69
331.801	415.69
332.03	405.69
332.258	397.69
332.486	390.69
332.715	392.69
332.943	407.69
333.172	389.69
333.4	405.69
333.629	411.69
333.857	428.69
334.085	429.69
334.314	426.69
334.542	429.69
334.771	448.69
334.999	441.69
335.227	430.69
335.455	414.69
335.684	406.69
335.912	390.69
336.14	401.69
336.369	403.69
336.597	407.69
336.825	387.69
337.053	398.69
337.281	388.69
337.51	394.69
337.738	387.69
337.966	389.69
338.194	377.69
338.422	375.69
338.65	385.69
338.878	395.69
339.106	377.69
339.334	373.69
339.562	381.69
339.79	376.69
340.018	352.69
340.246	387.69
340.474	380.69
340.702	376.69
340.93	376.69
341.158	391.69
341.386	361.69
341.614	399.69
341.842	377.69
342.07	376.69
342.298	365.69
342.526	359.69
342.754	370.69
342.981	360.69
343.209	353.69
343.437	372.69
343.665	380.69
343.893	387.69
344.12	392.69
344.348	369.69
344.576	378.69
344.804	383.69
345.031	390.69
345.259	372.69
345.487	358.69
345.714	376.69
345.942	386.69
346.17	364.69
346.397	370.69
346.625	350.69
346.853	354.69
347.08	350.69
347.308	346.69
347.535	382.69
347.763	380.69
347.99	371.69
348.218	366.69
348.445	355.69
348.673	356.69
348.9	334.69
349.128	353.69
349.355	338.69
349.583	352.69
349.81	337.69
350.037	368.69
350.265	366.69
350.492	335.69
350.72	355.69
350.947	352.69
351.174	369.69
351.402	350.69
351.629	370.69
351.856	355.69
352.083	350.69
352.311	363.69
352.538	364.69
352.765	344.69
352.992	369.69
353.22	365.69
353.447	345.69
353.674	358.69
353.901	350.69
354.128	346.69
354.355	347.69
354.583	346.69
354.81	346.69
355.037	351.69
355.264	332.69
355.491	349.69
355.718	336.69
355.945	332.69
356.172	335.69
356.399	323.69
356.626	349.69
356.853	326.69
357.08	349.69
357.307	334.69
357.534	312.69
357.761	326.69
357.988	336.69
358.215	346.69
358.441	321.69
358.668	343.69
358.895	350.69
359.122	338.69
359.349	348.69
359.576	352.69
359.802	369.69
360.029	374.69
360.256	361.69
360.483	368.69
360.709	355.69
360.936	333.69
361.163	370.69
361.39	363.69
361.616	350.69
361.843	355.69
362.07	357.69
362.296	355.69
362.523	319.69
362.749	358.69
362.976	342.69
363.203	352.69
363.429	334.69
363.656	324.69
363.882	334.69
364.109	338.69
364.335	348.69
364.562	327.69
364.788	324.69
365.015	316.69
365.241	331.69
365.468	332.69
365.694	331.69
365.92	337.69
366.147	318.69
366.373	330.69
366.599	347.69
366.826	338.69
367.052	343.69
367.278	329.69
367.505	329.69
367.731	346.69
367.957	314.69
368.184	321.69
368.41	352.69
368.636	338.69
368.862	344.69
369.089	329.69
369.315	340.69
369.541	331.69
369.767	345.69
369.993	341.69
370.219	353.69
370.445	337.69
370.672	352.69
370.898	354.69
371.124	331.69
371.35	341.69
371.576	320.69
371.802	327.69
372.028	323.69
372.254	360.69
372.48	334.69
372.706	332.69
372.932	327.69
373.158	335.69
373.384	346.69
373.61	329.69
373.835	345.69
374.061	356.69
374.287	342.69
374.513	345.69
374.739	339.69
374.965	353.69
375.191	370.69
375.416	351.69
375.642	338.69
375.868	324.69
376.094	336.69
376.319	344.69
376.545	347.69
376.771	342.69
376.997	338.69
377.222	348.69
377.448	323.69
377.674	325.69
377.899	329.69
378.125	310.69
378.35	327.69
378.576	336.69
378.802	336.69
379.027	332.69
379.253	314.69
379.478	320.69
379.704	335.69
379.929	322.69
380.155	345.69
380.38	338.69
380.606	330.69
380.831	341.69
381.057	335.69
381.282	346.69
381.507	330.69
381.733	353.69
381.958	330.69
382.184	340.69
382.409	342.69
382.634	333.69
382.86	327.69
383.085	339.69
383.31	366.69
383.535	342.69
383.761	350.69
383.986	356.69
384.211	341.69
384.436	338.69
384.662	335.69
384.887	345.69
385.112	356.69
385.337	378.69
385.562	368.69
385.787	353.69
386.013	372.69
386.238	366.69
386.463	355.69
386.688	353.69
386.913	330.69
387.138	364.69
387.363	366.69
387.588	368.69
387.813	372.69
388.038	340.69
388.263	382.69
388.488	368.69
388.713	347.69
388.938	354.69
389.163	364.69
389.387	347.69
389.612	357.69
389.837	369.69
390.062	357.69
390.287	361.69
390.512	347.69
390.736	352.69
390.961	355.69
391.186	380.69
391.411	377.69
391.636	368.69
391.86	353.69
392.085	368.69
392.31	379.69
392.534	380.69
392.759	385.69
392.984	367.69
393.208	368.69
393.433	379.69
393.658	375.69
393.882	380.69
394.107	372.69
394.331	350.69
394.556	356.69
394.78	344.69
395.005	370.69
395.229	358.69
395.454	366.69
395.678	384.69
395.903	363.69
396.127	382.69
396.352	378.69
396.576	379.69
396.801	388.69
397.025	393.69
397.249	373.69
397.474	375.69
397.698	383.69
397.922	380.69
398.147	418.69
398.371	390.69
398.595	397.69
398.82	394.69
399.044	416.69
399.268	419.69
399.492	478.69
399.717	449.69
399.941	492.69
400.165	496.69
400.389	504.69
400.613	464.69
400.837	428.69
401.062	422.69
401.286	410.69
401.51	407.69
401.734	407.69
401.958	415.69
402.182	392.69
402.406	406.69
402.63	402.69
402.854	411.69
403.078	416.69
403.302	410.69
403.526	397.69
403.75	402.69
403.974	410.69
404.198	398.69
404.422	419.69
404.645	402.69
404.869	426.69
405.093	451.69
405.317	450.69
405.541	475.69
405.765	420.69
405.988	427.69
406.212	433.69
406.436	424.69
406.66	444.69
406.883	421.69
407.107	449.69
407.331	478.69
407.555	527.69
407.778	482.69
408.002	473.69
408.226	440.69
408.449	458.69
408.673	427.69
408.896	457.69
409.12	473.69
409.344	462.69
409.567	431.69
409.791	420.69
410.014	422.69
410.238	433.69
410.461	415.69
410.685	425.69
410.908	403.69
411.132	453.69
411.355	453.69
411.578	408.69
411.802	429.69
412.025	420.69
412.249	399.69
412.472	438.69
412.695	424.69
412.919	437.69
413.142	423.69
413.365	385.69
413.589	404.69
413.812	407.69
414.035	383.69
414.258	403.69
414.482	407.69
414.705	392.69
414.928	371.69
415.151	373.69
415.374	398.69
415.597	390.69
415.821	386.69
416.044	377.69
416.267	400.69
416.49	380.69
416.713	375.69
416.936	367.69
417.159	371.69
417.382	391.69
417.605	387.69
417.828	397.69
418.051	390.69
418.274	374.69
418.497	385.69
418.72	391.69
418.943	371.69
419.166	381.69
419.389	391.69
419.611	395.69
419.834	377.69
420.057	381.69
420.28	406.69
420.503	391.69
420.726	396.69
420.948	398.69
421.171	422.69
421.394	422.69
421.617	388.69
421.839	394.69
422.062	408.69
422.285	396.69
422.507	455.69
422.73	458.69
422.953	480.69
423.175	427.69
423.398	408.69
423.621	400.69
423.843	412.69
424.066	421.69
424.288	432.69
424.511	402.69
424.733	455.69
424.956	481.69
425.178	490.69
425.401	462.69
425.623	507.69
425.846	434.69
426.068	399.69
426.291	417.69
426.513	404.69
426.735	416.69
426.958	444.69
427.18	496.69
427.402	552.69
427.625	587.69
427.847	505.69
428.069	456.69
428.292	428.69
428.514	417.69
428.736	372.69
428.958	390.69
429.181	374.69
429.403	372.69
429.625	385.69
429.847	398.69
430.069	428.69
430.292	444.69
430.514	410.69
430.736	386.69
430.958	393.69
431.18	361.69
431.402	356.69
431.624	354.69
431.846	383.69
432.068	353.69
432.29	351.69
432.512	351.69
432.734	377.69
432.956	359.69
433.178	378.69
433.4	356.69
433.622	368.69
433.844	392.69
434.066	365.69
434.287	354.69
434.509	383.69
434.731	376.69
434.953	370.69
435.175	372.69
435.397	371.69
435.618	422.69
435.84	422.69
436.062	481.69
436.284	512.69
436.505	441.69
436.727	414.69
436.949	387.69
437.17	386.69
437.392	360.69
437.614	368.69
437.835	408.69
438.057	453.69
438.278	505.69
438.5	504.69
438.721	558.69
438.943	518.69
439.165	427.69
439.386	392.69
439.608	401.69
439.829	404.69
440.05	423.69
440.272	439.69
440.493	417.69
440.715	390.69
440.936	382.69
441.158	384.69
441.379	371.69
441.6	387.69
441.822	396.69
442.043	412.69
442.264	462.69
442.486	497.69
442.707	429.69
442.928	406.69
443.149	411.69
443.371	425.69
443.592	432.69
443.813	499.69
444.034	524.69
444.255	466.69
444.476	446.69
444.698	420.69
444.919	425.69
445.14	535.69
445.361	433.69
445.582	438.69
445.803	454.69
446.024	515.69
446.245	528.69
446.466	471.69
446.687	430.69
446.908	392.69
447.129	383.69
447.35	374.69
447.571	355.69
447.792	378.69
448.013	406.69
448.234	366.69
448.455	421.69
448.675	480.69
448.896	530.69
449.117	471.69
449.338	438.69
449.559	497.69
449.779	562.69
450	459.69
450.221	416.69
450.442	378.69
450.662	383.69
450.883	379.69
451.104	365.69
451.324	370.69
451.545	345.69
451.766	340.69
451.986	352.69
452.207	343.69
452.428	318.69
452.648	338.69
452.869	343.69
453.089	333.69
453.31	356.69
453.53	351.69
453.751	336.69
453.971	350.69
454.192	346.69
454.412	343.69
454.633	340.69
454.853	348.69
455.073	323.69
455.294	344.69
455.514	389.69
455.734	374.69
455.955	345.69
456.175	317.69
456.395	322.69
456.616	326.69
456.836	324.69
457.056	325.69
457.276	328.69
457.497	341.69
457.717	337.69
457.937	343.69
458.157	337.69
458.377	332.69
458.598	360.69
458.818	378.69
459.038	407.69
459.258	387.69
459.478	396.69
459.698	364.69
459.918	362.69
460.138	354.69
460.358	356.69
460.578	380.69
460.798	362.69
461.018	380.69
461.238	352.69
461.458	378.69
461.678	373.69
461.898	387.69
462.118	379.69
462.338	386.69
462.558	415.69
462.777	380.69
462.997	393.69
463.217	416.69
463.437	402.69
463.657	411.69
463.876	425.69
464.096	416.69
464.316	404.69
464.536	381.69
464.755	402.69
464.975	366.69
465.195	409.69
465.414	414.69
465.634	373.69
465.854	363.69
466.073	368.69
466.293	368.69
466.512	376.69
466.732	356.69
466.951	347.69
467.171	353.69
467.391	350.69
467.61	356.69
467.829	374.69
468.049	352.69
468.268	357.69
468.488	330.69
468.707	363.69
468.927	348.69
469.146	332.69
469.365	359.69
469.585	339.69
469.804	352.69
470.023	354.69
470.243	355.69
470.462	354.69
470.681	354.69
470.901	377.69
471.12	361.69
471.339	340.69
471.558	360.69
471.777	370.69
471.997	347.69
472.216	344.69
472.435	376.69
472.654	364.69
472.873	361.69
473.092	349.69
473.311	360.69
473.53	350.69
473.749	369.69
473.968	389.69
474.187	447.69
474.406	423.69
474.625	385.69
474.844	381.69
475.063	347.69
475.282	363.69
475.501	359.69
475.72	359.69
475.939	365.69
476.158	367.69
476.377	367.69
476.596	369.69
476.814	358.69
477.033	372.69
477.252	372.69
477.471	384.69
477.69	394.69
477.908	377.69
478.127	384.69
478.346	392.69
478.564	395.69
478.783	388.69
479.002	410.69
479.22	380.69
479.439	403.69
479.658	403.69
479.876	422.69
480.095	422.69
480.313	443.69
480.532	423.69
480.751	427.69
480.969	422.69
481.188	451.69
481.406	463.69
481.624	432.69
481.843	434.69
482.061	416.69
482.28	405.69
482.498	406.69
482.717	404.69
482.935	407.69
483.153	426.69
483.372	392.69
483.59	430.69
483.808	391.69
484.027	417.69
484.245	417.69
484.463	395.69
484.681	413.69
484.9	424.69
485.118	426.69
485.336	422.69
485.554	443.69
485.772	432.69
485.99	420.69
486.209	428.69
486.427	430.69
486.645	418.69
486.863	438.69
487.081	419.69
487.299	402.69
487.517	438.69
487.735	418.69
487.953	414.69
488.171	444.69
488.389	429.69
488.607	409.69
488.825	423.69
489.043	438.69
489.261	435.69
489.479	440.69
489.696	424.69
489.914	421.69
490.132	448.69
490.35	434.69
490.568	453.69
490.786	456.69
491.003	457.69
491.221	463.69
491.439	454.69
491.657	470.69
491.874	473.69
492.092	473.69
492.31	484.69
492.527	471.69
492.745	468.69
492.963	473.69
493.18	472.69
493.398	499.69
493.615	476.69
493.833	483.69
494.05	505.69
494.268	468.69
494.485	492.69
494.703	478.69
494.92	496.69
495.138	468.69
495.355	510.69
495.573	513.69
495.79	500.69
496.008	498.69
496.225	496.69
496.442	503.69
496.66	498.69
496.877	498.69
497.094	499.69
497.312	516.69
497.529	521.69
497.746	531.69
497.963	541.69
498.181	546.69
498.398	543.69
498.615	566.69
498.832	559.69
499.049	583.69
499.267	583.69
499.484	614.69
499.701	637.69
499.918	664.69
500.135	706.69
500.352	730.69
500.569	735.69
500.786	740.69
501.003	723.69
501.22	678.69
501.437	656.69
501.654	679.69
501.871	639.69
502.088	604.69
502.305	588.69
502.522	582.69
502.739	573.69
502.956	570.69
503.172	564.69
503.389	529.69
503.606	515.69
503.823	537.69
504.04	511.69
504.256	508.69
504.473	507.69
504.69	510.69
504.907	490.69
505.123	492.69
505.34	492.69
505.557	463.69
505.773	469.69
505.99	484.69
506.207	495.69
506.423	462.69
506.64	475.69
506.856	465.69
507.073	475.69
507.289	459.69
507.506	456.69
507.722	444.69
507.939	454.69
508.155	442.69
508.372	437.69
508.588	433.69
508.805	451.69
509.021	454.69
509.238	449.69
509.454	452.69
509.67	451.69
509.887	450.69
510.103	433.69
510.319	460.69
510.536	492.69
510.752	702.69
510.968	554.69
511.184	436.69
511.401	441.69
511.617	433.69
511.833	411.69
512.049	410.69
512.265	419.69
512.481	434.69
512.698	411.69
512.914	414.69
513.13	401.69
513.346	412.69
513.562	427.69
513.778	422.69
513.994	430.69
514.21	414.69
514.426	425.69
514.642	453.69
514.858	444.69
515.074	460.69
515.29	516.69
515.506	668.69
515.721	588.69
515.937	495.69
516.153	436.69
516.369	446.69
516.585	430.69
516.801	418.69
517.016	450.69
517.232	435.69
517.448	417.69
517.664	470.69
517.879	432.69
518.095	443.69
518.311	448.69
518.527	449.69
518.742	414.69
518.958	455.69
519.173	424.69
519.389	432.69
519.605	436.69
519.82	409.69
520.036	417.69
520.251	442.69
520.467	440.69
520.682	439.69
520.898	438.69
521.113	426.69
521.329	446.69
521.544	488.69
521.76	555.69
521.975	811.69
522.19	779.69
522.406	522.69
522.621	438.69
522.836	400.69
523.052	425.69
523.267	416.69
523.482	392.69
523.698	382.69
523.913	375.69
524.128	386.69
524.343	384.69
524.559	381.69
524.774	380.69
524.989	377.69
525.204	367.69
525.419	390.69
525.634	364.69
525.849	380.69
526.064	373.69
526.28	368.69
526.495	361.69
526.71	376.69
526.925	356.69
527.14	358.69
527.355	366.69
527.57	353.69
527.785	362.69
527.999	364.69
528.214	368.69
528.429	366.69
528.644	356.69
528.859	363.69
529.074	382.69
529.289	370.69
529.503	408.69
529.718	379.69
529.933	363.69
530.148	350.69
530.363	374.69
530.577	347.69
530.792	348.69
531.007	339.69
531.221	352.69
531.436	339.69
531.651	364.69
531.865	364.69
532.08	371.69
532.295	341.69
532.509	335.69
532.724	325.69
532.938	367.69
533.153	360.69
533.367	379.69
533.582	357.69
533.796	353.69
534.011	341.69
534.225	348.69
534.44	333.69
534.654	343.69
534.868	340.69
535.083	347.69
535.297	339.69
535.511	334.69
535.726	345.69
535.94	343.69
536.154	333.69
536.369	345.69
536.583	339.69
536.797	330.69
537.011	317.69
537.225	336.69
537.44	344.69
537.654	341.69
537.868	331.69
538.082	334.69
538.296	337.69
538.51	334.69
538.724	342.69
538.938	331.69
539.153	342.69
539.367	353.69
539.581	328.69
539.795	328.69
540.009	338.69
540.222	334.69
540.436	352.69
540.65	337.69
540.864	346.69
541.078	341.69
541.292	326.69
541.506	337.69
541.72	323.69
541.934	343.69
542.147	318.69
542.361	320.69
542.575	323.69
542.789	322.69
543.002	321.69
543.216	331.69
543.43	338.69
543.644	335.69
543.857	334.69
544.071	349.69
544.285	354.69
544.498	325.69
544.712	325.69
544.925	324.69
545.139	329.69
545.352	331.69
545.566	314.69
545.779	331.69
545.993	333.69
546.206	334.69
546.42	326.69
546.633	329.69
546.847	318.69
547.06	315.69
547.274	316.69
547.487	326.69
547.7	328.69
547.914	322.69
548.127	328.69
548.34	328.69
548.554	318.69
548.767	309.69
548.98	327.69
549.193	318.69
549.407	335.69
549.62	342.69
549.833	326.69
550.046	347.69
550.259	332.69
550.473	331.69
550.686	327.69
550.899	302.69
551.112	314.69
551.325	315.69
551.538	318.69
551.751	300.69
551.964	303.69
552.177	312.69
552.39	302.69
552.603	312.69
552.816	324.69
553.029	316.69
553.242	316.69
553.455	329.69
553.667	334.69
553.88	336.69
554.093	329.69
554.306	340.69
554.519	312.69
554.732	318.69
554.944	306.69
555.157	320.69
555.37	319.69
555.583	311.69
555.795	304.69
556.008	342.69
556.221	295.69
556.433	306.69
556.646	317.69
556.859	301.69
557.071	286.69
557.284	292.69
557.496	295.69
557.709	303.69
557.921	296.69
558.134	283.69
558.346	286.69
558.559	286.69
558.771	291.69
558.984	295.69
559.196	275.69
559.409	294.69
559.621	272.69
559.833	281.69
560.046	271.69
560.258	302.69
560.47	291.69
560.683	286.69
560.895	295.69
561.107	278.69
561.32	268.69
561.532	292.69
561.744	287.69
561.956	302.69
562.168	283.69
562.381	290.69
562.593	296.69
562.805	283.69
563.017	299.69
563.229	299.69
563.441	296.69
563.653	296.69
563.865	299.69
564.077	297.69
564.289	314.69
564.501	317.69
564.713	316.69
564.925	306.69
565.137	316.69
565.349	317.69
565.561	305.69
565.773	320.69
565.985	330.69
566.197	325.69
566.408	323.69
566.62	336.69
566.832	368.69
567.044	362.69
567.255	368.69
567.467	370.69
567.679	360.69
567.891	366.69
568.102	355.69
568.314	362.69
568.526	336.69
568.737	338.69
568.949	343.69
569.161	317.69
569.372	319.69
569.584	303.69
569.795	290.69
570.007	283.69
570.218	301.69
570.43	313.69
570.641	280.69
570.853	282.69
571.064	271.69
571.276	282.69
571.487	287.69
571.698	272.69
571.91	281.69
572.121	265.69
572.333	265.69
572.544	272.69
572.755	272.69
572.966	263.69
573.178	278.69
573.389	274.69
573.6	262.69
573.811	263.69
574.023	254.69
574.234	264.69
574.445	253.69
574.656	268.69
574.867	250.69
575.078	255.69
575.289	238.69
575.501	253.69
575.712	257.69
575.923	251.69
576.134	258.69
576.345	261.69
576.556	230.69
576.767	238.69
576.978	255.69
577.188	251.69
577.399	257.69
577.61	241.69
577.821	240.69
578.032	224.69
578.243	264.69
578.454	333.69
578.665	297.69
578.875	258.69
579.086	242.69
579.297	240.69
579.508	239.69
579.718	243.69
579.929	227.69
580.14	240.69
580.35	233.69
580.561	235.69
580.772	234.69
580.982	229.69
581.193	235.69
581.403	226.69
581.614	256.69
581.825	234.69
582.035	211.69
582.246	222.69
582.456	242.69
582.667	233.69
582.877	217.69
583.087	215.69
583.298	249.69
583.508	227.69
583.719	207.69
583.929	233.69
584.139	212.69
584.35	229.69
584.56	215.69
584.77	245.69
584.981	234.69
585.191	240.69
585.401	228.69
585.611	239.69
585.821	206.69
586.032	218.69
586.242	231.69
586.452	231.69
586.662	223.69
586.872	227.69
587.082	224.69
587.292	233.69
587.502	232.69
587.713	215.69
587.923	216.69
588.133	215.69
588.343	226.69
588.553	232.69
588.762	225.69
588.972	244.69
589.182	306.69
589.392	289.69
589.602	245.69
589.812	273.69
590.022	265.69
590.232	226.69
590.441	230.69
590.651	210.69
590.861	246.69
591.071	234.69
591.281	217.69
591.49	224.69
591.7	232.69
591.91	226.69
592.119	226.69
592.329	242.69
592.539	224.69
592.748	222.69
592.958	251.69
593.167	249.69
593.377	251.69
593.587	239.69
593.796	246.69
594.006	238.69
594.215	246.69
594.424	234.69
594.634	235.69
594.843	234.69
595.053	213.69
595.262	246.69
595.472	254.69
595.681	229.69
595.89	233.69
596.1	215.69
596.309	208.69
596.518	207.69
596.727	235.69
596.937	214.69
597.146	222.69
597.355	211.69
597.564	216.69
597.774	208.69
597.983	216.69
598.192	209.69
598.401	201.69
598.61	203.69
598.819	214.69
599.028	206.69
599.237	213.69
599.446	205.69
599.655	215.69
599.864	213.69
600.073	222.69
600.282	215.69
600.491	198.69
600.7	199.69
600.909	204.69
601.118	198.69
601.327	188.69
601.536	199.69
601.745	211.69
601.953	195.69
602.162	202.69
602.371	194.69
602.58	176.69
602.789	194.69
602.997	194.69
603.206	198.69
603.415	196.69
603.623	187.69
603.832	194.69
604.041	203.69
604.249	188.69
604.458	178.69
604.666	193.69
604.875	200.69
605.084	194.69
605.292	186.69
605.501	184.69
605.709	207.69
605.918	203.69
606.126	195.69
606.334	194.69
606.543	194.69
606.751	201.69
606.96	195.69
607.168	205.69
607.376	181.69
607.585	201.69
607.793	191.69
608.001	186.69
608.21	200.69
608.418	189.69
608.626	200.69
608.834	192.69
609.043	175.69
609.251	171.69
609.459	184.69
609.667	196.69
609.875	171.69
610.083	190.69
610.291	193.69
610.499	200.69
610.707	192.69
610.916	179.69
611.124	194.69
611.332	195.69
611.54	186.69
611.748	198.69
611.955	201.69
612.163	187.69
612.371	185.69
612.579	191.69
612.787	192.69
612.995	173.69
613.203	202.69
613.411	181.69
613.618	197.69
613.826	189.69
614.034	169.69
614.242	196.69
614.449	182.69
614.657	174.69
614.865	181.69
615.072	187.69
615.28	165.69
615.488	193.69
615.695	192.69
615.903	191.69
616.111	196.69
616.318	182.69
616.526	178.69
616.733	190.69
616.941	192.69
617.148	174.69
617.356	180.69
617.563	175.69
617.771	181.69
617.978	185.69
618.185	162.69
618.393	178.69
618.6	179.69
618.807	186.69
619.015	167.69
619.222	181.69
619.429	171.69
619.637	186.69
619.844	184.69
620.051	181.69
620.258	184.69
620.466	182.69
620.673	164.69
620.88	169.69
621.087	155.69
621.294	166.69
621.501	185.69
621.708	178.69
621.915	198.69
622.122	164.69
622.329	172.69
622.536	149.69
622.743	172.69
622.95	181.69
623.157	173.69
623.364	182.69
623.571	164.69
623.778	177.69
623.985	182.69
624.192	168.69
624.399	169.69
624.606	179.69
624.812	168.69
625.019	161.69
625.226	187.69
625.433	194.69
625.639	160.69
625.846	161.69
626.053	182.69
626.259	160.69
626.466	158.69
626.673	151.69
626.879	158.69
627.086	165.69
627.293	168.69
627.499	171.69
627.706	159.69
627.912	162.69
628.119	156.69
628.325	165.69
628.532	137.69
628.738	154.69
628.945	154.69
629.151	152.69
629.357	155.69
629.564	146.69
629.77	166.69
629.976	160.69
630.183	169.69
630.389	170.69
630.595	161.69
630.802	167.69
631.008	153.69
631.214	163.69
631.42	149.69
631.627	160.69
631.833	150.69
632.039	140.69
632.245	157.69
632.451	153.69
632.657	153.69
632.863	144.69
633.069	139.69
633.275	153.69
633.481	127.69
633.688	149.69
633.893	166.69
634.099	164.69
634.305	150.69
634.511	144.69
634.717	163.69
634.923	157.69
635.129	150.69
635.335	146.69
635.541	145.69
635.747	144.69
635.952	143.69
636.158	153.69
636.364	172.69
636.57	153.69
636.775	144.69
636.981	149.69
637.187	150.69
637.392	153.69
637.598	153.69
637.804	151.69
638.009	137.69
638.215	144.69
638.421	137.69
638.626	155.69
638.832	134.69
639.037	138.69
639.243	135.69
639.448	145.69
639.654	149.69
639.859	131.69
640.065	135.69
640.27	143.69
640.475	138.69
640.681	149.69
640.886	149.69
641.091	150.69
641.297	144.69
641.502	146.69
641.707	132.69
641.913	157.69
642.118	143.69
642.323	144.69
642.528	139.69
642.733	140.69
642.939	124.69
643.144	142.69
643.349	143.69
643.554	145.69
643.759	132.69
643.964	146.69
644.169	135.69
644.374	154.69
644.579	151.69
644.784	131.69
644.989	135.69
645.194	138.69
645.399	152.69
645.604	151.69
645.809	137.69
646.014	137.69
646.219	133.69
646.423	130.69
646.628	148.69
646.833	145.69
647.038	136.69
647.243	138.69
647.447	144.69
647.652	138.69
647.857	134.69
648.062	148.69
648.266	131.69
648.471	150.69
648.676	145.69
648.88	138.69
649.085	146.69
649.289	143.69
649.494	136.69
649.698	148.69
649.903	167.69
650.107	147.69
650.312	149.69
650.516	135.69
650.721	140.69
650.925	129.69
651.13	144.69
651.334	115.69
651.539	131.69
651.743	143.69
651.947	152.69
652.152	127.69
652.356	128.69
652.56	124.69
652.764	127.69
652.969	116.69
653.173	128.69
653.377	131.69
653.581	110.69
653.785	123.69
653.99	116.69
654.194	130.69
654.398	120.69
654.602	116.69
654.806	116.69
655.01	130.69
655.214	121.69
655.418	126.69
655.622	125.69
655.826	128.69
656.03	117.69
656.234	135.69
656.438	117.69
656.642	127.69
656.846	121.69
657.049	114.69
657.253	122.69
657.457	106.69
657.661	116.69
657.865	98.69
658.068	98.69
658.272	120.69
658.476	112.69
658.68	106.69
658.883	97.69
659.087	110.69
659.291	97.69
659.494	92.69
659.698	98.69
659.901	86.69
660.105	96.69
660.309	87.69
660.512	67.69
660.716	84.69
660.919	89.69
661.123	81.69
661.326	88.69
661.53	91.69
661.733	83.69
661.936	69.69
662.14	88.69
662.343	76.69
662.546	90.69
662.75	100.69
662.953	80.69
663.156	80.69
663.36	91.69
663.563	94.69
663.766	81.69
663.969	75.69
664.173	77.69
664.376	84.69
664.579	72.69
664.782	95.69
664.985	79.69
665.188	76.69
665.391	81.69
665.594	88.69
665.797	72.69
666	77.69
666.203	72.69
666.406	69.69
666.609	92.69
666.812	84.69
667.015	66.69
667.218	84.69
667.421	80.69
667.624	74.69
667.827	78.69
668.03	85.69
668.232	89.69
668.435	76.69
668.638	80.69
668.841	95.69
669.043	86.69
669.246	74.69
669.449	82.69
669.651	97.69
669.854	78.69
670.057	78.69
670.259	79.69
670.462	78.69
670.665	80.69
670.867	91.69
671.07	77.69
671.272	81.69
671.475	85.69
671.677	84.69
671.88	98.69
672.082	74.69
672.284	78.69
672.487	81.69
672.689	90.69
672.892	82.69
