Data from 1960PennyLincolnUp.LampE5.5.200Scan.07172019.P1.ChangedAngle_HRD10591_13-14-06-821.txt Node
Date: Thu Jul 18 13:14:06 EDT 2019
User: cochatt
Spectrometer: HR+D1059
Trigger mode: 1
Integration Time (sec): 1.000000E-1
Scans to average: 1
Electric dark correction enabled: true
Nonlinearity correction enabled: false
Boxcar width: 0
XAxis mode: Wavelengths
Number of Pixels in Spectrum: 2048
>>>>>Begin Spectral Data<<<<<
223.165	-8.62
223.4	-8.62
223.635	-8.62
223.869	-26.62
224.104	-15.62
224.338	-12.62
224.573	-25.62
224.808	-11.62
225.042	-10.62
225.277	-6.62
225.511	-1.62
225.746	-0.62
225.98	11.38
226.215	10.38
226.449	4.38
226.683	22.38
226.918	31.38
227.152	40.38
227.387	37.38
227.621	36.38
227.856	44.38
228.09	42.38
228.324	48.38
228.559	55.38
228.793	59.38
229.027	101.38
229.262	101.38
229.496	83.38
229.73	106.38
229.964	119.38
230.199	106.38
230.433	84.38
230.667	103.38
230.901	92.38
231.136	91.38
231.37	92.38
231.604	94.38
231.838	118.38
232.072	105.38
232.306	111.38
232.541	112.38
232.775	110.38
233.009	114.38
233.243	106.38
233.477	121.38
233.711	100.38
233.945	107.38
234.179	116.38
234.413	99.38
234.647	100.38
234.881	109.38
235.115	114.38
235.349	107.38
235.583	100.38
235.817	105.38
236.051	103.38
236.285	109.38
236.519	122.38
236.753	118.38
236.987	130.38
237.221	141.38
237.455	182.38
237.689	132.38
237.922	134.38
238.156	123.38
238.39	127.38
238.624	121.38
238.858	121.38
239.091	121.38
239.325	98.38
239.559	130.38
239.793	117.38
240.027	108.38
240.26	119.38
240.494	129.38
240.728	129.38
240.961	122.38
241.195	121.38
241.429	109.38
241.662	116.38
241.896	124.38
242.13	124.38
242.363	117.38
242.597	129.38
242.83	130.38
243.064	124.38
243.298	137.38
243.531	110.38
243.765	134.38
243.998	142.38
244.232	136.38
244.465	138.38
244.699	134.38
244.932	130.38
245.166	145.38
245.399	127.38
245.633	134.38
245.866	137.38
246.099	135.38
246.333	124.38
246.566	158.38
246.8	140.38
247.033	148.38
247.266	126.38
247.5	139.38
247.733	166.38
247.966	147.38
248.2	154.38
248.433	163.38
248.666	143.38
248.899	146.38
249.133	159.38
249.366	168.38
249.599	171.38
249.832	175.38
250.066	160.38
250.299	171.38
250.532	159.38
250.765	152.38
250.998	182.38
251.231	177.38
251.465	191.38
251.698	169.38
251.931	177.38
252.164	157.38
252.397	170.38
252.63	177.38
252.863	184.38
253.096	169.38
253.329	194.38
253.562	192.38
253.795	171.38
254.028	183.38
254.261	170.38
254.494	189.38
254.727	201.38
254.96	212.38
255.193	214.38
255.426	205.38
255.659	195.38
255.892	193.38
256.124	186.38
256.357	194.38
256.59	196.38
256.823	203.38
257.056	182.38
257.289	183.38
257.521	194.38
257.754	171.38
257.987	189.38
258.22	183.38
258.452	179.38
258.685	189.38
258.918	193.38
259.151	204.38
259.383	195.38
259.616	180.38
259.849	194.38
260.081	203.38
260.314	211.38
260.547	200.38
260.779	205.38
261.012	197.38
261.244	195.38
261.477	216.38
261.71	220.38
261.942	202.38
262.175	207.38
262.407	203.38
262.64	188.38
262.872	187.38
263.105	196.38
263.337	200.38
263.57	189.38
263.802	204.38
264.035	198.38
264.267	192.38
264.499	186.38
264.732	224.38
264.964	187.38
265.197	196.38
265.429	201.38
265.661	186.38
265.894	189.38
266.126	195.38
266.358	208.38
266.591	189.38
266.823	203.38
267.055	215.38
267.287	217.38
267.52	205.38
267.752	206.38
267.984	191.38
268.216	211.38
268.448	234.38
268.681	219.38
268.913	238.38
269.145	227.38
269.377	237.38
269.609	245.38
269.841	229.38
270.073	251.38
270.306	241.38
270.538	252.38
270.77	265.38
271.002	253.38
271.234	249.38
271.466	258.38
271.698	263.38
271.93	263.38
272.162	271.38
272.394	271.38
272.626	266.38
272.858	260.38
273.09	271.38
273.322	258.38
273.553	248.38
273.785	239.38
274.017	259.38
274.249	260.38
274.481	260.38
274.713	244.38
274.945	248.38
275.176	243.38
275.408	253.38
275.64	250.38
275.872	233.38
276.104	250.38
276.335	238.38
276.567	245.38
276.799	274.38
277.031	265.38
277.262	267.38
277.494	289.38
277.726	280.38
277.957	268.38
278.189	275.38
278.421	263.38
278.652	263.38
278.884	273.38
279.115	260.38
279.347	274.38
279.579	284.38
279.81	318.38
280.042	326.38
280.273	286.38
280.505	305.38
280.736	284.38
280.968	279.38
281.199	233.38
281.431	265.38
281.662	266.38
281.894	264.38
282.125	268.38
282.356	257.38
282.588	274.38
282.819	297.38
283.051	281.38
283.282	258.38
283.513	290.38
283.745	265.38
283.976	267.38
284.207	272.38
284.439	271.38
284.67	273.38
284.901	278.38
285.132	271.38
285.364	278.38
285.595	279.38
285.826	276.38
286.057	283.38
286.288	279.38
286.52	263.38
286.751	268.38
286.982	276.38
287.213	266.38
287.444	280.38
287.675	282.38
287.906	294.38
288.138	300.38
288.369	307.38
288.6	298.38
288.831	286.38
289.062	279.38
289.293	292.38
289.524	282.38
289.755	293.38
289.986	273.38
290.217	263.38
290.448	278.38
290.679	274.38
290.91	275.38
291.141	269.38
291.371	282.38
291.602	284.38
291.833	285.38
292.064	294.38
292.295	278.38
292.526	301.38
292.757	291.38
292.987	271.38
293.218	286.38
293.449	303.38
293.68	265.38
293.91	287.38
294.141	282.38
294.372	283.38
294.603	286.38
294.833	281.38
295.064	295.38
295.295	283.38
295.525	284.38
295.756	295.38
295.987	320.38
296.217	314.38
296.448	323.38
296.679	298.38
296.909	296.38
297.14	278.38
297.37	301.38
297.601	289.38
297.831	300.38
298.062	302.38
298.292	299.38
298.523	313.38
298.753	293.38
298.984	305.38
299.214	303.38
299.445	307.38
299.675	310.38
299.905	308.38
300.136	340.38
300.366	295.38
300.597	305.38
300.827	302.38
301.057	322.38
301.288	313.38
301.518	315.38
301.748	318.38
301.979	332.38
302.209	325.38
302.439	313.38
302.669	343.38
302.9	327.38
303.13	324.38
303.36	324.38
303.59	330.38
303.82	327.38
304.051	319.38
304.281	332.38
304.511	324.38
304.741	316.38
304.971	313.38
305.201	297.38
305.431	323.38
305.661	325.38
305.891	322.38
306.121	323.38
306.352	341.38
306.582	330.38
306.812	307.38
307.042	319.38
307.272	325.38
307.502	321.38
307.731	319.38
307.961	321.38
308.191	327.38
308.421	332.38
308.651	335.38
308.881	313.38
309.111	332.38
309.341	335.38
309.571	342.38
309.8	361.38
310.03	349.38
310.26	337.38
310.49	348.38
310.72	343.38
310.949	362.38
311.179	346.38
311.409	351.38
311.639	356.38
311.868	359.38
312.098	344.38
312.328	353.38
312.557	373.38
312.787	386.38
313.017	380.38
313.246	354.38
313.476	362.38
313.706	359.38
313.935	363.38
314.165	359.38
314.394	360.38
314.624	368.38
314.853	369.38
315.083	372.38
315.312	358.38
315.542	353.38
315.771	364.38
316.001	348.38
316.23	355.38
316.46	361.38
316.689	383.38
316.919	373.38
317.148	366.38
317.377	388.38
317.607	361.38
317.836	371.38
318.065	352.38
318.295	379.38
318.524	360.38
318.753	363.38
318.983	371.38
319.212	357.38
319.441	371.38
319.67	377.38
319.9	363.38
320.129	372.38
320.358	389.38
320.587	379.38
320.816	389.38
321.046	373.38
321.275	381.38
321.504	381.38
321.733	389.38
321.962	377.38
322.191	407.38
322.42	398.38
322.649	401.38
322.878	409.38
323.108	397.38
323.337	438.38
323.566	434.38
323.795	474.38
324.024	509.38
324.253	599.38
324.482	852.38
324.71	1271.38
324.939	1739.38
325.168	1457.38
325.397	737.38
325.626	545.38
325.855	466.38
326.084	437.38
326.313	463.38
326.542	448.38
326.77	491.38
326.999	568.38
327.228	777.38
327.457	1138.38
327.686	1349.38
327.914	873.38
328.143	619.38
328.372	524.38
328.6	489.38
328.829	475.38
329.058	468.38
329.287	498.38
329.515	453.38
329.744	449.38
329.972	442.38
330.201	464.38
330.43	508.38
330.658	504.38
330.887	494.38
331.115	494.38
331.344	468.38
331.572	446.38
331.801	420.38
332.03	427.38
332.258	442.38
332.486	418.38
332.715	424.38
332.943	413.38
333.172	409.38
333.4	451.38
333.629	434.38
333.857	461.38
334.085	449.38
334.314	459.38
334.542	491.38
334.771	473.38
334.999	467.38
335.227	443.38
335.455	452.38
335.684	429.38
335.912	432.38
336.14	431.38
336.369	445.38
336.597	427.38
336.825	431.38
337.053	413.38
337.281	421.38
337.51	437.38
337.738	418.38
337.966	405.38
338.194	420.38
338.422	422.38
338.65	411.38
338.878	398.38
339.106	409.38
339.334	404.38
339.562	394.38
339.79	387.38
340.018	402.38
340.246	397.38
340.474	387.38
340.702	388.38
340.93	408.38
341.158	424.38
341.386	407.38
341.614	403.38
341.842	409.38
342.07	390.38
342.298	397.38
342.526	394.38
342.754	382.38
342.981	382.38
343.209	388.38
343.437	392.38
343.665	392.38
343.893	393.38
344.12	397.38
344.348	421.38
344.576	408.38
344.804	381.38
345.031	417.38
345.259	419.38
345.487	392.38
345.714	407.38
345.942	383.38
346.17	407.38
346.397	388.38
346.625	372.38
346.853	386.38
347.08	399.38
347.308	389.38
347.535	405.38
347.763	387.38
347.99	383.38
348.218	393.38
348.445	399.38
348.673	385.38
348.9	387.38
349.128	369.38
349.355	376.38
349.583	351.38
349.81	375.38
350.037	359.38
350.265	366.38
350.492	366.38
350.72	370.38
350.947	359.38
351.174	377.38
351.402	356.38
351.629	367.38
351.856	388.38
352.083	389.38
352.311	401.38
352.538	406.38
352.765	385.38
352.992	370.38
353.22	367.38
353.447	371.38
353.674	380.38
353.901	364.38
354.128	358.38
354.355	371.38
354.583	351.38
354.81	329.38
355.037	368.38
355.264	358.38
355.491	365.38
355.718	341.38
355.945	356.38
356.172	354.38
356.399	366.38
356.626	346.38
356.853	349.38
357.08	367.38
357.307	364.38
357.534	345.38
357.761	347.38
357.988	355.38
358.215	361.38
358.441	361.38
358.668	353.38
358.895	362.38
359.122	382.38
359.349	373.38
359.576	395.38
359.802	394.38
360.029	398.38
360.256	428.38
360.483	382.38
360.709	386.38
360.936	369.38
361.163	382.38
361.39	363.38
361.616	357.38
361.843	359.38
362.07	373.38
362.296	366.38
362.523	371.38
362.749	374.38
362.976	356.38
363.203	354.38
363.429	353.38
363.656	374.38
363.882	368.38
364.109	373.38
364.335	358.38
364.562	345.38
364.788	340.38
365.015	358.38
365.241	360.38
365.468	369.38
365.694	374.38
365.92	364.38
366.147	348.38
366.373	348.38
366.599	362.38
366.826	361.38
367.052	340.38
367.278	353.38
367.505	373.38
367.731	358.38
367.957	334.38
368.184	351.38
368.41	346.38
368.636	358.38
368.862	381.38
369.089	359.38
369.315	381.38
369.541	363.38
369.767	358.38
369.993	343.38
370.219	367.38
370.445	358.38
370.672	398.38
370.898	340.38
371.124	371.38
371.35	361.38
371.576	363.38
371.802	353.38
372.028	354.38
372.254	371.38
372.48	359.38
372.706	354.38
372.932	374.38
373.158	363.38
373.384	402.38
373.61	371.38
373.835	359.38
374.061	352.38
374.287	359.38
374.513	360.38
374.739	380.38
374.965	351.38
375.191	361.38
375.416	362.38
375.642	361.38
375.868	359.38
376.094	376.38
376.319	358.38
376.545	366.38
376.771	361.38
376.997	373.38
377.222	357.38
377.448	357.38
377.674	355.38
377.899	358.38
378.125	341.38
378.35	341.38
378.576	362.38
378.802	357.38
379.027	349.38
379.253	355.38
379.478	336.38
379.704	351.38
379.929	343.38
380.155	374.38
380.38	366.38
380.606	372.38
380.831	354.38
381.057	369.38
381.282	338.38
381.507	345.38
381.733	355.38
381.958	361.38
382.184	361.38
382.409	361.38
382.634	376.38
382.86	364.38
383.085	386.38
383.31	380.38
383.535	372.38
383.761	367.38
383.986	369.38
384.211	383.38
384.436	393.38
384.662	374.38
384.887	380.38
385.112	386.38
385.337	371.38
385.562	399.38
385.787	387.38
386.013	401.38
386.238	405.38
386.463	398.38
386.688	371.38
386.913	383.38
387.138	377.38
387.363	383.38
387.588	395.38
387.813	377.38
388.038	381.38
388.263	386.38
388.488	389.38
388.713	377.38
388.938	370.38
389.163	378.38
389.387	382.38
389.612	370.38
389.837	384.38
390.062	383.38
390.287	401.38
390.512	375.38
390.736	383.38
390.961	389.38
391.186	397.38
391.411	376.38
391.636	383.38
391.86	401.38
392.085	384.38
392.31	400.38
392.534	399.38
392.759	382.38
392.984	433.38
393.208	435.38
393.433	549.38
393.658	570.38
393.882	430.38
394.107	392.38
394.331	398.38
394.556	395.38
394.78	389.38
395.005	406.38
395.229	381.38
395.454	389.38
395.678	414.38
395.903	419.38
396.127	433.38
396.352	437.38
396.576	418.38
396.801	451.38
397.025	504.38
397.249	460.38
397.474	425.38
397.698	406.38
397.922	403.38
398.147	409.38
398.371	419.38
398.595	421.38
398.82	419.38
399.044	422.38
399.268	449.38
399.492	471.38
399.717	499.38
399.941	499.38
400.165	502.38
400.389	519.38
400.613	473.38
400.837	446.38
401.062	434.38
401.286	447.38
401.51	433.38
401.734	425.38
401.958	429.38
402.182	422.38
402.406	421.38
402.63	439.38
402.854	456.38
403.078	433.38
403.302	425.38
403.526	421.38
403.75	433.38
403.974	429.38
404.198	431.38
404.422	430.38
404.645	449.38
404.869	431.38
405.093	458.38
405.317	471.38
405.541	509.38
405.765	478.38
405.988	449.38
406.212	465.38
406.436	460.38
406.66	480.38
406.883	489.38
407.107	485.38
407.331	505.38
407.555	533.38
407.778	538.38
408.002	519.38
408.226	463.38
408.449	476.38
408.673	488.38
408.896	478.38
409.12	514.38
409.344	516.38
409.567	443.38
409.791	457.38
410.014	444.38
410.238	446.38
410.461	435.38
410.685	464.38
410.908	457.38
411.132	446.38
411.355	458.38
411.578	461.38
411.802	438.38
412.025	430.38
412.249	446.38
412.472	447.38
412.695	465.38
412.919	471.38
413.142	417.38
413.365	423.38
413.589	422.38
413.812	423.38
414.035	422.38
414.258	410.38
414.482	409.38
414.705	399.38
414.928	397.38
415.151	405.38
415.374	414.38
415.597	399.38
415.821	403.38
416.044	413.38
416.267	400.38
416.49	387.38
416.713	419.38
416.936	408.38
417.159	393.38
417.382	389.38
417.605	404.38
417.828	395.38
418.051	407.38
418.274	416.38
418.497	398.38
418.72	390.38
418.943	375.38
419.166	422.38
419.389	447.38
419.611	414.38
419.834	439.38
420.057	425.38
420.28	411.38
420.503	395.38
420.726	409.38
420.948	406.38
421.171	452.38
421.394	455.38
421.617	405.38
421.839	412.38
422.062	397.38
422.285	421.38
422.507	468.38
422.73	545.38
422.953	553.38
423.175	456.38
423.398	431.38
423.621	409.38
423.843	458.38
424.066	434.38
424.288	445.38
424.511	432.38
424.733	466.38
424.956	547.38
425.178	512.38
425.401	524.38
425.623	505.38
425.846	456.38
426.068	426.38
426.291	433.38
426.513	437.38
426.735	436.38
426.958	446.38
427.18	508.38
427.402	591.38
427.625	651.38
427.847	565.38
428.069	467.38
428.292	426.38
428.514	414.38
428.736	409.38
428.958	417.38
429.181	419.38
429.403	397.38
429.625	421.38
429.847	427.38
430.069	450.38
430.292	453.38
430.514	425.38
430.736	401.38
430.958	405.38
431.18	409.38
431.402	401.38
431.624	378.38
431.846	382.38
432.068	388.38
432.29	410.38
432.512	391.38
432.734	385.38
432.956	409.38
433.178	409.38
433.4	406.38
433.622	412.38
433.844	393.38
434.066	378.38
434.287	404.38
434.509	403.38
434.731	399.38
434.953	408.38
435.175	417.38
435.397	430.38
435.618	409.38
435.84	457.38
436.062	511.38
436.284	557.38
436.505	488.38
436.727	421.38
436.949	436.38
437.17	411.38
437.392	380.38
437.614	388.38
437.835	429.38
438.057	467.38
438.278	520.38
438.5	536.38
438.721	592.38
438.943	576.38
439.165	443.38
439.386	424.38
439.608	442.38
439.829	418.38
440.05	431.38
440.272	467.38
440.493	452.38
440.715	417.38
440.936	390.38
441.158	422.38
441.379	389.38
441.6	411.38
441.822	419.38
442.043	451.38
442.264	482.38
442.486	527.38
442.707	464.38
442.928	439.38
443.149	437.38
443.371	463.38
443.592	495.38
443.813	542.38
444.034	576.38
444.255	507.38
444.476	433.38
444.698	411.38
444.919	411.38
445.14	543.38
445.361	511.38
445.582	472.38
445.803	507.38
446.024	581.38
446.245	550.38
446.466	527.38
446.687	455.38
446.908	427.38
447.129	419.38
447.35	395.38
447.571	406.38
447.792	379.38
448.013	383.38
448.234	404.38
448.455	423.38
448.675	504.38
448.896	589.38
449.117	491.38
449.338	474.38
449.559	546.38
449.779	618.38
450	486.38
450.221	433.38
450.442	399.38
450.662	383.38
450.883	379.38
451.104	390.38
451.324	379.38
451.545	373.38
451.766	366.38
451.986	363.38
452.207	356.38
452.428	354.38
452.648	357.38
452.869	372.38
453.089	361.38
453.31	357.38
453.53	377.38
453.751	364.38
453.971	361.38
454.192	366.38
454.412	350.38
454.633	381.38
454.853	344.38
455.073	340.38
455.294	371.38
455.514	391.38
455.734	400.38
455.955	369.38
456.175	321.38
456.395	347.38
456.616	354.38
456.836	337.38
457.056	346.38
457.276	347.38
457.497	337.38
457.717	354.38
457.937	361.38
458.157	346.38
458.377	359.38
458.598	373.38
458.818	419.38
459.038	450.38
459.258	462.38
459.478	406.38
459.698	400.38
459.918	400.38
460.138	382.38
460.358	383.38
460.578	399.38
460.798	390.38
461.018	401.38
461.238	407.38
461.458	387.38
461.678	392.38
461.898	379.38
462.118	403.38
462.338	428.38
462.558	419.38
462.777	413.38
462.997	422.38
463.217	418.38
463.437	438.38
463.657	415.38
463.876	421.38
464.096	440.38
464.316	437.38
464.536	414.38
464.755	431.38
464.975	429.38
465.195	448.38
465.414	469.38
465.634	438.38
465.854	411.38
466.073	383.38
466.293	376.38
466.512	380.38
466.732	388.38
466.951	371.38
467.171	379.38
467.391	380.38
467.61	389.38
467.829	380.38
468.049	382.38
468.268	378.38
468.488	360.38
468.707	365.38
468.927	367.38
469.146	353.38
469.365	355.38
469.585	365.38
469.804	366.38
470.023	373.38
470.243	375.38
470.462	369.38
470.681	386.38
470.901	379.38
471.12	364.38
471.339	376.38
471.558	371.38
471.777	378.38
471.997	379.38
472.216	400.38
472.435	414.38
472.654	390.38
472.873	368.38
473.092	388.38
473.311	383.38
473.53	377.38
473.749	372.38
473.968	390.38
474.187	442.38
474.406	431.38
474.625	413.38
474.844	388.38
475.063	374.38
475.282	371.38
475.501	386.38
475.72	398.38
475.939	373.38
476.158	387.38
476.377	392.38
476.596	369.38
476.814	404.38
477.033	396.38
477.252	395.38
477.471	402.38
477.69	420.38
477.908	409.38
478.127	399.38
478.346	422.38
478.564	432.38
478.783	410.38
479.002	427.38
479.22	434.38
479.439	453.38
479.658	442.38
479.876	451.38
480.095	459.38
480.313	467.38
480.532	473.38
480.751	471.38
480.969	463.38
481.188	499.38
481.406	517.38
481.624	471.38
481.843	455.38
482.061	450.38
482.28	442.38
482.498	456.38
482.717	429.38
482.935	450.38
483.153	446.38
483.372	434.38
483.59	455.38
483.808	447.38
484.027	450.38
484.245	462.38
484.463	446.38
484.681	464.38
484.9	446.38
485.118	451.38
485.336	491.38
485.554	472.38
485.772	451.38
485.99	463.38
486.209	466.38
486.427	463.38
486.645	476.38
486.863	472.38
487.081	490.38
487.299	481.38
487.517	465.38
487.735	456.38
487.953	465.38
488.171	471.38
488.389	454.38
488.607	465.38
488.825	476.38
489.043	478.38
489.261	470.38
489.479	476.38
489.696	482.38
489.914	481.38
490.132	473.38
490.35	465.38
490.568	492.38
490.786	473.38
491.003	488.38
491.221	516.38
491.439	497.38
491.657	485.38
491.874	463.38
492.092	511.38
492.31	511.38
492.527	493.38
492.745	498.38
492.963	510.38
493.18	508.38
493.398	504.38
493.615	533.38
493.833	525.38
494.05	497.38
494.268	506.38
494.485	507.38
494.703	518.38
494.92	537.38
495.138	534.38
495.355	526.38
495.573	545.38
495.79	524.38
496.008	524.38
496.225	527.38
496.442	535.38
496.66	542.38
496.877	538.38
497.094	518.38
497.312	533.38
497.529	541.38
497.746	562.38
497.963	565.38
498.181	578.38
498.398	591.38
498.615	598.38
498.832	631.38
499.049	631.38
499.267	622.38
499.484	685.38
499.701	661.38
499.918	715.38
500.135	734.38
500.352	775.38
500.569	794.38
500.786	753.38
501.003	757.38
501.22	757.38
501.437	724.38
501.654	687.38
501.871	694.38
502.088	643.38
502.305	638.38
502.522	614.38
502.739	603.38
502.956	575.38
503.172	583.38
503.389	564.38
503.606	569.38
503.823	556.38
504.04	555.38
504.256	538.38
504.473	563.38
504.69	555.38
504.907	525.38
505.123	540.38
505.34	518.38
505.557	524.38
505.773	519.38
505.99	503.38
506.207	486.38
506.423	502.38
506.64	508.38
506.856	497.38
507.073	482.38
507.289	471.38
507.506	492.38
507.722	485.38
507.939	498.38
508.155	493.38
508.372	488.38
508.588	480.38
508.805	470.38
509.021	453.38
509.238	470.38
509.454	476.38
509.67	483.38
509.887	481.38
510.103	480.38
510.319	496.38
510.536	567.38
510.752	877.38
510.968	705.38
511.184	499.38
511.401	462.38
511.617	452.38
511.833	443.38
512.049	454.38
512.265	449.38
512.481	447.38
512.698	453.38
512.914	461.38
513.13	429.38
513.346	443.38
513.562	457.38
513.778	461.38
513.994	443.38
514.21	440.38
514.426	456.38
514.642	513.38
514.858	507.38
515.074	515.38
515.29	636.38
515.506	889.38
515.721	709.38
515.937	548.38
516.153	502.38
516.369	500.38
516.585	473.38
516.801	465.38
517.016	487.38
517.232	475.38
517.448	471.38
517.664	486.38
517.879	477.38
518.095	502.38
518.311	467.38
518.527	477.38
518.742	465.38
518.958	475.38
519.173	456.38
519.389	448.38
519.605	477.38
519.82	471.38
520.036	477.38
520.251	454.38
520.467	490.38
520.682	482.38
520.898	492.38
521.113	510.38
521.329	518.38
521.544	569.38
521.76	697.38
521.975	1128.38
522.19	1069.38
522.406	609.38
522.621	499.38
522.836	470.38
523.052	470.38
523.267	454.38
523.482	436.38
523.698	410.38
523.913	433.38
524.128	417.38
524.343	398.38
524.559	423.38
524.774	425.38
524.989	419.38
525.204	421.38
525.419	415.38
525.634	389.38
525.849	405.38
526.064	396.38
526.28	386.38
526.495	377.38
526.71	401.38
526.925	396.38
527.14	375.38
527.355	383.38
527.57	390.38
527.785	391.38
527.999	390.38
528.214	386.38
528.429	373.38
528.644	382.38
528.859	386.38
529.074	384.38
529.289	436.38
529.503	436.38
529.718	439.38
529.933	399.38
530.148	392.38
530.363	376.38
530.577	386.38
530.792	377.38
531.007	398.38
531.221	389.38
531.436	368.38
531.651	369.38
531.865	390.38
532.08	375.38
532.295	388.38
532.509	378.38
532.724	381.38
532.938	357.38
533.153	365.38
533.367	368.38
533.582	366.38
533.796	377.38
534.011	374.38
534.225	366.38
534.44	370.38
534.654	356.38
534.868	353.38
535.083	365.38
535.297	380.38
535.511	365.38
535.726	359.38
535.94	376.38
536.154	367.38
536.369	363.38
536.583	381.38
536.797	374.38
537.011	363.38
537.225	372.38
537.44	364.38
537.654	374.38
537.868	349.38
538.082	361.38
538.296	363.38
538.51	380.38
538.724	358.38
538.938	351.38
539.153	351.38
539.367	360.38
539.581	361.38
539.795	341.38
540.009	369.38
540.222	372.38
540.436	355.38
540.65	355.38
540.864	350.38
541.078	366.38
541.292	353.38
541.506	367.38
541.72	350.38
541.934	359.38
542.147	367.38
542.361	370.38
542.575	344.38
542.789	356.38
543.002	346.38
543.216	346.38
543.43	348.38
543.644	361.38
543.857	365.38
544.071	370.38
544.285	350.38
544.498	343.38
544.712	343.38
544.925	381.38
545.139	359.38
545.352	355.38
545.566	361.38
545.779	367.38
545.993	361.38
546.206	351.38
546.42	361.38
546.633	340.38
546.847	356.38
547.06	337.38
547.274	361.38
547.487	358.38
547.7	363.38
547.914	336.38
548.127	342.38
548.34	348.38
548.554	373.38
548.767	357.38
548.98	365.38
549.193	335.38
549.407	333.38
549.62	356.38
549.833	342.38
550.046	338.38
550.259	346.38
550.473	350.38
550.686	356.38
550.899	348.38
551.112	335.38
551.325	329.38
551.538	340.38
551.751	328.38
551.964	354.38
552.177	348.38
552.39	350.38
552.603	341.38
552.816	348.38
553.029	355.38
553.242	363.38
553.455	360.38
553.667	364.38
553.88	362.38
554.093	353.38
554.306	359.38
554.519	354.38
554.732	346.38
554.944	349.38
555.157	356.38
555.37	345.38
555.583	333.38
555.795	338.38
556.008	343.38
556.221	342.38
556.433	314.38
556.646	326.38
556.859	327.38
557.071	326.38
557.284	313.38
557.496	307.38
557.709	305.38
557.921	328.38
558.134	324.38
558.346	314.38
558.559	299.38
558.771	329.38
558.984	293.38
559.196	322.38
559.409	330.38
559.621	326.38
559.833	316.38
560.046	311.38
560.258	327.38
560.47	320.38
560.683	321.38
560.895	315.38
561.107	314.38
561.32	301.38
561.532	309.38
561.744	333.38
561.956	307.38
562.168	326.38
562.381	321.38
562.593	307.38
562.805	329.38
563.017	317.38
563.229	318.38
563.441	321.38
563.653	318.38
563.865	326.38
564.077	317.38
564.289	316.38
564.501	329.38
564.713	335.38
564.925	348.38
565.137	332.38
565.349	313.38
565.561	340.38
565.773	347.38
565.985	359.38
566.197	366.38
566.408	356.38
566.62	377.38
566.832	379.38
567.044	376.38
567.255	391.38
567.467	394.38
567.679	385.38
567.891	400.38
568.102	397.38
568.314	388.38
568.526	384.38
568.737	376.38
568.949	360.38
569.161	354.38
569.372	353.38
569.584	345.38
569.795	325.38
570.007	329.38
570.218	361.38
570.43	386.38
570.641	324.38
570.853	307.38
571.064	325.38
571.276	307.38
571.487	302.38
571.698	310.38
571.91	289.38
572.121	303.38
572.333	294.38
572.544	275.38
572.755	284.38
572.966	303.38
573.178	294.38
573.389	293.38
573.6	283.38
573.811	298.38
574.023	272.38
574.234	292.38
574.445	266.38
574.656	279.38
574.867	267.38
575.078	285.38
575.289	252.38
575.501	277.38
575.712	267.38
575.923	255.38
576.134	280.38
576.345	272.38
576.556	263.38
576.767	260.38
576.978	265.38
577.188	284.38
577.399	269.38
577.61	262.38
577.821	254.38
578.032	256.38
578.243	291.38
578.454	458.38
578.665	339.38
578.875	265.38
579.086	255.38
579.297	270.38
579.508	260.38
579.718	241.38
579.929	276.38
580.14	256.38
580.35	269.38
580.561	252.38
580.772	234.38
580.982	256.38
581.193	255.38
581.403	265.38
581.614	249.38
581.825	254.38
582.035	259.38
582.246	248.38
582.456	258.38
582.667	244.38
582.877	263.38
583.087	255.38
583.298	242.38
583.508	266.38
583.719	250.38
583.929	249.38
584.139	245.38
584.35	267.38
584.56	253.38
584.77	243.38
584.981	244.38
585.191	260.38
585.401	262.38
585.611	255.38
585.821	256.38
586.032	256.38
586.242	254.38
586.452	240.38
586.662	258.38
586.872	262.38
587.082	263.38
587.292	227.38
587.502	267.38
587.713	247.38
587.923	250.38
588.133	243.38
588.343	270.38
588.553	257.38
588.762	261.38
588.972	352.38
589.182	793.38
589.392	786.38
589.602	428.38
589.812	723.38
590.022	529.38
590.232	317.38
590.441	278.38
590.651	253.38
590.861	254.38
591.071	263.38
591.281	245.38
591.49	253.38
591.7	252.38
591.91	259.38
592.119	252.38
592.329	270.38
592.539	269.38
592.748	248.38
592.958	259.38
593.167	263.38
593.377	255.38
593.587	261.38
593.796	253.38
594.006	251.38
594.215	265.38
594.424	261.38
594.634	253.38
594.843	250.38
595.053	241.38
595.262	253.38
595.472	242.38
595.681	250.38
595.89	262.38
596.1	231.38
596.309	216.38
596.518	218.38
596.727	251.38
596.937	217.38
597.146	222.38
597.355	245.38
597.564	241.38
597.774	230.38
597.983	212.38
598.192	227.38
598.401	234.38
598.61	228.38
598.819	238.38
599.028	214.38
599.237	220.38
599.446	236.38
599.655	219.38
599.864	210.38
600.073	219.38
600.282	235.38
600.491	226.38
600.7	222.38
600.909	219.38
601.118	209.38
601.327	220.38
601.536	218.38
601.745	242.38
601.953	222.38
602.162	216.38
602.371	204.38
602.58	207.38
602.789	216.38
602.997	205.38
603.206	207.38
603.415	203.38
603.623	226.38
603.832	214.38
604.041	210.38
604.249	209.38
604.458	206.38
604.666	218.38
604.875	209.38
605.084	209.38
605.292	223.38
605.501	198.38
605.709	219.38
605.918	209.38
606.126	205.38
606.334	198.38
606.543	217.38
606.751	229.38
606.96	210.38
607.168	211.38
607.376	217.38
607.585	207.38
607.793	218.38
608.001	231.38
608.21	219.38
608.418	216.38
608.626	211.38
608.834	213.38
609.043	209.38
609.251	213.38
609.459	210.38
609.667	206.38
609.875	211.38
610.083	192.38
610.291	201.38
610.499	211.38
610.707	207.38
610.916	206.38
611.124	215.38
611.332	203.38
611.54	210.38
611.748	213.38
611.955	199.38
612.163	206.38
612.371	212.38
612.579	198.38
612.787	217.38
612.995	222.38
613.203	211.38
613.411	202.38
613.618	198.38
613.826	197.38
614.034	197.38
614.242	209.38
614.449	210.38
614.657	199.38
614.865	192.38
615.072	218.38
615.28	217.38
615.488	211.38
615.695	219.38
615.903	197.38
616.111	196.38
616.318	203.38
616.526	204.38
616.733	216.38
616.941	209.38
617.148	219.38
617.356	206.38
617.563	205.38
617.771	200.38
617.978	214.38
618.185	194.38
618.393	197.38
618.6	200.38
618.807	188.38
619.015	211.38
619.222	206.38
619.429	195.38
619.637	193.38
619.844	190.38
620.051	184.38
620.258	187.38
620.466	207.38
620.673	186.38
620.88	202.38
621.087	197.38
621.294	193.38
621.501	205.38
621.708	196.38
621.915	186.38
622.122	182.38
622.329	180.38
622.536	191.38
622.743	186.38
622.95	189.38
623.157	189.38
623.364	195.38
623.571	197.38
623.778	183.38
623.985	195.38
624.192	191.38
624.399	189.38
624.606	183.38
624.812	188.38
625.019	179.38
625.226	185.38
625.433	178.38
625.639	179.38
625.846	194.38
626.053	182.38
626.259	178.38
626.466	193.38
626.673	176.38
626.879	173.38
627.086	183.38
627.293	190.38
627.499	169.38
627.706	180.38
627.912	163.38
628.119	151.38
628.325	181.38
628.532	177.38
628.738	170.38
628.945	193.38
629.151	177.38
629.357	171.38
629.564	177.38
629.77	171.38
629.976	169.38
630.183	164.38
630.389	152.38
630.595	173.38
630.802	157.38
631.008	170.38
631.214	178.38
631.42	175.38
631.627	177.38
631.833	177.38
632.039	159.38
632.245	174.38
632.451	169.38
632.657	177.38
632.863	166.38
633.069	165.38
633.275	158.38
633.481	166.38
633.688	171.38
633.893	167.38
634.099	176.38
634.305	162.38
634.511	173.38
634.717	160.38
634.923	174.38
635.129	166.38
635.335	157.38
635.541	161.38
635.747	171.38
635.952	154.38
636.158	164.38
636.364	151.38
636.57	172.38
636.775	158.38
636.981	166.38
637.187	162.38
637.392	161.38
637.598	156.38
637.804	156.38
638.009	166.38
638.215	182.38
638.421	156.38
638.626	157.38
638.832	163.38
639.037	157.38
639.243	173.38
639.448	158.38
639.654	152.38
639.859	146.38
640.065	152.38
640.27	157.38
640.475	157.38
640.681	155.38
640.886	154.38
641.091	170.38
641.297	169.38
641.502	159.38
641.707	186.38
641.913	155.38
642.118	142.38
642.323	155.38
642.528	150.38
642.733	151.38
642.939	144.38
643.144	179.38
643.349	167.38
643.554	156.38
643.759	165.38
643.964	165.38
644.169	171.38
644.374	166.38
644.579	158.38
644.784	151.38
644.989	165.38
645.194	140.38
645.399	169.38
645.604	157.38
645.809	150.38
646.014	154.38
646.219	152.38
646.423	165.38
646.628	153.38
646.833	149.38
647.038	153.38
647.243	159.38
647.447	158.38
647.652	161.38
647.857	151.38
648.062	160.38
648.266	135.38
648.471	156.38
648.676	145.38
648.88	159.38
649.085	159.38
649.289	164.38
649.494	177.38
649.698	202.38
649.903	179.38
650.107	170.38
650.312	162.38
650.516	149.38
650.721	161.38
650.925	152.38
651.13	151.38
651.334	146.38
651.539	140.38
651.743	167.38
651.947	144.38
652.152	145.38
652.356	135.38
652.56	139.38
652.764	141.38
652.969	137.38
653.173	145.38
653.377	159.38
653.581	149.38
653.785	150.38
653.99	142.38
654.194	138.38
654.398	161.38
654.602	166.38
654.806	138.38
655.01	152.38
655.214	157.38
655.418	154.38
655.622	161.38
655.826	157.38
656.03	165.38
656.234	169.38
656.438	175.38
656.642	183.38
656.846	168.38
657.049	164.38
657.253	145.38
657.457	137.38
657.661	122.38
657.865	137.38
658.068	116.38
658.272	107.38
658.476	109.38
658.68	107.38
658.883	116.38
659.087	105.38
659.291	115.38
659.494	88.38
659.698	98.38
659.901	94.38
660.105	89.38
660.309	100.38
660.512	109.38
660.716	100.38
660.919	97.38
661.123	98.38
661.326	87.38
661.53	92.38
661.733	107.38
661.936	99.38
662.14	83.38
662.343	87.38
662.546	82.38
662.75	80.38
662.953	93.38
663.156	74.38
663.36	94.38
663.563	95.38
663.766	81.38
663.969	83.38
664.173	84.38
664.376	86.38
664.579	94.38
664.782	66.38
664.985	71.38
665.188	90.38
665.391	92.38
665.594	90.38
665.797	90.38
666	85.38
666.203	91.38
666.406	83.38
666.609	90.38
666.812	69.38
667.015	97.38
667.218	89.38
667.421	86.38
667.624	96.38
667.827	78.38
668.03	77.38
668.232	76.38
668.435	78.38
668.638	79.38
668.841	78.38
669.043	85.38
669.246	95.38
669.449	86.38
669.651	86.38
669.854	70.38
670.057	83.38
670.259	79.38
670.462	76.38
670.665	84.38
670.867	84.38
671.07	83.38
671.272	84.38
671.475	87.38
671.677	90.38
671.88	68.38
672.082	83.38
672.284	87.38
672.487	88.38
672.689	89.38
672.892	86.38
