Data from 1960PennyLincolnUp.LampE6.200Scan.07172019.P1_HRD10591_13-06-11-002.txt Node
Date: Thu Jul 18 13:06:11 EDT 2019
User: cochatt
Spectrometer: HR+D1059
Trigger mode: 1
Integration Time (sec): 1.000000E-1
Scans to average: 1
Electric dark correction enabled: true
Nonlinearity correction enabled: false
Boxcar width: 0
XAxis mode: Wavelengths
Number of Pixels in Spectrum: 2048
>>>>>Begin Spectral Data<<<<<
223.165	-15.31
223.4	-15.31
223.635	-15.31
223.869	-8.31
224.104	-22.31
224.338	-20.31
224.573	-12.31
224.808	-22.31
225.042	-24.31
225.277	-2.31
225.511	0.69
225.746	2.69
225.98	6.69
226.215	20.69
226.449	15.69
226.683	22.69
226.918	28.69
227.152	29.69
227.387	19.69
227.621	34.69
227.856	46.69
228.09	47.69
228.324	48.69
228.559	45.69
228.793	68.69
229.027	80.69
229.262	100.69
229.496	93.69
229.73	115.69
229.964	116.69
230.199	112.69
230.433	119.69
230.667	111.69
230.901	89.69
231.136	113.69
231.37	102.69
231.604	103.69
231.838	114.69
232.072	105.69
232.306	97.69
232.541	121.69
232.775	125.69
233.009	113.69
233.243	101.69
233.477	120.69
233.711	108.69
233.945	121.69
234.179	110.69
234.413	130.69
234.647	105.69
234.881	115.69
235.115	112.69
235.349	132.69
235.583	119.69
235.817	110.69
236.051	118.69
236.285	117.69
236.519	120.69
236.753	130.69
236.987	127.69
237.221	147.69
237.455	172.69
237.689	139.69
237.922	131.69
238.156	132.69
238.39	119.69
238.624	123.69
238.858	118.69
239.091	110.69
239.325	119.69
239.559	124.69
239.793	129.69
240.027	114.69
240.26	129.69
240.494	141.69
240.728	147.69
240.961	121.69
241.195	140.69
241.429	135.69
241.662	126.69
241.896	115.69
242.13	135.69
242.363	131.69
242.597	120.69
242.83	140.69
243.064	143.69
243.298	132.69
243.531	128.69
243.765	130.69
243.998	137.69
244.232	140.69
244.465	140.69
244.699	139.69
244.932	146.69
245.166	148.69
245.399	154.69
245.633	150.69
245.866	148.69
246.099	158.69
246.333	141.69
246.566	164.69
246.8	130.69
247.033	143.69
247.266	145.69
247.5	158.69
247.733	145.69
247.966	161.69
248.2	155.69
248.433	166.69
248.666	158.69
248.899	182.69
249.133	183.69
249.366	198.69
249.599	170.69
249.832	180.69
250.066	160.69
250.299	167.69
250.532	171.69
250.765	183.69
250.998	194.69
251.231	212.69
251.465	192.69
251.698	176.69
251.931	188.69
252.164	165.69
252.397	203.69
252.63	179.69
252.863	182.69
253.096	204.69
253.329	198.69
253.562	198.69
253.795	179.69
254.028	199.69
254.261	189.69
254.494	197.69
254.727	225.69
254.96	244.69
255.193	224.69
255.426	215.69
255.659	203.69
255.892	201.69
256.124	189.69
256.357	225.69
256.59	215.69
256.823	201.69
257.056	188.69
257.289	207.69
257.521	202.69
257.754	209.69
257.987	199.69
258.22	194.69
258.452	178.69
258.685	173.69
258.918	206.69
259.151	199.69
259.383	210.69
259.616	210.69
259.849	204.69
260.081	206.69
260.314	222.69
260.547	234.69
260.779	206.69
261.012	216.69
261.244	216.69
261.477	204.69
261.71	187.69
261.942	200.69
262.175	222.69
262.407	216.69
262.64	208.69
262.872	203.69
263.105	216.69
263.337	208.69
263.57	200.69
263.802	203.69
264.035	193.69
264.267	202.69
264.499	215.69
264.732	209.69
264.964	209.69
265.197	209.69
265.429	208.69
265.661	210.69
265.894	198.69
266.126	227.69
266.358	215.69
266.591	232.69
266.823	221.69
267.055	222.69
267.287	221.69
267.52	222.69
267.752	208.69
267.984	205.69
268.216	229.69
268.448	231.69
268.681	224.69
268.913	243.69
269.145	242.69
269.377	240.69
269.609	247.69
269.841	249.69
270.073	264.69
270.306	273.69
270.538	280.69
270.77	265.69
271.002	251.69
271.234	268.69
271.466	272.69
271.698	276.69
271.93	276.69
272.162	265.69
272.394	269.69
272.626	267.69
272.858	265.69
273.09	273.69
273.322	248.69
273.553	258.69
273.785	252.69
274.017	266.69
274.249	253.69
274.481	253.69
274.713	224.69
274.945	268.69
275.176	257.69
275.408	251.69
275.64	253.69
275.872	248.69
276.104	250.69
276.335	244.69
276.567	267.69
276.799	259.69
277.031	279.69
277.262	295.69
277.494	273.69
277.726	273.69
277.957	277.69
278.189	265.69
278.421	263.69
278.652	267.69
278.884	270.69
279.115	253.69
279.347	267.69
279.579	270.69
279.81	248.69
280.042	261.69
280.273	275.69
280.505	257.69
280.736	266.69
280.968	260.69
281.199	277.69
281.431	261.69
281.662	265.69
281.894	277.69
282.125	271.69
282.356	303.69
282.588	302.69
282.819	301.69
283.051	289.69
283.282	273.69
283.513	291.69
283.745	280.69
283.976	267.69
284.207	279.69
284.439	292.69
284.67	301.69
284.901	293.69
285.132	272.69
285.364	284.69
285.595	283.69
285.826	265.69
286.057	291.69
286.288	294.69
286.52	287.69
286.751	294.69
286.982	281.69
287.213	263.69
287.444	309.69
287.675	300.69
287.906	303.69
288.138	302.69
288.369	300.69
288.6	310.69
288.831	314.69
289.062	279.69
289.293	302.69
289.524	297.69
289.755	316.69
289.986	298.69
290.217	306.69
290.448	303.69
290.679	299.69
290.91	289.69
291.141	316.69
291.371	289.69
291.602	295.69
291.833	305.69
292.064	315.69
292.295	324.69
292.526	295.69
292.757	319.69
292.987	319.69
293.218	295.69
293.449	324.69
293.68	302.69
293.91	303.69
294.141	316.69
294.372	287.69
294.603	313.69
294.833	295.69
295.064	313.69
295.295	315.69
295.525	321.69
295.756	328.69
295.987	303.69
296.217	321.69
296.448	322.69
296.679	312.69
296.909	334.69
297.14	334.69
297.37	321.69
297.601	310.69
297.831	323.69
298.062	328.69
298.292	338.69
298.523	321.69
298.753	332.69
298.984	326.69
299.214	347.69
299.445	323.69
299.675	326.69
299.905	318.69
300.136	341.69
300.366	332.69
300.597	320.69
300.827	332.69
301.057	330.69
301.288	372.69
301.518	353.69
301.748	342.69
301.979	375.69
302.209	332.69
302.439	365.69
302.669	359.69
302.9	355.69
303.13	357.69
303.36	348.69
303.59	340.69
303.82	330.69
304.051	345.69
304.281	337.69
304.511	351.69
304.741	351.69
304.971	335.69
305.201	359.69
305.431	347.69
305.661	330.69
305.891	342.69
306.121	342.69
306.352	348.69
306.582	358.69
306.812	332.69
307.042	335.69
307.272	347.69
307.502	349.69
307.731	350.69
307.961	364.69
308.191	346.69
308.421	327.69
308.651	351.69
308.881	332.69
309.111	349.69
309.341	348.69
309.571	341.69
309.8	363.69
310.03	367.69
310.26	353.69
310.49	365.69
310.72	383.69
310.949	377.69
311.179	399.69
311.409	370.69
311.639	375.69
311.868	375.69
312.098	353.69
312.328	381.69
312.557	372.69
312.787	371.69
313.017	365.69
313.246	378.69
313.476	387.69
313.706	395.69
313.935	393.69
314.165	384.69
314.394	397.69
314.624	392.69
314.853	386.69
315.083	361.69
315.312	353.69
315.542	373.69
315.771	391.69
316.001	385.69
316.23	368.69
316.46	378.69
316.689	376.69
316.919	392.69
317.148	387.69
317.377	361.69
317.607	376.69
317.836	392.69
318.065	393.69
318.295	384.69
318.524	376.69
318.753	364.69
318.983	391.69
319.212	378.69
319.441	370.69
319.67	383.69
319.9	396.69
320.129	373.69
320.358	381.69
320.587	395.69
320.816	378.69
321.046	393.69
321.275	399.69
321.504	369.69
321.733	397.69
321.962	408.69
322.191	414.69
322.42	420.69
322.649	409.69
322.878	406.69
323.108	416.69
323.337	420.69
323.566	439.69
323.795	441.69
324.024	473.69
324.253	539.69
324.482	721.69
324.71	999.69
324.939	1324.69
325.168	1107.69
325.397	632.69
325.626	481.69
325.855	454.69
326.084	448.69
326.313	443.69
326.542	450.69
326.77	488.69
326.999	541.69
327.228	672.69
327.457	937.69
327.686	1031.69
327.914	732.69
328.143	527.69
328.372	494.69
328.6	496.69
328.829	494.69
329.058	486.69
329.287	522.69
329.515	499.69
329.744	454.69
329.972	464.69
330.201	466.69
330.43	505.69
330.658	497.69
330.887	504.69
331.115	522.69
331.344	500.69
331.572	470.69
331.801	476.69
332.03	495.69
332.258	445.69
332.486	465.69
332.715	468.69
332.943	510.69
333.172	489.69
333.4	512.69
333.629	515.69
333.857	515.69
334.085	513.69
334.314	527.69
334.542	553.69
334.771	576.69
334.999	529.69
335.227	524.69
335.455	489.69
335.684	479.69
335.912	479.69
336.14	457.69
336.369	464.69
336.597	470.69
336.825	480.69
337.053	467.69
337.281	495.69
337.51	477.69
337.738	463.69
337.966	487.69
338.194	449.69
338.422	457.69
338.65	460.69
338.878	444.69
339.106	452.69
339.334	440.69
339.562	440.69
339.79	449.69
340.018	425.69
340.246	441.69
340.474	437.69
340.702	420.69
340.93	429.69
341.158	458.69
341.386	441.69
341.614	443.69
341.842	421.69
342.07	437.69
342.298	431.69
342.526	450.69
342.754	431.69
342.981	429.69
343.209	429.69
343.437	452.69
343.665	456.69
343.893	498.69
344.12	484.69
344.348	493.69
344.576	494.69
344.804	466.69
345.031	463.69
345.259	444.69
345.487	451.69
345.714	446.69
345.942	417.69
346.17	410.69
346.397	421.69
346.625	414.69
346.853	394.69
347.08	420.69
347.308	429.69
347.535	417.69
347.763	426.69
347.99	425.69
348.218	413.69
348.445	415.69
348.673	412.69
348.9	415.69
349.128	405.69
349.355	399.69
349.583	401.69
349.81	417.69
350.037	391.69
350.265	397.69
350.492	407.69
350.72	402.69
350.947	399.69
351.174	411.69
351.402	415.69
351.629	418.69
351.856	417.69
352.083	415.69
352.311	412.69
352.538	408.69
352.765	425.69
352.992	422.69
353.22	411.69
353.447	413.69
353.674	400.69
353.901	409.69
354.128	405.69
354.355	401.69
354.583	388.69
354.81	392.69
355.037	390.69
355.264	402.69
355.491	407.69
355.718	388.69
355.945	394.69
356.172	418.69
356.399	434.69
356.626	416.69
356.853	408.69
357.08	425.69
357.307	415.69
357.534	413.69
357.761	400.69
357.988	407.69
358.215	397.69
358.441	395.69
358.668	409.69
358.895	395.69
359.122	421.69
359.349	412.69
359.576	413.69
359.802	421.69
360.029	440.69
360.256	447.69
360.483	437.69
360.709	413.69
360.936	423.69
361.163	405.69
361.39	397.69
361.616	407.69
361.843	398.69
362.07	425.69
362.296	431.69
362.523	432.69
362.749	438.69
362.976	411.69
363.203	414.69
363.429	412.69
363.656	417.69
363.882	418.69
364.109	403.69
364.335	409.69
364.562	396.69
364.788	414.69
365.015	404.69
365.241	393.69
365.468	406.69
365.694	415.69
365.92	408.69
366.147	406.69
366.373	400.69
366.599	404.69
366.826	405.69
367.052	399.69
367.278	402.69
367.505	390.69
367.731	423.69
367.957	427.69
368.184	418.69
368.41	422.69
368.636	417.69
368.862	412.69
369.089	395.69
369.315	410.69
369.541	419.69
369.767	407.69
369.993	426.69
370.219	425.69
370.445	424.69
370.672	417.69
370.898	399.69
371.124	414.69
371.35	428.69
371.576	408.69
371.802	423.69
372.028	424.69
372.254	425.69
372.48	433.69
372.706	424.69
372.932	436.69
373.158	428.69
373.384	444.69
373.61	412.69
373.835	461.69
374.061	433.69
374.287	431.69
374.513	439.69
374.739	434.69
374.965	447.69
375.191	454.69
375.416	464.69
375.642	451.69
375.868	444.69
376.094	440.69
376.319	439.69
376.545	446.69
376.771	426.69
376.997	423.69
377.222	427.69
377.448	431.69
377.674	415.69
377.899	417.69
378.125	429.69
378.35	423.69
378.576	445.69
378.802	413.69
379.027	430.69
379.253	421.69
379.478	399.69
379.704	443.69
379.929	415.69
380.155	423.69
380.38	437.69
380.606	435.69
380.831	423.69
381.057	431.69
381.282	426.69
381.507	430.69
381.733	435.69
381.958	413.69
382.184	445.69
382.409	447.69
382.634	431.69
382.86	425.69
383.085	450.69
383.31	457.69
383.535	440.69
383.761	429.69
383.986	469.69
384.211	482.69
384.436	475.69
384.662	489.69
384.887	496.69
385.112	457.69
385.337	480.69
385.562	488.69
385.787	492.69
386.013	513.69
386.238	503.69
386.463	496.69
386.688	480.69
386.913	491.69
387.138	462.69
387.363	462.69
387.588	496.69
387.813	480.69
388.038	467.69
388.263	473.69
388.488	477.69
388.713	460.69
388.938	496.69
389.163	479.69
389.387	480.69
389.612	475.69
389.837	497.69
390.062	472.69
390.287	472.69
390.512	470.69
390.736	481.69
390.961	479.69
391.186	495.69
391.411	491.69
391.636	502.69
391.86	513.69
392.085	511.69
392.31	520.69
392.534	523.69
392.759	498.69
392.984	493.69
393.208	503.69
393.433	526.69
393.658	504.69
393.882	526.69
394.107	507.69
394.331	509.69
394.556	481.69
394.78	503.69
395.005	519.69
395.229	507.69
395.454	531.69
395.678	519.69
395.903	517.69
396.127	548.69
396.352	524.69
396.576	509.69
396.801	500.69
397.025	505.69
397.249	519.69
397.474	545.69
397.698	526.69
397.922	542.69
398.147	541.69
398.371	551.69
398.595	557.69
398.82	576.69
399.044	613.69
399.268	660.69
399.492	709.69
399.717	788.69
399.941	756.69
400.165	743.69
400.389	696.69
400.613	630.69
400.837	575.69
401.062	592.69
401.286	581.69
401.51	564.69
401.734	577.69
401.958	587.69
402.182	587.69
402.406	611.69
402.63	585.69
402.854	616.69
403.078	611.69
403.302	621.69
403.526	615.69
403.75	634.69
403.974	634.69
404.198	630.69
404.422	635.69
404.645	633.69
404.869	631.69
405.093	641.69
405.317	679.69
405.541	701.69
405.765	633.69
405.988	609.69
406.212	647.69
406.436	658.69
406.66	679.69
406.883	660.69
407.107	662.69
407.331	701.69
407.555	782.69
407.778	749.69
408.002	725.69
408.226	685.69
408.449	670.69
408.673	643.69
408.896	652.69
409.12	677.69
409.344	660.69
409.567	629.69
409.791	608.69
410.014	608.69
410.238	608.69
410.461	601.69
410.685	608.69
410.908	580.69
411.132	634.69
411.355	642.69
411.578	616.69
411.802	595.69
412.025	613.69
412.249	589.69
412.472	613.69
412.695	617.69
412.919	623.69
413.142	592.69
413.365	591.69
413.589	582.69
413.812	584.69
414.035	552.69
414.258	556.69
414.482	583.69
414.705	570.69
414.928	580.69
415.151	594.69
415.374	582.69
415.597	576.69
415.821	571.69
416.044	576.69
416.267	557.69
416.49	559.69
416.713	509.69
416.936	565.69
417.159	548.69
417.382	562.69
417.605	558.69
417.828	586.69
418.051	581.69
418.274	559.69
418.497	562.69
418.72	553.69
418.943	553.69
419.166	596.69
419.389	602.69
419.611	619.69
419.834	605.69
420.057	597.69
420.28	582.69
420.503	594.69
420.726	588.69
420.948	598.69
421.171	582.69
421.394	609.69
421.617	572.69
421.839	543.69
422.062	577.69
422.285	582.69
422.507	614.69
422.73	655.69
422.953	649.69
423.175	617.69
423.398	615.69
423.621	592.69
423.843	627.69
424.066	627.69
424.288	608.69
424.511	613.69
424.733	660.69
424.956	676.69
425.178	671.69
425.401	649.69
425.623	688.69
425.846	621.69
426.068	592.69
426.291	553.69
426.513	575.69
426.735	574.69
426.958	611.69
427.18	632.69
427.402	721.69
427.625	769.69
427.847	697.69
428.069	604.69
428.292	563.69
428.514	543.69
428.736	527.69
428.958	515.69
429.181	533.69
429.403	544.69
429.625	509.69
429.847	557.69
430.069	587.69
430.292	570.69
430.514	566.69
430.736	529.69
430.958	543.69
431.18	504.69
431.402	514.69
431.624	517.69
431.846	512.69
432.068	522.69
432.29	517.69
432.512	519.69
432.734	510.69
432.956	506.69
433.178	536.69
433.4	536.69
433.622	516.69
433.844	534.69
434.066	523.69
434.287	509.69
434.509	541.69
434.731	545.69
434.953	566.69
435.175	561.69
435.397	593.69
435.618	573.69
435.84	568.69
436.062	652.69
436.284	645.69
436.505	572.69
436.727	543.69
436.949	512.69
437.17	529.69
437.392	530.69
437.614	539.69
437.835	521.69
438.057	623.69
438.278	662.69
438.5	650.69
438.721	724.69
438.943	674.69
439.165	574.69
439.386	553.69
439.608	555.69
439.829	547.69
440.05	548.69
440.272	593.69
440.493	567.69
440.715	558.69
440.936	543.69
441.158	556.69
441.379	549.69
441.6	570.69
441.822	568.69
442.043	597.69
442.264	624.69
442.486	645.69
442.707	631.69
442.928	587.69
443.149	584.69
443.371	589.69
443.592	617.69
443.813	696.69
444.034	726.69
444.255	665.69
444.476	625.69
444.698	599.69
444.919	634.69
445.14	735.69
445.361	665.69
445.582	614.69
445.803	626.69
446.024	689.69
446.245	690.69
446.466	639.69
446.687	592.69
446.908	544.69
447.129	510.69
447.35	527.69
447.571	509.69
447.792	506.69
448.013	500.69
448.234	511.69
448.455	550.69
448.675	603.69
448.896	679.69
449.117	600.69
449.338	560.69
449.559	641.69
449.779	703.69
450	566.69
450.221	507.69
450.442	503.69
450.662	479.69
450.883	515.69
451.104	498.69
451.324	497.69
451.545	501.69
451.766	466.69
451.986	465.69
452.207	467.69
452.428	455.69
452.648	480.69
452.869	468.69
453.089	472.69
453.31	473.69
453.53	451.69
453.751	477.69
453.971	493.69
454.192	466.69
454.412	448.69
454.633	445.69
454.853	453.69
455.073	450.69
455.294	452.69
455.514	510.69
455.734	476.69
455.955	436.69
456.175	439.69
456.395	425.69
456.616	423.69
456.836	424.69
457.056	433.69
457.276	441.69
457.497	450.69
457.717	439.69
457.937	460.69
458.157	453.69
458.377	450.69
458.598	481.69
458.818	506.69
459.038	580.69
459.258	567.69
459.478	527.69
459.698	510.69
459.918	504.69
460.138	522.69
460.358	531.69
460.578	546.69
460.798	551.69
461.018	551.69
461.238	556.69
461.458	539.69
461.678	560.69
461.898	572.69
462.118	548.69
462.338	556.69
462.558	564.69
462.777	588.69
462.997	614.69
463.217	687.69
463.437	663.69
463.657	636.69
463.876	615.69
464.096	616.69
464.316	601.69
464.536	610.69
464.755	619.69
464.975	631.69
465.195	616.69
465.414	615.69
465.634	565.69
465.854	521.69
466.073	521.69
466.293	491.69
466.512	496.69
466.732	478.69
466.951	485.69
467.171	468.69
467.391	497.69
467.61	491.69
467.829	502.69
468.049	499.69
468.268	480.69
468.488	494.69
468.707	491.69
468.927	483.69
469.146	463.69
469.365	471.69
469.585	465.69
469.804	496.69
470.023	497.69
470.243	506.69
470.462	514.69
470.681	507.69
470.901	508.69
471.12	493.69
471.339	486.69
471.558	471.69
471.777	493.69
471.997	487.69
472.216	471.69
472.435	504.69
472.654	510.69
472.873	488.69
473.092	463.69
473.311	475.69
473.53	468.69
473.749	485.69
473.968	487.69
474.187	540.69
474.406	550.69
474.625	493.69
474.844	496.69
475.063	461.69
475.282	478.69
475.501	481.69
475.72	503.69
475.939	505.69
476.158	475.69
476.377	482.69
476.596	491.69
476.814	473.69
477.033	506.69
477.252	507.69
477.471	492.69
477.69	515.69
477.908	528.69
478.127	537.69
478.346	564.69
478.564	551.69
478.783	564.69
479.002	560.69
479.22	561.69
479.439	575.69
479.658	576.69
479.876	594.69
480.095	547.69
480.313	620.69
480.532	609.69
480.751	596.69
480.969	600.69
481.188	637.69
481.406	627.69
481.624	572.69
481.843	557.69
482.061	547.69
482.28	559.69
482.498	538.69
482.717	541.69
482.935	563.69
483.153	535.69
483.372	529.69
483.59	544.69
483.808	532.69
484.027	525.69
484.245	555.69
484.463	542.69
484.681	545.69
484.9	547.69
485.118	551.69
485.336	562.69
485.554	561.69
485.772	548.69
485.99	575.69
486.209	562.69
486.427	569.69
486.645	567.69
486.863	580.69
487.081	600.69
487.299	567.69
487.517	570.69
487.735	590.69
487.953	590.69
488.171	589.69
488.389	570.69
488.607	576.69
488.825	564.69
489.043	561.69
489.261	587.69
489.479	578.69
489.696	569.69
489.914	603.69
490.132	599.69
490.35	603.69
490.568	586.69
490.786	596.69
491.003	609.69
491.221	633.69
491.439	648.69
491.657	655.69
491.874	652.69
492.092	645.69
492.31	655.69
492.527	653.69
492.745	667.69
492.963	647.69
493.18	663.69
493.398	645.69
493.615	667.69
493.833	672.69
494.05	678.69
494.268	675.69
494.485	677.69
494.703	671.69
494.92	644.69
495.138	648.69
495.355	660.69
495.573	670.69
495.79	652.69
496.008	649.69
496.225	646.69
496.442	669.69
496.66	655.69
496.877	673.69
497.094	672.69
497.312	689.69
497.529	711.69
497.746	711.69
497.963	722.69
498.181	763.69
498.398	729.69
498.615	785.69
498.832	803.69
499.049	840.69
499.267	909.69
499.484	968.69
499.701	1034.69
499.918	1086.69
500.135	1187.69
500.352	1256.69
500.569	1374.69
500.786	1321.69
501.003	1289.69
501.22	1191.69
501.437	1109.69
501.654	1040.69
501.871	944.69
502.088	894.69
502.305	854.69
502.522	824.69
502.739	815.69
502.956	761.69
503.172	741.69
503.389	720.69
503.606	710.69
503.823	724.69
504.04	689.69
504.256	712.69
504.473	706.69
504.69	720.69
504.907	700.69
505.123	673.69
505.34	641.69
505.557	632.69
505.773	648.69
505.99	625.69
506.207	614.69
506.423	627.69
506.64	621.69
506.856	609.69
507.073	589.69
507.289	609.69
507.506	596.69
507.722	611.69
507.939	600.69
508.155	606.69
508.372	587.69
508.588	590.69
508.805	584.69
509.021	580.69
509.238	585.69
509.454	604.69
509.67	569.69
509.887	552.69
510.103	568.69
510.319	578.69
510.536	606.69
510.752	896.69
510.968	747.69
511.184	579.69
511.401	550.69
511.617	556.69
511.833	532.69
512.049	544.69
512.265	521.69
512.481	547.69
512.698	552.69
512.914	523.69
513.13	536.69
513.346	533.69
513.562	522.69
513.778	523.69
513.994	525.69
514.21	548.69
514.426	561.69
514.642	585.69
514.858	596.69
515.074	613.69
515.29	681.69
515.506	952.69
515.721	828.69
515.937	619.69
516.153	570.69
516.369	575.69
516.585	609.69
516.801	616.69
517.016	619.69
517.232	604.69
517.448	609.69
517.664	657.69
517.879	637.69
518.095	648.69
518.311	620.69
518.527	637.69
518.742	601.69
518.958	590.69
519.173	573.69
519.389	565.69
519.605	564.69
519.82	556.69
520.036	569.69
520.251	572.69
520.467	563.69
520.682	577.69
520.898	545.69
521.113	552.69
521.329	584.69
521.544	608.69
521.76	726.69
521.975	1127.69
522.19	1131.69
522.406	683.69
522.621	568.69
522.836	531.69
523.052	527.69
523.267	510.69
523.482	503.69
523.698	502.69
523.913	489.69
524.128	481.69
524.343	501.69
524.559	503.69
524.774	482.69
524.989	455.69
525.204	479.69
525.419	457.69
525.634	451.69
525.849	470.69
526.064	487.69
526.28	472.69
526.495	454.69
526.71	448.69
526.925	459.69
527.14	463.69
527.355	454.69
527.57	436.69
527.785	423.69
527.999	451.69
528.214	458.69
528.429	459.69
528.644	470.69
528.859	465.69
529.074	479.69
529.289	472.69
529.503	512.69
529.718	492.69
529.933	470.69
530.148	472.69
530.363	462.69
530.577	446.69
530.792	441.69
531.007	455.69
531.221	441.69
531.436	452.69
531.651	440.69
531.865	457.69
532.08	441.69
532.295	441.69
532.509	442.69
532.724	440.69
532.938	441.69
533.153	452.69
533.367	435.69
533.582	462.69
533.796	462.69
534.011	439.69
534.225	452.69
534.44	435.69
534.654	441.69
534.868	435.69
535.083	446.69
535.297	433.69
535.511	447.69
535.726	445.69
535.94	448.69
536.154	443.69
536.369	430.69
536.583	420.69
536.797	437.69
537.011	425.69
537.225	414.69
537.44	422.69
537.654	419.69
537.868	421.69
538.082	435.69
538.296	410.69
538.51	431.69
538.724	415.69
538.938	441.69
539.153	436.69
539.367	424.69
539.581	431.69
539.795	412.69
540.009	416.69
540.222	411.69
540.436	429.69
540.65	425.69
540.864	402.69
541.078	437.69
541.292	436.69
541.506	422.69
541.72	443.69
541.934	435.69
542.147	430.69
542.361	433.69
542.575	420.69
542.789	417.69
543.002	393.69
543.216	438.69
543.43	428.69
543.644	407.69
543.857	413.69
544.071	421.69
544.285	399.69
544.498	430.69
544.712	417.69
544.925	433.69
545.139	425.69
545.352	423.69
545.566	414.69
545.779	425.69
545.993	407.69
546.206	419.69
546.42	436.69
546.633	430.69
546.847	454.69
547.06	400.69
547.274	400.69
547.487	419.69
547.7	424.69
547.914	411.69
548.127	421.69
548.34	427.69
548.554	425.69
548.767	398.69
548.98	440.69
549.193	426.69
549.407	419.69
549.62	412.69
549.833	421.69
550.046	430.69
550.259	416.69
550.473	415.69
550.686	433.69
550.899	413.69
551.112	431.69
551.325	407.69
551.538	425.69
551.751	398.69
551.964	405.69
552.177	423.69
552.39	426.69
552.603	441.69
552.816	431.69
553.029	449.69
553.242	446.69
553.455	457.69
553.667	446.69
553.88	459.69
554.093	449.69
554.306	435.69
554.519	421.69
554.732	434.69
554.944	407.69
555.157	407.69
555.37	407.69
555.583	405.69
555.795	411.69
556.008	396.69
556.221	402.69
556.433	386.69
556.646	376.69
556.859	385.69
557.071	380.69
557.284	376.69
557.496	383.69
557.709	363.69
557.921	369.69
558.134	375.69
558.346	365.69
558.559	381.69
558.771	351.69
558.984	375.69
559.196	385.69
559.409	361.69
559.621	360.69
559.833	371.69
560.046	375.69
560.258	365.69
560.47	366.69
560.683	353.69
560.895	343.69
561.107	360.69
561.32	375.69
561.532	372.69
561.744	370.69
561.956	375.69
562.168	374.69
562.381	343.69
562.593	359.69
562.805	344.69
563.017	371.69
563.229	381.69
563.441	363.69
563.653	367.69
563.865	370.69
564.077	375.69
564.289	375.69
564.501	381.69
564.713	376.69
564.925	377.69
565.137	394.69
565.349	416.69
565.561	411.69
565.773	416.69
565.985	428.69
566.197	467.69
566.408	492.69
566.62	497.69
566.832	506.69
567.044	529.69
567.255	534.69
567.467	547.69
567.679	561.69
567.891	594.69
568.102	588.69
568.314	579.69
568.526	527.69
568.737	471.69
568.949	434.69
569.161	448.69
569.372	411.69
569.584	381.69
569.795	393.69
570.007	375.69
570.218	403.69
570.43	399.69
570.641	367.69
570.853	368.69
571.064	396.69
571.276	348.69
571.487	370.69
571.698	372.69
571.91	350.69
572.121	339.69
572.333	331.69
572.544	333.69
572.755	331.69
572.966	326.69
573.178	323.69
573.389	308.69
573.6	333.69
573.811	335.69
574.023	326.69
574.234	309.69
574.445	330.69
574.656	333.69
574.867	305.69
575.078	331.69
575.289	301.69
575.501	323.69
575.712	328.69
575.923	290.69
576.134	305.69
576.345	307.69
576.556	317.69
576.767	296.69
576.978	305.69
577.188	310.69
577.399	291.69
577.61	300.69
577.821	292.69
578.032	291.69
578.243	318.69
578.454	423.69
578.665	353.69
578.875	309.69
579.086	289.69
579.297	299.69
579.508	292.69
579.718	295.69
579.929	285.69
580.14	287.69
580.35	287.69
580.561	277.69
580.772	264.69
580.982	269.69
581.193	278.69
581.403	292.69
581.614	291.69
581.825	285.69
582.035	300.69
582.246	286.69
582.456	288.69
582.667	271.69
582.877	259.69
583.087	272.69
583.298	262.69
583.508	286.69
583.719	265.69
583.929	289.69
584.139	265.69
584.35	280.69
584.56	278.69
584.77	260.69
584.981	262.69
585.191	264.69
585.401	251.69
585.611	263.69
585.821	256.69
586.032	275.69
586.242	269.69
586.452	267.69
586.662	273.69
586.872	250.69
587.082	250.69
587.292	257.69
587.502	257.69
587.713	263.69
587.923	265.69
588.133	258.69
588.343	265.69
588.553	267.69
588.762	274.69
588.972	256.69
589.182	278.69
589.392	293.69
589.602	269.69
589.812	299.69
590.022	291.69
590.232	258.69
590.441	281.69
590.651	267.69
590.861	258.69
591.071	269.69
591.281	276.69
591.49	293.69
591.7	289.69
591.91	277.69
592.119	281.69
592.329	284.69
592.539	295.69
592.748	307.69
592.958	315.69
593.167	310.69
593.377	316.69
593.587	323.69
593.796	312.69
594.006	323.69
594.215	333.69
594.424	320.69
594.634	317.69
594.843	305.69
595.053	291.69
595.262	305.69
595.472	287.69
595.681	301.69
595.89	272.69
596.1	262.69
596.309	252.69
596.518	269.69
596.727	259.69
596.937	285.69
597.146	260.69
597.355	266.69
597.564	252.69
597.774	254.69
597.983	248.69
598.192	241.69
598.401	253.69
598.61	245.69
598.819	249.69
599.028	247.69
599.237	239.69
599.446	242.69
599.655	249.69
599.864	232.69
600.073	246.69
600.282	235.69
600.491	241.69
600.7	236.69
600.909	232.69
601.118	235.69
601.327	252.69
601.536	222.69
601.745	233.69
601.953	243.69
602.162	227.69
602.371	237.69
602.58	232.69
602.789	223.69
602.997	225.69
603.206	222.69
603.415	230.69
603.623	244.69
603.832	219.69
604.041	235.69
604.249	234.69
604.458	213.69
604.666	203.69
604.875	219.69
605.084	219.69
605.292	214.69
605.501	219.69
605.709	231.69
605.918	226.69
606.126	236.69
606.334	209.69
606.543	209.69
606.751	236.69
606.96	232.69
607.168	220.69
607.376	233.69
607.585	232.69
607.793	229.69
608.001	245.69
608.21	225.69
608.418	225.69
608.626	228.69
608.834	239.69
609.043	208.69
609.251	237.69
609.459	232.69
609.667	226.69
609.875	225.69
610.083	239.69
610.291	235.69
610.499	223.69
610.707	216.69
610.916	223.69
611.124	208.69
611.332	227.69
611.54	211.69
611.748	214.69
611.955	227.69
612.163	229.69
612.371	220.69
612.579	220.69
612.787	194.69
612.995	210.69
613.203	204.69
613.411	225.69
613.618	197.69
613.826	221.69
614.034	213.69
614.242	219.69
614.449	231.69
614.657	222.69
614.865	213.69
615.072	225.69
615.28	222.69
615.488	196.69
615.695	221.69
615.903	216.69
616.111	225.69
616.318	212.69
616.526	214.69
616.733	232.69
616.941	204.69
617.148	209.69
617.356	210.69
617.563	204.69
617.771	208.69
617.978	217.69
618.185	206.69
618.393	214.69
618.6	207.69
618.807	204.69
619.015	237.69
619.222	210.69
619.429	234.69
619.637	212.69
619.844	216.69
620.051	204.69
620.258	195.69
620.466	205.69
620.673	205.69
620.88	200.69
621.087	209.69
621.294	193.69
621.501	205.69
621.708	199.69
621.915	194.69
622.122	203.69
622.329	220.69
622.536	217.69
622.743	203.69
622.95	198.69
623.157	198.69
623.364	194.69
623.571	196.69
623.778	207.69
623.985	195.69
624.192	196.69
624.399	197.69
624.606	211.69
624.812	191.69
625.019	201.69
625.226	207.69
625.433	201.69
625.639	185.69
625.846	200.69
626.053	179.69
626.259	179.69
626.466	176.69
626.673	183.69
626.879	187.69
627.086	195.69
627.293	196.69
627.499	190.69
627.706	203.69
627.912	200.69
628.119	196.69
628.325	201.69
628.532	200.69
628.738	196.69
628.945	192.69
629.151	203.69
629.357	192.69
629.564	191.69
629.77	184.69
629.976	193.69
630.183	177.69
630.389	198.69
630.595	174.69
630.802	168.69
631.008	167.69
631.214	178.69
631.42	180.69
631.627	179.69
631.833	168.69
632.039	178.69
632.245	185.69
632.451	169.69
632.657	192.69
632.863	163.69
633.069	168.69
633.275	170.69
633.481	171.69
633.688	179.69
633.893	171.69
634.099	184.69
634.305	165.69
634.511	163.69
634.717	193.69
634.923	173.69
635.129	166.69
635.335	158.69
635.541	163.69
635.747	177.69
635.952	181.69
636.158	184.69
636.364	175.69
636.57	183.69
636.775	171.69
636.981	181.69
637.187	173.69
637.392	172.69
637.598	166.69
637.804	159.69
638.009	178.69
638.215	164.69
638.421	172.69
638.626	166.69
638.832	152.69
639.037	158.69
639.243	163.69
639.448	160.69
639.654	174.69
639.859	155.69
640.065	167.69
640.27	163.69
640.475	164.69
640.681	156.69
640.886	155.69
641.091	160.69
641.297	157.69
641.502	168.69
641.707	153.69
641.913	146.69
642.118	164.69
642.323	165.69
642.528	155.69
642.733	169.69
642.939	157.69
643.144	165.69
643.349	160.69
643.554	161.69
643.759	155.69
643.964	143.69
644.169	161.69
644.374	160.69
644.579	142.69
644.784	165.69
644.989	145.69
645.194	157.69
645.399	158.69
645.604	151.69
645.809	157.69
646.014	161.69
646.219	158.69
646.423	169.69
646.628	150.69
646.833	157.69
647.038	157.69
647.243	158.69
647.447	162.69
647.652	156.69
647.857	161.69
648.062	176.69
648.266	165.69
648.471	152.69
648.676	163.69
648.88	174.69
649.085	155.69
649.289	164.69
649.494	165.69
649.698	170.69
649.903	160.69
650.107	173.69
650.312	155.69
650.516	149.69
650.721	136.69
650.925	164.69
651.13	139.69
651.334	145.69
651.539	155.69
651.743	129.69
651.947	151.69
652.152	150.69
652.356	144.69
652.56	143.69
652.764	144.69
652.969	139.69
653.173	118.69
653.377	141.69
653.581	132.69
653.785	140.69
653.99	142.69
654.194	125.69
654.398	119.69
654.602	128.69
654.806	135.69
655.01	141.69
655.214	134.69
655.418	129.69
655.622	136.69
655.826	163.69
656.03	150.69
656.234	139.69
656.438	145.69
656.642	138.69
656.846	145.69
657.049	122.69
657.253	136.69
657.457	121.69
657.661	132.69
657.865	126.69
658.068	110.69
658.272	114.69
658.476	100.69
658.68	115.69
658.883	110.69
659.087	94.69
659.291	99.69
659.494	87.69
659.698	86.69
659.901	103.69
660.105	101.69
660.309	90.69
660.512	84.69
660.716	88.69
660.919	97.69
661.123	91.69
661.326	94.69
661.53	92.69
661.733	95.69
661.936	104.69
662.14	89.69
662.343	95.69
662.546	88.69
662.75	78.69
662.953	81.69
663.156	83.69
663.36	87.69
663.563	89.69
663.766	78.69
663.969	79.69
664.173	75.69
664.376	67.69
664.579	72.69
664.782	86.69
664.985	85.69
665.188	69.69
665.391	81.69
665.594	84.69
665.797	83.69
666	75.69
666.203	75.69
666.406	69.69
666.609	93.69
666.812	78.69
667.015	91.69
667.218	78.69
667.421	73.69
667.624	93.69
667.827	88.69
668.03	77.69
668.232	75.69
668.435	75.69
668.638	82.69
668.841	80.69
669.043	66.69
669.246	82.69
669.449	94.69
669.651	83.69
669.854	77.69
670.057	69.69
670.259	81.69
670.462	85.69
670.665	83.69
670.867	79.69
671.07	92.69
671.272	83.69
671.475	98.69
671.677	78.69
671.88	84.69
672.082	82.69
672.284	85.69
672.487	70.69
672.689	80.69
672.892	81.69
