Data from 1960PennyLincolnUp.LampE5.5.200Scan.07172019.P1.ChangedAngle_HRD10591_13-14-48-822.txt Node
Date: Thu Jul 18 13:14:48 EDT 2019
User: cochatt
Spectrometer: HR+D1059
Trigger mode: 1
Integration Time (sec): 1.000000E-1
Scans to average: 1
Electric dark correction enabled: true
Nonlinearity correction enabled: false
Boxcar width: 0
XAxis mode: Wavelengths
Number of Pixels in Spectrum: 2048
>>>>>Begin Spectral Data<<<<<
223.165	-21.62
223.4	-21.62
223.635	-21.62
223.869	-20.62
224.104	-6.62
224.338	-14.62
224.573	-18.62
224.808	-12.62
225.042	-11.62
225.277	2.38
225.511	12.38
225.746	1.38
225.98	9.38
226.215	11.38
226.449	24.38
226.683	8.38
226.918	15.38
227.152	21.38
227.387	37.38
227.621	39.38
227.856	48.38
228.09	48.38
228.324	36.38
228.559	46.38
228.793	55.38
229.027	93.38
229.262	82.38
229.496	95.38
229.73	99.38
229.964	105.38
230.199	90.38
230.433	103.38
230.667	102.38
230.901	106.38
231.136	101.38
231.37	102.38
231.604	104.38
231.838	123.38
232.072	117.38
232.306	105.38
232.541	100.38
232.775	121.38
233.009	104.38
233.243	104.38
233.477	122.38
233.711	111.38
233.945	106.38
234.179	94.38
234.413	105.38
234.647	98.38
234.881	107.38
235.115	103.38
235.349	112.38
235.583	109.38
235.817	135.38
236.051	128.38
236.285	117.38
236.519	121.38
236.753	115.38
236.987	117.38
237.221	143.38
237.455	155.38
237.689	152.38
237.922	139.38
238.156	124.38
238.39	117.38
238.624	119.38
238.858	117.38
239.091	112.38
239.325	124.38
239.559	112.38
239.793	121.38
240.027	121.38
240.26	137.38
240.494	135.38
240.728	127.38
240.961	139.38
241.195	124.38
241.429	128.38
241.662	121.38
241.896	137.38
242.13	134.38
242.363	115.38
242.597	121.38
242.83	137.38
243.064	133.38
243.298	126.38
243.531	137.38
243.765	116.38
243.998	120.38
244.232	125.38
244.465	134.38
244.699	123.38
244.932	133.38
245.166	133.38
245.399	146.38
245.633	131.38
245.866	147.38
246.099	137.38
246.333	138.38
246.566	141.38
246.8	155.38
247.033	144.38
247.266	142.38
247.5	171.38
247.733	156.38
247.966	167.38
248.2	159.38
248.433	155.38
248.666	175.38
248.899	158.38
249.133	167.38
249.366	187.38
249.599	183.38
249.832	165.38
250.066	152.38
250.299	152.38
250.532	175.38
250.765	177.38
250.998	200.38
251.231	223.38
251.465	191.38
251.698	181.38
251.931	171.38
252.164	183.38
252.397	173.38
252.63	169.38
252.863	187.38
253.096	186.38
253.329	198.38
253.562	195.38
253.795	206.38
254.028	175.38
254.261	194.38
254.494	206.38
254.727	199.38
254.96	222.38
255.193	236.38
255.426	221.38
255.659	216.38
255.892	218.38
256.124	199.38
256.357	195.38
256.59	193.38
256.823	202.38
257.056	198.38
257.289	189.38
257.521	196.38
257.754	186.38
257.987	201.38
258.22	187.38
258.452	175.38
258.685	186.38
258.918	193.38
259.151	203.38
259.383	192.38
259.616	202.38
259.849	213.38
260.081	198.38
260.314	216.38
260.547	233.38
260.779	237.38
261.012	214.38
261.244	202.38
261.477	218.38
261.71	203.38
261.942	202.38
262.175	222.38
262.407	203.38
262.64	212.38
262.872	221.38
263.105	209.38
263.337	206.38
263.57	199.38
263.802	196.38
264.035	204.38
264.267	213.38
264.499	209.38
264.732	194.38
264.964	203.38
265.197	223.38
265.429	190.38
265.661	201.38
265.894	215.38
266.126	208.38
266.358	202.38
266.591	204.38
266.823	207.38
267.055	214.38
267.287	211.38
267.52	223.38
267.752	218.38
267.984	200.38
268.216	216.38
268.448	213.38
268.681	225.38
268.913	227.38
269.145	248.38
269.377	257.38
269.609	258.38
269.841	255.38
270.073	247.38
270.306	256.38
270.538	268.38
270.77	281.38
271.002	265.38
271.234	245.38
271.466	276.38
271.698	271.38
271.93	271.38
272.162	288.38
272.394	270.38
272.626	261.38
272.858	251.38
273.09	264.38
273.322	265.38
273.553	260.38
273.785	234.38
274.017	250.38
274.249	255.38
274.481	255.38
274.713	256.38
274.945	276.38
275.176	257.38
275.408	236.38
275.64	251.38
275.872	251.38
276.104	246.38
276.335	271.38
276.567	257.38
276.799	277.38
277.031	273.38
277.262	295.38
277.494	289.38
277.726	274.38
277.957	271.38
278.189	275.38
278.421	255.38
278.652	260.38
278.884	255.38
279.115	254.38
279.347	280.38
279.579	269.38
279.81	247.38
280.042	258.38
280.273	259.38
280.505	252.38
280.736	245.38
280.968	258.38
281.199	253.38
281.431	247.38
281.662	258.38
281.894	263.38
282.125	254.38
282.356	264.38
282.588	296.38
282.819	264.38
283.051	267.38
283.282	261.38
283.513	286.38
283.745	270.38
283.976	258.38
284.207	286.38
284.439	279.38
284.67	287.38
284.901	260.38
285.132	277.38
285.364	279.38
285.595	282.38
285.826	280.38
286.057	265.38
286.288	266.38
286.52	273.38
286.751	294.38
286.982	278.38
287.213	285.38
287.444	280.38
287.675	276.38
287.906	280.38
288.138	312.38
288.369	287.38
288.6	275.38
288.831	286.38
289.062	323.38
289.293	301.38
289.524	294.38
289.755	286.38
289.986	277.38
290.217	286.38
290.448	288.38
290.679	279.38
290.91	273.38
291.141	294.38
291.371	284.38
291.602	288.38
291.833	283.38
292.064	279.38
292.295	261.38
292.526	293.38
292.757	300.38
292.987	282.38
293.218	280.38
293.449	275.38
293.68	293.38
293.91	301.38
294.141	307.38
294.372	309.38
294.603	287.38
294.833	263.38
295.064	308.38
295.295	303.38
295.525	301.38
295.756	301.38
295.987	296.38
296.217	299.38
296.448	326.38
296.679	304.38
296.909	302.38
297.14	311.38
297.37	311.38
297.601	287.38
297.831	305.38
298.062	298.38
298.292	302.38
298.523	287.38
298.753	299.38
298.984	320.38
299.214	313.38
299.445	310.38
299.675	301.38
299.905	308.38
300.136	307.38
300.366	315.38
300.597	317.38
300.827	294.38
301.057	330.38
301.288	301.38
301.518	309.38
301.748	304.38
301.979	316.38
302.209	337.38
302.439	301.38
302.669	319.38
302.9	332.38
303.13	312.38
303.36	310.38
303.59	329.38
303.82	326.38
304.051	318.38
304.281	342.38
304.511	320.38
304.741	341.38
304.971	336.38
305.201	319.38
305.431	308.38
305.661	327.38
305.891	330.38
306.121	332.38
306.352	309.38
306.582	327.38
306.812	333.38
307.042	308.38
307.272	321.38
307.502	316.38
307.731	338.38
307.961	340.38
308.191	320.38
308.421	319.38
308.651	329.38
308.881	330.38
309.111	346.38
309.341	351.38
309.571	339.38
309.8	351.38
310.03	336.38
310.26	342.38
310.49	361.38
310.72	364.38
310.949	349.38
311.179	367.38
311.409	337.38
311.639	377.38
311.868	358.38
312.098	365.38
312.328	374.38
312.557	382.38
312.787	378.38
313.017	373.38
313.246	381.38
313.476	361.38
313.706	348.38
313.935	355.38
314.165	371.38
314.394	369.38
314.624	372.38
314.853	371.38
315.083	346.38
315.312	359.38
315.542	355.38
315.771	368.38
316.001	366.38
316.23	367.38
316.46	364.38
316.689	356.38
316.919	368.38
317.148	348.38
317.377	371.38
317.607	351.38
317.836	372.38
318.065	374.38
318.295	381.38
318.524	379.38
318.753	371.38
318.983	360.38
319.212	373.38
319.441	367.38
319.67	367.38
319.9	373.38
320.129	359.38
320.358	369.38
320.587	385.38
320.816	394.38
321.046	395.38
321.275	383.38
321.504	393.38
321.733	371.38
321.962	384.38
322.191	413.38
322.42	387.38
322.649	395.38
322.878	429.38
323.108	416.38
323.337	423.38
323.566	428.38
323.795	452.38
324.024	473.38
324.253	547.38
324.482	744.38
324.71	1027.38
324.939	1368.38
325.168	1157.38
325.397	683.38
325.626	503.38
325.855	469.38
326.084	444.38
326.313	431.38
326.542	453.38
326.77	455.38
326.999	534.38
327.228	655.38
327.457	954.38
327.686	1035.38
327.914	739.38
328.143	546.38
328.372	520.38
328.6	492.38
328.829	480.38
329.058	485.38
329.287	461.38
329.515	450.38
329.744	446.38
329.972	444.38
330.201	428.38
330.43	477.38
330.658	479.38
330.887	494.38
331.115	472.38
331.344	456.38
331.572	432.38
331.801	449.38
332.03	421.38
332.258	451.38
332.486	427.38
332.715	401.38
332.943	423.38
333.172	423.38
333.4	432.38
333.629	436.38
333.857	441.38
334.085	454.38
334.314	459.38
334.542	462.38
334.771	469.38
334.999	467.38
335.227	439.38
335.455	435.38
335.684	438.38
335.912	424.38
336.14	433.38
336.369	425.38
336.597	427.38
336.825	431.38
337.053	431.38
337.281	421.38
337.51	419.38
337.738	428.38
337.966	406.38
338.194	422.38
338.422	413.38
338.65	407.38
338.878	410.38
339.106	405.38
339.334	408.38
339.562	395.38
339.79	405.38
340.018	422.38
340.246	409.38
340.474	403.38
340.702	430.38
340.93	407.38
341.158	397.38
341.386	397.38
341.614	419.38
341.842	399.38
342.07	413.38
342.298	428.38
342.526	400.38
342.754	375.38
342.981	395.38
343.209	399.38
343.437	401.38
343.665	399.38
343.893	413.38
344.12	423.38
344.348	416.38
344.576	406.38
344.804	419.38
345.031	412.38
345.259	421.38
345.487	390.38
345.714	389.38
345.942	398.38
346.17	396.38
346.397	384.38
346.625	393.38
346.853	376.38
347.08	382.38
347.308	389.38
347.535	405.38
347.763	389.38
347.99	389.38
348.218	392.38
348.445	388.38
348.673	410.38
348.9	399.38
349.128	379.38
349.355	382.38
349.583	381.38
349.81	363.38
350.037	369.38
350.265	371.38
350.492	375.38
350.72	393.38
350.947	381.38
351.174	382.38
351.402	380.38
351.629	361.38
351.856	385.38
352.083	394.38
352.311	394.38
352.538	377.38
352.765	393.38
352.992	393.38
353.22	376.38
353.447	373.38
353.674	376.38
353.901	364.38
354.128	370.38
354.355	373.38
354.583	382.38
354.81	375.38
355.037	365.38
355.264	366.38
355.491	371.38
355.718	353.38
355.945	354.38
356.172	365.38
356.399	349.38
356.626	326.38
356.853	368.38
357.08	339.38
357.307	363.38
357.534	365.38
357.761	373.38
357.988	365.38
358.215	345.38
358.441	362.38
358.668	339.38
358.895	353.38
359.122	373.38
359.349	367.38
359.576	366.38
359.802	386.38
360.029	386.38
360.256	380.38
360.483	393.38
360.709	381.38
360.936	363.38
361.163	375.38
361.39	371.38
361.616	372.38
361.843	361.38
362.07	364.38
362.296	350.38
362.523	377.38
362.749	367.38
362.976	373.38
363.203	384.38
363.429	369.38
363.656	368.38
363.882	351.38
364.109	359.38
364.335	368.38
364.562	371.38
364.788	349.38
365.015	358.38
365.241	363.38
365.468	382.38
365.694	363.38
365.92	356.38
366.147	346.38
366.373	363.38
366.599	352.38
366.826	359.38
367.052	378.38
367.278	375.38
367.505	373.38
367.731	347.38
367.957	342.38
368.184	359.38
368.41	371.38
368.636	370.38
368.862	373.38
369.089	354.38
369.315	373.38
369.541	358.38
369.767	359.38
369.993	367.38
370.219	358.38
370.445	355.38
370.672	341.38
370.898	355.38
371.124	379.38
371.35	354.38
371.576	367.38
371.802	367.38
372.028	347.38
372.254	362.38
372.48	359.38
372.706	364.38
372.932	373.38
373.158	353.38
373.384	365.38
373.61	362.38
373.835	364.38
374.061	364.38
374.287	359.38
374.513	348.38
374.739	367.38
374.965	363.38
375.191	358.38
375.416	373.38
375.642	379.38
375.868	355.38
376.094	362.38
376.319	363.38
376.545	350.38
376.771	340.38
376.997	365.38
377.222	363.38
377.448	332.38
377.674	355.38
377.899	348.38
378.125	356.38
378.35	360.38
378.576	356.38
378.802	348.38
379.027	360.38
379.253	359.38
379.478	358.38
379.704	360.38
379.929	358.38
380.155	363.38
380.38	363.38
380.606	346.38
380.831	342.38
381.057	354.38
381.282	336.38
381.507	343.38
381.733	366.38
381.958	343.38
382.184	363.38
382.409	365.38
382.634	361.38
382.86	368.38
383.085	362.38
383.31	366.38
383.535	366.38
383.761	369.38
383.986	358.38
384.211	382.38
384.436	355.38
384.662	372.38
384.887	394.38
385.112	396.38
385.337	373.38
385.562	379.38
385.787	392.38
386.013	393.38
386.238	383.38
386.463	389.38
386.688	379.38
386.913	386.38
387.138	363.38
387.363	374.38
387.588	387.38
387.813	375.38
388.038	381.38
388.263	371.38
388.488	389.38
388.713	389.38
388.938	380.38
389.163	368.38
389.387	398.38
389.612	387.38
389.837	379.38
390.062	383.38
390.287	393.38
390.512	378.38
390.736	366.38
390.961	391.38
391.186	375.38
391.411	393.38
391.636	385.38
391.86	404.38
392.085	411.38
392.31	407.38
392.534	398.38
392.759	398.38
392.984	377.38
393.208	368.38
393.433	391.38
393.658	389.38
393.882	384.38
394.107	383.38
394.331	399.38
394.556	403.38
394.78	376.38
395.005	394.38
395.229	389.38
395.454	377.38
395.678	383.38
395.903	382.38
396.127	405.38
396.352	431.38
396.576	381.38
396.801	391.38
397.025	404.38
397.249	395.38
397.474	407.38
397.698	413.38
397.922	409.38
398.147	420.38
398.371	423.38
398.595	426.38
398.82	437.38
399.044	437.38
399.268	461.38
399.492	492.38
399.717	479.38
399.941	513.38
400.165	504.38
400.389	527.38
400.613	487.38
400.837	472.38
401.062	437.38
401.286	429.38
401.51	457.38
401.734	444.38
401.958	438.38
402.182	439.38
402.406	424.38
402.63	441.38
402.854	451.38
403.078	432.38
403.302	437.38
403.526	448.38
403.75	443.38
403.974	443.38
404.198	428.38
404.422	459.38
404.645	440.38
404.869	439.38
405.093	439.38
405.317	483.38
405.541	503.38
405.765	485.38
405.988	493.38
406.212	465.38
406.436	485.38
406.66	477.38
406.883	471.38
407.107	499.38
407.331	506.38
407.555	552.38
407.778	564.38
408.002	511.38
408.226	468.38
408.449	505.38
408.673	467.38
408.896	493.38
409.12	513.38
409.344	500.38
409.567	467.38
409.791	452.38
410.014	453.38
410.238	417.38
410.461	438.38
410.685	447.38
410.908	435.38
411.132	477.38
411.355	484.38
411.578	465.38
411.802	449.38
412.025	425.38
412.249	453.38
412.472	455.38
412.695	485.38
412.919	478.38
413.142	442.38
413.365	422.38
413.589	448.38
413.812	425.38
414.035	384.38
414.258	430.38
414.482	404.38
414.705	403.38
414.928	421.38
415.151	410.38
415.374	401.38
415.597	401.38
415.821	398.38
416.044	409.38
416.267	431.38
416.49	415.38
416.713	388.38
416.936	423.38
417.159	405.38
417.382	398.38
417.605	404.38
417.828	400.38
418.051	416.38
418.274	404.38
418.497	385.38
418.72	399.38
418.943	401.38
419.166	416.38
419.389	413.38
419.611	446.38
419.834	428.38
420.057	445.38
420.28	416.38
420.503	420.38
420.726	414.38
420.948	427.38
421.171	453.38
421.394	457.38
421.617	427.38
421.839	422.38
422.062	444.38
422.285	424.38
422.507	452.38
422.73	477.38
422.953	495.38
423.175	432.38
423.398	435.38
423.621	431.38
423.843	426.38
424.066	450.38
424.288	447.38
424.511	472.38
424.733	482.38
424.956	519.38
425.178	509.38
425.401	499.38
425.623	516.38
425.846	455.38
426.068	441.38
426.291	448.38
426.513	433.38
426.735	446.38
426.958	445.38
427.18	524.38
427.402	602.38
427.625	641.38
427.847	543.38
428.069	511.38
428.292	457.38
428.514	417.38
428.736	421.38
428.958	431.38
429.181	415.38
429.403	416.38
429.625	408.38
429.847	432.38
430.069	473.38
430.292	469.38
430.514	425.38
430.736	399.38
430.958	383.38
431.18	393.38
431.402	394.38
431.624	379.38
431.846	392.38
432.068	399.38
432.29	393.38
432.512	385.38
432.734	410.38
432.956	399.38
433.178	406.38
433.4	391.38
433.622	389.38
433.844	407.38
434.066	392.38
434.287	377.38
434.509	389.38
434.731	394.38
434.953	413.38
435.175	413.38
435.397	432.38
435.618	429.38
435.84	468.38
436.062	522.38
436.284	536.38
436.505	475.38
436.727	426.38
436.949	419.38
437.17	399.38
437.392	408.38
437.614	416.38
437.835	430.38
438.057	499.38
438.278	551.38
438.5	567.38
438.721	584.38
438.943	557.38
439.165	458.38
439.386	448.38
439.608	425.38
439.829	431.38
440.05	441.38
440.272	469.38
440.493	459.38
440.715	400.38
440.936	410.38
441.158	399.38
441.379	404.38
441.6	403.38
441.822	433.38
442.043	453.38
442.264	532.38
442.486	532.38
442.707	457.38
442.928	441.38
443.149	438.38
443.371	454.38
443.592	480.38
443.813	542.38
444.034	579.38
444.255	490.38
444.476	437.38
444.698	451.38
444.919	460.38
445.14	520.38
445.361	487.38
445.582	474.38
445.803	503.38
446.024	549.38
446.245	553.38
446.466	500.38
446.687	454.38
446.908	420.38
447.129	417.38
447.35	406.38
447.571	393.38
447.792	407.38
448.013	405.38
448.234	428.38
448.455	448.38
448.675	504.38
448.896	554.38
449.117	505.38
449.338	503.38
449.559	556.38
449.779	600.38
450	512.38
450.221	429.38
450.442	413.38
450.662	385.38
450.883	383.38
451.104	397.38
451.324	389.38
451.545	350.38
451.766	362.38
451.986	351.38
452.207	348.38
452.428	355.38
452.648	345.38
452.869	367.38
453.089	379.38
453.31	377.38
453.53	361.38
453.751	346.38
453.971	361.38
454.192	374.38
454.412	353.38
454.633	361.38
454.853	367.38
455.073	359.38
455.294	368.38
455.514	405.38
455.734	419.38
455.955	374.38
456.175	357.38
456.395	348.38
456.616	345.38
456.836	352.38
457.056	326.38
457.276	344.38
457.497	344.38
457.717	345.38
457.937	324.38
458.157	364.38
458.377	356.38
458.598	375.38
458.818	407.38
459.038	431.38
459.258	449.38
459.478	415.38
459.698	399.38
459.918	382.38
460.138	412.38
460.358	392.38
460.578	379.38
460.798	425.38
461.018	405.38
461.238	406.38
461.458	400.38
461.678	408.38
461.898	386.38
462.118	400.38
462.338	399.38
462.558	420.38
462.777	406.38
462.997	438.38
463.217	456.38
463.437	448.38
463.657	426.38
463.876	433.38
464.096	408.38
464.316	431.38
464.536	434.38
464.755	429.38
464.975	429.38
465.195	431.38
465.414	453.38
465.634	423.38
465.854	415.38
466.073	401.38
466.293	395.38
466.512	395.38
466.732	371.38
466.951	365.38
467.171	383.38
467.391	383.38
467.61	382.38
467.829	369.38
468.049	368.38
468.268	374.38
468.488	364.38
468.707	374.38
468.927	369.38
469.146	343.38
469.365	366.38
469.585	359.38
469.804	372.38
470.023	375.38
470.243	391.38
470.462	374.38
470.681	378.38
470.901	395.38
471.12	369.38
471.339	393.38
471.558	389.38
471.777	380.38
471.997	379.38
472.216	385.38
472.435	405.38
472.654	404.38
472.873	384.38
473.092	361.38
473.311	381.38
473.53	366.38
473.749	385.38
473.968	413.38
474.187	447.38
474.406	479.38
474.625	431.38
474.844	374.38
475.063	383.38
475.282	382.38
475.501	366.38
475.72	389.38
475.939	380.38
476.158	397.38
476.377	389.38
476.596	375.38
476.814	381.38
477.033	405.38
477.252	400.38
477.471	411.38
477.69	419.38
477.908	416.38
478.127	415.38
478.346	427.38
478.564	407.38
478.783	423.38
479.002	423.38
479.22	435.38
479.439	426.38
479.658	427.38
479.876	443.38
480.095	449.38
480.313	466.38
480.532	457.38
480.751	467.38
480.969	448.38
481.188	502.38
481.406	502.38
481.624	464.38
481.843	446.38
482.061	471.38
482.28	458.38
482.498	441.38
482.717	437.38
482.935	455.38
483.153	447.38
483.372	431.38
483.59	444.38
483.808	442.38
484.027	446.38
484.245	440.38
484.463	441.38
484.681	456.38
484.9	454.38
485.118	464.38
485.336	458.38
485.554	462.38
485.772	442.38
485.99	444.38
486.209	438.38
486.427	461.38
486.645	454.38
486.863	466.38
487.081	451.38
487.299	476.38
487.517	467.38
487.735	459.38
487.953	474.38
488.171	439.38
488.389	464.38
488.607	475.38
488.825	461.38
489.043	453.38
489.261	471.38
489.479	483.38
489.696	473.38
489.914	463.38
490.132	464.38
490.35	471.38
490.568	496.38
490.786	491.38
491.003	489.38
491.221	486.38
491.439	521.38
491.657	495.38
491.874	508.38
492.092	510.38
492.31	512.38
492.527	521.38
492.745	508.38
492.963	523.38
493.18	497.38
493.398	534.38
493.615	519.38
493.833	527.38
494.05	544.38
494.268	538.38
494.485	509.38
494.703	525.38
494.92	513.38
495.138	520.38
495.355	521.38
495.573	545.38
495.79	529.38
496.008	539.38
496.225	528.38
496.442	527.38
496.66	529.38
496.877	531.38
497.094	555.38
497.312	549.38
497.529	548.38
497.746	582.38
497.963	550.38
498.181	557.38
498.398	590.38
498.615	593.38
498.832	631.38
499.049	620.38
499.267	657.38
499.484	660.38
499.701	694.38
499.918	698.38
500.135	726.38
500.352	777.38
500.569	789.38
500.786	778.38
501.003	767.38
501.22	748.38
501.437	709.38
501.654	718.38
501.871	668.38
502.088	663.38
502.305	653.38
502.522	631.38
502.739	611.38
502.956	567.38
503.172	575.38
503.389	556.38
503.606	569.38
503.823	559.38
504.04	537.38
504.256	552.38
504.473	546.38
504.69	526.38
504.907	545.38
505.123	533.38
505.34	529.38
505.557	523.38
505.773	500.38
505.99	524.38
506.207	519.38
506.423	517.38
506.64	523.38
506.856	490.38
507.073	472.38
507.289	477.38
507.506	481.38
507.722	487.38
507.939	489.38
508.155	479.38
508.372	477.38
508.588	487.38
508.805	495.38
509.021	461.38
509.238	474.38
509.454	452.38
509.67	487.38
509.887	498.38
510.103	466.38
510.319	486.38
510.536	503.38
510.752	755.38
510.968	623.38
511.184	471.38
511.401	465.38
511.617	433.38
511.833	464.38
512.049	447.38
512.265	463.38
512.481	454.38
512.698	461.38
512.914	437.38
513.13	473.38
513.346	448.38
513.562	445.38
513.778	445.38
513.994	449.38
514.21	455.38
514.426	484.38
514.642	462.38
514.858	494.38
515.074	515.38
515.29	557.38
515.506	746.38
515.721	662.38
515.937	504.38
516.153	483.38
516.369	494.38
516.585	487.38
516.801	476.38
517.016	477.38
517.232	472.38
517.448	461.38
517.664	457.38
517.879	471.38
518.095	486.38
518.311	485.38
518.527	476.38
518.742	450.38
518.958	463.38
519.173	464.38
519.389	462.38
519.605	449.38
519.82	450.38
520.036	445.38
520.251	481.38
520.467	465.38
520.682	485.38
520.898	460.38
521.113	475.38
521.329	503.38
521.544	521.38
521.76	627.38
521.975	915.38
522.19	885.38
522.406	579.38
522.621	488.38
522.836	437.38
523.052	430.38
523.267	443.38
523.482	398.38
523.698	425.38
523.913	428.38
524.128	412.38
524.343	409.38
524.559	410.38
524.774	421.38
524.989	398.38
525.204	412.38
525.419	413.38
525.634	387.38
525.849	403.38
526.064	396.38
526.28	413.38
526.495	389.38
526.71	407.38
526.925	385.38
527.14	394.38
527.355	385.38
527.57	372.38
527.785	363.38
527.999	397.38
528.214	369.38
528.429	373.38
528.644	397.38
528.859	374.38
529.074	391.38
529.289	421.38
529.503	428.38
529.718	393.38
529.933	377.38
530.148	382.38
530.363	391.38
530.577	371.38
530.792	383.38
531.007	395.38
531.221	380.38
531.436	382.38
531.651	366.38
531.865	374.38
532.08	363.38
532.295	367.38
532.509	375.38
532.724	369.38
532.938	396.38
533.153	370.38
533.367	369.38
533.582	374.38
533.796	377.38
534.011	377.38
534.225	368.38
534.44	367.38
534.654	357.38
534.868	385.38
535.083	381.38
535.297	384.38
535.511	384.38
535.726	363.38
535.94	367.38
536.154	358.38
536.369	355.38
536.583	347.38
536.797	344.38
537.011	362.38
537.225	375.38
537.44	353.38
537.654	371.38
537.868	365.38
538.082	368.38
538.296	368.38
538.51	365.38
538.724	365.38
538.938	361.38
539.153	350.38
539.367	361.38
539.581	361.38
539.795	364.38
540.009	359.38
540.222	366.38
540.436	359.38
540.65	356.38
540.864	366.38
541.078	361.38
541.292	363.38
541.506	355.38
541.72	357.38
541.934	341.38
542.147	363.38
542.361	355.38
542.575	332.38
542.789	373.38
543.002	337.38
543.216	369.38
543.43	347.38
543.644	372.38
543.857	344.38
544.071	350.38
544.285	376.38
544.498	371.38
544.712	353.38
544.925	359.38
545.139	357.38
545.352	337.38
545.566	363.38
545.779	343.38
545.993	355.38
546.206	367.38
546.42	350.38
546.633	349.38
546.847	345.38
547.06	345.38
547.274	343.38
547.487	375.38
547.7	343.38
547.914	348.38
548.127	350.38
548.34	362.38
548.554	343.38
548.767	336.38
548.98	347.38
549.193	344.38
549.407	334.38
549.62	348.38
549.833	341.38
550.046	334.38
550.259	343.38
550.473	340.38
550.686	362.38
550.899	352.38
551.112	347.38
551.325	348.38
551.538	336.38
551.751	326.38
551.964	339.38
552.177	351.38
552.39	355.38
552.603	345.38
552.816	333.38
553.029	321.38
553.242	326.38
553.455	348.38
553.667	348.38
553.88	358.38
554.093	356.38
554.306	345.38
554.519	329.38
554.732	339.38
554.944	352.38
555.157	327.38
555.37	342.38
555.583	333.38
555.795	321.38
556.008	316.38
556.221	321.38
556.433	320.38
556.646	312.38
556.859	341.38
557.071	329.38
557.284	328.38
557.496	305.38
557.709	311.38
557.921	319.38
558.134	299.38
558.346	341.38
558.559	335.38
558.771	306.38
558.984	299.38
559.196	305.38
559.409	308.38
559.621	311.38
559.833	299.38
560.046	294.38
560.258	315.38
560.47	297.38
560.683	313.38
560.895	309.38
561.107	315.38
561.32	300.38
561.532	298.38
561.744	322.38
561.956	313.38
562.168	320.38
562.381	324.38
562.593	305.38
562.805	288.38
563.017	317.38
563.229	315.38
563.441	299.38
563.653	317.38
563.865	311.38
564.077	305.38
564.289	324.38
564.501	316.38
564.713	316.38
564.925	313.38
565.137	327.38
565.349	335.38
565.561	344.38
565.773	329.38
565.985	366.38
566.197	356.38
566.408	341.38
566.62	367.38
566.832	368.38
567.044	379.38
567.255	378.38
567.467	394.38
567.679	379.38
567.891	392.38
568.102	411.38
568.314	389.38
568.526	374.38
568.737	371.38
568.949	348.38
569.161	340.38
569.372	342.38
569.584	331.38
569.795	327.38
570.007	311.38
570.218	338.38
570.43	332.38
570.641	315.38
570.853	317.38
571.064	308.38
571.276	303.38
571.487	286.38
571.698	300.38
571.91	286.38
572.121	298.38
572.333	296.38
572.544	291.38
572.755	275.38
572.966	277.38
573.178	278.38
573.389	291.38
573.6	284.38
573.811	275.38
574.023	291.38
574.234	277.38
574.445	265.38
574.656	271.38
574.867	259.38
575.078	271.38
575.289	266.38
575.501	267.38
575.712	258.38
575.923	260.38
576.134	254.38
576.345	275.38
576.556	262.38
576.767	270.38
576.978	268.38
577.188	257.38
577.399	266.38
577.61	260.38
577.821	262.38
578.032	247.38
578.243	279.38
578.454	397.38
578.665	324.38
578.875	257.38
579.086	266.38
579.297	244.38
579.508	268.38
579.718	257.38
579.929	250.38
580.14	244.38
580.35	242.38
580.561	233.38
580.772	260.38
580.982	225.38
581.193	251.38
581.403	247.38
581.614	270.38
581.825	248.38
582.035	243.38
582.246	257.38
582.456	254.38
582.667	246.38
582.877	267.38
583.087	263.38
583.298	257.38
583.508	257.38
583.719	250.38
583.929	257.38
584.139	237.38
584.35	248.38
584.56	257.38
584.77	253.38
584.981	237.38
585.191	247.38
585.401	261.38
585.611	244.38
585.821	255.38
586.032	233.38
586.242	261.38
586.452	229.38
586.662	233.38
586.872	234.38
587.082	261.38
587.292	259.38
587.502	229.38
587.713	237.38
587.923	253.38
588.133	231.38
588.343	235.38
588.553	246.38
588.762	244.38
588.972	247.38
589.182	319.38
589.392	307.38
589.602	250.38
589.812	287.38
590.022	258.38
590.232	253.38
590.441	229.38
590.651	232.38
590.861	232.38
591.071	243.38
591.281	230.38
591.49	233.38
591.7	243.38
591.91	246.38
592.119	251.38
592.329	258.38
592.539	249.38
592.748	253.38
592.958	248.38
593.167	255.38
593.377	251.38
593.587	265.38
593.796	254.38
594.006	244.38
594.215	256.38
594.424	253.38
594.634	277.38
594.843	242.38
595.053	246.38
595.262	253.38
595.472	245.38
595.681	230.38
595.89	247.38
596.1	221.38
596.309	204.38
596.518	215.38
596.727	231.38
596.937	237.38
597.146	223.38
597.355	243.38
597.564	231.38
597.774	227.38
597.983	207.38
598.192	227.38
598.401	227.38
598.61	206.38
598.819	237.38
599.028	224.38
599.237	223.38
599.446	212.38
599.655	230.38
599.864	217.38
600.073	213.38
600.282	227.38
600.491	214.38
600.7	229.38
600.909	215.38
601.118	213.38
601.327	222.38
601.536	212.38
601.745	222.38
601.953	201.38
602.162	211.38
602.371	200.38
602.58	213.38
602.789	212.38
602.997	198.38
603.206	200.38
603.415	224.38
603.623	216.38
603.832	218.38
604.041	200.38
604.249	212.38
604.458	207.38
604.666	212.38
604.875	198.38
605.084	218.38
605.292	202.38
605.501	197.38
605.709	206.38
605.918	209.38
606.126	201.38
606.334	196.38
606.543	193.38
606.751	198.38
606.96	211.38
607.168	212.38
607.376	205.38
607.585	203.38
607.793	205.38
608.001	189.38
608.21	204.38
608.418	200.38
608.626	201.38
608.834	197.38
609.043	189.38
609.251	208.38
609.459	204.38
609.667	203.38
609.875	216.38
610.083	213.38
610.291	205.38
610.499	205.38
610.707	201.38
610.916	197.38
611.124	197.38
611.332	207.38
611.54	216.38
611.748	204.38
611.955	199.38
612.163	199.38
612.371	193.38
612.579	184.38
612.787	201.38
612.995	188.38
613.203	189.38
613.411	204.38
613.618	193.38
613.826	206.38
614.034	203.38
614.242	200.38
614.449	190.38
614.657	173.38
614.865	202.38
615.072	193.38
615.28	207.38
615.488	191.38
615.695	190.38
615.903	200.38
616.111	209.38
616.318	195.38
616.526	197.38
616.733	205.38
616.941	219.38
617.148	204.38
617.356	194.38
617.563	189.38
617.771	198.38
617.978	193.38
618.185	201.38
618.393	182.38
618.6	204.38
618.807	183.38
619.015	167.38
619.222	190.38
619.429	185.38
619.637	181.38
619.844	201.38
620.051	182.38
620.258	186.38
620.466	167.38
620.673	190.38
620.88	181.38
621.087	178.38
621.294	186.38
621.501	199.38
621.708	178.38
621.915	188.38
622.122	176.38
622.329	197.38
622.536	180.38
622.743	181.38
622.95	175.38
623.157	189.38
623.364	182.38
623.571	172.38
623.778	194.38
623.985	193.38
624.192	169.38
624.399	179.38
624.606	183.38
624.812	157.38
625.019	168.38
625.226	175.38
625.433	165.38
625.639	163.38
625.846	166.38
626.053	182.38
626.259	189.38
626.466	178.38
626.673	174.38
626.879	169.38
627.086	200.38
627.293	156.38
627.499	168.38
627.706	174.38
627.912	161.38
628.119	164.38
628.325	165.38
628.532	171.38
628.738	168.38
628.945	157.38
629.151	163.38
629.357	171.38
629.564	149.38
629.77	172.38
629.976	162.38
630.183	152.38
630.389	177.38
630.595	161.38
630.802	166.38
631.008	154.38
631.214	170.38
631.42	157.38
631.627	160.38
631.833	157.38
632.039	168.38
632.245	169.38
632.451	163.38
632.657	165.38
632.863	163.38
633.069	163.38
633.275	154.38
633.481	163.38
633.688	167.38
633.893	165.38
634.099	154.38
634.305	155.38
634.511	158.38
634.717	155.38
634.923	151.38
635.129	150.38
635.335	151.38
635.541	173.38
635.747	160.38
635.952	155.38
636.158	149.38
636.364	163.38
636.57	159.38
636.775	181.38
636.981	165.38
637.187	166.38
637.392	155.38
637.598	159.38
637.804	143.38
638.009	163.38
638.215	164.38
638.421	163.38
638.626	148.38
638.832	121.38
639.037	137.38
639.243	137.38
639.448	145.38
639.654	156.38
639.859	155.38
640.065	155.38
640.27	162.38
640.475	148.38
640.681	150.38
640.886	168.38
641.091	154.38
641.297	130.38
641.502	143.38
641.707	142.38
641.913	158.38
642.118	155.38
642.323	158.38
642.528	146.38
642.733	142.38
642.939	154.38
643.144	142.38
643.349	147.38
643.554	143.38
643.759	138.38
643.964	157.38
644.169	151.38
644.374	137.38
644.579	160.38
644.784	154.38
644.989	169.38
645.194	138.38
645.399	124.38
645.604	144.38
645.809	150.38
646.014	153.38
646.219	152.38
646.423	160.38
646.628	144.38
646.833	148.38
647.038	168.38
647.243	147.38
647.447	163.38
647.652	153.38
647.857	153.38
648.062	148.38
648.266	149.38
648.471	147.38
648.676	152.38
648.88	161.38
649.085	149.38
649.289	155.38
649.494	131.38
649.698	171.38
649.903	151.38
650.107	156.38
650.312	152.38
650.516	130.38
650.721	136.38
650.925	127.38
651.13	127.38
651.334	147.38
651.539	149.38
651.743	149.38
651.947	135.38
652.152	137.38
652.356	120.38
652.56	136.38
652.764	120.38
652.969	139.38
653.173	139.38
653.377	125.38
653.581	114.38
653.785	109.38
653.99	135.38
654.194	127.38
654.398	129.38
654.602	132.38
654.806	133.38
655.01	130.38
655.214	140.38
655.418	116.38
655.622	135.38
655.826	128.38
656.03	137.38
656.234	148.38
656.438	131.38
656.642	126.38
656.846	125.38
657.049	127.38
657.253	131.38
657.457	125.38
657.661	120.38
657.865	99.38
658.068	119.38
658.272	111.38
658.476	102.38
658.68	110.38
658.883	109.38
659.087	99.38
659.291	105.38
659.494	108.38
659.698	106.38
659.901	90.38
660.105	78.38
660.309	101.38
660.512	100.38
660.716	83.38
660.919	87.38
661.123	99.38
661.326	93.38
661.53	95.38
661.733	94.38
661.936	87.38
662.14	95.38
662.343	77.38
662.546	80.38
662.75	76.38
662.953	72.38
663.156	85.38
663.36	73.38
663.563	82.38
663.766	97.38
663.969	101.38
664.173	84.38
664.376	99.38
664.579	71.38
664.782	64.38
664.985	83.38
665.188	91.38
665.391	84.38
665.594	94.38
665.797	84.38
666	88.38
666.203	84.38
666.406	95.38
666.609	72.38
666.812	84.38
667.015	94.38
667.218	97.38
667.421	85.38
667.624	77.38
667.827	92.38
668.03	76.38
668.232	104.38
668.435	83.38
668.638	88.38
668.841	90.38
669.043	92.38
669.246	88.38
669.449	94.38
669.651	96.38
669.854	84.38
670.057	79.38
670.259	97.38
670.462	94.38
670.665	75.38
670.867	86.38
671.07	87.38
671.272	75.38
671.475	86.38
671.677	88.38
671.88	78.38
672.082	90.38
672.284	88.38
672.487	77.38
672.689	87.38
672.892	74.38
