Data from 1960PennyLincolnUp.LampE6.200Scan.07172019.P1_HRD10591_13-05-53-001.txt Node
Date: Thu Jul 18 13:05:53 EDT 2019
User: cochatt
Spectrometer: HR+D1059
Trigger mode: 1
Integration Time (sec): 1.000000E-1
Scans to average: 1
Electric dark correction enabled: true
Nonlinearity correction enabled: false
Boxcar width: 0
XAxis mode: Wavelengths
Number of Pixels in Spectrum: 2048
>>>>>Begin Spectral Data<<<<<
223.165	-20.62
223.4	-20.62
223.635	-20.62
223.869	-12.62
224.104	-19.62
224.338	-12.62
224.573	-3.62
224.808	-12.62
225.042	0.38
225.277	-2.62
225.511	4.38
225.746	10.38
225.98	-6.62
226.215	-1.62
226.449	16.38
226.683	16.38
226.918	21.38
227.152	23.38
227.387	30.38
227.621	25.38
227.856	45.38
228.09	29.38
228.324	36.38
228.559	50.38
228.793	50.38
229.027	67.38
229.262	96.38
229.496	96.38
229.73	112.38
229.964	115.38
230.199	109.38
230.433	101.38
230.667	116.38
230.901	112.38
231.136	118.38
231.37	106.38
231.604	99.38
231.838	134.38
232.072	117.38
232.306	107.38
232.541	104.38
232.775	112.38
233.009	112.38
233.243	112.38
233.477	102.38
233.711	98.38
233.945	121.38
234.179	107.38
234.413	116.38
234.647	116.38
234.881	110.38
235.115	110.38
235.349	102.38
235.583	111.38
235.817	123.38
236.051	113.38
236.285	117.38
236.519	128.38
236.753	111.38
236.987	117.38
237.221	145.38
237.455	163.38
237.689	131.38
237.922	134.38
238.156	122.38
238.39	118.38
238.624	116.38
238.858	144.38
239.091	118.38
239.325	112.38
239.559	115.38
239.793	118.38
240.027	119.38
240.26	131.38
240.494	142.38
240.728	131.38
240.961	139.38
241.195	128.38
241.429	132.38
241.662	117.38
241.896	132.38
242.13	135.38
242.363	107.38
242.597	125.38
242.83	131.38
243.064	133.38
243.298	117.38
243.531	135.38
243.765	127.38
243.998	134.38
244.232	129.38
244.465	150.38
244.699	132.38
244.932	122.38
245.166	123.38
245.399	143.38
245.633	129.38
245.866	130.38
246.099	157.38
246.333	134.38
246.566	145.38
246.8	157.38
247.033	152.38
247.266	137.38
247.5	136.38
247.733	153.38
247.966	147.38
248.2	150.38
248.433	150.38
248.666	149.38
248.899	163.38
249.133	161.38
249.366	176.38
249.599	151.38
249.832	161.38
250.066	174.38
250.299	147.38
250.532	169.38
250.765	189.38
250.998	194.38
251.231	180.38
251.465	173.38
251.698	175.38
251.931	181.38
252.164	177.38
252.397	177.38
252.63	160.38
252.863	172.38
253.096	182.38
253.329	198.38
253.562	197.38
253.795	186.38
254.028	201.38
254.261	202.38
254.494	192.38
254.727	191.38
254.96	222.38
255.193	241.38
255.426	181.38
255.659	191.38
255.892	190.38
256.124	211.38
256.357	193.38
256.59	200.38
256.823	189.38
257.056	184.38
257.289	165.38
257.521	183.38
257.754	188.38
257.987	181.38
258.22	200.38
258.452	199.38
258.685	199.38
258.918	197.38
259.151	192.38
259.383	207.38
259.616	203.38
259.849	188.38
260.081	217.38
260.314	224.38
260.547	214.38
260.779	218.38
261.012	197.38
261.244	207.38
261.477	204.38
261.71	203.38
261.942	201.38
262.175	213.38
262.407	199.38
262.64	176.38
262.872	207.38
263.105	198.38
263.337	196.38
263.57	184.38
263.802	184.38
264.035	199.38
264.267	204.38
264.499	191.38
264.732	211.38
264.964	194.38
265.197	211.38
265.429	207.38
265.661	192.38
265.894	205.38
266.126	206.38
266.358	227.38
266.591	195.38
266.823	198.38
267.055	206.38
267.287	219.38
267.52	209.38
267.752	217.38
267.984	220.38
268.216	201.38
268.448	223.38
268.681	210.38
268.913	235.38
269.145	222.38
269.377	235.38
269.609	263.38
269.841	249.38
270.073	227.38
270.306	265.38
270.538	270.38
270.77	271.38
271.002	235.38
271.234	272.38
271.466	255.38
271.698	273.38
271.93	284.38
272.162	269.38
272.394	289.38
272.626	275.38
272.858	261.38
273.09	248.38
273.322	239.38
273.553	249.38
273.785	247.38
274.017	245.38
274.249	236.38
274.481	252.38
274.713	253.38
274.945	249.38
275.176	237.38
275.408	245.38
275.64	237.38
275.872	252.38
276.104	249.38
276.335	262.38
276.567	267.38
276.799	259.38
277.031	285.38
277.262	293.38
277.494	272.38
277.726	283.38
277.957	265.38
278.189	267.38
278.421	259.38
278.652	269.38
278.884	269.38
279.115	261.38
279.347	267.38
279.579	260.38
279.81	265.38
280.042	245.38
280.273	246.38
280.505	263.38
280.736	260.38
280.968	253.38
281.199	267.38
281.431	263.38
281.662	265.38
281.894	259.38
282.125	286.38
282.356	284.38
282.588	285.38
282.819	294.38
283.051	271.38
283.282	268.38
283.513	264.38
283.745	273.38
283.976	276.38
284.207	274.38
284.439	285.38
284.67	281.38
284.901	279.38
285.132	278.38
285.364	267.38
285.595	293.38
285.826	278.38
286.057	283.38
286.288	287.38
286.52	290.38
286.751	272.38
286.982	283.38
287.213	283.38
287.444	284.38
287.675	291.38
287.906	303.38
288.138	292.38
288.369	294.38
288.6	297.38
288.831	333.38
289.062	304.38
289.293	292.38
289.524	275.38
289.755	303.38
289.986	280.38
290.217	290.38
290.448	289.38
290.679	301.38
290.91	301.38
291.141	291.38
291.371	301.38
291.602	273.38
291.833	285.38
292.064	320.38
292.295	294.38
292.526	304.38
292.757	301.38
292.987	295.38
293.218	300.38
293.449	283.38
293.68	287.38
293.91	285.38
294.141	281.38
294.372	295.38
294.603	292.38
294.833	322.38
295.064	294.38
295.295	304.38
295.525	309.38
295.756	329.38
295.987	310.38
296.217	332.38
296.448	314.38
296.679	326.38
296.909	309.38
297.14	324.38
297.37	292.38
297.601	321.38
297.831	307.38
298.062	325.38
298.292	307.38
298.523	335.38
298.753	311.38
298.984	305.38
299.214	321.38
299.445	330.38
299.675	321.38
299.905	328.38
300.136	316.38
300.366	305.38
300.597	318.38
300.827	327.38
301.057	335.38
301.288	358.38
301.518	344.38
301.748	330.38
301.979	349.38
302.209	350.38
302.439	348.38
302.669	327.38
302.9	314.38
303.13	337.38
303.36	327.38
303.59	363.38
303.82	335.38
304.051	345.38
304.281	348.38
304.511	336.38
304.741	351.38
304.971	344.38
305.201	357.38
305.431	355.38
305.661	339.38
305.891	349.38
306.121	328.38
306.352	353.38
306.582	356.38
306.812	327.38
307.042	338.38
307.272	353.38
307.502	326.38
307.731	331.38
307.961	348.38
308.191	323.38
308.421	355.38
308.651	343.38
308.881	320.38
309.111	350.38
309.341	338.38
309.571	347.38
309.8	357.38
310.03	352.38
310.26	350.38
310.49	345.38
310.72	347.38
310.949	354.38
311.179	363.38
311.409	357.38
311.639	352.38
311.868	347.38
312.098	368.38
312.328	367.38
312.557	365.38
312.787	356.38
313.017	372.38
313.246	359.38
313.476	370.38
313.706	358.38
313.935	376.38
314.165	391.38
314.394	371.38
314.624	374.38
314.853	391.38
315.083	377.38
315.312	375.38
315.542	368.38
315.771	376.38
316.001	375.38
316.23	347.38
316.46	356.38
316.689	391.38
316.919	391.38
317.148	367.38
317.377	373.38
317.607	378.38
317.836	383.38
318.065	359.38
318.295	398.38
318.524	374.38
318.753	373.38
318.983	363.38
319.212	382.38
319.441	375.38
319.67	377.38
319.9	368.38
320.129	372.38
320.358	376.38
320.587	386.38
320.816	381.38
321.046	378.38
321.275	387.38
321.504	378.38
321.733	387.38
321.962	384.38
322.191	386.38
322.42	392.38
322.649	399.38
322.878	379.38
323.108	404.38
323.337	419.38
323.566	432.38
323.795	449.38
324.024	458.38
324.253	528.38
324.482	675.38
324.71	934.38
324.939	1293.38
325.168	1095.38
325.397	621.38
325.626	473.38
325.855	455.38
326.084	432.38
326.313	407.38
326.542	425.38
326.77	489.38
326.999	530.38
327.228	645.38
327.457	875.38
327.686	996.38
327.914	693.38
328.143	547.38
328.372	509.38
328.6	479.38
328.829	456.38
329.058	478.38
329.287	497.38
329.515	487.38
329.744	435.38
329.972	437.38
330.201	476.38
330.43	493.38
330.658	508.38
330.887	485.38
331.115	499.38
331.344	476.38
331.572	460.38
331.801	451.38
332.03	470.38
332.258	452.38
332.486	456.38
332.715	457.38
332.943	475.38
333.172	489.38
333.4	494.38
333.629	502.38
333.857	519.38
334.085	518.38
334.314	531.38
334.542	534.38
334.771	533.38
334.999	506.38
335.227	505.38
335.455	490.38
335.684	477.38
335.912	465.38
336.14	468.38
336.369	466.38
336.597	454.38
336.825	468.38
337.053	461.38
337.281	437.38
337.51	472.38
337.738	472.38
337.966	431.38
338.194	444.38
338.422	449.38
338.65	439.38
338.878	418.38
339.106	441.38
339.334	450.38
339.562	433.38
339.79	440.38
340.018	443.38
340.246	421.38
340.474	432.38
340.702	412.38
340.93	427.38
341.158	437.38
341.386	431.38
341.614	423.38
341.842	437.38
342.07	432.38
342.298	418.38
342.526	393.38
342.754	397.38
342.981	419.38
343.209	426.38
343.437	438.38
343.665	461.38
343.893	485.38
344.12	482.38
344.348	479.38
344.576	463.38
344.804	458.38
345.031	444.38
345.259	434.38
345.487	421.38
345.714	421.38
345.942	407.38
346.17	399.38
346.397	402.38
346.625	418.38
346.853	413.38
347.08	406.38
347.308	398.38
347.535	392.38
347.763	411.38
347.99	403.38
348.218	413.38
348.445	426.38
348.673	410.38
348.9	406.38
349.128	409.38
349.355	397.38
349.583	390.38
349.81	387.38
350.037	390.38
350.265	392.38
350.492	406.38
350.72	395.38
350.947	431.38
351.174	404.38
351.402	429.38
351.629	395.38
351.856	387.38
352.083	421.38
352.311	427.38
352.538	408.38
352.765	437.38
352.992	406.38
353.22	424.38
353.447	401.38
353.674	400.38
353.901	395.38
354.128	376.38
354.355	397.38
354.583	397.38
354.81	400.38
355.037	406.38
355.264	395.38
355.491	403.38
355.718	387.38
355.945	392.38
356.172	385.38
356.399	396.38
356.626	404.38
356.853	395.38
357.08	404.38
357.307	387.38
357.534	385.38
357.761	391.38
357.988	394.38
358.215	394.38
358.441	405.38
358.668	387.38
358.895	403.38
359.122	398.38
359.349	400.38
359.576	393.38
359.802	418.38
360.029	432.38
360.256	421.38
360.483	416.38
360.709	415.38
360.936	399.38
361.163	419.38
361.39	396.38
361.616	419.38
361.843	388.38
362.07	398.38
362.296	413.38
362.523	396.38
362.749	422.38
362.976	417.38
363.203	415.38
363.429	411.38
363.656	386.38
363.882	380.38
364.109	398.38
364.335	401.38
364.562	411.38
364.788	411.38
365.015	407.38
365.241	403.38
365.468	411.38
365.694	413.38
365.92	402.38
366.147	389.38
366.373	402.38
366.599	402.38
366.826	394.38
367.052	392.38
367.278	395.38
367.505	392.38
367.731	395.38
367.957	394.38
368.184	402.38
368.41	405.38
368.636	391.38
368.862	415.38
369.089	411.38
369.315	390.38
369.541	415.38
369.767	414.38
369.993	422.38
370.219	402.38
370.445	409.38
370.672	417.38
370.898	401.38
371.124	388.38
371.35	443.38
371.576	420.38
371.802	396.38
372.028	412.38
372.254	424.38
372.48	433.38
372.706	439.38
372.932	439.38
373.158	436.38
373.384	417.38
373.61	405.38
373.835	408.38
374.061	435.38
374.287	427.38
374.513	428.38
374.739	453.38
374.965	429.38
375.191	429.38
375.416	437.38
375.642	437.38
375.868	432.38
376.094	423.38
376.319	415.38
376.545	432.38
376.771	441.38
376.997	416.38
377.222	400.38
377.448	414.38
377.674	423.38
377.899	416.38
378.125	422.38
378.35	399.38
378.576	406.38
378.802	411.38
379.027	437.38
379.253	414.38
379.478	420.38
379.704	431.38
379.929	417.38
380.155	391.38
380.38	422.38
380.606	400.38
380.831	415.38
381.057	408.38
381.282	407.38
381.507	405.38
381.733	415.38
381.958	411.38
382.184	403.38
382.409	436.38
382.634	442.38
382.86	413.38
383.085	428.38
383.31	442.38
383.535	426.38
383.761	428.38
383.986	432.38
384.211	434.38
384.436	451.38
384.662	461.38
384.887	445.38
385.112	467.38
385.337	491.38
385.562	466.38
385.787	467.38
386.013	481.38
386.238	491.38
386.463	486.38
386.688	486.38
386.913	464.38
387.138	462.38
387.363	457.38
387.588	460.38
387.813	472.38
388.038	478.38
388.263	475.38
388.488	465.38
388.713	472.38
388.938	466.38
389.163	462.38
389.387	469.38
389.612	466.38
389.837	460.38
390.062	492.38
390.287	464.38
390.512	472.38
390.736	432.38
390.961	477.38
391.186	480.38
391.411	477.38
391.636	508.38
391.86	512.38
392.085	523.38
392.31	512.38
392.534	491.38
392.759	515.38
392.984	513.38
393.208	479.38
393.433	477.38
393.658	478.38
393.882	488.38
394.107	488.38
394.331	489.38
394.556	506.38
394.78	499.38
395.005	479.38
395.229	489.38
395.454	495.38
395.678	515.38
395.903	508.38
396.127	531.38
396.352	532.38
396.576	490.38
396.801	499.38
397.025	501.38
397.249	506.38
397.474	515.38
397.698	511.38
397.922	516.38
398.147	536.38
398.371	524.38
398.595	557.38
398.82	567.38
399.044	575.38
399.268	606.38
399.492	683.38
399.717	746.38
399.941	771.38
400.165	686.38
400.389	701.38
400.613	629.38
400.837	600.38
401.062	573.38
401.286	575.38
401.51	570.38
401.734	568.38
401.958	537.38
402.182	567.38
402.406	617.38
402.63	591.38
402.854	593.38
403.078	592.38
403.302	617.38
403.526	609.38
403.75	618.38
403.974	616.38
404.198	605.38
404.422	620.38
404.645	606.38
404.869	634.38
405.093	619.38
405.317	648.38
405.541	665.38
405.765	640.38
405.988	616.38
406.212	629.38
406.436	655.38
406.66	631.38
406.883	617.38
407.107	657.38
407.331	711.38
407.555	781.38
407.778	706.38
408.002	681.38
408.226	657.38
408.449	613.38
408.673	619.38
408.896	633.38
409.12	673.38
409.344	651.38
409.567	629.38
409.791	582.38
410.014	588.38
410.238	596.38
410.461	572.38
410.685	590.38
410.908	585.38
411.132	598.38
411.355	608.38
411.578	591.38
411.802	564.38
412.025	591.38
412.249	567.38
412.472	591.38
412.695	597.38
412.919	587.38
413.142	585.38
413.365	564.38
413.589	536.38
413.812	544.38
414.035	539.38
414.258	559.38
414.482	551.38
414.705	559.38
414.928	555.38
415.151	530.38
415.374	556.38
415.597	543.38
415.821	543.38
416.044	532.38
416.267	541.38
416.49	541.38
416.713	519.38
416.936	536.38
417.159	535.38
417.382	542.38
417.605	558.38
417.828	543.38
418.051	568.38
418.274	543.38
418.497	537.38
418.72	556.38
418.943	558.38
419.166	583.38
419.389	614.38
419.611	617.38
419.834	568.38
420.057	590.38
420.28	590.38
420.503	577.38
420.726	548.38
420.948	571.38
421.171	588.38
421.394	598.38
421.617	572.38
421.839	581.38
422.062	552.38
422.285	564.38
422.507	598.38
422.73	652.38
422.953	625.38
423.175	570.38
423.398	582.38
423.621	592.38
423.843	610.38
424.066	625.38
424.288	592.38
424.511	613.38
424.733	650.38
424.956	669.38
425.178	659.38
425.401	621.38
425.623	659.38
425.846	592.38
426.068	588.38
426.291	550.38
426.513	553.38
426.735	573.38
426.958	574.38
427.18	615.38
427.402	696.38
427.625	765.38
427.847	675.38
428.069	595.38
428.292	555.38
428.514	525.38
428.736	529.38
428.958	519.38
429.181	502.38
429.403	499.38
429.625	515.38
429.847	530.38
430.069	572.38
430.292	576.38
430.514	526.38
430.736	505.38
430.958	494.38
431.18	530.38
431.402	502.38
431.624	492.38
431.846	508.38
432.068	509.38
432.29	505.38
432.512	525.38
432.734	518.38
432.956	524.38
433.178	506.38
433.4	506.38
433.622	512.38
433.844	512.38
434.066	528.38
434.287	480.38
434.509	509.38
434.731	532.38
434.953	547.38
435.175	573.38
435.397	552.38
435.618	555.38
435.84	592.38
436.062	633.38
436.284	675.38
436.505	591.38
436.727	528.38
436.949	529.38
437.17	511.38
437.392	503.38
437.614	518.38
437.835	517.38
438.057	599.38
438.278	667.38
438.5	647.38
438.721	701.38
438.943	682.38
439.165	574.38
439.386	566.38
439.608	520.38
439.829	547.38
440.05	579.38
440.272	576.38
440.493	552.38
440.715	525.38
440.936	531.38
441.158	552.38
441.379	528.38
441.6	547.38
441.822	579.38
442.043	609.38
442.264	644.38
442.486	644.38
442.707	591.38
442.928	569.38
443.149	569.38
443.371	586.38
443.592	657.38
443.813	688.38
444.034	711.38
444.255	642.38
444.476	605.38
444.698	625.38
444.919	615.38
445.14	739.38
445.361	660.38
445.582	599.38
445.803	617.38
446.024	665.38
446.245	684.38
446.466	629.38
446.687	553.38
446.908	536.38
447.129	522.38
447.35	503.38
447.571	494.38
447.792	513.38
448.013	500.38
448.234	508.38
448.455	535.38
448.675	609.38
448.896	648.38
449.117	563.38
449.338	549.38
449.559	613.38
449.779	685.38
450	573.38
450.221	522.38
450.442	494.38
450.662	505.38
450.883	493.38
451.104	497.38
451.324	499.38
451.545	493.38
451.766	470.38
451.986	464.38
452.207	448.38
452.428	456.38
452.648	446.38
452.869	442.38
453.089	454.38
453.31	464.38
453.53	476.38
453.751	440.38
453.971	459.38
454.192	462.38
454.412	452.38
454.633	458.38
454.853	440.38
455.073	440.38
455.294	445.38
455.514	505.38
455.734	489.38
455.955	454.38
456.175	417.38
456.395	433.38
456.616	421.38
456.836	431.38
457.056	438.38
457.276	423.38
457.497	435.38
457.717	429.38
457.937	443.38
458.157	439.38
458.377	442.38
458.598	441.38
458.818	506.38
459.038	544.38
459.258	563.38
459.478	493.38
459.698	493.38
459.918	503.38
460.138	545.38
460.358	514.38
460.578	542.38
460.798	535.38
461.018	560.38
461.238	524.38
461.458	530.38
461.678	513.38
461.898	533.38
462.118	547.38
462.338	552.38
462.558	556.38
462.777	576.38
462.997	633.38
463.217	643.38
463.437	660.38
463.657	616.38
463.876	590.38
464.096	596.38
464.316	565.38
464.536	620.38
464.755	600.38
464.975	567.38
465.195	569.38
465.414	575.38
465.634	552.38
465.854	511.38
466.073	511.38
466.293	489.38
466.512	491.38
466.732	488.38
466.951	470.38
467.171	463.38
467.391	487.38
467.61	466.38
467.829	488.38
468.049	487.38
468.268	501.38
468.488	451.38
468.707	440.38
468.927	452.38
469.146	458.38
469.365	454.38
469.585	465.38
469.804	454.38
470.023	491.38
470.243	475.38
470.462	480.38
470.681	505.38
470.901	499.38
471.12	484.38
471.339	469.38
471.558	493.38
471.777	471.38
471.997	456.38
472.216	448.38
472.435	489.38
472.654	484.38
472.873	459.38
473.092	447.38
473.311	462.38
473.53	438.38
473.749	467.38
473.968	502.38
474.187	531.38
474.406	548.38
474.625	479.38
474.844	461.38
475.063	466.38
475.282	469.38
475.501	483.38
475.72	474.38
475.939	492.38
476.158	480.38
476.377	471.38
476.596	472.38
476.814	485.38
477.033	491.38
477.252	496.38
477.471	503.38
477.69	522.38
477.908	501.38
478.127	527.38
478.346	516.38
478.564	543.38
478.783	529.38
479.002	555.38
479.22	577.38
479.439	548.38
479.658	563.38
479.876	573.38
480.095	570.38
480.313	603.38
480.532	609.38
480.751	585.38
480.969	600.38
481.188	614.38
481.406	619.38
481.624	545.38
481.843	549.38
482.061	548.38
482.28	543.38
482.498	531.38
482.717	525.38
482.935	529.38
483.153	514.38
483.372	525.38
483.59	544.38
483.808	533.38
484.027	547.38
484.245	551.38
484.463	547.38
484.681	544.38
484.9	556.38
485.118	536.38
485.336	535.38
485.554	548.38
485.772	580.38
485.99	534.38
486.209	552.38
486.427	575.38
486.645	567.38
486.863	557.38
487.081	576.38
487.299	575.38
487.517	587.38
487.735	558.38
487.953	548.38
488.171	539.38
488.389	578.38
488.607	571.38
488.825	556.38
489.043	558.38
489.261	548.38
489.479	557.38
489.696	565.38
489.914	571.38
490.132	572.38
490.35	571.38
490.568	595.38
490.786	593.38
491.003	591.38
491.221	597.38
491.439	619.38
491.657	632.38
491.874	632.38
492.092	613.38
492.31	663.38
492.527	652.38
492.745	627.38
492.963	663.38
493.18	652.38
493.398	662.38
493.615	655.38
493.833	647.38
494.05	638.38
494.268	620.38
494.485	648.38
494.703	654.38
494.92	652.38
495.138	648.38
495.355	656.38
495.573	646.38
495.79	660.38
496.008	664.38
496.225	660.38
496.442	667.38
496.66	643.38
496.877	656.38
497.094	671.38
497.312	656.38
497.529	672.38
497.746	704.38
497.963	715.38
498.181	734.38
498.398	740.38
498.615	774.38
498.832	791.38
499.049	829.38
499.267	883.38
499.484	936.38
499.701	998.38
499.918	1071.38
500.135	1148.38
500.352	1249.38
500.569	1281.38
500.786	1279.38
501.003	1236.38
501.22	1163.38
501.437	1073.38
501.654	967.38
501.871	938.38
502.088	862.38
502.305	844.38
502.522	795.38
502.739	761.38
502.956	746.38
503.172	719.38
503.389	690.38
503.606	685.38
503.823	712.38
504.04	648.38
504.256	676.38
504.473	695.38
504.69	703.38
504.907	703.38
505.123	649.38
505.34	658.38
505.557	621.38
505.773	608.38
505.99	611.38
506.207	593.38
506.423	603.38
506.64	586.38
506.856	571.38
507.073	584.38
507.289	567.38
507.506	591.38
507.722	601.38
507.939	589.38
508.155	557.38
508.372	576.38
508.588	554.38
508.805	573.38
509.021	569.38
509.238	594.38
509.454	550.38
509.67	550.38
509.887	555.38
510.103	533.38
510.319	545.38
510.536	608.38
510.752	875.38
510.968	720.38
511.184	554.38
511.401	530.38
511.617	517.38
511.833	520.38
512.049	543.38
512.265	514.38
512.481	545.38
512.698	524.38
512.914	533.38
513.13	503.38
513.346	516.38
513.562	526.38
513.778	541.38
513.994	537.38
514.21	521.38
514.426	545.38
514.642	579.38
514.858	576.38
515.074	577.38
515.29	680.38
515.506	889.38
515.721	778.38
515.937	607.38
516.153	570.38
516.369	554.38
516.585	584.38
516.801	585.38
517.016	606.38
517.232	607.38
517.448	620.38
517.664	635.38
517.879	613.38
518.095	630.38
518.311	629.38
518.527	589.38
518.742	580.38
518.958	553.38
519.173	573.38
519.389	553.38
519.605	545.38
519.82	532.38
520.036	569.38
520.251	547.38
520.467	580.38
520.682	539.38
520.898	558.38
521.113	530.38
521.329	551.38
521.544	598.38
521.76	688.38
521.975	1097.38
522.19	1102.38
522.406	632.38
522.621	537.38
522.836	518.38
523.052	497.38
523.267	517.38
523.482	479.38
523.698	459.38
523.913	460.38
524.128	474.38
524.343	448.38
524.559	461.38
524.774	468.38
524.989	490.38
525.204	462.38
525.419	438.38
525.634	446.38
525.849	468.38
526.064	454.38
526.28	455.38
526.495	454.38
526.71	444.38
526.925	436.38
527.14	429.38
527.355	448.38
527.57	451.38
527.785	450.38
527.999	448.38
528.214	438.38
528.429	445.38
528.644	440.38
528.859	456.38
529.074	449.38
529.289	477.38
529.503	509.38
529.718	482.38
529.933	467.38
530.148	436.38
530.363	425.38
530.577	431.38
530.792	432.38
531.007	430.38
531.221	443.38
531.436	427.38
531.651	444.38
531.865	435.38
532.08	458.38
532.295	434.38
532.509	447.38
532.724	434.38
532.938	439.38
533.153	445.38
533.367	447.38
533.582	442.38
533.796	449.38
534.011	464.38
534.225	456.38
534.44	437.38
534.654	438.38
534.868	441.38
535.083	425.38
535.297	422.38
535.511	448.38
535.726	422.38
535.94	437.38
536.154	425.38
536.369	425.38
536.583	400.38
536.797	423.38
537.011	422.38
537.225	411.38
537.44	419.38
537.654	427.38
537.868	411.38
538.082	416.38
538.296	409.38
538.51	428.38
538.724	410.38
538.938	413.38
539.153	414.38
539.367	419.38
539.581	416.38
539.795	405.38
540.009	409.38
540.222	396.38
540.436	407.38
540.65	420.38
540.864	422.38
541.078	425.38
541.292	432.38
541.506	417.38
541.72	424.38
541.934	421.38
542.147	412.38
542.361	410.38
542.575	403.38
542.789	405.38
543.002	404.38
543.216	410.38
543.43	414.38
543.644	404.38
543.857	415.38
544.071	426.38
544.285	417.38
544.498	406.38
544.712	403.38
544.925	418.38
545.139	417.38
545.352	409.38
545.566	445.38
545.779	413.38
545.993	415.38
546.206	415.38
546.42	417.38
546.633	415.38
546.847	431.38
547.06	429.38
547.274	414.38
547.487	425.38
547.7	411.38
547.914	412.38
548.127	410.38
548.34	408.38
548.554	417.38
548.767	400.38
548.98	390.38
549.193	416.38
549.407	434.38
549.62	430.38
549.833	434.38
550.046	433.38
550.259	425.38
550.473	411.38
550.686	433.38
550.899	417.38
551.112	417.38
551.325	442.38
551.538	410.38
551.751	400.38
551.964	414.38
552.177	409.38
552.39	411.38
552.603	433.38
552.816	438.38
553.029	427.38
553.242	418.38
553.455	466.38
553.667	444.38
553.88	448.38
554.093	451.38
554.306	432.38
554.519	428.38
554.732	423.38
554.944	407.38
555.157	405.38
555.37	383.38
555.583	396.38
555.795	403.38
556.008	398.38
556.221	366.38
556.433	385.38
556.646	373.38
556.859	365.38
557.071	371.38
557.284	383.38
557.496	359.38
557.709	369.38
557.921	356.38
558.134	347.38
558.346	363.38
558.559	351.38
558.771	367.38
558.984	356.38
559.196	353.38
559.409	360.38
559.621	360.38
559.833	337.38
560.046	357.38
560.258	373.38
560.47	372.38
560.683	358.38
560.895	365.38
561.107	359.38
561.32	357.38
561.532	353.38
561.744	364.38
561.956	366.38
562.168	374.38
562.381	343.38
562.593	351.38
562.805	347.38
563.017	366.38
563.229	366.38
563.441	356.38
563.653	356.38
563.865	369.38
564.077	358.38
564.289	377.38
564.501	350.38
564.713	374.38
564.925	380.38
565.137	380.38
565.349	405.38
565.561	379.38
565.773	425.38
565.985	431.38
566.197	439.38
566.408	455.38
566.62	492.38
566.832	523.38
567.044	529.38
567.255	535.38
567.467	514.38
567.679	529.38
567.891	576.38
568.102	574.38
568.314	576.38
568.526	518.38
568.737	472.38
568.949	438.38
569.161	425.38
569.372	422.38
569.584	389.38
569.795	372.38
570.007	389.38
570.218	380.38
570.43	382.38
570.641	366.38
570.853	383.38
571.064	382.38
571.276	370.38
571.487	378.38
571.698	327.38
571.91	331.38
572.121	320.38
572.333	311.38
572.544	317.38
572.755	314.38
572.966	326.38
573.178	305.38
573.389	299.38
573.6	321.38
573.811	309.38
574.023	299.38
574.234	299.38
574.445	290.38
574.656	320.38
574.867	299.38
575.078	312.38
575.289	313.38
575.501	311.38
575.712	303.38
575.923	299.38
576.134	296.38
576.345	291.38
576.556	312.38
576.767	275.38
576.978	312.38
577.188	310.38
577.399	287.38
577.61	275.38
577.821	305.38
578.032	297.38
578.243	303.38
578.454	421.38
578.665	349.38
578.875	298.38
579.086	280.38
579.297	293.38
579.508	286.38
579.718	283.38
579.929	278.38
580.14	259.38
580.35	264.38
580.561	283.38
580.772	265.38
580.982	262.38
581.193	274.38
581.403	285.38
581.614	260.38
581.825	287.38
582.035	270.38
582.246	261.38
582.456	270.38
582.667	278.38
582.877	298.38
583.087	269.38
583.298	255.38
583.508	267.38
583.719	277.38
583.929	263.38
584.139	266.38
584.35	263.38
584.56	257.38
584.77	270.38
584.981	265.38
585.191	269.38
585.401	267.38
585.611	267.38
585.821	266.38
586.032	266.38
586.242	258.38
586.452	251.38
586.662	261.38
586.872	258.38
587.082	261.38
587.292	269.38
587.502	269.38
587.713	266.38
587.923	283.38
588.133	264.38
588.343	260.38
588.553	260.38
588.762	254.38
588.972	271.38
589.182	284.38
589.392	288.38
589.602	272.38
589.812	280.38
590.022	280.38
590.232	295.38
590.441	261.38
590.651	256.38
590.861	255.38
591.071	273.38
591.281	287.38
591.49	265.38
591.7	276.38
591.91	279.38
592.119	275.38
592.329	277.38
592.539	305.38
592.748	309.38
592.958	310.38
593.167	322.38
593.377	313.38
593.587	326.38
593.796	310.38
594.006	313.38
594.215	317.38
594.424	328.38
594.634	318.38
594.843	293.38
595.053	299.38
595.262	290.38
595.472	303.38
595.681	287.38
595.89	284.38
596.1	271.38
596.309	258.38
596.518	260.38
596.727	268.38
596.937	246.38
597.146	255.38
597.355	247.38
597.564	257.38
597.774	241.38
597.983	220.38
598.192	244.38
598.401	246.38
598.61	242.38
598.819	241.38
599.028	230.38
599.237	241.38
599.446	238.38
599.655	239.38
599.864	238.38
600.073	236.38
600.282	242.38
600.491	248.38
600.7	221.38
600.909	239.38
601.118	242.38
601.327	214.38
601.536	219.38
601.745	245.38
601.953	228.38
602.162	240.38
602.371	227.38
602.58	220.38
602.789	239.38
602.997	235.38
603.206	231.38
603.415	241.38
603.623	224.38
603.832	227.38
604.041	230.38
604.249	229.38
604.458	232.38
604.666	235.38
604.875	236.38
605.084	214.38
605.292	235.38
605.501	223.38
605.709	224.38
605.918	227.38
606.126	221.38
606.334	209.38
606.543	223.38
606.751	225.38
606.96	237.38
607.168	224.38
607.376	222.38
607.585	219.38
607.793	237.38
608.001	215.38
608.21	221.38
608.418	204.38
608.626	214.38
608.834	215.38
609.043	220.38
609.251	210.38
609.459	219.38
609.667	209.38
609.875	229.38
610.083	218.38
610.291	228.38
610.499	209.38
610.707	238.38
610.916	219.38
611.124	222.38
611.332	217.38
611.54	225.38
611.748	219.38
611.955	203.38
612.163	215.38
612.371	220.38
612.579	216.38
612.787	215.38
612.995	219.38
613.203	235.38
613.411	212.38
613.618	210.38
613.826	210.38
614.034	220.38
614.242	219.38
614.449	219.38
614.657	206.38
614.865	201.38
615.072	208.38
615.28	209.38
615.488	202.38
615.695	219.38
615.903	212.38
616.111	195.38
616.318	227.38
616.526	211.38
616.733	220.38
616.941	213.38
617.148	199.38
617.356	238.38
617.563	217.38
617.771	220.38
617.978	189.38
618.185	221.38
618.393	219.38
618.6	205.38
618.807	217.38
619.015	218.38
619.222	215.38
619.429	216.38
619.637	207.38
619.844	207.38
620.051	211.38
620.258	204.38
620.466	201.38
620.673	201.38
620.88	201.38
621.087	207.38
621.294	219.38
621.501	214.38
621.708	210.38
621.915	204.38
622.122	206.38
622.329	219.38
622.536	211.38
622.743	195.38
622.95	189.38
623.157	189.38
623.364	210.38
623.571	192.38
623.778	204.38
623.985	203.38
624.192	195.38
624.399	197.38
624.606	208.38
624.812	199.38
625.019	189.38
625.226	196.38
625.433	183.38
625.639	192.38
625.846	189.38
626.053	188.38
626.259	175.38
626.466	189.38
626.673	195.38
626.879	179.38
627.086	192.38
627.293	179.38
627.499	185.38
627.706	200.38
627.912	194.38
628.119	192.38
628.325	203.38
628.532	190.38
628.738	160.38
628.945	197.38
629.151	194.38
629.357	194.38
629.564	170.38
629.77	180.38
629.976	172.38
630.183	175.38
630.389	171.38
630.595	191.38
630.802	189.38
631.008	154.38
631.214	189.38
631.42	167.38
631.627	158.38
631.833	180.38
632.039	180.38
632.245	175.38
632.451	173.38
632.657	184.38
632.863	172.38
633.069	186.38
633.275	184.38
633.481	173.38
633.688	172.38
633.893	167.38
634.099	179.38
634.305	169.38
634.511	175.38
634.717	172.38
634.923	158.38
635.129	160.38
635.335	174.38
635.541	176.38
635.747	158.38
635.952	166.38
636.158	172.38
636.364	160.38
636.57	185.38
636.775	174.38
636.981	167.38
637.187	163.38
637.392	176.38
637.598	171.38
637.804	176.38
638.009	163.38
638.215	180.38
638.421	181.38
638.626	171.38
638.832	174.38
639.037	173.38
639.243	162.38
639.448	167.38
639.654	167.38
639.859	149.38
640.065	168.38
640.27	165.38
640.475	171.38
640.681	147.38
640.886	168.38
641.091	164.38
641.297	161.38
641.502	152.38
641.707	159.38
641.913	164.38
642.118	159.38
642.323	150.38
642.528	144.38
642.733	150.38
642.939	164.38
643.144	163.38
643.349	150.38
643.554	175.38
643.759	149.38
643.964	148.38
644.169	159.38
644.374	152.38
644.579	173.38
644.784	163.38
644.989	156.38
645.194	147.38
645.399	151.38
645.604	137.38
645.809	162.38
646.014	156.38
646.219	152.38
646.423	167.38
646.628	159.38
646.833	168.38
647.038	141.38
647.243	179.38
647.447	147.38
647.652	149.38
647.857	160.38
648.062	161.38
648.266	162.38
648.471	155.38
648.676	147.38
648.88	169.38
649.085	166.38
649.289	150.38
649.494	166.38
649.698	163.38
649.903	181.38
650.107	162.38
650.312	157.38
650.516	133.38
650.721	142.38
650.925	140.38
651.13	145.38
651.334	160.38
651.539	136.38
651.743	142.38
651.947	142.38
652.152	149.38
652.356	131.38
652.56	144.38
652.764	144.38
652.969	136.38
653.173	131.38
653.377	120.38
653.581	133.38
653.785	139.38
653.99	130.38
654.194	137.38
654.398	122.38
654.602	149.38
654.806	118.38
655.01	142.38
655.214	136.38
655.418	123.38
655.622	132.38
655.826	141.38
656.03	136.38
656.234	152.38
656.438	148.38
656.642	142.38
656.846	134.38
657.049	133.38
657.253	116.38
657.457	125.38
657.661	115.38
657.865	111.38
658.068	114.38
658.272	113.38
658.476	108.38
658.68	109.38
658.883	105.38
659.087	113.38
659.291	105.38
659.494	114.38
659.698	93.38
659.901	91.38
660.105	99.38
660.309	98.38
660.512	98.38
660.716	103.38
660.919	86.38
661.123	86.38
661.326	71.38
661.53	84.38
661.733	94.38
661.936	93.38
662.14	92.38
662.343	86.38
662.546	88.38
662.75	76.38
662.953	79.38
663.156	80.38
663.36	79.38
663.563	98.38
663.766	78.38
663.969	76.38
664.173	81.38
664.376	84.38
664.579	87.38
664.782	88.38
664.985	80.38
665.188	75.38
665.391	80.38
665.594	68.38
665.797	97.38
666	91.38
666.203	75.38
666.406	77.38
666.609	94.38
666.812	78.38
667.015	91.38
667.218	77.38
667.421	81.38
667.624	82.38
667.827	89.38
668.03	96.38
668.232	62.38
668.435	67.38
668.638	75.38
668.841	89.38
669.043	95.38
669.246	94.38
669.449	65.38
669.651	75.38
669.854	75.38
670.057	89.38
670.259	80.38
670.462	78.38
670.665	79.38
670.867	80.38
671.07	73.38
671.272	71.38
671.475	72.38
671.677	80.38
671.88	85.38
672.082	93.38
672.284	78.38
672.487	75.38
672.689	84.38
672.892	83.38
