Data from 1960PennyLincolnUp.LampE6.200Scan.07172019.P1_HRD10591_13-05-29-003.txt Node
Date: Thu Jul 18 13:05:29 EDT 2019
User: cochatt
Spectrometer: HR+D1059
Trigger mode: 1
Integration Time (sec): 1.000000E-1
Scans to average: 1
Electric dark correction enabled: true
Nonlinearity correction enabled: false
Boxcar width: 0
XAxis mode: Wavelengths
Number of Pixels in Spectrum: 2048
>>>>>Begin Spectral Data<<<<<
223.165	-16.19
223.4	-16.19
223.635	-16.19
223.869	-33.19
224.104	-10.19
224.338	3.81
224.573	-16.19
224.808	-3.19
225.042	1.81
225.277	-0.19
225.511	-6.19
225.746	11.81
225.98	-2.19
226.215	3.81
226.449	7.81
226.683	22.81
226.918	16.81
227.152	18.81
227.387	22.81
227.621	23.81
227.856	37.81
228.09	35.81
228.324	44.81
228.559	61.81
228.793	59.81
229.027	97.81
229.262	106.81
229.496	85.81
229.73	120.81
229.964	127.81
230.199	115.81
230.433	106.81
230.667	93.81
230.901	107.81
231.136	110.81
231.37	105.81
231.604	113.81
231.838	109.81
232.072	104.81
232.306	100.81
232.541	115.81
232.775	101.81
233.009	104.81
233.243	114.81
233.477	105.81
233.711	105.81
233.945	112.81
234.179	107.81
234.413	107.81
234.647	121.81
234.881	107.81
235.115	123.81
235.349	115.81
235.583	125.81
235.817	100.81
236.051	121.81
236.285	117.81
236.519	112.81
236.753	121.81
236.987	129.81
237.221	149.81
237.455	161.81
237.689	147.81
237.922	118.81
238.156	125.81
238.39	114.81
238.624	110.81
238.858	115.81
239.091	130.81
239.325	125.81
239.559	127.81
239.793	115.81
240.027	125.81
240.26	139.81
240.494	131.81
240.728	127.81
240.961	135.81
241.195	128.81
241.429	132.81
241.662	120.81
241.896	120.81
242.13	136.81
242.363	119.81
242.597	123.81
242.83	138.81
243.064	112.81
243.298	145.81
243.531	147.81
243.765	134.81
243.998	127.81
244.232	128.81
244.465	136.81
244.699	140.81
244.932	140.81
245.166	153.81
245.399	134.81
245.633	131.81
245.866	142.81
246.099	135.81
246.333	140.81
246.566	135.81
246.8	146.81
247.033	127.81
247.266	159.81
247.5	165.81
247.733	157.81
247.966	159.81
248.2	161.81
248.433	142.81
248.666	155.81
248.899	149.81
249.133	175.81
249.366	177.81
249.599	168.81
249.832	160.81
250.066	160.81
250.299	164.81
250.532	189.81
250.765	184.81
250.998	184.81
251.231	183.81
251.465	184.81
251.698	164.81
251.931	179.81
252.164	185.81
252.397	177.81
252.63	179.81
252.863	179.81
253.096	170.81
253.329	193.81
253.562	206.81
253.795	173.81
254.028	193.81
254.261	189.81
254.494	204.81
254.727	196.81
254.96	234.81
255.193	200.81
255.426	200.81
255.659	187.81
255.892	227.81
256.124	212.81
256.357	205.81
256.59	204.81
256.823	197.81
257.056	188.81
257.289	195.81
257.521	177.81
257.754	196.81
257.987	186.81
258.22	190.81
258.452	193.81
258.685	195.81
258.918	198.81
259.151	201.81
259.383	202.81
259.616	203.81
259.849	187.81
260.081	196.81
260.314	224.81
260.547	226.81
260.779	215.81
261.012	213.81
261.244	202.81
261.477	206.81
261.71	196.81
261.942	202.81
262.175	185.81
262.407	203.81
262.64	196.81
262.872	190.81
263.105	209.81
263.337	190.81
263.57	186.81
263.802	189.81
264.035	198.81
264.267	197.81
264.499	207.81
264.732	199.81
264.964	203.81
265.197	189.81
265.429	208.81
265.661	202.81
265.894	213.81
266.126	185.81
266.358	204.81
266.591	223.81
266.823	205.81
267.055	215.81
267.287	197.81
267.52	199.81
267.752	197.81
267.984	202.81
268.216	222.81
268.448	222.81
268.681	208.81
268.913	220.81
269.145	236.81
269.377	249.81
269.609	240.81
269.841	236.81
270.073	255.81
270.306	243.81
270.538	254.81
270.77	271.81
271.002	234.81
271.234	235.81
271.466	256.81
271.698	255.81
271.93	243.81
272.162	273.81
272.394	277.81
272.626	255.81
272.858	243.81
273.09	246.81
273.322	250.81
273.553	253.81
273.785	250.81
274.017	253.81
274.249	263.81
274.481	243.81
274.713	252.81
274.945	235.81
275.176	253.81
275.408	257.81
275.64	246.81
275.872	249.81
276.104	262.81
276.335	253.81
276.567	255.81
276.799	277.81
277.031	292.81
277.262	282.81
277.494	298.81
277.726	273.81
277.957	258.81
278.189	248.81
278.421	262.81
278.652	259.81
278.884	262.81
279.115	276.81
279.347	263.81
279.579	241.81
279.81	273.81
280.042	275.81
280.273	261.81
280.505	271.81
280.736	261.81
280.968	260.81
281.199	277.81
281.431	279.81
281.662	268.81
281.894	275.81
282.125	252.81
282.356	263.81
282.588	277.81
282.819	303.81
283.051	255.81
283.282	274.81
283.513	268.81
283.745	281.81
283.976	287.81
284.207	282.81
284.439	279.81
284.67	296.81
284.901	267.81
285.132	287.81
285.364	274.81
285.595	278.81
285.826	297.81
286.057	280.81
286.288	271.81
286.52	285.81
286.751	271.81
286.982	283.81
287.213	276.81
287.444	287.81
287.675	286.81
287.906	321.81
288.138	305.81
288.369	297.81
288.6	291.81
288.831	287.81
289.062	299.81
289.293	284.81
289.524	300.81
289.755	295.81
289.986	310.81
290.217	289.81
290.448	309.81
290.679	292.81
290.91	277.81
291.141	269.81
291.371	294.81
291.602	288.81
291.833	304.81
292.064	299.81
292.295	291.81
292.526	304.81
292.757	297.81
292.987	301.81
293.218	291.81
293.449	293.81
293.68	316.81
293.91	299.81
294.141	301.81
294.372	296.81
294.603	314.81
294.833	294.81
295.064	313.81
295.295	297.81
295.525	301.81
295.756	316.81
295.987	302.81
296.217	321.81
296.448	320.81
296.679	325.81
296.909	297.81
297.14	312.81
297.37	310.81
297.601	338.81
297.831	328.81
298.062	312.81
298.292	310.81
298.523	329.81
298.753	325.81
298.984	295.81
299.214	337.81
299.445	321.81
299.675	305.81
299.905	316.81
300.136	349.81
300.366	322.81
300.597	310.81
300.827	336.81
301.057	345.81
301.288	333.81
301.518	352.81
301.748	353.81
301.979	355.81
302.209	358.81
302.439	336.81
302.669	333.81
302.9	324.81
303.13	339.81
303.36	361.81
303.59	357.81
303.82	331.81
304.051	337.81
304.281	324.81
304.511	351.81
304.741	324.81
304.971	325.81
305.201	341.81
305.431	335.81
305.661	337.81
305.891	347.81
306.121	353.81
306.352	330.81
306.582	336.81
306.812	336.81
307.042	341.81
307.272	341.81
307.502	340.81
307.731	356.81
307.961	333.81
308.191	349.81
308.421	326.81
308.651	339.81
308.881	348.81
309.111	341.81
309.341	342.81
309.571	344.81
309.8	352.81
310.03	347.81
310.26	367.81
310.49	367.81
310.72	359.81
310.949	366.81
311.179	363.81
311.409	369.81
311.639	355.81
311.868	364.81
312.098	356.81
312.328	347.81
312.557	391.81
312.787	373.81
313.017	379.81
313.246	359.81
313.476	368.81
313.706	361.81
313.935	392.81
314.165	387.81
314.394	400.81
314.624	385.81
314.853	360.81
315.083	396.81
315.312	369.81
315.542	381.81
315.771	357.81
316.001	369.81
316.23	359.81
316.46	394.81
316.689	385.81
316.919	384.81
317.148	372.81
317.377	376.81
317.607	377.81
317.836	373.81
318.065	363.81
318.295	344.81
318.524	367.81
318.753	377.81
318.983	359.81
319.212	371.81
319.441	359.81
319.67	380.81
319.9	372.81
320.129	382.81
320.358	385.81
320.587	374.81
320.816	374.81
321.046	381.81
321.275	389.81
321.504	376.81
321.733	367.81
321.962	388.81
322.191	366.81
322.42	401.81
322.649	415.81
322.878	384.81
323.108	383.81
323.337	416.81
323.566	444.81
323.795	431.81
324.024	443.81
324.253	513.81
324.482	647.81
324.71	919.81
324.939	1230.81
325.168	1033.81
325.397	587.81
325.626	467.81
325.855	439.81
326.084	452.81
326.313	430.81
326.542	420.81
326.77	437.81
326.999	527.81
327.228	629.81
327.457	861.81
327.686	961.81
327.914	666.81
328.143	517.81
328.372	494.81
328.6	466.81
328.829	435.81
329.058	456.81
329.287	475.81
329.515	463.81
329.744	446.81
329.972	461.81
330.201	465.81
330.43	476.81
330.658	495.81
330.887	508.81
331.115	490.81
331.344	440.81
331.572	438.81
331.801	445.81
332.03	445.81
332.258	452.81
332.486	448.81
332.715	469.81
332.943	470.81
333.172	512.81
333.4	497.81
333.629	514.81
333.857	523.81
334.085	513.81
334.314	521.81
334.542	513.81
334.771	551.81
334.999	516.81
335.227	492.81
335.455	496.81
335.684	497.81
335.912	469.81
336.14	464.81
336.369	452.81
336.597	476.81
336.825	451.81
337.053	462.81
337.281	442.81
337.51	448.81
337.738	440.81
337.966	424.81
338.194	447.81
338.422	423.81
338.65	438.81
338.878	445.81
339.106	444.81
339.334	439.81
339.562	437.81
339.79	413.81
340.018	431.81
340.246	428.81
340.474	410.81
340.702	419.81
340.93	451.81
341.158	450.81
341.386	409.81
341.614	434.81
341.842	424.81
342.07	426.81
342.298	404.81
342.526	408.81
342.754	399.81
342.981	423.81
343.209	427.81
343.437	429.81
343.665	465.81
343.893	493.81
344.12	502.81
344.348	469.81
344.576	463.81
344.804	439.81
345.031	437.81
345.259	434.81
345.487	422.81
345.714	428.81
345.942	417.81
346.17	412.81
346.397	424.81
346.625	414.81
346.853	425.81
347.08	418.81
347.308	399.81
347.535	403.81
347.763	420.81
347.99	422.81
348.218	418.81
348.445	430.81
348.673	416.81
348.9	399.81
349.128	411.81
349.355	411.81
349.583	389.81
349.81	415.81
350.037	395.81
350.265	408.81
350.492	399.81
350.72	397.81
350.947	392.81
351.174	397.81
351.402	399.81
351.629	403.81
351.856	383.81
352.083	400.81
352.311	413.81
352.538	404.81
352.765	424.81
352.992	400.81
353.22	396.81
353.447	401.81
353.674	415.81
353.901	392.81
354.128	383.81
354.355	400.81
354.583	402.81
354.81	399.81
355.037	403.81
355.264	388.81
355.491	370.81
355.718	383.81
355.945	390.81
356.172	405.81
356.399	373.81
356.626	401.81
356.853	393.81
357.08	407.81
357.307	384.81
357.534	389.81
357.761	370.81
357.988	393.81
358.215	386.81
358.441	426.81
358.668	411.81
358.895	391.81
359.122	396.81
359.349	411.81
359.576	427.81
359.802	425.81
360.029	430.81
360.256	420.81
360.483	421.81
360.709	415.81
360.936	428.81
361.163	402.81
361.39	401.81
361.616	411.81
361.843	411.81
362.07	404.81
362.296	415.81
362.523	413.81
362.749	423.81
362.976	420.81
363.203	400.81
363.429	397.81
363.656	413.81
363.882	408.81
364.109	403.81
364.335	413.81
364.562	403.81
364.788	394.81
365.015	412.81
365.241	387.81
365.468	413.81
365.694	387.81
365.92	383.81
366.147	407.81
366.373	392.81
366.599	405.81
366.826	405.81
367.052	401.81
367.278	387.81
367.505	395.81
367.731	406.81
367.957	378.81
368.184	403.81
368.41	402.81
368.636	384.81
368.862	399.81
369.089	405.81
369.315	397.81
369.541	401.81
369.767	394.81
369.993	395.81
370.219	426.81
370.445	428.81
370.672	422.81
370.898	413.81
371.124	433.81
371.35	438.81
371.576	424.81
371.802	404.81
372.028	428.81
372.254	442.81
372.48	441.81
372.706	424.81
372.932	422.81
373.158	447.81
373.384	409.81
373.61	416.81
373.835	409.81
374.061	424.81
374.287	409.81
374.513	450.81
374.739	442.81
374.965	424.81
375.191	443.81
375.416	429.81
375.642	440.81
375.868	449.81
376.094	421.81
376.319	427.81
376.545	407.81
376.771	415.81
376.997	433.81
377.222	430.81
377.448	407.81
377.674	414.81
377.899	423.81
378.125	423.81
378.35	432.81
378.576	400.81
378.802	420.81
379.027	420.81
379.253	413.81
379.478	429.81
379.704	421.81
379.929	431.81
380.155	425.81
380.38	430.81
380.606	405.81
380.831	421.81
381.057	438.81
381.282	422.81
381.507	434.81
381.733	422.81
381.958	435.81
382.184	424.81
382.409	431.81
382.634	429.81
382.86	424.81
383.085	416.81
383.31	430.81
383.535	438.81
383.761	428.81
383.986	476.81
384.211	430.81
384.436	463.81
384.662	448.81
384.887	472.81
385.112	473.81
385.337	475.81
385.562	483.81
385.787	472.81
386.013	488.81
386.238	479.81
386.463	468.81
386.688	483.81
386.913	478.81
387.138	477.81
387.363	489.81
387.588	467.81
387.813	465.81
388.038	483.81
388.263	463.81
388.488	471.81
388.713	483.81
388.938	473.81
389.163	483.81
389.387	468.81
389.612	492.81
389.837	476.81
390.062	464.81
390.287	477.81
390.512	481.81
390.736	465.81
390.961	460.81
391.186	483.81
391.411	487.81
391.636	498.81
391.86	508.81
392.085	518.81
392.31	528.81
392.534	507.81
392.759	495.81
392.984	502.81
393.208	490.81
393.433	504.81
393.658	525.81
393.882	495.81
394.107	508.81
394.331	512.81
394.556	492.81
394.78	505.81
395.005	494.81
395.229	512.81
395.454	501.81
395.678	536.81
395.903	523.81
396.127	543.81
396.352	515.81
396.576	504.81
396.801	487.81
397.025	505.81
397.249	526.81
397.474	523.81
397.698	527.81
397.922	512.81
398.147	520.81
398.371	544.81
398.595	539.81
398.82	569.81
399.044	604.81
399.268	609.81
399.492	710.81
399.717	755.81
399.941	788.81
400.165	746.81
400.389	703.81
400.613	651.81
400.837	600.81
401.062	587.81
401.286	540.81
401.51	564.81
401.734	545.81
401.958	563.81
402.182	572.81
402.406	581.81
402.63	592.81
402.854	601.81
403.078	615.81
403.302	633.81
403.526	629.81
403.75	632.81
403.974	631.81
404.198	638.81
404.422	641.81
404.645	634.81
404.869	611.81
405.093	628.81
405.317	647.81
405.541	685.81
405.765	645.81
405.988	616.81
406.212	613.81
406.436	640.81
406.66	655.81
406.883	631.81
407.107	662.81
407.331	714.81
407.555	738.81
407.778	746.81
408.002	699.81
408.226	664.81
408.449	645.81
408.673	632.81
408.896	640.81
409.12	670.81
409.344	675.81
409.567	601.81
409.791	614.81
410.014	610.81
410.238	589.81
410.461	573.81
410.685	591.81
410.908	601.81
411.132	624.81
411.355	619.81
411.578	608.81
411.802	592.81
412.025	596.81
412.249	594.81
412.472	616.81
412.695	639.81
412.919	616.81
413.142	579.81
413.365	571.81
413.589	584.81
413.812	569.81
414.035	549.81
414.258	554.81
414.482	562.81
414.705	582.81
414.928	543.81
415.151	561.81
415.374	555.81
415.597	544.81
415.821	572.81
416.044	523.81
416.267	551.81
416.49	565.81
416.713	535.81
416.936	544.81
417.159	531.81
417.382	553.81
417.605	564.81
417.828	558.81
418.051	570.81
418.274	547.81
418.497	589.81
418.72	571.81
418.943	566.81
419.166	590.81
419.389	627.81
419.611	605.81
419.834	603.81
420.057	621.81
420.28	575.81
420.503	583.81
420.726	583.81
420.948	587.81
421.171	575.81
421.394	611.81
421.617	575.81
421.839	577.81
422.062	551.81
422.285	574.81
422.507	610.81
422.73	654.81
422.953	642.81
423.175	596.81
423.398	593.81
423.621	629.81
423.843	608.81
424.066	615.81
424.288	615.81
424.511	578.81
424.733	621.81
424.956	671.81
425.178	653.81
425.401	646.81
425.623	665.81
425.846	590.81
426.068	584.81
426.291	555.81
426.513	566.81
426.735	553.81
426.958	612.81
427.18	651.81
427.402	711.81
427.625	741.81
427.847	677.81
428.069	606.81
428.292	559.81
428.514	542.81
428.736	521.81
428.958	503.81
429.181	531.81
429.403	539.81
429.625	513.81
429.847	545.81
430.069	562.81
430.292	563.81
430.514	526.81
430.736	543.81
430.958	514.81
431.18	514.81
431.402	538.81
431.624	479.81
431.846	494.81
432.068	503.81
432.29	512.81
432.512	512.81
432.734	531.81
432.956	533.81
433.178	523.81
433.4	523.81
433.622	511.81
433.844	528.81
434.066	511.81
434.287	511.81
434.509	548.81
434.731	536.81
434.953	539.81
435.175	571.81
435.397	567.81
435.618	568.81
435.84	577.81
436.062	642.81
436.284	647.81
436.505	574.81
436.727	552.81
436.949	531.81
437.17	533.81
437.392	514.81
437.614	511.81
437.835	528.81
438.057	583.81
438.278	623.81
438.5	643.81
438.721	671.81
438.943	639.81
439.165	575.81
439.386	536.81
439.608	549.81
439.829	547.81
440.05	563.81
440.272	581.81
440.493	555.81
440.715	555.81
440.936	523.81
441.158	528.81
441.379	555.81
441.6	574.81
441.822	555.81
442.043	598.81
442.264	632.81
442.486	632.81
442.707	591.81
442.928	553.81
443.149	576.81
443.371	581.81
443.592	634.81
443.813	651.81
444.034	705.81
444.255	617.81
444.476	619.81
444.698	621.81
444.919	639.81
445.14	702.81
445.361	632.81
445.582	587.81
445.803	635.81
446.024	678.81
446.245	641.81
446.466	615.81
446.687	557.81
446.908	535.81
447.129	532.81
447.35	520.81
447.571	495.81
447.792	508.81
448.013	503.81
448.234	515.81
448.455	531.81
448.675	611.81
448.896	631.81
449.117	584.81
449.338	549.81
449.559	633.81
449.779	650.81
450	577.81
450.221	475.81
450.442	497.81
450.662	479.81
450.883	487.81
451.104	500.81
451.324	467.81
451.545	462.81
451.766	452.81
451.986	445.81
452.207	463.81
452.428	467.81
452.648	454.81
452.869	443.81
453.089	455.81
453.31	472.81
453.53	463.81
453.751	451.81
453.971	448.81
454.192	472.81
454.412	445.81
454.633	443.81
454.853	449.81
455.073	439.81
455.294	455.81
455.514	501.81
455.734	503.81
455.955	452.81
456.175	422.81
456.395	431.81
456.616	430.81
456.836	442.81
457.056	423.81
457.276	420.81
457.497	430.81
457.717	431.81
457.937	432.81
458.157	470.81
458.377	442.81
458.598	479.81
458.818	493.81
459.038	524.81
459.258	544.81
459.478	523.81
459.698	516.81
459.918	498.81
460.138	518.81
460.358	529.81
460.578	562.81
460.798	552.81
461.018	545.81
461.238	550.81
461.458	555.81
461.678	552.81
461.898	551.81
462.118	541.81
462.338	581.81
462.558	585.81
462.777	571.81
462.997	639.81
463.217	661.81
463.437	676.81
463.657	642.81
463.876	593.81
464.096	587.81
464.316	616.81
464.536	631.81
464.755	630.81
464.975	590.81
465.195	589.81
465.414	596.81
465.634	525.81
465.854	508.81
466.073	505.81
466.293	509.81
466.512	483.81
466.732	469.81
466.951	483.81
467.171	495.81
467.391	480.81
467.61	491.81
467.829	485.81
468.049	468.81
468.268	488.81
468.488	477.81
468.707	489.81
468.927	461.81
469.146	457.81
469.365	466.81
469.585	485.81
469.804	479.81
470.023	489.81
470.243	500.81
470.462	510.81
470.681	505.81
470.901	499.81
471.12	483.81
471.339	479.81
471.558	484.81
471.777	495.81
471.997	461.81
472.216	465.81
472.435	486.81
472.654	485.81
472.873	455.81
473.092	472.81
473.311	478.81
473.53	466.81
473.749	464.81
473.968	502.81
474.187	545.81
474.406	546.81
474.625	477.81
474.844	482.81
475.063	470.81
475.282	470.81
475.501	470.81
475.72	480.81
475.939	472.81
476.158	469.81
476.377	486.81
476.596	475.81
476.814	509.81
477.033	490.81
477.252	510.81
477.471	511.81
477.69	506.81
477.908	519.81
478.127	535.81
478.346	530.81
478.564	544.81
478.783	535.81
479.002	560.81
479.22	558.81
479.439	580.81
479.658	561.81
479.876	581.81
480.095	588.81
480.313	593.81
480.532	616.81
480.751	594.81
480.969	576.81
481.188	631.81
481.406	634.81
481.624	582.81
481.843	541.81
482.061	524.81
482.28	529.81
482.498	515.81
482.717	518.81
482.935	533.81
483.153	539.81
483.372	530.81
483.59	534.81
483.808	541.81
484.027	553.81
484.245	538.81
484.463	539.81
484.681	549.81
484.9	541.81
485.118	577.81
485.336	560.81
485.554	558.81
485.772	571.81
485.99	553.81
486.209	589.81
486.427	555.81
486.645	571.81
486.863	575.81
487.081	590.81
487.299	579.81
487.517	582.81
487.735	561.81
487.953	577.81
488.171	583.81
488.389	567.81
488.607	571.81
488.825	566.81
489.043	554.81
489.261	578.81
489.479	593.81
489.696	582.81
489.914	577.81
490.132	580.81
490.35	609.81
490.568	590.81
490.786	595.81
491.003	607.81
491.221	605.81
491.439	592.81
491.657	637.81
491.874	632.81
492.092	637.81
492.31	653.81
492.527	639.81
492.745	622.81
492.963	645.81
493.18	645.81
493.398	660.81
493.615	653.81
493.833	672.81
494.05	659.81
494.268	613.81
494.485	636.81
494.703	644.81
494.92	638.81
495.138	644.81
495.355	641.81
495.573	651.81
495.79	647.81
496.008	641.81
496.225	658.81
496.442	658.81
496.66	654.81
496.877	661.81
497.094	647.81
497.312	651.81
497.529	672.81
497.746	672.81
497.963	699.81
498.181	718.81
498.398	739.81
498.615	767.81
498.832	814.81
499.049	817.81
499.267	886.81
499.484	967.81
499.701	1028.81
499.918	1060.81
500.135	1141.81
500.352	1279.81
500.569	1343.81
500.786	1312.81
501.003	1240.81
501.22	1175.81
501.437	1085.81
501.654	1009.81
501.871	947.81
502.088	898.81
502.305	853.81
502.522	829.81
502.739	785.81
502.956	743.81
503.172	742.81
503.389	737.81
503.606	695.81
503.823	696.81
504.04	716.81
504.256	688.81
504.473	706.81
504.69	718.81
504.907	684.81
505.123	643.81
505.34	625.81
505.557	638.81
505.773	636.81
505.99	614.81
506.207	601.81
506.423	606.81
506.64	613.81
506.856	595.81
507.073	608.81
507.289	567.81
507.506	580.81
507.722	588.81
507.939	568.81
508.155	561.81
508.372	559.81
508.588	547.81
508.805	565.81
509.021	549.81
509.238	563.81
509.454	558.81
509.67	568.81
509.887	534.81
510.103	537.81
510.319	558.81
510.536	615.81
510.752	842.81
510.968	717.81
511.184	548.81
511.401	557.81
511.617	544.81
511.833	559.81
512.049	517.81
512.265	521.81
512.481	533.81
512.698	521.81
512.914	525.81
513.13	507.81
513.346	509.81
513.562	518.81
513.778	536.81
513.994	547.81
514.21	541.81
514.426	534.81
514.642	569.81
514.858	582.81
515.074	585.81
515.29	667.81
515.506	856.81
515.721	762.81
515.937	606.81
516.153	569.81
516.369	578.81
516.585	583.81
516.801	591.81
517.016	585.81
517.232	607.81
517.448	629.81
517.664	619.81
517.879	638.81
518.095	664.81
518.311	632.81
518.527	621.81
518.742	611.81
518.958	594.81
519.173	572.81
519.389	547.81
519.605	557.81
519.82	555.81
520.036	550.81
520.251	566.81
520.467	566.81
520.682	558.81
520.898	544.81
521.113	560.81
521.329	571.81
521.544	593.81
521.76	680.81
521.975	1030.81
522.19	1033.81
522.406	679.81
522.621	561.81
522.836	509.81
523.052	518.81
523.267	497.81
523.482	491.81
523.698	469.81
523.913	451.81
524.128	468.81
524.343	470.81
524.559	494.81
524.774	494.81
524.989	475.81
525.204	454.81
525.419	471.81
525.634	468.81
525.849	459.81
526.064	464.81
526.28	464.81
526.495	425.81
526.71	466.81
526.925	431.81
527.14	476.81
527.355	457.81
527.57	463.81
527.785	455.81
527.999	435.81
528.214	449.81
528.429	451.81
528.644	435.81
528.859	469.81
529.074	461.81
529.289	468.81
529.503	478.81
529.718	483.81
529.933	463.81
530.148	455.81
530.363	437.81
530.577	446.81
530.792	439.81
531.007	433.81
531.221	436.81
531.436	447.81
531.651	449.81
531.865	459.81
532.08	451.81
532.295	440.81
532.509	421.81
532.724	434.81
532.938	431.81
533.153	448.81
533.367	445.81
533.582	451.81
533.796	435.81
534.011	447.81
534.225	452.81
534.44	439.81
534.654	444.81
534.868	434.81
535.083	450.81
535.297	428.81
535.511	443.81
535.726	460.81
535.94	438.81
536.154	434.81
536.369	432.81
536.583	424.81
536.797	428.81
537.011	402.81
537.225	416.81
537.44	424.81
537.654	432.81
537.868	417.81
538.082	413.81
538.296	422.81
538.51	426.81
538.724	421.81
538.938	426.81
539.153	415.81
539.367	423.81
539.581	412.81
539.795	414.81
540.009	424.81
540.222	415.81
540.436	430.81
540.65	421.81
540.864	423.81
541.078	406.81
541.292	415.81
541.506	411.81
541.72	407.81
541.934	413.81
542.147	434.81
542.361	403.81
542.575	424.81
542.789	416.81
543.002	431.81
543.216	411.81
543.43	425.81
543.644	429.81
543.857	425.81
544.071	434.81
544.285	437.81
544.498	449.81
544.712	439.81
544.925	422.81
545.139	425.81
545.352	430.81
545.566	422.81
545.779	420.81
545.993	407.81
546.206	421.81
546.42	434.81
546.633	418.81
546.847	430.81
547.06	395.81
547.274	399.81
547.487	441.81
547.7	415.81
547.914	423.81
548.127	400.81
548.34	419.81
548.554	439.81
548.767	414.81
548.98	419.81
549.193	411.81
549.407	429.81
549.62	431.81
549.833	412.81
550.046	430.81
550.259	416.81
550.473	407.81
550.686	427.81
550.899	423.81
551.112	411.81
551.325	423.81
551.538	411.81
551.751	402.81
551.964	395.81
552.177	405.81
552.39	414.81
552.603	440.81
552.816	432.81
553.029	455.81
553.242	442.81
553.455	455.81
553.667	459.81
553.88	436.81
554.093	453.81
554.306	442.81
554.519	435.81
554.732	432.81
554.944	409.81
555.157	418.81
555.37	391.81
555.583	412.81
555.795	405.81
556.008	394.81
556.221	384.81
556.433	388.81
556.646	386.81
556.859	372.81
557.071	376.81
557.284	368.81
557.496	356.81
557.709	376.81
557.921	365.81
558.134	373.81
558.346	369.81
558.559	363.81
558.771	370.81
558.984	364.81
559.196	356.81
559.409	367.81
559.621	361.81
559.833	354.81
560.046	355.81
560.258	362.81
560.47	360.81
560.683	365.81
560.895	356.81
561.107	355.81
561.32	363.81
561.532	369.81
561.744	352.81
561.956	346.81
562.168	363.81
562.381	368.81
562.593	376.81
562.805	386.81
563.017	363.81
563.229	346.81
563.441	369.81
563.653	364.81
563.865	357.81
564.077	360.81
564.289	362.81
564.501	384.81
564.713	390.81
564.925	396.81
565.137	394.81
565.349	403.81
565.561	417.81
565.773	404.81
565.985	432.81
566.197	422.81
566.408	468.81
566.62	506.81
566.832	523.81
567.044	541.81
567.255	539.81
567.467	537.81
567.679	554.81
567.891	581.81
568.102	562.81
568.314	560.81
568.526	525.81
568.737	506.81
568.949	481.81
569.161	441.81
569.372	403.81
569.584	413.81
569.795	389.81
570.007	379.81
570.218	399.81
570.43	378.81
570.641	376.81
570.853	383.81
571.064	365.81
571.276	359.81
571.487	363.81
571.698	362.81
571.91	349.81
572.121	344.81
572.333	339.81
572.544	338.81
572.755	339.81
572.966	305.81
573.178	335.81
573.389	317.81
573.6	335.81
573.811	322.81
574.023	322.81
574.234	311.81
574.445	308.81
574.656	307.81
574.867	306.81
575.078	311.81
575.289	307.81
575.501	318.81
575.712	315.81
575.923	297.81
576.134	296.81
576.345	299.81
576.556	297.81
576.767	307.81
576.978	306.81
577.188	295.81
577.399	310.81
577.61	280.81
577.821	287.81
578.032	308.81
578.243	316.81
578.454	419.81
578.665	333.81
578.875	288.81
579.086	292.81
579.297	289.81
579.508	293.81
579.718	275.81
579.929	279.81
580.14	277.81
580.35	249.81
580.561	272.81
580.772	283.81
580.982	299.81
581.193	288.81
581.403	272.81
581.614	280.81
581.825	273.81
582.035	271.81
582.246	267.81
582.456	270.81
582.667	272.81
582.877	270.81
583.087	290.81
583.298	279.81
583.508	289.81
583.719	283.81
583.929	270.81
584.139	243.81
584.35	266.81
584.56	264.81
584.77	283.81
584.981	272.81
585.191	270.81
585.401	265.81
585.611	268.81
585.821	267.81
586.032	284.81
586.242	285.81
586.452	252.81
586.662	272.81
586.872	255.81
587.082	276.81
587.292	257.81
587.502	275.81
587.713	246.81
587.923	266.81
588.133	268.81
588.343	274.81
588.553	254.81
588.762	252.81
588.972	262.81
589.182	311.81
589.392	320.81
589.602	276.81
589.812	312.81
590.022	292.81
590.232	260.81
590.441	271.81
590.651	254.81
590.861	261.81
591.071	275.81
591.281	283.81
591.49	275.81
591.7	296.81
591.91	283.81
592.119	288.81
592.329	285.81
592.539	294.81
592.748	290.81
592.958	289.81
593.167	301.81
593.377	309.81
593.587	329.81
593.796	331.81
594.006	318.81
594.215	320.81
594.424	336.81
594.634	323.81
594.843	299.81
595.053	289.81
595.262	295.81
595.472	288.81
595.681	277.81
595.89	278.81
596.1	253.81
596.309	254.81
596.518	257.81
596.727	264.81
596.937	264.81
597.146	260.81
597.355	249.81
597.564	245.81
597.774	238.81
597.983	235.81
598.192	244.81
598.401	244.81
598.61	254.81
598.819	239.81
599.028	240.81
599.237	255.81
599.446	243.81
599.655	243.81
599.864	220.81
600.073	251.81
600.282	219.81
600.491	238.81
600.7	243.81
600.909	241.81
601.118	227.81
601.327	220.81
601.536	228.81
601.745	223.81
601.953	219.81
602.162	247.81
602.371	236.81
602.58	237.81
602.789	241.81
602.997	243.81
603.206	240.81
603.415	238.81
603.623	245.81
603.832	245.81
604.041	247.81
604.249	226.81
604.458	223.81
604.666	230.81
604.875	247.81
605.084	245.81
605.292	229.81
605.501	233.81
605.709	217.81
605.918	208.81
606.126	227.81
606.334	210.81
606.543	235.81
606.751	205.81
606.96	217.81
607.168	220.81
607.376	212.81
607.585	229.81
607.793	250.81
608.001	246.81
608.21	248.81
608.418	214.81
608.626	224.81
608.834	220.81
609.043	221.81
609.251	229.81
609.459	214.81
609.667	227.81
609.875	222.81
610.083	241.81
610.291	214.81
610.499	222.81
610.707	221.81
610.916	220.81
611.124	221.81
611.332	240.81
611.54	231.81
611.748	215.81
611.955	211.81
612.163	212.81
612.371	221.81
612.579	209.81
612.787	205.81
612.995	221.81
613.203	233.81
613.411	230.81
613.618	200.81
613.826	210.81
614.034	208.81
614.242	224.81
614.449	210.81
614.657	210.81
614.865	237.81
615.072	220.81
615.28	221.81
615.488	215.81
615.695	213.81
615.903	220.81
616.111	219.81
616.318	220.81
616.526	227.81
616.733	214.81
616.941	226.81
617.148	214.81
617.356	227.81
617.563	211.81
617.771	210.81
617.978	207.81
618.185	210.81
618.393	214.81
618.6	217.81
618.807	210.81
619.015	201.81
619.222	209.81
619.429	192.81
619.637	201.81
619.844	220.81
620.051	195.81
620.258	196.81
620.466	191.81
620.673	203.81
620.88	193.81
621.087	203.81
621.294	220.81
621.501	211.81
621.708	193.81
621.915	205.81
622.122	207.81
622.329	193.81
622.536	218.81
622.743	196.81
622.95	199.81
623.157	201.81
623.364	206.81
623.571	211.81
623.778	193.81
623.985	209.81
624.192	183.81
624.399	191.81
624.606	203.81
624.812	201.81
625.019	208.81
625.226	201.81
625.433	199.81
625.639	182.81
625.846	195.81
626.053	187.81
626.259	191.81
626.466	191.81
626.673	171.81
626.879	193.81
627.086	191.81
627.293	193.81
627.499	198.81
627.706	183.81
627.912	195.81
628.119	196.81
628.325	189.81
628.532	188.81
628.738	185.81
628.945	178.81
629.151	200.81
629.357	188.81
629.564	195.81
629.77	180.81
629.976	161.81
630.183	177.81
630.389	167.81
630.595	173.81
630.802	168.81
631.008	167.81
631.214	191.81
631.42	192.81
631.627	177.81
631.833	168.81
632.039	178.81
632.245	188.81
632.451	173.81
632.657	180.81
632.863	169.81
633.069	182.81
633.275	175.81
633.481	171.81
633.688	162.81
633.893	184.81
634.099	178.81
634.305	174.81
634.511	164.81
634.717	174.81
634.923	187.81
635.129	181.81
635.335	157.81
635.541	173.81
635.747	164.81
635.952	161.81
636.158	159.81
636.364	166.81
636.57	175.81
636.775	165.81
636.981	162.81
637.187	184.81
637.392	172.81
637.598	169.81
637.804	175.81
638.009	173.81
638.215	166.81
638.421	153.81
638.626	167.81
638.832	158.81
639.037	160.81
639.243	173.81
639.448	163.81
639.654	166.81
639.859	156.81
640.065	176.81
640.27	179.81
640.475	167.81
640.681	172.81
640.886	164.81
641.091	167.81
641.297	165.81
641.502	144.81
641.707	159.81
641.913	167.81
642.118	165.81
642.323	166.81
642.528	146.81
642.733	155.81
642.939	152.81
643.144	152.81
643.349	157.81
643.554	158.81
643.759	160.81
643.964	147.81
644.169	167.81
644.374	162.81
644.579	177.81
644.784	166.81
644.989	163.81
645.194	158.81
645.399	152.81
645.604	139.81
645.809	159.81
646.014	167.81
646.219	166.81
646.423	163.81
646.628	150.81
646.833	164.81
647.038	171.81
647.243	160.81
647.447	157.81
647.652	173.81
647.857	171.81
648.062	167.81
648.266	176.81
648.471	175.81
648.676	176.81
648.88	174.81
649.085	171.81
649.289	165.81
649.494	159.81
649.698	175.81
649.903	173.81
650.107	192.81
650.312	144.81
650.516	148.81
650.721	139.81
650.925	151.81
651.13	155.81
651.334	159.81
651.539	153.81
651.743	167.81
651.947	154.81
652.152	145.81
652.356	127.81
652.56	129.81
652.764	140.81
652.969	146.81
653.173	139.81
653.377	124.81
653.581	134.81
653.785	151.81
653.99	142.81
654.194	140.81
654.398	133.81
654.602	143.81
654.806	140.81
655.01	143.81
655.214	134.81
655.418	133.81
655.622	148.81
655.826	130.81
656.03	139.81
656.234	124.81
656.438	150.81
656.642	136.81
656.846	147.81
657.049	128.81
657.253	136.81
657.457	127.81
657.661	124.81
657.865	109.81
658.068	105.81
658.272	110.81
658.476	97.81
658.68	103.81
658.883	111.81
659.087	95.81
659.291	99.81
659.494	103.81
659.698	98.81
659.901	103.81
660.105	91.81
660.309	76.81
660.512	94.81
660.716	98.81
660.919	88.81
661.123	85.81
661.326	84.81
661.53	91.81
661.733	95.81
661.936	99.81
662.14	82.81
662.343	84.81
662.546	84.81
662.75	108.81
662.953	93.81
663.156	80.81
663.36	82.81
663.563	84.81
663.766	82.81
663.969	93.81
664.173	91.81
664.376	69.81
664.579	76.81
664.782	97.81
664.985	76.81
665.188	77.81
665.391	81.81
665.594	76.81
665.797	80.81
666	78.81
666.203	77.81
666.406	69.81
666.609	82.81
666.812	78.81
667.015	74.81
667.218	78.81
667.421	90.81
667.624	69.81
667.827	91.81
668.03	71.81
668.232	85.81
668.435	93.81
668.638	86.81
668.841	76.81
669.043	76.81
669.246	71.81
669.449	77.81
669.651	64.81
669.854	84.81
670.057	71.81
670.259	82.81
670.462	80.81
670.665	80.81
670.867	84.81
671.07	77.81
671.272	76.81
671.475	82.81
671.677	75.81
671.88	72.81
672.082	80.81
672.284	83.81
672.487	84.81
672.689	71.81
672.892	85.81
