Data from 1960PennyLincolnUp.LampE6.200Scan.07172019.P1_HRD10591_13-06-15-001.txt Node
Date: Thu Jul 18 13:06:15 EDT 2019
User: cochatt
Spectrometer: HR+D1059
Trigger mode: 1
Integration Time (sec): 1.000000E-1
Scans to average: 1
Electric dark correction enabled: true
Nonlinearity correction enabled: false
Boxcar width: 0
XAxis mode: Wavelengths
Number of Pixels in Spectrum: 2048
>>>>>Begin Spectral Data<<<<<
223.165	-18.94
223.4	-18.94
223.635	-18.94
223.869	-22.94
224.104	-10.94
224.338	-8.94
224.573	-14.94
224.808	-10.94
225.042	3.06
225.277	-2.94
225.511	0.06
225.746	-6.94
225.98	-2.94
226.215	13.06
226.449	22.06
226.683	10.06
226.918	32.06
227.152	20.06
227.387	20.06
227.621	31.06
227.856	33.06
228.09	48.06
228.324	41.06
228.559	51.06
228.793	65.06
229.027	87.06
229.262	88.06
229.496	98.06
229.73	96.06
229.964	128.06
230.199	117.06
230.433	92.06
230.667	105.06
230.901	106.06
231.136	105.06
231.37	114.06
231.604	102.06
231.838	94.06
232.072	112.06
232.306	97.06
232.541	97.06
232.775	112.06
233.009	101.06
233.243	114.06
233.477	116.06
233.711	109.06
233.945	113.06
234.179	121.06
234.413	111.06
234.647	120.06
234.881	113.06
235.115	106.06
235.349	115.06
235.583	105.06
235.817	106.06
236.051	114.06
236.285	104.06
236.519	112.06
236.753	126.06
236.987	136.06
237.221	142.06
237.455	165.06
237.689	142.06
237.922	129.06
238.156	117.06
238.39	123.06
238.624	135.06
238.858	110.06
239.091	122.06
239.325	123.06
239.559	115.06
239.793	122.06
240.027	107.06
240.26	130.06
240.494	134.06
240.728	128.06
240.961	146.06
241.195	130.06
241.429	131.06
241.662	124.06
241.896	122.06
242.13	127.06
242.363	149.06
242.597	120.06
242.83	122.06
243.064	122.06
243.298	125.06
243.531	145.06
243.765	119.06
243.998	135.06
244.232	154.06
244.465	139.06
244.699	148.06
244.932	144.06
245.166	138.06
245.399	132.06
245.633	131.06
245.866	136.06
246.099	149.06
246.333	153.06
246.566	157.06
246.8	138.06
247.033	157.06
247.266	163.06
247.5	155.06
247.733	153.06
247.966	165.06
248.2	155.06
248.433	150.06
248.666	152.06
248.899	174.06
249.133	175.06
249.366	187.06
249.599	181.06
249.832	169.06
250.066	160.06
250.299	177.06
250.532	170.06
250.765	188.06
250.998	196.06
251.231	199.06
251.465	182.06
251.698	174.06
251.931	167.06
252.164	180.06
252.397	186.06
252.63	171.06
252.863	175.06
253.096	189.06
253.329	197.06
253.562	191.06
253.795	186.06
254.028	188.06
254.261	187.06
254.494	196.06
254.727	214.06
254.96	240.06
255.193	213.06
255.426	204.06
255.659	201.06
255.892	202.06
256.124	188.06
256.357	193.06
256.59	205.06
256.823	197.06
257.056	178.06
257.289	194.06
257.521	193.06
257.754	200.06
257.987	211.06
258.22	181.06
258.452	195.06
258.685	187.06
258.918	208.06
259.151	207.06
259.383	208.06
259.616	197.06
259.849	205.06
260.081	192.06
260.314	226.06
260.547	226.06
260.779	197.06
261.012	198.06
261.244	201.06
261.477	202.06
261.71	210.06
261.942	213.06
262.175	210.06
262.407	196.06
262.64	191.06
262.872	197.06
263.105	197.06
263.337	198.06
263.57	181.06
263.802	192.06
264.035	208.06
264.267	203.06
264.499	188.06
264.732	207.06
264.964	214.06
265.197	206.06
265.429	214.06
265.661	215.06
265.894	212.06
266.126	206.06
266.358	205.06
266.591	201.06
266.823	218.06
267.055	221.06
267.287	219.06
267.52	200.06
267.752	229.06
267.984	213.06
268.216	207.06
268.448	218.06
268.681	216.06
268.913	238.06
269.145	257.06
269.377	247.06
269.609	240.06
269.841	232.06
270.073	241.06
270.306	253.06
270.538	274.06
270.77	273.06
271.002	264.06
271.234	249.06
271.466	257.06
271.698	256.06
271.93	261.06
272.162	266.06
272.394	280.06
272.626	249.06
272.858	261.06
273.09	270.06
273.322	222.06
273.553	243.06
273.785	257.06
274.017	253.06
274.249	238.06
274.481	242.06
274.713	251.06
274.945	263.06
275.176	237.06
275.408	257.06
275.64	250.06
275.872	259.06
276.104	255.06
276.335	259.06
276.567	263.06
276.799	263.06
277.031	273.06
277.262	293.06
277.494	307.06
277.726	288.06
277.957	263.06
278.189	263.06
278.421	269.06
278.652	258.06
278.884	252.06
279.115	261.06
279.347	271.06
279.579	262.06
279.81	263.06
280.042	274.06
280.273	263.06
280.505	262.06
280.736	277.06
280.968	270.06
281.199	255.06
281.431	262.06
281.662	247.06
281.894	259.06
282.125	267.06
282.356	259.06
282.588	280.06
282.819	301.06
283.051	269.06
283.282	261.06
283.513	280.06
283.745	262.06
283.976	294.06
284.207	263.06
284.439	279.06
284.67	282.06
284.901	282.06
285.132	277.06
285.364	265.06
285.595	275.06
285.826	288.06
286.057	295.06
286.288	276.06
286.52	277.06
286.751	273.06
286.982	289.06
287.213	287.06
287.444	281.06
287.675	283.06
287.906	288.06
288.138	300.06
288.369	301.06
288.6	306.06
288.831	300.06
289.062	279.06
289.293	299.06
289.524	301.06
289.755	302.06
289.986	287.06
290.217	291.06
290.448	297.06
290.679	294.06
290.91	305.06
291.141	289.06
291.371	287.06
291.602	282.06
291.833	298.06
292.064	309.06
292.295	294.06
292.526	304.06
292.757	305.06
292.987	286.06
293.218	289.06
293.449	307.06
293.68	298.06
293.91	300.06
294.141	321.06
294.372	300.06
294.603	293.06
294.833	320.06
295.064	312.06
295.295	313.06
295.525	303.06
295.756	290.06
295.987	313.06
296.217	308.06
296.448	346.06
296.679	312.06
296.909	306.06
297.14	309.06
297.37	333.06
297.601	315.06
297.831	323.06
298.062	331.06
298.292	320.06
298.523	318.06
298.753	325.06
298.984	328.06
299.214	321.06
299.445	337.06
299.675	326.06
299.905	336.06
300.136	312.06
300.366	328.06
300.597	334.06
300.827	336.06
301.057	347.06
301.288	359.06
301.518	339.06
301.748	341.06
301.979	344.06
302.209	342.06
302.439	342.06
302.669	361.06
302.9	330.06
303.13	322.06
303.36	350.06
303.59	368.06
303.82	346.06
304.051	354.06
304.281	349.06
304.511	332.06
304.741	324.06
304.971	338.06
305.201	333.06
305.431	353.06
305.661	335.06
305.891	341.06
306.121	320.06
306.352	349.06
306.582	332.06
306.812	357.06
307.042	327.06
307.272	361.06
307.502	336.06
307.731	335.06
307.961	321.06
308.191	339.06
308.421	342.06
308.651	329.06
308.881	341.06
309.111	336.06
309.341	332.06
309.571	361.06
309.8	336.06
310.03	351.06
310.26	371.06
310.49	351.06
310.72	370.06
310.949	387.06
311.179	359.06
311.409	352.06
311.639	367.06
311.868	363.06
312.098	359.06
312.328	367.06
312.557	373.06
312.787	386.06
313.017	384.06
313.246	363.06
313.476	358.06
313.706	374.06
313.935	378.06
314.165	389.06
314.394	367.06
314.624	398.06
314.853	375.06
315.083	384.06
315.312	385.06
315.542	391.06
315.771	373.06
316.001	387.06
316.23	363.06
316.46	361.06
316.689	365.06
316.919	345.06
317.148	373.06
317.377	375.06
317.607	380.06
317.836	365.06
318.065	374.06
318.295	384.06
318.524	372.06
318.753	374.06
318.983	380.06
319.212	362.06
319.441	362.06
319.67	388.06
319.9	395.06
320.129	379.06
320.358	378.06
320.587	384.06
320.816	381.06
321.046	390.06
321.275	399.06
321.504	386.06
321.733	387.06
321.962	399.06
322.191	385.06
322.42	389.06
322.649	407.06
322.878	390.06
323.108	392.06
323.337	430.06
323.566	404.06
323.795	448.06
324.024	451.06
324.253	515.06
324.482	677.06
324.71	967.06
324.939	1301.06
325.168	1108.06
325.397	602.06
325.626	486.06
325.855	447.06
326.084	437.06
326.313	423.06
326.542	427.06
326.77	471.06
326.999	522.06
327.228	672.06
327.457	912.06
327.686	1027.06
327.914	704.06
328.143	528.06
328.372	495.06
328.6	505.06
328.829	465.06
329.058	465.06
329.287	470.06
329.515	450.06
329.744	467.06
329.972	453.06
330.201	466.06
330.43	509.06
330.658	501.06
330.887	510.06
331.115	490.06
331.344	470.06
331.572	456.06
331.801	479.06
332.03	472.06
332.258	453.06
332.486	455.06
332.715	474.06
332.943	478.06
333.172	505.06
333.4	496.06
333.629	496.06
333.857	536.06
334.085	514.06
334.314	529.06
334.542	518.06
334.771	550.06
334.999	506.06
335.227	507.06
335.455	486.06
335.684	468.06
335.912	466.06
336.14	458.06
336.369	465.06
336.597	495.06
336.825	450.06
337.053	452.06
337.281	470.06
337.51	457.06
337.738	463.06
337.966	457.06
338.194	458.06
338.422	466.06
338.65	439.06
338.878	439.06
339.106	436.06
339.334	449.06
339.562	431.06
339.79	443.06
340.018	430.06
340.246	450.06
340.474	440.06
340.702	421.06
340.93	438.06
341.158	426.06
341.386	427.06
341.614	429.06
341.842	425.06
342.07	430.06
342.298	410.06
342.526	419.06
342.754	423.06
342.981	402.06
343.209	420.06
343.437	421.06
343.665	466.06
343.893	478.06
344.12	480.06
344.348	483.06
344.576	464.06
344.804	446.06
345.031	441.06
345.259	461.06
345.487	431.06
345.714	427.06
345.942	422.06
346.17	418.06
346.397	431.06
346.625	429.06
346.853	424.06
347.08	408.06
347.308	414.06
347.535	413.06
347.763	432.06
347.99	413.06
348.218	427.06
348.445	409.06
348.673	425.06
348.9	426.06
349.128	418.06
349.355	413.06
349.583	404.06
349.81	405.06
350.037	389.06
350.265	401.06
350.492	389.06
350.72	401.06
350.947	410.06
351.174	394.06
351.402	409.06
351.629	410.06
351.856	403.06
352.083	410.06
352.311	400.06
352.538	410.06
352.765	435.06
352.992	416.06
353.22	409.06
353.447	395.06
353.674	418.06
353.901	398.06
354.128	402.06
354.355	397.06
354.583	382.06
354.81	422.06
355.037	418.06
355.264	392.06
355.491	391.06
355.718	426.06
355.945	386.06
356.172	394.06
356.399	394.06
356.626	392.06
356.853	398.06
357.08	398.06
357.307	392.06
357.534	407.06
357.761	403.06
357.988	371.06
358.215	388.06
358.441	380.06
358.668	402.06
358.895	380.06
359.122	402.06
359.349	389.06
359.576	410.06
359.802	409.06
360.029	416.06
360.256	433.06
360.483	419.06
360.709	415.06
360.936	402.06
361.163	409.06
361.39	397.06
361.616	408.06
361.843	394.06
362.07	415.06
362.296	408.06
362.523	406.06
362.749	398.06
362.976	408.06
363.203	398.06
363.429	408.06
363.656	387.06
363.882	408.06
364.109	397.06
364.335	399.06
364.562	394.06
364.788	389.06
365.015	414.06
365.241	410.06
365.468	393.06
365.694	417.06
365.92	421.06
366.147	402.06
366.373	398.06
366.599	414.06
366.826	392.06
367.052	369.06
367.278	392.06
367.505	406.06
367.731	409.06
367.957	403.06
368.184	402.06
368.41	415.06
368.636	400.06
368.862	398.06
369.089	403.06
369.315	402.06
369.541	421.06
369.767	431.06
369.993	401.06
370.219	406.06
370.445	417.06
370.672	410.06
370.898	406.06
371.124	410.06
371.35	417.06
371.576	406.06
371.802	415.06
372.028	399.06
372.254	444.06
372.48	435.06
372.706	435.06
372.932	413.06
373.158	424.06
373.384	424.06
373.61	418.06
373.835	423.06
374.061	428.06
374.287	424.06
374.513	433.06
374.739	425.06
374.965	437.06
375.191	439.06
375.416	445.06
375.642	435.06
375.868	432.06
376.094	425.06
376.319	415.06
376.545	416.06
376.771	430.06
376.997	427.06
377.222	426.06
377.448	415.06
377.674	407.06
377.899	391.06
378.125	426.06
378.35	400.06
378.576	410.06
378.802	430.06
379.027	413.06
379.253	395.06
379.478	401.06
379.704	416.06
379.929	410.06
380.155	432.06
380.38	423.06
380.606	412.06
380.831	440.06
381.057	415.06
381.282	399.06
381.507	409.06
381.733	404.06
381.958	428.06
382.184	424.06
382.409	423.06
382.634	427.06
382.86	417.06
383.085	444.06
383.31	443.06
383.535	456.06
383.761	450.06
383.986	448.06
384.211	463.06
384.436	465.06
384.662	457.06
384.887	484.06
385.112	470.06
385.337	473.06
385.562	480.06
385.787	478.06
386.013	487.06
386.238	475.06
386.463	483.06
386.688	492.06
386.913	463.06
387.138	500.06
387.363	480.06
387.588	478.06
387.813	481.06
388.038	470.06
388.263	461.06
388.488	464.06
388.713	485.06
388.938	477.06
389.163	468.06
389.387	473.06
389.612	479.06
389.837	466.06
390.062	475.06
390.287	483.06
390.512	470.06
390.736	457.06
390.961	486.06
391.186	480.06
391.411	495.06
391.636	505.06
391.86	522.06
392.085	522.06
392.31	505.06
392.534	507.06
392.759	495.06
392.984	499.06
393.208	478.06
393.433	489.06
393.658	504.06
393.882	489.06
394.107	495.06
394.331	494.06
394.556	482.06
394.78	477.06
395.005	501.06
395.229	502.06
395.454	507.06
395.678	513.06
395.903	523.06
396.127	524.06
396.352	507.06
396.576	510.06
396.801	516.06
397.025	489.06
397.249	497.06
397.474	518.06
397.698	525.06
397.922	546.06
398.147	543.06
398.371	545.06
398.595	537.06
398.82	558.06
399.044	584.06
399.268	636.06
399.492	714.06
399.717	738.06
399.941	744.06
400.165	734.06
400.389	686.06
400.613	636.06
400.837	587.06
401.062	571.06
401.286	564.06
401.51	578.06
401.734	562.06
401.958	554.06
402.182	583.06
402.406	610.06
402.63	579.06
402.854	591.06
403.078	586.06
403.302	592.06
403.526	618.06
403.75	622.06
403.974	623.06
404.198	618.06
404.422	623.06
404.645	617.06
404.869	607.06
405.093	639.06
405.317	663.06
405.541	691.06
405.765	644.06
405.988	623.06
406.212	610.06
406.436	628.06
406.66	659.06
406.883	630.06
407.107	663.06
407.331	704.06
407.555	727.06
407.778	724.06
408.002	698.06
408.226	663.06
408.449	648.06
408.673	665.06
408.896	653.06
409.12	676.06
409.344	654.06
409.567	616.06
409.791	606.06
410.014	584.06
410.238	592.06
410.461	586.06
410.685	605.06
410.908	598.06
411.132	627.06
411.355	632.06
411.578	613.06
411.802	609.06
412.025	574.06
412.249	592.06
412.472	611.06
412.695	622.06
412.919	598.06
413.142	587.06
413.365	554.06
413.589	575.06
413.812	551.06
414.035	554.06
414.258	539.06
414.482	553.06
414.705	548.06
414.928	576.06
415.151	555.06
415.374	572.06
415.597	555.06
415.821	545.06
416.044	546.06
416.267	551.06
416.49	540.06
416.713	531.06
416.936	553.06
417.159	532.06
417.382	540.06
417.605	564.06
417.828	561.06
418.051	585.06
418.274	544.06
418.497	575.06
418.72	558.06
418.943	584.06
419.166	588.06
419.389	601.06
419.611	582.06
419.834	583.06
420.057	576.06
420.28	587.06
420.503	560.06
420.726	583.06
420.948	591.06
421.171	596.06
421.394	649.06
421.617	580.06
421.839	561.06
422.062	589.06
422.285	571.06
422.507	599.06
422.73	634.06
422.953	657.06
423.175	625.06
423.398	591.06
423.621	590.06
423.843	619.06
424.066	596.06
424.288	593.06
424.511	617.06
424.733	639.06
424.956	676.06
425.178	676.06
425.401	672.06
425.623	656.06
425.846	581.06
426.068	563.06
426.291	571.06
426.513	557.06
426.735	551.06
426.958	589.06
427.18	620.06
427.402	725.06
427.625	743.06
427.847	674.06
428.069	602.06
428.292	566.06
428.514	537.06
428.736	523.06
428.958	542.06
429.181	513.06
429.403	506.06
429.625	527.06
429.847	547.06
430.069	581.06
430.292	584.06
430.514	511.06
430.736	515.06
430.958	517.06
431.18	517.06
431.402	496.06
431.624	504.06
431.846	503.06
432.068	512.06
432.29	517.06
432.512	539.06
432.734	506.06
432.956	501.06
433.178	513.06
433.4	510.06
433.622	501.06
433.844	507.06
434.066	502.06
434.287	516.06
434.509	525.06
434.731	540.06
434.953	536.06
435.175	559.06
435.397	577.06
435.618	545.06
435.84	568.06
436.062	640.06
436.284	650.06
436.505	556.06
436.727	528.06
436.949	536.06
437.17	524.06
437.392	507.06
437.614	533.06
437.835	549.06
438.057	577.06
438.278	632.06
438.5	635.06
438.721	698.06
438.943	650.06
439.165	554.06
439.386	547.06
439.608	536.06
439.829	561.06
440.05	543.06
440.272	589.06
440.493	587.06
440.715	545.06
440.936	529.06
441.158	517.06
441.379	537.06
441.6	544.06
441.822	582.06
442.043	592.06
442.264	657.06
442.486	643.06
442.707	576.06
442.928	567.06
443.149	579.06
443.371	589.06
443.592	619.06
443.813	651.06
444.034	716.06
444.255	623.06
444.476	602.06
444.698	611.06
444.919	642.06
445.14	741.06
445.361	660.06
445.582	625.06
445.803	622.06
446.024	670.06
446.245	667.06
446.466	644.06
446.687	561.06
446.908	519.06
447.129	526.06
447.35	513.06
447.571	505.06
447.792	501.06
448.013	498.06
448.234	515.06
448.455	542.06
448.675	607.06
448.896	629.06
449.117	593.06
449.338	559.06
449.559	626.06
449.779	698.06
450	591.06
450.221	514.06
450.442	491.06
450.662	504.06
450.883	486.06
451.104	501.06
451.324	486.06
451.545	454.06
451.766	468.06
451.986	471.06
452.207	465.06
452.428	453.06
452.648	461.06
452.869	443.06
453.089	473.06
453.31	473.06
453.53	449.06
453.751	460.06
453.971	456.06
454.192	441.06
454.412	457.06
454.633	421.06
454.853	444.06
455.073	440.06
455.294	478.06
455.514	501.06
455.734	466.06
455.955	445.06
456.175	438.06
456.395	411.06
456.616	424.06
456.836	442.06
457.056	423.06
457.276	405.06
457.497	441.06
457.717	428.06
457.937	435.06
458.157	445.06
458.377	477.06
458.598	458.06
458.818	513.06
459.038	528.06
459.258	548.06
459.478	519.06
459.698	485.06
459.918	509.06
460.138	539.06
460.358	543.06
460.578	529.06
460.798	529.06
461.018	557.06
461.238	539.06
461.458	543.06
461.678	538.06
461.898	570.06
462.118	549.06
462.338	563.06
462.558	596.06
462.777	593.06
462.997	646.06
463.217	650.06
463.437	657.06
463.657	629.06
463.876	619.06
464.096	606.06
464.316	603.06
464.536	635.06
464.755	603.06
464.975	581.06
465.195	617.06
465.414	611.06
465.634	541.06
465.854	525.06
466.073	514.06
466.293	500.06
466.512	484.06
466.732	454.06
466.951	480.06
467.171	485.06
467.391	481.06
467.61	479.06
467.829	485.06
468.049	474.06
468.268	490.06
468.488	469.06
468.707	456.06
468.927	485.06
469.146	442.06
469.365	465.06
469.585	471.06
469.804	499.06
470.023	486.06
470.243	495.06
470.462	515.06
470.681	488.06
470.901	500.06
471.12	488.06
471.339	482.06
471.558	486.06
471.777	470.06
471.997	471.06
472.216	479.06
472.435	498.06
472.654	489.06
472.873	478.06
473.092	450.06
473.311	466.06
473.53	463.06
473.749	477.06
473.968	479.06
474.187	528.06
474.406	543.06
474.625	494.06
474.844	466.06
475.063	461.06
475.282	468.06
475.501	451.06
475.72	452.06
475.939	475.06
476.158	493.06
476.377	484.06
476.596	467.06
476.814	491.06
477.033	475.06
477.252	505.06
477.471	507.06
477.69	512.06
477.908	519.06
478.127	525.06
478.346	521.06
478.564	548.06
478.783	554.06
479.002	534.06
479.22	550.06
479.439	571.06
479.658	561.06
479.876	569.06
480.095	578.06
480.313	623.06
480.532	614.06
480.751	609.06
480.969	588.06
481.188	618.06
481.406	631.06
481.624	590.06
481.843	525.06
482.061	531.06
482.28	535.06
482.498	555.06
482.717	533.06
482.935	524.06
483.153	530.06
483.372	532.06
483.59	543.06
483.808	529.06
484.027	533.06
484.245	531.06
484.463	555.06
484.681	538.06
484.9	566.06
485.118	544.06
485.336	525.06
485.554	528.06
485.772	575.06
485.99	545.06
486.209	559.06
486.427	565.06
486.645	559.06
486.863	557.06
487.081	583.06
487.299	593.06
487.517	559.06
487.735	566.06
487.953	565.06
488.171	562.06
488.389	559.06
488.607	571.06
488.825	559.06
489.043	568.06
489.261	584.06
489.479	569.06
489.696	556.06
489.914	582.06
490.132	568.06
490.35	584.06
490.568	575.06
490.786	595.06
491.003	597.06
491.221	613.06
491.439	625.06
491.657	634.06
491.874	637.06
492.092	645.06
492.31	656.06
492.527	636.06
492.745	643.06
492.963	632.06
493.18	641.06
493.398	653.06
493.615	651.06
493.833	643.06
494.05	668.06
494.268	631.06
494.485	673.06
494.703	653.06
494.92	644.06
495.138	660.06
495.355	629.06
495.573	663.06
495.79	655.06
496.008	679.06
496.225	647.06
496.442	656.06
496.66	641.06
496.877	662.06
497.094	665.06
497.312	666.06
497.529	680.06
497.746	693.06
497.963	729.06
498.181	746.06
498.398	742.06
498.615	772.06
498.832	816.06
499.049	844.06
499.267	884.06
499.484	923.06
499.701	996.06
499.918	1053.06
500.135	1174.06
500.352	1241.06
500.569	1298.06
500.786	1293.06
501.003	1254.06
501.22	1142.06
501.437	1051.06
501.654	983.06
501.871	944.06
502.088	890.06
502.305	816.06
502.522	801.06
502.739	791.06
502.956	737.06
503.172	738.06
503.389	688.06
503.606	695.06
503.823	685.06
504.04	673.06
504.256	680.06
504.473	697.06
504.69	708.06
504.907	709.06
505.123	662.06
505.34	628.06
505.557	610.06
505.773	618.06
505.99	606.06
506.207	610.06
506.423	585.06
506.64	605.06
506.856	587.06
507.073	585.06
507.289	594.06
507.506	599.06
507.722	598.06
507.939	597.06
508.155	578.06
508.372	553.06
508.588	569.06
508.805	548.06
509.021	566.06
509.238	576.06
509.454	580.06
509.67	569.06
509.887	542.06
510.103	521.06
510.319	559.06
510.536	605.06
510.752	883.06
510.968	723.06
511.184	565.06
511.401	525.06
511.617	506.06
511.833	522.06
512.049	547.06
512.265	501.06
512.481	547.06
512.698	495.06
512.914	530.06
513.13	515.06
513.346	535.06
513.562	503.06
513.778	534.06
513.994	522.06
514.21	518.06
514.426	550.06
514.642	574.06
514.858	585.06
515.074	594.06
515.29	666.06
515.506	913.06
515.721	788.06
515.937	607.06
516.153	568.06
516.369	598.06
516.585	594.06
516.801	568.06
517.016	599.06
517.232	614.06
517.448	625.06
517.664	632.06
517.879	650.06
518.095	639.06
518.311	619.06
518.527	608.06
518.742	590.06
518.958	570.06
519.173	580.06
519.389	560.06
519.605	552.06
519.82	552.06
520.036	535.06
520.251	561.06
520.467	566.06
520.682	554.06
520.898	558.06
521.113	546.06
521.329	564.06
521.544	621.06
521.76	694.06
521.975	1104.06
522.19	1106.06
522.406	683.06
522.621	547.06
522.836	518.06
523.052	502.06
523.267	486.06
523.482	483.06
523.698	464.06
523.913	477.06
524.128	486.06
524.343	461.06
524.559	483.06
524.774	458.06
524.989	482.06
525.204	466.06
525.419	465.06
525.634	438.06
525.849	477.06
526.064	448.06
526.28	437.06
526.495	456.06
526.71	447.06
526.925	454.06
527.14	437.06
527.355	458.06
527.57	457.06
527.785	455.06
527.999	450.06
528.214	453.06
528.429	454.06
528.644	448.06
528.859	450.06
529.074	432.06
529.289	483.06
529.503	511.06
529.718	494.06
529.933	479.06
530.148	453.06
530.363	460.06
530.577	434.06
530.792	436.06
531.007	417.06
531.221	447.06
531.436	437.06
531.651	429.06
531.865	434.06
532.08	444.06
532.295	428.06
532.509	441.06
532.724	455.06
532.938	442.06
533.153	440.06
533.367	433.06
533.582	427.06
533.796	437.06
534.011	447.06
534.225	423.06
534.44	447.06
534.654	406.06
534.868	431.06
535.083	434.06
535.297	433.06
535.511	445.06
535.726	456.06
535.94	433.06
536.154	437.06
536.369	428.06
536.583	424.06
536.797	434.06
537.011	414.06
537.225	411.06
537.44	415.06
537.654	413.06
537.868	417.06
538.082	421.06
538.296	431.06
538.51	427.06
538.724	397.06
538.938	413.06
539.153	430.06
539.367	429.06
539.581	413.06
539.795	410.06
540.009	413.06
540.222	411.06
540.436	400.06
540.65	429.06
540.864	419.06
541.078	419.06
541.292	429.06
541.506	415.06
541.72	414.06
541.934	429.06
542.147	417.06
542.361	411.06
542.575	409.06
542.789	400.06
543.002	420.06
543.216	425.06
543.43	409.06
543.644	425.06
543.857	415.06
544.071	393.06
544.285	418.06
544.498	407.06
544.712	398.06
544.925	407.06
545.139	424.06
545.352	434.06
545.566	434.06
545.779	410.06
545.993	428.06
546.206	425.06
546.42	418.06
546.633	422.06
546.847	415.06
547.06	415.06
547.274	401.06
547.487	418.06
547.7	412.06
547.914	402.06
548.127	395.06
548.34	429.06
548.554	409.06
548.767	424.06
548.98	434.06
549.193	430.06
549.407	430.06
549.62	418.06
549.833	411.06
550.046	428.06
550.259	425.06
550.473	431.06
550.686	405.06
550.899	411.06
551.112	399.06
551.325	407.06
551.538	393.06
551.751	413.06
551.964	421.06
552.177	404.06
552.39	417.06
552.603	417.06
552.816	426.06
553.029	448.06
553.242	444.06
553.455	483.06
553.667	462.06
553.88	467.06
554.093	425.06
554.306	445.06
554.519	434.06
554.732	416.06
554.944	409.06
555.157	405.06
555.37	397.06
555.583	397.06
555.795	384.06
556.008	377.06
556.221	377.06
556.433	374.06
556.646	375.06
556.859	369.06
557.071	362.06
557.284	383.06
557.496	394.06
557.709	373.06
557.921	369.06
558.134	368.06
558.346	366.06
558.559	368.06
558.771	362.06
558.984	359.06
559.196	353.06
559.409	340.06
559.621	341.06
559.833	362.06
560.046	349.06
560.258	363.06
560.47	372.06
560.683	358.06
560.895	371.06
561.107	357.06
561.32	342.06
561.532	360.06
561.744	370.06
561.956	350.06
562.168	354.06
562.381	357.06
562.593	352.06
562.805	366.06
563.017	350.06
563.229	341.06
563.441	364.06
563.653	355.06
563.865	345.06
564.077	383.06
564.289	381.06
564.501	389.06
564.713	400.06
564.925	393.06
565.137	408.06
565.349	387.06
565.561	423.06
565.773	406.06
565.985	429.06
566.197	442.06
566.408	458.06
566.62	497.06
566.832	504.06
567.044	502.06
567.255	510.06
567.467	545.06
567.679	562.06
567.891	566.06
568.102	577.06
568.314	570.06
568.526	538.06
568.737	474.06
568.949	457.06
569.161	422.06
569.372	398.06
569.584	398.06
569.795	389.06
570.007	370.06
570.218	389.06
570.43	395.06
570.641	391.06
570.853	381.06
571.064	353.06
571.276	377.06
571.487	366.06
571.698	342.06
571.91	344.06
572.121	334.06
572.333	326.06
572.544	327.06
572.755	315.06
572.966	318.06
573.178	311.06
573.389	314.06
573.6	315.06
573.811	320.06
574.023	312.06
574.234	307.06
574.445	309.06
574.656	302.06
574.867	318.06
575.078	331.06
575.289	314.06
575.501	303.06
575.712	302.06
575.923	313.06
576.134	313.06
576.345	291.06
576.556	295.06
576.767	297.06
576.978	292.06
577.188	292.06
577.399	288.06
577.61	290.06
577.821	282.06
578.032	291.06
578.243	309.06
578.454	442.06
578.665	349.06
578.875	303.06
579.086	281.06
579.297	289.06
579.508	272.06
579.718	280.06
579.929	277.06
580.14	276.06
580.35	267.06
580.561	273.06
580.772	276.06
580.982	278.06
581.193	275.06
581.403	271.06
581.614	269.06
581.825	262.06
582.035	272.06
582.246	273.06
582.456	281.06
582.667	256.06
582.877	263.06
583.087	270.06
583.298	280.06
583.508	263.06
583.719	265.06
583.929	262.06
584.139	280.06
584.35	262.06
584.56	282.06
584.77	252.06
584.981	254.06
585.191	266.06
585.401	268.06
585.611	270.06
585.821	276.06
586.032	275.06
586.242	257.06
586.452	245.06
586.662	270.06
586.872	254.06
587.082	257.06
587.292	266.06
587.502	266.06
587.713	273.06
587.923	259.06
588.133	254.06
588.343	257.06
588.553	250.06
588.762	269.06
588.972	271.06
589.182	273.06
589.392	274.06
589.602	253.06
589.812	289.06
590.022	271.06
590.232	273.06
590.441	261.06
590.651	254.06
590.861	278.06
591.071	274.06
591.281	287.06
591.49	269.06
591.7	278.06
591.91	269.06
592.119	271.06
592.329	286.06
592.539	281.06
592.748	283.06
592.958	307.06
593.167	303.06
593.377	310.06
593.587	312.06
593.796	290.06
594.006	311.06
594.215	310.06
594.424	318.06
594.634	297.06
594.843	309.06
595.053	295.06
595.262	289.06
595.472	281.06
595.681	282.06
595.89	281.06
596.1	264.06
596.309	269.06
596.518	255.06
596.727	251.06
596.937	248.06
597.146	249.06
597.355	257.06
597.564	242.06
597.774	246.06
597.983	249.06
598.192	240.06
598.401	238.06
598.61	239.06
598.819	230.06
599.028	230.06
599.237	242.06
599.446	243.06
599.655	229.06
599.864	240.06
600.073	239.06
600.282	240.06
600.491	239.06
600.7	244.06
600.909	229.06
601.118	232.06
601.327	235.06
601.536	235.06
601.745	242.06
601.953	239.06
602.162	230.06
602.371	229.06
602.58	222.06
602.789	222.06
602.997	219.06
603.206	226.06
603.415	210.06
603.623	210.06
603.832	219.06
604.041	218.06
604.249	234.06
604.458	236.06
604.666	225.06
604.875	238.06
605.084	213.06
605.292	224.06
605.501	225.06
605.709	221.06
605.918	219.06
606.126	228.06
606.334	229.06
606.543	204.06
606.751	218.06
606.96	215.06
607.168	225.06
607.376	215.06
607.585	211.06
607.793	214.06
608.001	226.06
608.21	233.06
608.418	223.06
608.626	209.06
608.834	213.06
609.043	213.06
609.251	218.06
609.459	202.06
609.667	211.06
609.875	234.06
610.083	222.06
610.291	225.06
610.499	218.06
610.707	210.06
610.916	225.06
611.124	217.06
611.332	226.06
611.54	208.06
611.748	226.06
611.955	212.06
612.163	218.06
612.371	212.06
612.579	210.06
612.787	227.06
612.995	210.06
613.203	237.06
613.411	216.06
613.618	225.06
613.826	213.06
614.034	208.06
614.242	203.06
614.449	207.06
614.657	209.06
614.865	220.06
615.072	230.06
615.28	208.06
615.488	221.06
615.695	206.06
615.903	197.06
616.111	214.06
616.318	221.06
616.526	229.06
616.733	216.06
616.941	212.06
617.148	206.06
617.356	225.06
617.563	214.06
617.771	201.06
617.978	221.06
618.185	230.06
618.393	210.06
618.6	225.06
618.807	219.06
619.015	224.06
619.222	230.06
619.429	206.06
619.637	219.06
619.844	217.06
620.051	214.06
620.258	197.06
620.466	201.06
620.673	190.06
620.88	202.06
621.087	211.06
621.294	207.06
621.501	195.06
621.708	214.06
621.915	219.06
622.122	209.06
622.329	202.06
622.536	192.06
622.743	206.06
622.95	200.06
623.157	198.06
623.364	208.06
623.571	192.06
623.778	205.06
623.985	204.06
624.192	204.06
624.399	191.06
624.606	204.06
624.812	192.06
625.019	185.06
625.226	199.06
625.433	203.06
625.639	187.06
625.846	197.06
626.053	184.06
626.259	169.06
626.466	206.06
626.673	185.06
626.879	188.06
627.086	191.06
627.293	204.06
627.499	190.06
627.706	187.06
627.912	186.06
628.119	194.06
628.325	176.06
628.532	183.06
628.738	185.06
628.945	186.06
629.151	183.06
629.357	179.06
629.564	167.06
629.77	185.06
629.976	178.06
630.183	193.06
630.389	178.06
630.595	170.06
630.802	180.06
631.008	198.06
631.214	165.06
631.42	181.06
631.627	161.06
631.833	169.06
632.039	178.06
632.245	171.06
632.451	183.06
632.657	176.06
632.863	185.06
633.069	165.06
633.275	164.06
633.481	186.06
633.688	161.06
633.893	177.06
634.099	180.06
634.305	175.06
634.511	164.06
634.717	170.06
634.923	180.06
635.129	164.06
635.335	150.06
635.541	183.06
635.747	175.06
635.952	172.06
636.158	162.06
636.364	184.06
636.57	174.06
636.775	155.06
636.981	180.06
637.187	155.06
637.392	169.06
637.598	174.06
637.804	181.06
638.009	169.06
638.215	162.06
638.421	168.06
638.626	169.06
638.832	159.06
639.037	161.06
639.243	167.06
639.448	151.06
639.654	151.06
639.859	158.06
640.065	143.06
640.27	154.06
640.475	169.06
640.681	157.06
640.886	157.06
641.091	148.06
641.297	149.06
641.502	164.06
641.707	179.06
641.913	143.06
642.118	164.06
642.323	168.06
642.528	154.06
642.733	167.06
642.939	157.06
643.144	159.06
643.349	164.06
643.554	152.06
643.759	151.06
643.964	159.06
644.169	150.06
644.374	158.06
644.579	145.06
644.784	164.06
644.989	168.06
645.194	165.06
645.399	157.06
645.604	138.06
645.809	148.06
646.014	144.06
646.219	152.06
646.423	146.06
646.628	157.06
646.833	143.06
647.038	163.06
647.243	147.06
647.447	181.06
647.652	167.06
647.857	161.06
648.062	172.06
648.266	175.06
648.471	169.06
648.676	167.06
648.88	154.06
649.085	163.06
649.289	153.06
649.494	162.06
649.698	197.06
649.903	175.06
650.107	155.06
650.312	153.06
650.516	149.06
650.721	150.06
650.925	151.06
651.13	152.06
651.334	150.06
651.539	155.06
651.743	134.06
651.947	139.06
652.152	139.06
652.356	130.06
652.56	136.06
652.764	149.06
652.969	153.06
653.173	140.06
653.377	123.06
653.581	128.06
653.785	146.06
653.99	138.06
654.194	145.06
654.398	130.06
654.602	130.06
654.806	136.06
655.01	151.06
655.214	133.06
655.418	129.06
655.622	131.06
655.826	117.06
656.03	131.06
656.234	150.06
656.438	138.06
656.642	121.06
656.846	137.06
657.049	139.06
657.253	123.06
657.457	131.06
657.661	123.06
657.865	110.06
658.068	110.06
658.272	118.06
658.476	106.06
658.68	106.06
658.883	111.06
659.087	114.06
659.291	101.06
659.494	107.06
659.698	115.06
659.901	101.06
660.105	113.06
660.309	95.06
660.512	97.06
660.716	95.06
660.919	97.06
661.123	106.06
661.326	76.06
661.53	97.06
661.733	83.06
661.936	88.06
662.14	85.06
662.343	85.06
662.546	84.06
662.75	88.06
662.953	93.06
663.156	89.06
663.36	81.06
663.563	78.06
663.766	83.06
663.969	87.06
664.173	89.06
664.376	85.06
664.579	90.06
664.782	87.06
664.985	85.06
665.188	86.06
665.391	86.06
665.594	80.06
665.797	86.06
666	92.06
666.203	82.06
666.406	86.06
666.609	70.06
666.812	73.06
667.015	79.06
667.218	81.06
667.421	90.06
667.624	89.06
667.827	85.06
668.03	86.06
668.232	88.06
668.435	89.06
668.638	83.06
668.841	91.06
669.043	86.06
669.246	90.06
669.449	100.06
669.651	74.06
669.854	86.06
670.057	70.06
670.259	84.06
670.462	77.06
670.665	76.06
670.867	81.06
671.07	90.06
671.272	73.06
671.475	76.06
671.677	88.06
671.88	89.06
672.082	78.06
672.284	87.06
672.487	72.06
672.689	67.06
672.892	94.06
