Data from 1960PennyLincolnUp.LampE6.200Scan.07172019.P1_HRD10591_13-06-00-002.txt Node
Date: Thu Jul 18 13:06:00 EDT 2019
User: cochatt
Spectrometer: HR+D1059
Trigger mode: 1
Integration Time (sec): 1.000000E-1
Scans to average: 1
Electric dark correction enabled: true
Nonlinearity correction enabled: false
Boxcar width: 0
XAxis mode: Wavelengths
Number of Pixels in Spectrum: 2048
>>>>>Begin Spectral Data<<<<<
223.165	-23.62
223.4	-23.62
223.635	-23.62
223.869	-9.62
224.104	-19.62
224.338	-24.62
224.573	-10.62
224.808	-21.62
225.042	-2.62
225.277	-16.62
225.511	2.38
225.746	5.38
225.98	6.38
226.215	12.38
226.449	25.38
226.683	22.38
226.918	35.38
227.152	19.38
227.387	23.38
227.621	30.38
227.856	26.38
228.09	34.38
228.324	42.38
228.559	56.38
228.793	48.38
229.027	70.38
229.262	87.38
229.496	85.38
229.73	101.38
229.964	115.38
230.199	130.38
230.433	96.38
230.667	94.38
230.901	102.38
231.136	116.38
231.37	114.38
231.604	95.38
231.838	103.38
232.072	95.38
232.306	115.38
232.541	108.38
232.775	119.38
233.009	102.38
233.243	108.38
233.477	108.38
233.711	99.38
233.945	111.38
234.179	116.38
234.413	112.38
234.647	97.38
234.881	104.38
235.115	109.38
235.349	112.38
235.583	114.38
235.817	115.38
236.051	118.38
236.285	107.38
236.519	121.38
236.753	130.38
236.987	115.38
237.221	147.38
237.455	188.38
237.689	159.38
237.922	117.38
238.156	101.38
238.39	114.38
238.624	112.38
238.858	104.38
239.091	118.38
239.325	102.38
239.559	99.38
239.793	121.38
240.027	117.38
240.26	137.38
240.494	135.38
240.728	133.38
240.961	140.38
241.195	132.38
241.429	128.38
241.662	125.38
241.896	126.38
242.13	130.38
242.363	120.38
242.597	133.38
242.83	132.38
243.064	117.38
243.298	127.38
243.531	133.38
243.765	132.38
243.998	124.38
244.232	125.38
244.465	138.38
244.699	135.38
244.932	134.38
245.166	129.38
245.399	125.38
245.633	146.38
245.866	130.38
246.099	143.38
246.333	124.38
246.566	139.38
246.8	148.38
247.033	133.38
247.266	138.38
247.5	160.38
247.733	135.38
247.966	148.38
248.2	150.38
248.433	162.38
248.666	160.38
248.899	175.38
249.133	172.38
249.366	158.38
249.599	185.38
249.832	144.38
250.066	176.38
250.299	159.38
250.532	184.38
250.765	192.38
250.998	190.38
251.231	187.38
251.465	193.38
251.698	159.38
251.931	176.38
252.164	184.38
252.397	174.38
252.63	159.38
252.863	187.38
253.096	179.38
253.329	182.38
253.562	203.38
253.795	198.38
254.028	192.38
254.261	202.38
254.494	204.38
254.727	205.38
254.96	200.38
255.193	214.38
255.426	192.38
255.659	196.38
255.892	198.38
256.124	196.38
256.357	186.38
256.59	207.38
256.823	194.38
257.056	189.38
257.289	183.38
257.521	180.38
257.754	196.38
257.987	191.38
258.22	183.38
258.452	184.38
258.685	174.38
258.918	195.38
259.151	184.38
259.383	192.38
259.616	201.38
259.849	215.38
260.081	214.38
260.314	224.38
260.547	208.38
260.779	201.38
261.012	202.38
261.244	210.38
261.477	210.38
261.71	193.38
261.942	202.38
262.175	210.38
262.407	205.38
262.64	196.38
262.872	194.38
263.105	203.38
263.337	207.38
263.57	202.38
263.802	202.38
264.035	180.38
264.267	190.38
264.499	192.38
264.732	195.38
264.964	196.38
265.197	220.38
265.429	201.38
265.661	199.38
265.894	214.38
266.126	216.38
266.358	235.38
266.591	213.38
266.823	219.38
267.055	214.38
267.287	216.38
267.52	211.38
267.752	202.38
267.984	198.38
268.216	199.38
268.448	213.38
268.681	206.38
268.913	229.38
269.145	238.38
269.377	242.38
269.609	242.38
269.841	239.38
270.073	241.38
270.306	242.38
270.538	278.38
270.77	256.38
271.002	260.38
271.234	254.38
271.466	277.38
271.698	262.38
271.93	279.38
272.162	275.38
272.394	262.38
272.626	266.38
272.858	234.38
273.09	241.38
273.322	244.38
273.553	238.38
273.785	271.38
274.017	240.38
274.249	252.38
274.481	253.38
274.713	235.38
274.945	258.38
275.176	245.38
275.408	264.38
275.64	253.38
275.872	237.38
276.104	247.38
276.335	249.38
276.567	242.38
276.799	261.38
277.031	280.38
277.262	278.38
277.494	287.38
277.726	271.38
277.957	270.38
278.189	264.38
278.421	256.38
278.652	264.38
278.884	245.38
279.115	279.38
279.347	255.38
279.579	268.38
279.81	238.38
280.042	265.38
280.273	268.38
280.505	276.38
280.736	270.38
280.968	268.38
281.199	267.38
281.431	276.38
281.662	285.38
281.894	268.38
282.125	264.38
282.356	283.38
282.588	282.38
282.819	297.38
283.051	267.38
283.282	278.38
283.513	280.38
283.745	291.38
283.976	275.38
284.207	276.38
284.439	261.38
284.67	262.38
284.901	277.38
285.132	283.38
285.364	274.38
285.595	270.38
285.826	271.38
286.057	285.38
286.288	261.38
286.52	275.38
286.751	266.38
286.982	272.38
287.213	297.38
287.444	276.38
287.675	293.38
287.906	302.38
288.138	283.38
288.369	305.38
288.6	320.38
288.831	284.38
289.062	291.38
289.293	287.38
289.524	303.38
289.755	305.38
289.986	294.38
290.217	292.38
290.448	305.38
290.679	298.38
290.91	296.38
291.141	302.38
291.371	295.38
291.602	293.38
291.833	290.38
292.064	285.38
292.295	300.38
292.526	299.38
292.757	286.38
292.987	309.38
293.218	299.38
293.449	300.38
293.68	291.38
293.91	296.38
294.141	301.38
294.372	298.38
294.603	290.38
294.833	318.38
295.064	303.38
295.295	305.38
295.525	301.38
295.756	316.38
295.987	306.38
296.217	329.38
296.448	321.38
296.679	326.38
296.909	322.38
297.14	303.38
297.37	316.38
297.601	303.38
297.831	321.38
298.062	324.38
298.292	331.38
298.523	316.38
298.753	334.38
298.984	303.38
299.214	323.38
299.445	325.38
299.675	348.38
299.905	312.38
300.136	310.38
300.366	309.38
300.597	335.38
300.827	339.38
301.057	339.38
301.288	340.38
301.518	336.38
301.748	347.38
301.979	364.38
302.209	353.38
302.439	318.38
302.669	360.38
302.9	348.38
303.13	342.38
303.36	346.38
303.59	330.38
303.82	354.38
304.051	336.38
304.281	334.38
304.511	356.38
304.741	332.38
304.971	324.38
305.201	346.38
305.431	333.38
305.661	337.38
305.891	339.38
306.121	335.38
306.352	335.38
306.582	345.38
306.812	326.38
307.042	339.38
307.272	346.38
307.502	349.38
307.731	330.38
307.961	338.38
308.191	336.38
308.421	324.38
308.651	319.38
308.881	334.38
309.111	351.38
309.341	352.38
309.571	353.38
309.8	358.38
310.03	357.38
310.26	347.38
310.49	346.38
310.72	353.38
310.949	362.38
311.179	360.38
311.409	376.38
311.639	366.38
311.868	354.38
312.098	363.38
312.328	346.38
312.557	369.38
312.787	370.38
313.017	373.38
313.246	371.38
313.476	374.38
313.706	373.38
313.935	395.38
314.165	390.38
314.394	394.38
314.624	387.38
314.853	366.38
315.083	352.38
315.312	382.38
315.542	366.38
315.771	366.38
316.001	391.38
316.23	370.38
316.46	375.38
316.689	368.38
316.919	374.38
317.148	365.38
317.377	378.38
317.607	384.38
317.836	382.38
318.065	381.38
318.295	363.38
318.524	374.38
318.753	367.38
318.983	351.38
319.212	366.38
319.441	376.38
319.67	379.38
319.9	368.38
320.129	361.38
320.358	373.38
320.587	358.38
320.816	390.38
321.046	377.38
321.275	398.38
321.504	367.38
321.733	387.38
321.962	400.38
322.191	377.38
322.42	405.38
322.649	389.38
322.878	390.38
323.108	418.38
323.337	405.38
323.566	440.38
323.795	442.38
324.024	483.38
324.253	513.38
324.482	705.38
324.71	974.38
324.939	1344.38
325.168	1110.38
325.397	597.38
325.626	467.38
325.855	449.38
326.084	444.38
326.313	440.38
326.542	456.38
326.77	471.38
326.999	509.38
327.228	669.38
327.457	935.38
327.686	1046.38
327.914	726.38
328.143	525.38
328.372	496.38
328.6	482.38
328.829	468.38
329.058	479.38
329.287	492.38
329.515	451.38
329.744	450.38
329.972	453.38
330.201	476.38
330.43	477.38
330.658	490.38
330.887	505.38
331.115	503.38
331.344	487.38
331.572	449.38
331.801	447.38
332.03	463.38
332.258	453.38
332.486	452.38
332.715	470.38
332.943	488.38
333.172	503.38
333.4	499.38
333.629	512.38
333.857	512.38
334.085	524.38
334.314	524.38
334.542	553.38
334.771	546.38
334.999	499.38
335.227	496.38
335.455	502.38
335.684	492.38
335.912	484.38
336.14	487.38
336.369	471.38
336.597	472.38
336.825	452.38
337.053	475.38
337.281	452.38
337.51	447.38
337.738	452.38
337.966	447.38
338.194	443.38
338.422	454.38
338.65	445.38
338.878	416.38
339.106	447.38
339.334	435.38
339.562	427.38
339.79	428.38
340.018	432.38
340.246	441.38
340.474	455.38
340.702	428.38
340.93	443.38
341.158	418.38
341.386	417.38
341.614	427.38
341.842	408.38
342.07	429.38
342.298	440.38
342.526	421.38
342.754	440.38
342.981	433.38
343.209	438.38
343.437	424.38
343.665	463.38
343.893	470.38
344.12	489.38
344.348	479.38
344.576	458.38
344.804	436.38
345.031	447.38
345.259	455.38
345.487	443.38
345.714	417.38
345.942	415.38
346.17	410.38
346.397	416.38
346.625	404.38
346.853	404.38
347.08	418.38
347.308	422.38
347.535	405.38
347.763	431.38
347.99	408.38
348.218	396.38
348.445	425.38
348.673	419.38
348.9	420.38
349.128	401.38
349.355	414.38
349.583	404.38
349.81	414.38
350.037	412.38
350.265	412.38
350.492	395.38
350.72	414.38
350.947	401.38
351.174	411.38
351.402	423.38
351.629	404.38
351.856	422.38
352.083	420.38
352.311	403.38
352.538	430.38
352.765	402.38
352.992	421.38
353.22	403.38
353.447	398.38
353.674	399.38
353.901	400.38
354.128	414.38
354.355	376.38
354.583	399.38
354.81	393.38
355.037	394.38
355.264	390.38
355.491	390.38
355.718	383.38
355.945	384.38
356.172	389.38
356.399	404.38
356.626	405.38
356.853	393.38
357.08	374.38
357.307	407.38
357.534	386.38
357.761	384.38
357.988	394.38
358.215	391.38
358.441	410.38
358.668	377.38
358.895	397.38
359.122	405.38
359.349	411.38
359.576	400.38
359.802	430.38
360.029	430.38
360.256	427.38
360.483	423.38
360.709	404.38
360.936	404.38
361.163	413.38
361.39	413.38
361.616	429.38
361.843	401.38
362.07	399.38
362.296	428.38
362.523	401.38
362.749	378.38
362.976	399.38
363.203	400.38
363.429	407.38
363.656	401.38
363.882	375.38
364.109	389.38
364.335	403.38
364.562	399.38
364.788	389.38
365.015	408.38
365.241	421.38
365.468	405.38
365.694	402.38
365.92	416.38
366.147	386.38
366.373	407.38
366.599	390.38
366.826	381.38
367.052	400.38
367.278	401.38
367.505	410.38
367.731	414.38
367.957	384.38
368.184	417.38
368.41	408.38
368.636	424.38
368.862	420.38
369.089	409.38
369.315	400.38
369.541	397.38
369.767	405.38
369.993	405.38
370.219	392.38
370.445	400.38
370.672	394.38
370.898	412.38
371.124	394.38
371.35	411.38
371.576	416.38
371.802	426.38
372.028	423.38
372.254	405.38
372.48	410.38
372.706	442.38
372.932	423.38
373.158	420.38
373.384	436.38
373.61	428.38
373.835	413.38
374.061	410.38
374.287	430.38
374.513	432.38
374.739	456.38
374.965	455.38
375.191	439.38
375.416	445.38
375.642	420.38
375.868	442.38
376.094	425.38
376.319	417.38
376.545	419.38
376.771	427.38
376.997	416.38
377.222	414.38
377.448	403.38
377.674	430.38
377.899	418.38
378.125	426.38
378.35	419.38
378.576	411.38
378.802	410.38
379.027	407.38
379.253	420.38
379.478	403.38
379.704	407.38
379.929	416.38
380.155	401.38
380.38	420.38
380.606	432.38
380.831	443.38
381.057	417.38
381.282	418.38
381.507	414.38
381.733	424.38
381.958	414.38
382.184	433.38
382.409	429.38
382.634	414.38
382.86	404.38
383.085	451.38
383.31	432.38
383.535	456.38
383.761	427.38
383.986	453.38
384.211	426.38
384.436	451.38
384.662	467.38
384.887	446.38
385.112	453.38
385.337	455.38
385.562	476.38
385.787	474.38
386.013	497.38
386.238	484.38
386.463	492.38
386.688	494.38
386.913	482.38
387.138	479.38
387.363	487.38
387.588	471.38
387.813	478.38
388.038	447.38
388.263	478.38
388.488	462.38
388.713	455.38
388.938	466.38
389.163	451.38
389.387	485.38
389.612	474.38
389.837	469.38
390.062	476.38
390.287	471.38
390.512	444.38
390.736	472.38
390.961	494.38
391.186	488.38
391.411	475.38
391.636	485.38
391.86	505.38
392.085	509.38
392.31	520.38
392.534	487.38
392.759	518.38
392.984	472.38
393.208	494.38
393.433	503.38
393.658	510.38
393.882	505.38
394.107	490.38
394.331	490.38
394.556	477.38
394.78	514.38
395.005	492.38
395.229	504.38
395.454	515.38
395.678	513.38
395.903	507.38
396.127	518.38
396.352	539.38
396.576	502.38
396.801	505.38
397.025	508.38
397.249	503.38
397.474	498.38
397.698	542.38
397.922	522.38
398.147	529.38
398.371	540.38
398.595	548.38
398.82	561.38
399.044	588.38
399.268	662.38
399.492	702.38
399.717	775.38
399.941	781.38
400.165	752.38
400.389	699.38
400.613	638.38
400.837	608.38
401.062	618.38
401.286	562.38
401.51	571.38
401.734	563.38
401.958	572.38
402.182	595.38
402.406	575.38
402.63	572.38
402.854	580.38
403.078	620.38
403.302	615.38
403.526	610.38
403.75	629.38
403.974	627.38
404.198	611.38
404.422	614.38
404.645	639.38
404.869	626.38
405.093	642.38
405.317	683.38
405.541	693.38
405.765	632.38
405.988	626.38
406.212	613.38
406.436	621.38
406.66	666.38
406.883	624.38
407.107	679.38
407.331	723.38
407.555	756.38
407.778	747.38
408.002	698.38
408.226	644.38
408.449	651.38
408.673	636.38
408.896	645.38
409.12	666.38
409.344	644.38
409.567	606.38
409.791	610.38
410.014	615.38
410.238	617.38
410.461	582.38
410.685	614.38
410.908	597.38
411.132	620.38
411.355	612.38
411.578	616.38
411.802	595.38
412.025	582.38
412.249	599.38
412.472	613.38
412.695	622.38
412.919	609.38
413.142	596.38
413.365	551.38
413.589	542.38
413.812	567.38
414.035	556.38
414.258	542.38
414.482	568.38
414.705	542.38
414.928	545.38
415.151	554.38
415.374	564.38
415.597	565.38
415.821	547.38
416.044	563.38
416.267	575.38
416.49	547.38
416.713	526.38
416.936	554.38
417.159	548.38
417.382	554.38
417.605	535.38
417.828	556.38
418.051	560.38
418.274	538.38
418.497	556.38
418.72	591.38
418.943	600.38
419.166	588.38
419.389	616.38
419.611	613.38
419.834	606.38
420.057	597.38
420.28	596.38
420.503	588.38
420.726	573.38
420.948	558.38
421.171	601.38
421.394	612.38
421.617	557.38
421.839	586.38
422.062	571.38
422.285	563.38
422.507	599.38
422.73	643.38
422.953	634.38
423.175	607.38
423.398	580.38
423.621	584.38
423.843	576.38
424.066	591.38
424.288	580.38
424.511	607.38
424.733	638.38
424.956	681.38
425.178	644.38
425.401	643.38
425.623	660.38
425.846	572.38
426.068	566.38
426.291	563.38
426.513	555.38
426.735	571.38
426.958	582.38
427.18	626.38
427.402	724.38
427.625	737.38
427.847	683.38
428.069	624.38
428.292	578.38
428.514	554.38
428.736	535.38
428.958	527.38
429.181	507.38
429.403	516.38
429.625	525.38
429.847	546.38
430.069	582.38
430.292	566.38
430.514	524.38
430.736	526.38
430.958	514.38
431.18	506.38
431.402	483.38
431.624	506.38
431.846	521.38
432.068	507.38
432.29	504.38
432.512	515.38
432.734	519.38
432.956	492.38
433.178	522.38
433.4	503.38
433.622	514.38
433.844	519.38
434.066	499.38
434.287	510.38
434.509	540.38
434.731	547.38
434.953	560.38
435.175	559.38
435.397	571.38
435.618	545.38
435.84	570.38
436.062	613.38
436.284	659.38
436.505	587.38
436.727	560.38
436.949	522.38
437.17	541.38
437.392	528.38
437.614	520.38
437.835	517.38
438.057	571.38
438.278	632.38
438.5	615.38
438.721	663.38
438.943	648.38
439.165	577.38
439.386	551.38
439.608	550.38
439.829	528.38
440.05	563.38
440.272	564.38
440.493	576.38
440.715	542.38
440.936	535.38
441.158	518.38
441.379	547.38
441.6	573.38
441.822	561.38
442.043	583.38
442.264	638.38
442.486	677.38
442.707	585.38
442.928	586.38
443.149	593.38
443.371	607.38
443.592	629.38
443.813	667.38
444.034	701.38
444.255	623.38
444.476	626.38
444.698	618.38
444.919	621.38
445.14	732.38
445.361	660.38
445.582	628.38
445.803	606.38
446.024	678.38
446.245	674.38
446.466	613.38
446.687	558.38
446.908	515.38
447.129	508.38
447.35	497.38
447.571	513.38
447.792	482.38
448.013	494.38
448.234	508.38
448.455	532.38
448.675	597.38
448.896	647.38
449.117	586.38
449.338	572.38
449.559	618.38
449.779	647.38
450	565.38
450.221	540.38
450.442	478.38
450.662	479.38
450.883	496.38
451.104	493.38
451.324	480.38
451.545	450.38
451.766	475.38
451.986	479.38
452.207	451.38
452.428	456.38
452.648	438.38
452.869	437.38
453.089	434.38
453.31	475.38
453.53	452.38
453.751	476.38
453.971	452.38
454.192	467.38
454.412	446.38
454.633	452.38
454.853	436.38
455.073	429.38
455.294	447.38
455.514	499.38
455.734	495.38
455.955	438.38
456.175	437.38
456.395	432.38
456.616	410.38
456.836	423.38
457.056	430.38
457.276	426.38
457.497	434.38
457.717	438.38
457.937	428.38
458.157	430.38
458.377	444.38
458.598	447.38
458.818	495.38
459.038	550.38
459.258	567.38
459.478	517.38
459.698	516.38
459.918	511.38
460.138	536.38
460.358	527.38
460.578	545.38
460.798	554.38
461.018	537.38
461.238	539.38
461.458	549.38
461.678	525.38
461.898	519.38
462.118	572.38
462.338	565.38
462.558	591.38
462.777	596.38
462.997	628.38
463.217	668.38
463.437	667.38
463.657	613.38
463.876	605.38
464.096	634.38
464.316	606.38
464.536	608.38
464.755	603.38
464.975	580.38
465.195	578.38
465.414	607.38
465.634	548.38
465.854	517.38
466.073	511.38
466.293	468.38
466.512	483.38
466.732	478.38
466.951	486.38
467.171	475.38
467.391	459.38
467.61	489.38
467.829	490.38
468.049	492.38
468.268	451.38
468.488	458.38
468.707	463.38
468.927	461.38
469.146	445.38
469.365	453.38
469.585	491.38
469.804	482.38
470.023	478.38
470.243	504.38
470.462	508.38
470.681	513.38
470.901	506.38
471.12	491.38
471.339	479.38
471.558	488.38
471.777	466.38
471.997	468.38
472.216	467.38
472.435	494.38
472.654	480.38
472.873	471.38
473.092	466.38
473.311	450.38
473.53	441.38
473.749	449.38
473.968	481.38
474.187	525.38
474.406	555.38
474.625	487.38
474.844	488.38
475.063	464.38
475.282	458.38
475.501	472.38
475.72	475.38
475.939	449.38
476.158	455.38
476.377	474.38
476.596	471.38
476.814	484.38
477.033	478.38
477.252	500.38
477.471	492.38
477.69	503.38
477.908	512.38
478.127	530.38
478.346	516.38
478.564	548.38
478.783	528.38
479.002	565.38
479.22	555.38
479.439	572.38
479.658	571.38
479.876	571.38
480.095	578.38
480.313	586.38
480.532	579.38
480.751	596.38
480.969	575.38
481.188	638.38
481.406	642.38
481.624	571.38
481.843	558.38
482.061	542.38
482.28	512.38
482.498	528.38
482.717	522.38
482.935	536.38
483.153	523.38
483.372	519.38
483.59	538.38
483.808	533.38
484.027	519.38
484.245	554.38
484.463	531.38
484.681	526.38
484.9	546.38
485.118	548.38
485.336	532.38
485.554	563.38
485.772	551.38
485.99	542.38
486.209	545.38
486.427	561.38
486.645	547.38
486.863	550.38
487.081	578.38
487.299	570.38
487.517	568.38
487.735	563.38
487.953	589.38
488.171	574.38
488.389	560.38
488.607	600.38
488.825	555.38
489.043	546.38
489.261	557.38
489.479	587.38
489.696	564.38
489.914	550.38
490.132	577.38
490.35	587.38
490.568	602.38
490.786	588.38
491.003	600.38
491.221	602.38
491.439	610.38
491.657	615.38
491.874	641.38
492.092	643.38
492.31	645.38
492.527	622.38
492.745	665.38
492.963	646.38
493.18	667.38
493.398	662.38
493.615	658.38
493.833	652.38
494.05	670.38
494.268	669.38
494.485	658.38
494.703	647.38
494.92	635.38
495.138	676.38
495.355	662.38
495.573	666.38
495.79	632.38
496.008	656.38
496.225	669.38
496.442	662.38
496.66	639.38
496.877	664.38
497.094	668.38
497.312	654.38
497.529	676.38
497.746	683.38
497.963	695.38
498.181	726.38
498.398	741.38
498.615	782.38
498.832	841.38
499.049	850.38
499.267	856.38
499.484	950.38
499.701	986.38
499.918	1034.38
500.135	1157.38
500.352	1266.38
500.569	1286.38
500.786	1287.38
501.003	1239.38
501.22	1116.38
501.437	1082.38
501.654	1020.38
501.871	956.38
502.088	901.38
502.305	836.38
502.522	817.38
502.739	794.38
502.956	748.38
503.172	726.38
503.389	703.38
503.606	687.38
503.823	679.38
504.04	682.38
504.256	682.38
504.473	691.38
504.69	716.38
504.907	689.38
505.123	674.38
505.34	648.38
505.557	640.38
505.773	611.38
505.99	617.38
506.207	602.38
506.423	605.38
506.64	592.38
506.856	604.38
507.073	602.38
507.289	558.38
507.506	596.38
507.722	588.38
507.939	575.38
508.155	571.38
508.372	558.38
508.588	549.38
508.805	548.38
509.021	549.38
509.238	565.38
509.454	563.38
509.67	543.38
509.887	567.38
510.103	546.38
510.319	546.38
510.536	610.38
510.752	846.38
510.968	728.38
511.184	554.38
511.401	530.38
511.617	534.38
511.833	543.38
512.049	524.38
512.265	518.38
512.481	528.38
512.698	524.38
512.914	537.38
513.13	544.38
513.346	516.38
513.562	531.38
513.778	532.38
513.994	519.38
514.21	532.38
514.426	554.38
514.642	568.38
514.858	570.38
515.074	599.38
515.29	657.38
515.506	929.38
515.721	826.38
515.937	594.38
516.153	595.38
516.369	583.38
516.585	576.38
516.801	583.38
517.016	606.38
517.232	598.38
517.448	604.38
517.664	612.38
517.879	631.38
518.095	642.38
518.311	650.38
518.527	612.38
518.742	591.38
518.958	568.38
519.173	579.38
519.389	558.38
519.605	563.38
519.82	532.38
520.036	556.38
520.251	540.38
520.467	549.38
520.682	536.38
520.898	533.38
521.113	568.38
521.329	588.38
521.544	595.38
521.76	736.38
521.975	1140.38
522.19	1100.38
522.406	690.38
522.621	559.38
522.836	523.38
523.052	501.38
523.267	482.38
523.482	487.38
523.698	470.38
523.913	503.38
524.128	484.38
524.343	478.38
524.559	464.38
524.774	464.38
524.989	458.38
525.204	452.38
525.419	460.38
525.634	456.38
525.849	480.38
526.064	468.38
526.28	461.38
526.495	458.38
526.71	429.38
526.925	449.38
527.14	443.38
527.355	442.38
527.57	438.38
527.785	444.38
527.999	458.38
528.214	455.38
528.429	441.38
528.644	460.38
528.859	459.38
529.074	440.38
529.289	447.38
529.503	506.38
529.718	488.38
529.933	463.38
530.148	452.38
530.363	437.38
530.577	438.38
530.792	429.38
531.007	435.38
531.221	436.38
531.436	443.38
531.651	452.38
531.865	429.38
532.08	426.38
532.295	435.38
532.509	446.38
532.724	436.38
532.938	423.38
533.153	427.38
533.367	434.38
533.582	440.38
533.796	448.38
534.011	432.38
534.225	448.38
534.44	430.38
534.654	438.38
534.868	439.38
535.083	438.38
535.297	426.38
535.511	438.38
535.726	434.38
535.94	432.38
536.154	425.38
536.369	414.38
536.583	413.38
536.797	419.38
537.011	439.38
537.225	391.38
537.44	417.38
537.654	415.38
537.868	421.38
538.082	429.38
538.296	394.38
538.51	401.38
538.724	423.38
538.938	414.38
539.153	402.38
539.367	408.38
539.581	439.38
539.795	418.38
540.009	407.38
540.222	402.38
540.436	419.38
540.65	403.38
540.864	422.38
541.078	402.38
541.292	389.38
541.506	404.38
541.72	411.38
541.934	422.38
542.147	424.38
542.361	411.38
542.575	400.38
542.789	412.38
543.002	426.38
543.216	423.38
543.43	402.38
543.644	408.38
543.857	412.38
544.071	416.38
544.285	407.38
544.498	435.38
544.712	443.38
544.925	422.38
545.139	413.38
545.352	414.38
545.566	406.38
545.779	434.38
545.993	420.38
546.206	433.38
546.42	423.38
546.633	428.38
546.847	412.38
547.06	416.38
547.274	438.38
547.487	420.38
547.7	422.38
547.914	410.38
548.127	407.38
548.34	410.38
548.554	423.38
548.767	413.38
548.98	425.38
549.193	404.38
549.407	437.38
549.62	422.38
549.833	430.38
550.046	448.38
550.259	416.38
550.473	401.38
550.686	412.38
550.899	403.38
551.112	415.38
551.325	388.38
551.538	411.38
551.751	400.38
551.964	402.38
552.177	391.38
552.39	386.38
552.603	431.38
552.816	432.38
553.029	421.38
553.242	453.38
553.455	438.38
553.667	436.38
553.88	445.38
554.093	407.38
554.306	423.38
554.519	422.38
554.732	427.38
554.944	435.38
555.157	403.38
555.37	389.38
555.583	402.38
555.795	389.38
556.008	388.38
556.221	400.38
556.433	369.38
556.646	392.38
556.859	379.38
557.071	356.38
557.284	360.38
557.496	372.38
557.709	364.38
557.921	358.38
558.134	375.38
558.346	363.38
558.559	368.38
558.771	362.38
558.984	359.38
559.196	372.38
559.409	386.38
559.621	350.38
559.833	336.38
560.046	349.38
560.258	340.38
560.47	370.38
560.683	348.38
560.895	358.38
561.107	355.38
561.32	358.38
561.532	356.38
561.744	347.38
561.956	359.38
562.168	366.38
562.381	352.38
562.593	351.38
562.805	340.38
563.017	346.38
563.229	378.38
563.441	378.38
563.653	374.38
563.865	364.38
564.077	375.38
564.289	351.38
564.501	377.38
564.713	378.38
564.925	396.38
565.137	411.38
565.349	398.38
565.561	398.38
565.773	401.38
565.985	404.38
566.197	420.38
566.408	456.38
566.62	490.38
566.832	500.38
567.044	538.38
567.255	539.38
567.467	530.38
567.679	558.38
567.891	591.38
568.102	563.38
568.314	546.38
568.526	519.38
568.737	502.38
568.949	458.38
569.161	426.38
569.372	392.38
569.584	389.38
569.795	395.38
570.007	360.38
570.218	394.38
570.43	393.38
570.641	364.38
570.853	357.38
571.064	366.38
571.276	355.38
571.487	362.38
571.698	345.38
571.91	356.38
572.121	330.38
572.333	322.38
572.544	314.38
572.755	314.38
572.966	319.38
573.178	302.38
573.389	302.38
573.6	304.38
573.811	291.38
574.023	307.38
574.234	277.38
574.445	314.38
574.656	314.38
574.867	298.38
575.078	304.38
575.289	301.38
575.501	323.38
575.712	294.38
575.923	309.38
576.134	306.38
576.345	301.38
576.556	300.38
576.767	296.38
576.978	295.38
577.188	283.38
577.399	297.38
577.61	291.38
577.821	309.38
578.032	287.38
578.243	306.38
578.454	423.38
578.665	319.38
578.875	285.38
579.086	259.38
579.297	285.38
579.508	289.38
579.718	279.38
579.929	280.38
580.14	279.38
580.35	287.38
580.561	259.38
580.772	256.38
580.982	259.38
581.193	292.38
581.403	281.38
581.614	282.38
581.825	262.38
582.035	269.38
582.246	279.38
582.456	266.38
582.667	268.38
582.877	278.38
583.087	266.38
583.298	262.38
583.508	273.38
583.719	275.38
583.929	275.38
584.139	268.38
584.35	283.38
584.56	277.38
584.77	259.38
584.981	284.38
585.191	266.38
585.401	252.38
585.611	270.38
585.821	260.38
586.032	259.38
586.242	249.38
586.452	262.38
586.662	272.38
586.872	247.38
587.082	263.38
587.292	253.38
587.502	256.38
587.713	263.38
587.923	276.38
588.133	286.38
588.343	246.38
588.553	263.38
588.762	262.38
588.972	269.38
589.182	295.38
589.392	301.38
589.602	270.38
589.812	278.38
590.022	292.38
590.232	271.38
590.441	284.38
590.651	268.38
590.861	260.38
591.071	255.38
591.281	255.38
591.49	283.38
591.7	278.38
591.91	275.38
592.119	266.38
592.329	289.38
592.539	306.38
592.748	286.38
592.958	282.38
593.167	313.38
593.377	306.38
593.587	318.38
593.796	319.38
594.006	319.38
594.215	330.38
594.424	316.38
594.634	306.38
594.843	306.38
595.053	293.38
595.262	290.38
595.472	290.38
595.681	269.38
595.89	256.38
596.1	276.38
596.309	258.38
596.518	264.38
596.727	245.38
596.937	258.38
597.146	272.38
597.355	248.38
597.564	245.38
597.774	247.38
597.983	245.38
598.192	229.38
598.401	254.38
598.61	246.38
598.819	229.38
599.028	245.38
599.237	232.38
599.446	230.38
599.655	247.38
599.864	228.38
600.073	230.38
600.282	232.38
600.491	226.38
600.7	236.38
600.909	221.38
601.118	231.38
601.327	235.38
601.536	226.38
601.745	243.38
601.953	242.38
602.162	228.38
602.371	232.38
602.58	233.38
602.789	223.38
602.997	210.38
603.206	206.38
603.415	244.38
603.623	225.38
603.832	245.38
604.041	239.38
604.249	203.38
604.458	228.38
604.666	222.38
604.875	217.38
605.084	222.38
605.292	235.38
605.501	223.38
605.709	207.38
605.918	220.38
606.126	224.38
606.334	209.38
606.543	209.38
606.751	242.38
606.96	210.38
607.168	215.38
607.376	209.38
607.585	225.38
607.793	219.38
608.001	216.38
608.21	200.38
608.418	231.38
608.626	229.38
608.834	234.38
609.043	211.38
609.251	218.38
609.459	208.38
609.667	225.38
609.875	240.38
610.083	203.38
610.291	238.38
610.499	222.38
610.707	217.38
610.916	203.38
611.124	238.38
611.332	220.38
611.54	212.38
611.748	215.38
611.955	192.38
612.163	217.38
612.371	220.38
612.579	211.38
612.787	225.38
612.995	201.38
613.203	226.38
613.411	193.38
613.618	229.38
613.826	223.38
614.034	206.38
614.242	224.38
614.449	209.38
614.657	223.38
614.865	214.38
615.072	197.38
615.28	212.38
615.488	209.38
615.695	209.38
615.903	211.38
616.111	212.38
616.318	220.38
616.526	232.38
616.733	210.38
616.941	221.38
617.148	214.38
617.356	218.38
617.563	220.38
617.771	210.38
617.978	204.38
618.185	210.38
618.393	207.38
618.6	199.38
618.807	206.38
619.015	224.38
619.222	215.38
619.429	203.38
619.637	208.38
619.844	206.38
620.051	216.38
620.258	199.38
620.466	210.38
620.673	187.38
620.88	196.38
621.087	198.38
621.294	198.38
621.501	203.38
621.708	207.38
621.915	208.38
622.122	205.38
622.329	194.38
622.536	218.38
622.743	189.38
622.95	204.38
623.157	190.38
623.364	210.38
623.571	196.38
623.778	193.38
623.985	200.38
624.192	221.38
624.399	194.38
624.606	195.38
624.812	192.38
625.019	189.38
625.226	190.38
625.433	198.38
625.639	203.38
625.846	190.38
626.053	184.38
626.259	191.38
626.466	179.38
626.673	165.38
626.879	181.38
627.086	172.38
627.293	188.38
627.499	183.38
627.706	184.38
627.912	182.38
628.119	195.38
628.325	189.38
628.532	171.38
628.738	184.38
628.945	189.38
629.151	179.38
629.357	172.38
629.564	177.38
629.77	177.38
629.976	172.38
630.183	181.38
630.389	191.38
630.595	167.38
630.802	166.38
631.008	166.38
631.214	180.38
631.42	184.38
631.627	189.38
631.833	174.38
632.039	174.38
632.245	163.38
632.451	173.38
632.657	173.38
632.863	179.38
633.069	156.38
633.275	163.38
633.481	174.38
633.688	157.38
633.893	162.38
634.099	190.38
634.305	159.38
634.511	167.38
634.717	171.38
634.923	169.38
635.129	160.38
635.335	162.38
635.541	164.38
635.747	159.38
635.952	194.38
636.158	174.38
636.364	189.38
636.57	166.38
636.775	160.38
636.981	176.38
637.187	165.38
637.392	182.38
637.598	177.38
637.804	169.38
638.009	162.38
638.215	162.38
638.421	153.38
638.626	157.38
638.832	167.38
639.037	162.38
639.243	172.38
639.448	170.38
639.654	162.38
639.859	165.38
640.065	152.38
640.27	165.38
640.475	162.38
640.681	171.38
640.886	152.38
641.091	168.38
641.297	166.38
641.502	142.38
641.707	169.38
641.913	165.38
642.118	164.38
642.323	143.38
642.528	158.38
642.733	162.38
642.939	151.38
643.144	156.38
643.349	148.38
643.554	156.38
643.759	159.38
643.964	168.38
644.169	150.38
644.374	159.38
644.579	128.38
644.784	151.38
644.989	141.38
645.194	147.38
645.399	157.38
645.604	142.38
645.809	144.38
646.014	149.38
646.219	150.38
646.423	146.38
646.628	173.38
646.833	158.38
647.038	156.38
647.243	143.38
647.447	150.38
647.652	141.38
647.857	155.38
648.062	160.38
648.266	176.38
648.471	156.38
648.676	162.38
648.88	156.38
649.085	163.38
649.289	156.38
649.494	165.38
649.698	168.38
649.903	159.38
650.107	139.38
650.312	165.38
650.516	149.38
650.721	148.38
650.925	139.38
651.13	162.38
651.334	144.38
651.539	127.38
651.743	130.38
651.947	152.38
652.152	140.38
652.356	131.38
652.56	150.38
652.764	147.38
652.969	134.38
653.173	136.38
653.377	124.38
653.581	145.38
653.785	133.38
653.99	141.38
654.194	125.38
654.398	139.38
654.602	128.38
654.806	134.38
655.01	130.38
655.214	132.38
655.418	127.38
655.622	138.38
655.826	124.38
656.03	126.38
656.234	133.38
656.438	142.38
656.642	143.38
656.846	128.38
657.049	127.38
657.253	105.38
657.457	130.38
657.661	108.38
657.865	106.38
658.068	115.38
658.272	111.38
658.476	110.38
658.68	101.38
658.883	93.38
659.087	102.38
659.291	105.38
659.494	102.38
659.698	91.38
659.901	94.38
660.105	104.38
660.309	98.38
660.512	96.38
660.716	83.38
660.919	88.38
661.123	98.38
661.326	91.38
661.53	85.38
661.733	93.38
661.936	90.38
662.14	82.38
662.343	101.38
662.546	78.38
662.75	74.38
662.953	74.38
663.156	74.38
663.36	90.38
663.563	87.38
663.766	82.38
663.969	70.38
664.173	78.38
664.376	83.38
664.579	70.38
664.782	90.38
664.985	75.38
665.188	70.38
665.391	80.38
665.594	82.38
665.797	90.38
666	83.38
666.203	82.38
666.406	100.38
666.609	72.38
666.812	71.38
667.015	102.38
667.218	97.38
667.421	72.38
667.624	82.38
667.827	91.38
668.03	84.38
668.232	78.38
668.435	78.38
668.638	89.38
668.841	90.38
669.043	71.38
669.246	88.38
669.449	84.38
669.651	82.38
669.854	71.38
670.057	77.38
670.259	77.38
670.462	90.38
670.665	77.38
670.867	86.38
671.07	64.38
671.272	93.38
671.475	94.38
671.677	81.38
671.88	84.38
672.082	73.38
672.284	101.38
672.487	82.38
672.689	89.38
672.892	91.38
