Data from 1961.PennyLincolnUp.Lamp.En5.5.200Scan.071719.P1._HRD10591_13-46-20-057.txt Node
Date: Thu Jul 18 13:46:20 EDT 2019
User: cochatt
Spectrometer: HR+D1059
Trigger mode: 1
Integration Time (sec): 1.000000E-1
Scans to average: 1
Electric dark correction enabled: true
Nonlinearity correction enabled: false
Boxcar width: 0
XAxis mode: Wavelengths
Number of Pixels in Spectrum: 2048
>>>>>Begin Spectral Data<<<<<
223.165	-14.94
223.4	-14.94
223.635	-14.94
223.869	-9.94
224.104	-7.94
224.338	-19.94
224.573	-1.94
224.808	-11.94
225.042	-16.94
225.277	-7.94
225.511	-14.94
225.746	3.06
225.98	6.06
226.215	14.06
226.449	11.06
226.683	29.06
226.918	15.06
227.152	28.06
227.387	29.06
227.621	32.06
227.856	41.06
228.09	24.06
228.324	39.06
228.559	46.06
228.793	68.06
229.027	76.06
229.262	94.06
229.496	76.06
229.73	97.06
229.964	114.06
230.199	100.06
230.433	77.06
230.667	89.06
230.901	110.06
231.136	88.06
231.37	87.06
231.604	89.06
231.838	92.06
232.072	101.06
232.306	89.06
232.541	97.06
232.775	79.06
233.009	94.06
233.243	104.06
233.477	92.06
233.711	107.06
233.945	103.06
234.179	96.06
234.413	104.06
234.647	102.06
234.881	98.06
235.115	91.06
235.349	97.06
235.583	106.06
235.817	91.06
236.051	94.06
236.285	96.06
236.519	104.06
236.753	108.06
236.987	110.06
237.221	121.06
237.455	144.06
237.689	132.06
237.922	98.06
238.156	96.06
238.39	108.06
238.624	93.06
238.858	105.06
239.091	98.06
239.325	96.06
239.559	115.06
239.793	108.06
240.027	100.06
240.26	94.06
240.494	111.06
240.728	114.06
240.961	95.06
241.195	120.06
241.429	107.06
241.662	108.06
241.896	91.06
242.13	110.06
242.363	109.06
242.597	117.06
242.83	110.06
243.064	101.06
243.298	93.06
243.531	112.06
243.765	101.06
243.998	103.06
244.232	110.06
244.465	95.06
244.699	117.06
244.932	115.06
245.166	123.06
245.399	106.06
245.633	120.06
245.866	110.06
246.099	122.06
246.333	114.06
246.566	123.06
246.8	117.06
247.033	104.06
247.266	123.06
247.5	113.06
247.733	128.06
247.966	136.06
248.2	135.06
248.433	108.06
248.666	139.06
248.899	124.06
249.133	140.06
249.366	146.06
249.599	124.06
249.832	140.06
250.066	115.06
250.299	129.06
250.532	130.06
250.765	129.06
250.998	134.06
251.231	145.06
251.465	144.06
251.698	140.06
251.931	121.06
252.164	140.06
252.397	126.06
252.63	145.06
252.863	140.06
253.096	148.06
253.329	156.06
253.562	149.06
253.795	138.06
254.028	146.06
254.261	140.06
254.494	153.06
254.727	161.06
254.96	167.06
255.193	176.06
255.426	171.06
255.659	140.06
255.892	148.06
256.124	153.06
256.357	150.06
256.59	173.06
256.823	168.06
257.056	169.06
257.289	162.06
257.521	150.06
257.754	156.06
257.987	145.06
258.22	141.06
258.452	142.06
258.685	145.06
258.918	138.06
259.151	145.06
259.383	159.06
259.616	162.06
259.849	163.06
260.081	157.06
260.314	165.06
260.547	157.06
260.779	140.06
261.012	151.06
261.244	144.06
261.477	149.06
261.71	151.06
261.942	134.06
262.175	164.06
262.407	162.06
262.64	154.06
262.872	157.06
263.105	146.06
263.337	154.06
263.57	144.06
263.802	148.06
264.035	144.06
264.267	140.06
264.499	138.06
264.732	142.06
264.964	140.06
265.197	146.06
265.429	158.06
265.661	151.06
265.894	140.06
266.126	141.06
266.358	151.06
266.591	161.06
266.823	155.06
267.055	159.06
267.287	151.06
267.52	130.06
267.752	149.06
267.984	157.06
268.216	151.06
268.448	165.06
268.681	155.06
268.913	146.06
269.145	149.06
269.377	173.06
269.609	169.06
269.841	172.06
270.073	170.06
270.306	182.06
270.538	200.06
270.77	180.06
271.002	186.06
271.234	168.06
271.466	185.06
271.698	187.06
271.93	188.06
272.162	196.06
272.394	193.06
272.626	194.06
272.858	188.06
273.09	162.06
273.322	161.06
273.553	185.06
273.785	185.06
274.017	193.06
274.249	171.06
274.481	166.06
274.713	166.06
274.945	176.06
275.176	174.06
275.408	165.06
275.64	183.06
275.872	170.06
276.104	170.06
276.335	186.06
276.567	179.06
276.799	184.06
277.031	185.06
277.262	206.06
277.494	195.06
277.726	186.06
277.957	173.06
278.189	161.06
278.421	184.06
278.652	180.06
278.884	176.06
279.115	172.06
279.347	163.06
279.579	180.06
279.81	177.06
280.042	178.06
280.273	179.06
280.505	196.06
280.736	171.06
280.968	168.06
281.199	163.06
281.431	184.06
281.662	172.06
281.894	174.06
282.125	190.06
282.356	197.06
282.588	202.06
282.819	192.06
283.051	149.06
283.282	169.06
283.513	187.06
283.745	177.06
283.976	187.06
284.207	174.06
284.439	186.06
284.67	196.06
284.901	178.06
285.132	175.06
285.364	181.06
285.595	189.06
285.826	189.06
286.057	181.06
286.288	187.06
286.52	188.06
286.751	187.06
286.982	195.06
287.213	197.06
287.444	184.06
287.675	184.06
287.906	189.06
288.138	189.06
288.369	186.06
288.6	192.06
288.831	186.06
289.062	195.06
289.293	186.06
289.524	179.06
289.755	192.06
289.986	181.06
290.217	198.06
290.448	187.06
290.679	211.06
290.91	200.06
291.141	198.06
291.371	203.06
291.602	180.06
291.833	208.06
292.064	177.06
292.295	192.06
292.526	184.06
292.757	209.06
292.987	188.06
293.218	188.06
293.449	189.06
293.68	188.06
293.91	174.06
294.141	186.06
294.372	188.06
294.603	184.06
294.833	213.06
295.064	187.06
295.295	203.06
295.525	206.06
295.756	197.06
295.987	204.06
296.217	192.06
296.448	210.06
296.679	193.06
296.909	194.06
297.14	191.06
297.37	206.06
297.601	187.06
297.831	206.06
298.062	197.06
298.292	200.06
298.523	204.06
298.753	196.06
298.984	182.06
299.214	197.06
299.445	198.06
299.675	194.06
299.905	206.06
300.136	190.06
300.366	189.06
300.597	208.06
300.827	207.06
301.057	203.06
301.288	210.06
301.518	207.06
301.748	210.06
301.979	207.06
302.209	216.06
302.439	208.06
302.669	213.06
302.9	214.06
303.13	217.06
303.36	213.06
303.59	208.06
303.82	223.06
304.051	204.06
304.281	213.06
304.511	211.06
304.741	234.06
304.971	214.06
305.201	202.06
305.431	204.06
305.661	211.06
305.891	208.06
306.121	203.06
306.352	216.06
306.582	211.06
306.812	215.06
307.042	194.06
307.272	198.06
307.502	219.06
307.731	206.06
307.961	223.06
308.191	205.06
308.421	211.06
308.651	211.06
308.881	201.06
309.111	229.06
309.341	220.06
309.571	217.06
309.8	237.06
310.03	268.06
310.26	240.06
310.49	250.06
310.72	249.06
310.949	230.06
311.179	242.06
311.409	226.06
311.639	239.06
311.868	244.06
312.098	243.06
312.328	236.06
312.557	248.06
312.787	251.06
313.017	267.06
313.246	257.06
313.476	249.06
313.706	231.06
313.935	255.06
314.165	245.06
314.394	271.06
314.624	243.06
314.853	236.06
315.083	224.06
315.312	256.06
315.542	244.06
315.771	230.06
316.001	239.06
316.23	232.06
316.46	229.06
316.689	236.06
316.919	224.06
317.148	259.06
317.377	252.06
317.607	239.06
317.836	236.06
318.065	242.06
318.295	252.06
318.524	248.06
318.753	237.06
318.983	268.06
319.212	235.06
319.441	233.06
319.67	252.06
319.9	227.06
320.129	243.06
320.358	251.06
320.587	244.06
320.816	254.06
321.046	267.06
321.275	241.06
321.504	242.06
321.733	255.06
321.962	273.06
322.191	262.06
322.42	283.06
322.649	288.06
322.878	282.06
323.108	304.06
323.337	285.06
323.566	325.06
323.795	318.06
324.024	339.06
324.253	411.06
324.482	563.06
324.71	866.06
324.939	1211.06
325.168	1028.06
325.397	554.06
325.626	370.06
325.855	341.06
326.084	327.06
326.313	310.06
326.542	312.06
326.77	337.06
326.999	399.06
327.228	546.06
327.457	767.06
327.686	884.06
327.914	601.06
328.143	422.06
328.372	375.06
328.6	367.06
328.829	339.06
329.058	349.06
329.287	345.06
329.515	312.06
329.744	334.06
329.972	313.06
330.201	322.06
330.43	340.06
330.658	353.06
330.887	373.06
331.115	337.06
331.344	332.06
331.572	312.06
331.801	296.06
332.03	312.06
332.258	293.06
332.486	296.06
332.715	295.06
332.943	294.06
333.172	276.06
333.4	297.06
333.629	304.06
333.857	281.06
334.085	308.06
334.314	314.06
334.542	326.06
334.771	320.06
334.999	312.06
335.227	292.06
335.455	302.06
335.684	291.06
335.912	269.06
336.14	296.06
336.369	287.06
336.597	296.06
336.825	293.06
337.053	278.06
337.281	274.06
337.51	278.06
337.738	266.06
337.966	254.06
338.194	290.06
338.422	275.06
338.65	296.06
338.878	282.06
339.106	277.06
339.334	276.06
339.562	285.06
339.79	250.06
340.018	285.06
340.246	258.06
340.474	274.06
340.702	281.06
340.93	286.06
341.158	262.06
341.386	275.06
341.614	282.06
341.842	291.06
342.07	273.06
342.298	273.06
342.526	280.06
342.754	268.06
342.981	273.06
343.209	273.06
343.437	288.06
343.665	270.06
343.893	275.06
344.12	291.06
344.348	284.06
344.576	280.06
344.804	281.06
345.031	275.06
345.259	285.06
345.487	294.06
345.714	292.06
345.942	268.06
346.17	280.06
346.397	254.06
346.625	292.06
346.853	279.06
347.08	276.06
347.308	269.06
347.535	274.06
347.763	273.06
347.99	278.06
348.218	284.06
348.445	285.06
348.673	259.06
348.9	278.06
349.128	270.06
349.355	257.06
349.583	254.06
349.81	265.06
350.037	266.06
350.265	273.06
350.492	254.06
350.72	260.06
350.947	269.06
351.174	268.06
351.402	282.06
351.629	264.06
351.856	275.06
352.083	275.06
352.311	267.06
352.538	284.06
352.765	270.06
352.992	269.06
353.22	281.06
353.447	280.06
353.674	265.06
353.901	260.06
354.128	273.06
354.355	262.06
354.583	274.06
354.81	261.06
355.037	267.06
355.264	267.06
355.491	237.06
355.718	275.06
355.945	250.06
356.172	268.06
356.399	262.06
356.626	267.06
356.853	241.06
357.08	259.06
357.307	260.06
357.534	265.06
357.761	270.06
357.988	285.06
358.215	227.06
358.441	256.06
358.668	250.06
358.895	252.06
359.122	267.06
359.349	260.06
359.576	252.06
359.802	257.06
360.029	291.06
360.256	298.06
360.483	289.06
360.709	275.06
360.936	262.06
361.163	291.06
361.39	266.06
361.616	262.06
361.843	265.06
362.07	263.06
362.296	276.06
362.523	276.06
362.749	271.06
362.976	257.06
363.203	258.06
363.429	257.06
363.656	255.06
363.882	267.06
364.109	251.06
364.335	270.06
364.562	259.06
364.788	257.06
365.015	256.06
365.241	264.06
365.468	272.06
365.694	271.06
365.92	273.06
366.147	268.06
366.373	261.06
366.599	287.06
366.826	272.06
367.052	273.06
367.278	259.06
367.505	269.06
367.731	261.06
367.957	262.06
368.184	253.06
368.41	260.06
368.636	261.06
368.862	277.06
369.089	274.06
369.315	257.06
369.541	267.06
369.767	266.06
369.993	271.06
370.219	268.06
370.445	257.06
370.672	287.06
370.898	263.06
371.124	256.06
371.35	277.06
371.576	258.06
371.802	268.06
372.028	262.06
372.254	272.06
372.48	258.06
372.706	277.06
372.932	273.06
373.158	280.06
373.384	271.06
373.61	260.06
373.835	273.06
374.061	258.06
374.287	266.06
374.513	262.06
374.739	290.06
374.965	277.06
375.191	267.06
375.416	276.06
375.642	250.06
375.868	272.06
376.094	281.06
376.319	256.06
376.545	280.06
376.771	257.06
376.997	267.06
377.222	274.06
377.448	266.06
377.674	262.06
377.899	250.06
378.125	292.06
378.35	275.06
378.576	262.06
378.802	287.06
379.027	263.06
379.253	248.06
379.478	266.06
379.704	272.06
379.929	288.06
380.155	261.06
380.38	273.06
380.606	258.06
380.831	275.06
381.057	306.06
381.282	266.06
381.507	279.06
381.733	270.06
381.958	241.06
382.184	285.06
382.409	298.06
382.634	280.06
382.86	263.06
383.085	300.06
383.31	284.06
383.535	272.06
383.761	304.06
383.986	290.06
384.211	289.06
384.436	278.06
384.662	275.06
384.887	282.06
385.112	263.06
385.337	289.06
385.562	296.06
385.787	281.06
386.013	301.06
386.238	300.06
386.463	283.06
386.688	282.06
386.913	277.06
387.138	297.06
387.363	306.06
387.588	310.06
387.813	277.06
388.038	306.06
388.263	288.06
388.488	302.06
388.713	300.06
388.938	275.06
389.163	283.06
389.387	318.06
389.612	293.06
389.837	309.06
390.062	285.06
390.287	294.06
390.512	289.06
390.736	281.06
390.961	303.06
391.186	309.06
391.411	297.06
391.636	297.06
391.86	291.06
392.085	302.06
392.31	302.06
392.534	325.06
392.759	286.06
392.984	310.06
393.208	313.06
393.433	307.06
393.658	324.06
393.882	296.06
394.107	292.06
394.331	290.06
394.556	314.06
394.78	296.06
395.005	285.06
395.229	293.06
395.454	285.06
395.678	321.06
395.903	322.06
396.127	310.06
396.352	321.06
396.576	313.06
396.801	312.06
397.025	314.06
397.249	313.06
397.474	310.06
397.698	312.06
397.922	322.06
398.147	336.06
398.371	324.06
398.595	319.06
398.82	318.06
399.044	330.06
399.268	352.06
399.492	366.06
399.717	362.06
399.941	379.06
400.165	409.06
400.389	392.06
400.613	370.06
400.837	348.06
401.062	348.06
401.286	337.06
401.51	332.06
401.734	331.06
401.958	326.06
402.182	334.06
402.406	352.06
402.63	317.06
402.854	332.06
403.078	345.06
403.302	332.06
403.526	354.06
403.75	350.06
403.974	329.06
404.198	333.06
404.422	352.06
404.645	340.06
404.869	345.06
405.093	376.06
405.317	380.06
405.541	400.06
405.765	368.06
405.988	362.06
406.212	361.06
406.436	370.06
406.66	368.06
406.883	359.06
407.107	372.06
407.331	396.06
407.555	446.06
407.778	420.06
408.002	387.06
408.226	379.06
408.449	393.06
408.673	367.06
408.896	381.06
409.12	407.06
409.344	416.06
409.567	373.06
409.791	369.06
410.014	353.06
410.238	361.06
410.461	350.06
410.685	350.06
410.908	361.06
411.132	374.06
411.355	396.06
411.578	408.06
411.802	345.06
412.025	358.06
412.249	352.06
412.472	379.06
412.695	372.06
412.919	387.06
413.142	357.06
413.365	356.06
413.589	353.06
413.812	344.06
414.035	341.06
414.258	339.06
414.482	341.06
414.705	341.06
414.928	335.06
415.151	320.06
415.374	312.06
415.597	332.06
415.821	333.06
416.044	317.06
416.267	316.06
416.49	317.06
416.713	325.06
416.936	321.06
417.159	318.06
417.382	332.06
417.605	317.06
417.828	327.06
418.051	344.06
418.274	348.06
418.497	324.06
418.72	327.06
418.943	325.06
419.166	355.06
419.389	351.06
419.611	349.06
419.834	357.06
420.057	314.06
420.28	344.06
420.503	334.06
420.726	344.06
420.948	363.06
421.171	373.06
421.394	395.06
421.617	353.06
421.839	342.06
422.062	349.06
422.285	351.06
422.507	370.06
422.73	420.06
422.953	424.06
423.175	373.06
423.398	360.06
423.621	365.06
423.843	351.06
424.066	355.06
424.288	366.06
424.511	372.06
424.733	405.06
424.956	451.06
425.178	429.06
425.401	460.06
425.623	442.06
425.846	384.06
426.068	361.06
426.291	372.06
426.513	366.06
426.735	370.06
426.958	364.06
427.18	453.06
427.402	510.06
427.625	576.06
427.847	477.06
428.069	428.06
428.292	404.06
428.514	372.06
428.736	366.06
428.958	366.06
429.181	357.06
429.403	348.06
429.625	351.06
429.847	376.06
430.069	406.06
430.292	406.06
430.514	350.06
430.736	355.06
430.958	346.06
431.18	332.06
431.402	320.06
431.624	321.06
431.846	323.06
432.068	321.06
432.29	336.06
432.512	330.06
432.734	334.06
432.956	326.06
433.178	324.06
433.4	342.06
433.622	334.06
433.844	304.06
434.066	334.06
434.287	341.06
434.509	326.06
434.731	339.06
434.953	351.06
435.175	338.06
435.397	364.06
435.618	372.06
435.84	400.06
436.062	443.06
436.284	502.06
436.505	413.06
436.727	378.06
436.949	361.06
437.17	366.06
437.392	350.06
437.614	343.06
437.835	381.06
438.057	426.06
438.278	485.06
438.5	507.06
438.721	552.06
438.943	504.06
439.165	404.06
439.386	367.06
439.608	376.06
439.829	378.06
440.05	388.06
440.272	428.06
440.493	382.06
440.715	363.06
440.936	363.06
441.158	365.06
441.379	344.06
441.6	364.06
441.822	366.06
442.043	388.06
442.264	436.06
442.486	460.06
442.707	418.06
442.928	368.06
443.149	380.06
443.371	394.06
443.592	436.06
443.813	484.06
444.034	506.06
444.255	430.06
444.476	380.06
444.698	381.06
444.919	363.06
445.14	489.06
445.361	436.06
445.582	389.06
445.803	416.06
446.024	491.06
446.245	480.06
446.466	456.06
446.687	399.06
446.908	353.06
447.129	364.06
447.35	340.06
447.571	339.06
447.792	342.06
448.013	364.06
448.234	345.06
448.455	372.06
448.675	462.06
448.896	517.06
449.117	460.06
449.338	424.06
449.559	501.06
449.779	551.06
450	432.06
450.221	384.06
450.442	341.06
450.662	321.06
450.883	345.06
451.104	348.06
451.324	330.06
451.545	332.06
451.766	332.06
451.986	309.06
452.207	321.06
452.428	325.06
452.648	300.06
452.869	285.06
453.089	323.06
453.31	313.06
453.53	314.06
453.751	289.06
453.971	317.06
454.192	321.06
454.412	312.06
454.633	311.06
454.853	296.06
455.073	304.06
455.294	317.06
455.514	376.06
455.734	364.06
455.955	305.06
456.175	330.06
456.395	302.06
456.616	317.06
456.836	297.06
457.056	298.06
457.276	307.06
457.497	295.06
457.717	317.06
457.937	317.06
458.157	309.06
458.377	305.06
458.598	325.06
458.818	374.06
459.038	374.06
459.258	409.06
459.478	346.06
459.698	334.06
459.918	332.06
460.138	332.06
460.358	328.06
460.578	326.06
460.798	327.06
461.018	349.06
461.238	345.06
461.458	344.06
461.678	336.06
461.898	334.06
462.118	344.06
462.338	334.06
462.558	353.06
462.777	338.06
462.997	344.06
463.217	352.06
463.437	333.06
463.657	361.06
463.876	353.06
464.096	351.06
464.316	361.06
464.536	358.06
464.755	374.06
464.975	347.06
465.195	372.06
465.414	388.06
465.634	382.06
465.854	368.06
466.073	345.06
466.293	337.06
466.512	334.06
466.732	321.06
466.951	339.06
467.171	326.06
467.391	323.06
467.61	333.06
467.829	339.06
468.049	326.06
468.268	334.06
468.488	321.06
468.707	323.06
468.927	339.06
469.146	320.06
469.365	310.06
469.585	321.06
469.804	323.06
470.023	339.06
470.243	326.06
470.462	329.06
470.681	346.06
470.901	336.06
471.12	304.06
471.339	330.06
471.558	336.06
471.777	304.06
471.997	319.06
472.216	336.06
472.435	358.06
472.654	334.06
472.873	331.06
473.092	329.06
473.311	351.06
473.53	333.06
473.749	348.06
473.968	354.06
474.187	394.06
474.406	393.06
474.625	359.06
474.844	342.06
475.063	355.06
475.282	333.06
475.501	340.06
475.72	333.06
475.939	339.06
476.158	340.06
476.377	329.06
476.596	335.06
476.814	348.06
477.033	341.06
477.252	335.06
477.471	353.06
477.69	362.06
477.908	368.06
478.127	369.06
478.346	364.06
478.564	371.06
478.783	353.06
479.002	358.06
479.22	369.06
479.439	386.06
479.658	370.06
479.876	398.06
480.095	373.06
480.313	412.06
480.532	427.06
480.751	398.06
480.969	388.06
481.188	440.06
481.406	478.06
481.624	402.06
481.843	402.06
482.061	408.06
482.28	409.06
482.498	391.06
482.717	397.06
482.935	373.06
483.153	389.06
483.372	367.06
483.59	387.06
483.808	388.06
484.027	403.06
484.245	375.06
484.463	388.06
484.681	391.06
484.9	401.06
485.118	406.06
485.336	401.06
485.554	417.06
485.772	401.06
485.99	411.06
486.209	390.06
486.427	389.06
486.645	398.06
486.863	421.06
487.081	412.06
487.299	409.06
487.517	385.06
487.735	397.06
487.953	398.06
488.171	401.06
488.389	384.06
488.607	406.06
488.825	405.06
489.043	408.06
489.261	402.06
489.479	429.06
489.696	436.06
489.914	419.06
490.132	424.06
490.35	414.06
490.568	440.06
490.786	443.06
491.003	423.06
491.221	439.06
491.439	457.06
491.657	444.06
491.874	442.06
492.092	450.06
492.31	460.06
492.527	462.06
492.745	481.06
492.963	488.06
493.18	467.06
493.398	451.06
493.615	485.06
493.833	472.06
494.05	461.06
494.268	476.06
494.485	471.06
494.703	463.06
494.92	468.06
495.138	480.06
495.355	481.06
495.573	477.06
495.79	492.06
496.008	486.06
496.225	501.06
496.442	483.06
496.66	477.06
496.877	499.06
497.094	505.06
497.312	496.06
497.529	516.06
497.746	500.06
497.963	522.06
498.181	534.06
498.398	538.06
498.615	557.06
498.832	552.06
499.049	556.06
499.267	582.06
499.484	583.06
499.701	592.06
499.918	594.06
500.135	627.06
500.352	623.06
500.569	630.06
500.786	645.06
501.003	624.06
501.22	601.06
501.437	597.06
501.654	595.06
501.871	605.06
502.088	593.06
502.305	570.06
502.522	546.06
502.739	557.06
502.956	527.06
503.172	510.06
503.389	510.06
503.606	515.06
503.823	523.06
504.04	499.06
504.256	474.06
504.473	515.06
504.69	492.06
504.907	482.06
505.123	486.06
505.34	471.06
505.557	485.06
505.773	480.06
505.99	442.06
506.207	460.06
506.423	455.06
506.64	472.06
506.856	454.06
507.073	445.06
507.289	458.06
507.506	448.06
507.722	446.06
507.939	466.06
508.155	436.06
508.372	436.06
508.588	418.06
508.805	438.06
509.021	436.06
509.238	447.06
509.454	445.06
509.67	452.06
509.887	422.06
510.103	457.06
510.319	459.06
510.536	482.06
510.752	718.06
510.968	595.06
511.184	456.06
511.401	414.06
511.617	441.06
511.833	428.06
512.049	402.06
512.265	424.06
512.481	402.06
512.698	413.06
512.914	421.06
513.13	429.06
513.346	430.06
513.562	410.06
513.778	412.06
513.994	409.06
514.21	432.06
514.426	429.06
514.642	460.06
514.858	477.06
515.074	484.06
515.29	552.06
515.506	702.06
515.721	614.06
515.937	481.06
516.153	445.06
516.369	443.06
516.585	443.06
516.801	437.06
517.016	416.06
517.232	411.06
517.448	417.06
517.664	449.06
517.879	398.06
518.095	422.06
518.311	457.06
518.527	423.06
518.742	408.06
518.958	430.06
519.173	416.06
519.389	429.06
519.605	430.06
519.82	406.06
520.036	427.06
520.251	424.06
520.467	425.06
520.682	453.06
520.898	429.06
521.113	441.06
521.329	474.06
521.544	492.06
521.76	600.06
521.975	897.06
522.19	887.06
522.406	561.06
522.621	464.06
522.836	424.06
523.052	393.06
523.267	394.06
523.482	394.06
523.698	381.06
523.913	379.06
524.128	375.06
524.343	373.06
524.559	384.06
524.774	362.06
524.989	377.06
525.204	371.06
525.419	370.06
525.634	353.06
525.849	355.06
526.064	361.06
526.28	378.06
526.495	363.06
526.71	368.06
526.925	374.06
527.14	334.06
527.355	349.06
527.57	362.06
527.785	370.06
527.999	359.06
528.214	370.06
528.429	327.06
528.644	370.06
528.859	353.06
529.074	372.06
529.289	378.06
529.503	394.06
529.718	402.06
529.933	357.06
530.148	363.06
530.363	338.06
530.577	338.06
530.792	357.06
531.007	332.06
531.221	349.06
531.436	346.06
531.651	334.06
531.865	369.06
532.08	343.06
532.295	339.06
532.509	353.06
532.724	334.06
532.938	340.06
533.153	341.06
533.367	351.06
533.582	342.06
533.796	337.06
534.011	341.06
534.225	336.06
534.44	326.06
534.654	341.06
534.868	357.06
535.083	344.06
535.297	343.06
535.511	331.06
535.726	348.06
535.94	338.06
536.154	331.06
536.369	355.06
536.583	346.06
536.797	342.06
537.011	326.06
537.225	337.06
537.44	332.06
537.654	331.06
537.868	322.06
538.082	344.06
538.296	332.06
538.51	338.06
538.724	340.06
538.938	325.06
539.153	332.06
539.367	333.06
539.581	346.06
539.795	339.06
540.009	329.06
540.222	324.06
540.436	333.06
540.65	332.06
540.864	333.06
541.078	345.06
541.292	336.06
541.506	324.06
541.72	328.06
541.934	330.06
542.147	338.06
542.361	320.06
542.575	333.06
542.789	344.06
543.002	317.06
543.216	316.06
543.43	348.06
543.644	366.06
543.857	339.06
544.071	336.06
544.285	332.06
544.498	321.06
544.712	332.06
544.925	326.06
545.139	332.06
545.352	325.06
545.566	329.06
545.779	309.06
545.993	324.06
546.206	315.06
546.42	334.06
546.633	321.06
546.847	333.06
547.06	334.06
547.274	320.06
547.487	323.06
547.7	310.06
547.914	307.06
548.127	314.06
548.34	301.06
548.554	329.06
548.767	320.06
548.98	331.06
549.193	317.06
549.407	311.06
549.62	335.06
549.833	299.06
550.046	308.06
550.259	309.06
550.473	312.06
550.686	306.06
550.899	317.06
551.112	314.06
551.325	312.06
551.538	328.06
551.751	298.06
551.964	308.06
552.177	318.06
552.39	294.06
552.603	341.06
552.816	315.06
553.029	309.06
553.242	312.06
553.455	312.06
553.667	315.06
553.88	315.06
554.093	316.06
554.306	312.06
554.519	304.06
554.732	324.06
554.944	313.06
555.157	323.06
555.37	305.06
555.583	316.06
555.795	306.06
556.008	297.06
556.221	292.06
556.433	300.06
556.646	302.06
556.859	285.06
557.071	297.06
557.284	288.06
557.496	290.06
557.709	281.06
557.921	277.06
558.134	283.06
558.346	294.06
558.559	298.06
558.771	296.06
558.984	284.06
559.196	273.06
559.409	288.06
559.621	283.06
559.833	290.06
560.046	284.06
560.258	297.06
560.47	280.06
560.683	282.06
560.895	292.06
561.107	293.06
561.32	274.06
561.532	280.06
561.744	289.06
561.956	294.06
562.168	307.06
562.381	286.06
562.593	282.06
562.805	302.06
563.017	297.06
563.229	284.06
563.441	290.06
563.653	296.06
563.865	309.06
564.077	291.06
564.289	300.06
564.501	306.06
564.713	303.06
564.925	300.06
565.137	306.06
565.349	303.06
565.561	299.06
565.773	311.06
565.985	310.06
566.197	318.06
566.408	317.06
566.62	314.06
566.832	339.06
567.044	353.06
567.255	329.06
567.467	328.06
567.679	338.06
567.891	321.06
568.102	340.06
568.314	337.06
568.526	333.06
568.737	332.06
568.949	316.06
569.161	290.06
569.372	293.06
569.584	282.06
569.795	298.06
570.007	291.06
570.218	294.06
570.43	309.06
570.641	285.06
570.853	284.06
571.064	279.06
571.276	283.06
571.487	275.06
571.698	283.06
571.91	271.06
572.121	277.06
572.333	272.06
572.544	274.06
572.755	270.06
572.966	262.06
573.178	252.06
573.389	259.06
573.6	268.06
573.811	257.06
574.023	257.06
574.234	273.06
574.445	232.06
574.656	258.06
574.867	257.06
575.078	254.06
575.289	256.06
575.501	237.06
575.712	229.06
575.923	252.06
576.134	230.06
576.345	240.06
576.556	256.06
576.767	249.06
576.978	250.06
577.188	248.06
577.399	258.06
577.61	240.06
577.821	244.06
578.032	239.06
578.243	284.06
578.454	345.06
578.665	294.06
578.875	243.06
579.086	258.06
579.297	226.06
579.508	245.06
579.718	228.06
579.929	248.06
580.14	233.06
580.35	240.06
580.561	252.06
580.772	234.06
580.982	213.06
581.193	234.06
581.403	242.06
581.614	229.06
581.825	221.06
582.035	220.06
582.246	232.06
582.456	213.06
582.667	210.06
582.877	205.06
583.087	234.06
583.298	229.06
583.508	229.06
583.719	227.06
583.929	230.06
584.139	243.06
584.35	238.06
584.56	216.06
584.77	210.06
584.981	227.06
585.191	240.06
585.401	214.06
585.611	232.06
585.821	240.06
586.032	232.06
586.242	221.06
586.452	228.06
586.662	229.06
586.872	219.06
587.082	229.06
587.292	232.06
587.502	227.06
587.713	218.06
587.923	207.06
588.133	216.06
588.343	206.06
588.553	228.06
588.762	226.06
588.972	227.06
589.182	238.06
589.392	256.06
589.602	247.06
589.812	237.06
590.022	250.06
590.232	227.06
590.441	220.06
590.651	219.06
590.861	231.06
591.071	220.06
591.281	226.06
591.49	235.06
591.7	221.06
591.91	228.06
592.119	218.06
592.329	218.06
592.539	212.06
592.748	219.06
592.958	225.06
593.167	227.06
593.377	254.06
593.587	226.06
593.796	231.06
594.006	238.06
594.215	226.06
594.424	217.06
594.634	219.06
594.843	223.06
595.053	224.06
595.262	213.06
595.472	233.06
595.681	209.06
595.89	208.06
596.1	204.06
596.309	219.06
596.518	205.06
596.727	205.06
596.937	206.06
597.146	216.06
597.355	215.06
597.564	217.06
597.774	215.06
597.983	194.06
598.192	192.06
598.401	205.06
598.61	216.06
598.819	212.06
599.028	204.06
599.237	202.06
599.446	211.06
599.655	200.06
599.864	192.06
600.073	190.06
600.282	194.06
600.491	186.06
600.7	198.06
600.909	205.06
601.118	200.06
601.327	204.06
601.536	177.06
601.745	189.06
601.953	188.06
602.162	197.06
602.371	202.06
602.58	194.06
602.789	178.06
602.997	199.06
603.206	217.06
603.415	177.06
603.623	192.06
603.832	185.06
604.041	179.06
604.249	199.06
604.458	195.06
604.666	184.06
604.875	198.06
605.084	193.06
605.292	191.06
605.501	196.06
605.709	186.06
605.918	175.06
606.126	185.06
606.334	179.06
606.543	206.06
606.751	198.06
606.96	185.06
607.168	193.06
607.376	190.06
607.585	197.06
607.793	182.06
608.001	178.06
608.21	181.06
608.418	183.06
608.626	192.06
608.834	185.06
609.043	193.06
609.251	204.06
609.459	176.06
609.667	182.06
609.875	189.06
610.083	190.06
610.291	206.06
610.499	178.06
610.707	185.06
610.916	170.06
611.124	188.06
611.332	174.06
611.54	187.06
611.748	193.06
611.955	199.06
612.163	182.06
612.371	172.06
612.579	196.06
612.787	190.06
612.995	191.06
613.203	181.06
613.411	180.06
613.618	173.06
613.826	172.06
614.034	183.06
614.242	199.06
614.449	180.06
614.657	188.06
614.865	181.06
615.072	186.06
615.28	185.06
615.488	172.06
615.695	177.06
615.903	194.06
616.111	173.06
616.318	194.06
616.526	192.06
616.733	181.06
616.941	174.06
617.148	181.06
617.356	185.06
617.563	192.06
617.771	187.06
617.978	182.06
618.185	172.06
618.393	170.06
618.6	180.06
618.807	182.06
619.015	174.06
619.222	193.06
619.429	168.06
619.637	165.06
619.844	176.06
620.051	180.06
620.258	182.06
620.466	162.06
620.673	173.06
620.88	166.06
621.087	173.06
621.294	165.06
621.501	172.06
621.708	164.06
621.915	163.06
622.122	172.06
622.329	170.06
622.536	166.06
622.743	185.06
622.95	168.06
623.157	181.06
623.364	170.06
623.571	171.06
623.778	161.06
623.985	165.06
624.192	175.06
624.399	165.06
624.606	174.06
624.812	172.06
625.019	170.06
625.226	161.06
625.433	174.06
625.639	172.06
625.846	161.06
626.053	164.06
626.259	174.06
626.466	163.06
626.673	151.06
626.879	144.06
627.086	168.06
627.293	177.06
627.499	168.06
627.706	159.06
627.912	157.06
628.119	172.06
628.325	156.06
628.532	143.06
628.738	170.06
628.945	164.06
629.151	158.06
629.357	154.06
629.564	152.06
629.77	153.06
629.976	164.06
630.183	148.06
630.389	164.06
630.595	153.06
630.802	148.06
631.008	162.06
631.214	153.06
631.42	169.06
631.627	139.06
631.833	136.06
632.039	139.06
632.245	156.06
632.451	139.06
632.657	148.06
632.863	152.06
633.069	159.06
633.275	155.06
633.481	165.06
633.688	140.06
633.893	148.06
634.099	136.06
634.305	152.06
634.511	149.06
634.717	151.06
634.923	131.06
635.129	140.06
635.335	155.06
635.541	150.06
635.747	154.06
635.952	144.06
636.158	153.06
636.364	145.06
636.57	158.06
636.775	148.06
636.981	150.06
637.187	155.06
637.392	135.06
637.598	140.06
637.804	142.06
638.009	145.06
638.215	144.06
638.421	137.06
638.626	146.06
638.832	149.06
639.037	146.06
639.243	142.06
639.448	145.06
639.654	141.06
639.859	142.06
640.065	151.06
640.27	142.06
640.475	150.06
640.681	159.06
640.886	130.06
641.091	127.06
641.297	152.06
641.502	136.06
641.707	150.06
641.913	144.06
642.118	151.06
642.323	142.06
642.528	139.06
642.733	135.06
642.939	131.06
643.144	135.06
643.349	146.06
643.554	145.06
643.759	121.06
643.964	136.06
644.169	147.06
644.374	132.06
644.579	133.06
644.784	133.06
644.989	143.06
645.194	142.06
645.399	145.06
645.604	126.06
645.809	144.06
646.014	126.06
646.219	147.06
646.423	132.06
646.628	140.06
646.833	133.06
647.038	145.06
647.243	136.06
647.447	139.06
647.652	133.06
647.857	128.06
648.062	141.06
648.266	130.06
648.471	130.06
648.676	127.06
648.88	148.06
649.085	136.06
649.289	132.06
649.494	125.06
649.698	158.06
649.903	121.06
650.107	129.06
650.312	130.06
650.516	137.06
650.721	141.06
650.925	136.06
651.13	133.06
651.334	135.06
651.539	134.06
651.743	115.06
651.947	125.06
652.152	126.06
652.356	124.06
652.56	116.06
652.764	126.06
652.969	113.06
653.173	126.06
653.377	140.06
653.581	116.06
653.785	127.06
653.99	117.06
654.194	110.06
654.398	117.06
654.602	119.06
654.806	114.06
655.01	116.06
655.214	128.06
655.418	114.06
655.622	105.06
655.826	114.06
656.03	110.06
656.234	111.06
656.438	116.06
656.642	109.06
656.846	120.06
657.049	113.06
657.253	127.06
657.457	107.06
657.661	116.06
657.865	93.06
658.068	108.06
658.272	117.06
658.476	88.06
658.68	92.06
658.883	90.06
659.087	116.06
659.291	93.06
659.494	85.06
659.698	101.06
659.901	88.06
660.105	90.06
660.309	85.06
660.512	98.06
660.716	80.06
660.919	83.06
661.123	83.06
661.326	98.06
661.53	68.06
661.733	88.06
661.936	84.06
662.14	84.06
662.343	71.06
662.546	94.06
662.75	86.06
662.953	78.06
663.156	84.06
663.36	87.06
663.563	77.06
663.766	89.06
663.969	74.06
664.173	77.06
664.376	77.06
664.579	85.06
664.782	81.06
664.985	83.06
665.188	78.06
665.391	85.06
665.594	77.06
665.797	72.06
666	76.06
666.203	71.06
666.406	81.06
666.609	82.06
666.812	75.06
667.015	83.06
667.218	76.06
667.421	86.06
667.624	86.06
667.827	61.06
668.03	81.06
668.232	79.06
668.435	81.06
668.638	78.06
668.841	91.06
669.043	79.06
669.246	80.06
669.449	73.06
669.651	83.06
669.854	68.06
670.057	85.06
670.259	69.06
670.462	83.06
670.665	92.06
670.867	80.06
671.07	85.06
671.272	85.06
671.475	77.06
671.677	70.06
671.88	60.06
672.082	63.06
672.284	71.06
672.487	78.06
672.689	70.06
672.892	74.06
