Data from 1961.PennyLincolnUp.Lamp.En5.5.200Scan.071719.P1._HRD10591_13-46-48-058.txt Node
Date: Thu Jul 18 13:46:48 EDT 2019
User: cochatt
Spectrometer: HR+D1059
Trigger mode: 1
Integration Time (sec): 1.000000E-1
Scans to average: 1
Electric dark correction enabled: true
Nonlinearity correction enabled: false
Boxcar width: 0
XAxis mode: Wavelengths
Number of Pixels in Spectrum: 2048
>>>>>Begin Spectral Data<<<<<
223.165	-10.12
223.4	-10.12
223.635	-10.12
223.869	-28.12
224.104	-15.12
224.338	-8.12
224.573	-20.12
224.808	-16.12
225.042	-6.12
225.277	-10.12
225.511	6.88
225.746	3.88
225.98	5.88
226.215	3.88
226.449	13.88
226.683	26.88
226.918	24.88
227.152	27.88
227.387	41.88
227.621	45.88
227.856	43.88
228.09	50.88
228.324	38.88
228.559	41.88
228.793	53.88
229.027	90.88
229.262	111.88
229.496	108.88
229.73	111.88
229.964	137.88
230.199	107.88
230.433	106.88
230.667	118.88
230.901	99.88
231.136	93.88
231.37	103.88
231.604	107.88
231.838	115.88
232.072	100.88
232.306	93.88
232.541	106.88
232.775	120.88
233.009	116.88
233.243	99.88
233.477	121.88
233.711	93.88
233.945	109.88
234.179	96.88
234.413	106.88
234.647	98.88
234.881	110.88
235.115	103.88
235.349	106.88
235.583	115.88
235.817	98.88
236.051	112.88
236.285	112.88
236.519	104.88
236.753	121.88
236.987	128.88
237.221	150.88
237.455	199.88
237.689	156.88
237.922	123.88
238.156	109.88
238.39	113.88
238.624	102.88
238.858	123.88
239.091	103.88
239.325	116.88
239.559	124.88
239.793	111.88
240.027	120.88
240.26	141.88
240.494	113.88
240.728	131.88
240.961	136.88
241.195	122.88
241.429	129.88
241.662	106.88
241.896	121.88
242.13	121.88
242.363	124.88
242.597	107.88
242.83	125.88
243.064	130.88
243.298	117.88
243.531	119.88
243.765	122.88
243.998	119.88
244.232	121.88
244.465	127.88
244.699	122.88
244.932	127.88
245.166	116.88
245.399	126.88
245.633	132.88
245.866	132.88
246.099	118.88
246.333	122.88
246.566	130.88
246.8	141.88
247.033	127.88
247.266	152.88
247.5	155.88
247.733	146.88
247.966	151.88
248.2	151.88
248.433	133.88
248.666	135.88
248.899	157.88
249.133	152.88
249.366	186.88
249.599	163.88
249.832	147.88
250.066	150.88
250.299	153.88
250.532	150.88
250.765	170.88
250.998	170.88
251.231	179.88
251.465	163.88
251.698	159.88
251.931	146.88
252.164	155.88
252.397	153.88
252.63	159.88
252.863	158.88
253.096	196.88
253.329	215.88
253.562	182.88
253.795	170.88
254.028	170.88
254.261	180.88
254.494	177.88
254.727	195.88
254.96	218.88
255.193	216.88
255.426	178.88
255.659	178.88
255.892	173.88
256.124	183.88
256.357	195.88
256.59	183.88
256.823	199.88
257.056	179.88
257.289	192.88
257.521	157.88
257.754	153.88
257.987	169.88
258.22	155.88
258.452	166.88
258.685	163.88
258.918	175.88
259.151	167.88
259.383	185.88
259.616	163.88
259.849	173.88
260.081	187.88
260.314	195.88
260.547	188.88
260.779	169.88
261.012	186.88
261.244	189.88
261.477	187.88
261.71	181.88
261.942	186.88
262.175	187.88
262.407	181.88
262.64	178.88
262.872	173.88
263.105	171.88
263.337	176.88
263.57	176.88
263.802	183.88
264.035	170.88
264.267	170.88
264.499	161.88
264.732	170.88
264.964	156.88
265.197	166.88
265.429	183.88
265.661	173.88
265.894	175.88
266.126	162.88
266.358	160.88
266.591	188.88
266.823	181.88
267.055	178.88
267.287	182.88
267.52	157.88
267.752	180.88
267.984	186.88
268.216	176.88
268.448	181.88
268.681	187.88
268.913	202.88
269.145	204.88
269.377	183.88
269.609	181.88
269.841	196.88
270.073	189.88
270.306	213.88
270.538	230.88
270.77	239.88
271.002	212.88
271.234	207.88
271.466	226.88
271.698	240.88
271.93	231.88
272.162	212.88
272.394	230.88
272.626	244.88
272.858	211.88
273.09	210.88
273.322	201.88
273.553	201.88
273.785	211.88
274.017	198.88
274.249	201.88
274.481	198.88
274.713	202.88
274.945	208.88
275.176	198.88
275.408	207.88
275.64	221.88
275.872	206.88
276.104	201.88
276.335	204.88
276.567	192.88
276.799	214.88
277.031	226.88
277.262	236.88
277.494	237.88
277.726	235.88
277.957	207.88
278.189	207.88
278.421	204.88
278.652	226.88
278.884	210.88
279.115	201.88
279.347	195.88
279.579	196.88
279.81	198.88
280.042	220.88
280.273	202.88
280.505	202.88
280.736	186.88
280.968	210.88
281.199	203.88
281.431	202.88
281.662	199.88
281.894	208.88
282.125	201.88
282.356	213.88
282.588	246.88
282.819	259.88
283.051	213.88
283.282	202.88
283.513	208.88
283.745	218.88
283.976	204.88
284.207	212.88
284.439	203.88
284.67	213.88
284.901	226.88
285.132	220.88
285.364	216.88
285.595	207.88
285.826	205.88
286.057	216.88
286.288	203.88
286.52	199.88
286.751	213.88
286.982	205.88
287.213	219.88
287.444	219.88
287.675	233.88
287.906	200.88
288.138	215.88
288.369	230.88
288.6	216.88
288.831	218.88
289.062	213.88
289.293	218.88
289.524	210.88
289.755	221.88
289.986	220.88
290.217	222.88
290.448	200.88
290.679	218.88
290.91	216.88
291.141	223.88
291.371	212.88
291.602	208.88
291.833	209.88
292.064	208.88
292.295	221.88
292.526	232.88
292.757	213.88
292.987	215.88
293.218	231.88
293.449	220.88
293.68	211.88
293.91	207.88
294.141	229.88
294.372	223.88
294.603	233.88
294.833	220.88
295.064	215.88
295.295	202.88
295.525	233.88
295.756	224.88
295.987	224.88
296.217	251.88
296.448	247.88
296.679	233.88
296.909	226.88
297.14	227.88
297.37	223.88
297.601	209.88
297.831	202.88
298.062	212.88
298.292	222.88
298.523	230.88
298.753	220.88
298.984	217.88
299.214	230.88
299.445	223.88
299.675	232.88
299.905	245.88
300.136	231.88
300.366	234.88
300.597	243.88
300.827	257.88
301.057	251.88
301.288	247.88
301.518	249.88
301.748	230.88
301.979	243.88
302.209	245.88
302.439	235.88
302.669	246.88
302.9	243.88
303.13	245.88
303.36	243.88
303.59	261.88
303.82	236.88
304.051	248.88
304.281	246.88
304.511	247.88
304.741	238.88
304.971	254.88
305.201	238.88
305.431	261.88
305.661	252.88
305.891	243.88
306.121	250.88
306.352	258.88
306.582	243.88
306.812	266.88
307.042	245.88
307.272	257.88
307.502	241.88
307.731	260.88
307.961	244.88
308.191	264.88
308.421	256.88
308.651	250.88
308.881	245.88
309.111	257.88
309.341	266.88
309.571	273.88
309.8	285.88
310.03	257.88
310.26	284.88
310.49	292.88
310.72	290.88
310.949	287.88
311.179	290.88
311.409	277.88
311.639	285.88
311.868	274.88
312.098	286.88
312.328	283.88
312.557	294.88
312.787	311.88
313.017	309.88
313.246	296.88
313.476	266.88
313.706	284.88
313.935	284.88
314.165	307.88
314.394	317.88
314.624	300.88
314.853	299.88
315.083	298.88
315.312	283.88
315.542	276.88
315.771	274.88
316.001	285.88
316.23	279.88
316.46	257.88
316.689	292.88
316.919	283.88
317.148	291.88
317.377	294.88
317.607	283.88
317.836	291.88
318.065	276.88
318.295	291.88
318.524	292.88
318.753	266.88
318.983	273.88
319.212	301.88
319.441	289.88
319.67	297.88
319.9	270.88
320.129	274.88
320.358	287.88
320.587	301.88
320.816	308.88
321.046	285.88
321.275	298.88
321.504	315.88
321.733	305.88
321.962	303.88
322.191	326.88
322.42	333.88
322.649	342.88
322.878	330.88
323.108	346.88
323.337	373.88
323.566	397.88
323.795	429.88
324.024	478.88
324.253	566.88
324.482	812.88
324.71	1273.88
324.939	1777.88
325.168	1500.88
325.397	785.88
325.626	525.88
325.855	427.88
326.084	397.88
326.313	411.88
326.542	388.88
326.77	447.88
326.999	529.88
327.228	737.88
327.457	1096.88
327.686	1302.88
327.914	889.88
328.143	580.88
328.372	502.88
328.6	492.88
328.829	454.88
329.058	465.88
329.287	473.88
329.515	419.88
329.744	399.88
329.972	398.88
330.201	420.88
330.43	448.88
330.658	465.88
330.887	468.88
331.115	453.88
331.344	418.88
331.572	388.88
331.801	392.88
332.03	375.88
332.258	359.88
332.486	333.88
332.715	337.88
332.943	312.88
333.172	345.88
333.4	337.88
333.629	350.88
333.857	348.88
334.085	354.88
334.314	383.88
334.542	404.88
334.771	434.88
334.999	378.88
335.227	361.88
335.455	354.88
335.684	327.88
335.912	316.88
336.14	333.88
336.369	333.88
336.597	339.88
336.825	328.88
337.053	339.88
337.281	319.88
337.51	326.88
337.738	322.88
337.966	331.88
338.194	324.88
338.422	323.88
338.65	309.88
338.878	320.88
339.106	321.88
339.334	317.88
339.562	306.88
339.79	312.88
340.018	315.88
340.246	355.88
340.474	322.88
340.702	335.88
340.93	314.88
341.158	323.88
341.386	317.88
341.614	317.88
341.842	328.88
342.07	341.88
342.298	304.88
342.526	313.88
342.754	298.88
342.981	309.88
343.209	320.88
343.437	320.88
343.665	317.88
343.893	326.88
344.12	330.88
344.348	333.88
344.576	307.88
344.804	316.88
345.031	333.88
345.259	345.88
345.487	333.88
345.714	332.88
345.942	314.88
346.17	312.88
346.397	305.88
346.625	309.88
346.853	298.88
347.08	306.88
347.308	313.88
347.535	309.88
347.763	335.88
347.99	312.88
348.218	332.88
348.445	321.88
348.673	314.88
348.9	300.88
349.128	333.88
349.355	313.88
349.583	289.88
349.81	307.88
350.037	293.88
350.265	311.88
350.492	295.88
350.72	305.88
350.947	297.88
351.174	305.88
351.402	313.88
351.629	318.88
351.856	317.88
352.083	325.88
352.311	320.88
352.538	338.88
352.765	337.88
352.992	331.88
353.22	328.88
353.447	299.88
353.674	320.88
353.901	296.88
354.128	316.88
354.355	301.88
354.583	311.88
354.81	293.88
355.037	298.88
355.264	306.88
355.491	279.88
355.718	291.88
355.945	287.88
356.172	295.88
356.399	281.88
356.626	290.88
356.853	277.88
357.08	298.88
357.307	299.88
357.534	282.88
357.761	319.88
357.988	290.88
358.215	309.88
358.441	291.88
358.668	294.88
358.895	279.88
359.122	298.88
359.349	297.88
359.576	303.88
359.802	356.88
360.029	346.88
360.256	381.88
360.483	363.88
360.709	328.88
360.936	295.88
361.163	314.88
361.39	323.88
361.616	312.88
361.843	317.88
362.07	301.88
362.296	307.88
362.523	327.88
362.749	305.88
362.976	322.88
363.203	305.88
363.429	299.88
363.656	305.88
363.882	312.88
364.109	315.88
364.335	274.88
364.562	281.88
364.788	293.88
365.015	287.88
365.241	300.88
365.468	300.88
365.694	312.88
365.92	305.88
366.147	308.88
366.373	284.88
366.599	308.88
366.826	316.88
367.052	295.88
367.278	295.88
367.505	299.88
367.731	303.88
367.957	305.88
368.184	304.88
368.41	307.88
368.636	288.88
368.862	292.88
369.089	309.88
369.315	290.88
369.541	308.88
369.767	289.88
369.993	311.88
370.219	311.88
370.445	288.88
370.672	299.88
370.898	296.88
371.124	290.88
371.35	315.88
371.576	301.88
371.802	296.88
372.028	294.88
372.254	290.88
372.48	303.88
372.706	307.88
372.932	286.88
373.158	303.88
373.384	313.88
373.61	291.88
373.835	308.88
374.061	287.88
374.287	298.88
374.513	334.88
374.739	315.88
374.965	309.88
375.191	304.88
375.416	312.88
375.642	301.88
375.868	296.88
376.094	307.88
376.319	309.88
376.545	310.88
376.771	296.88
376.997	284.88
377.222	277.88
377.448	296.88
377.674	283.88
377.899	300.88
378.125	297.88
378.35	303.88
378.576	279.88
378.802	308.88
379.027	309.88
379.253	300.88
379.478	301.88
379.704	299.88
379.929	318.88
380.155	313.88
380.38	285.88
380.606	311.88
380.831	300.88
381.057	298.88
381.282	306.88
381.507	299.88
381.733	305.88
381.958	279.88
382.184	316.88
382.409	319.88
382.634	307.88
382.86	311.88
383.085	289.88
383.31	315.88
383.535	305.88
383.761	305.88
383.986	297.88
384.211	308.88
384.436	319.88
384.662	318.88
384.887	336.88
385.112	310.88
385.337	316.88
385.562	327.88
385.787	311.88
386.013	320.88
386.238	328.88
386.463	317.88
386.688	320.88
386.913	332.88
387.138	326.88
387.363	339.88
387.588	318.88
387.813	333.88
388.038	314.88
388.263	323.88
388.488	324.88
388.713	331.88
388.938	315.88
389.163	352.88
389.387	330.88
389.612	325.88
389.837	320.88
390.062	337.88
390.287	344.88
390.512	296.88
390.736	313.88
390.961	316.88
391.186	322.88
391.411	319.88
391.636	333.88
391.86	316.88
392.085	316.88
392.31	316.88
392.534	324.88
392.759	331.88
392.984	322.88
393.208	315.88
393.433	329.88
393.658	339.88
393.882	320.88
394.107	328.88
394.331	348.88
394.556	317.88
394.78	313.88
395.005	352.88
395.229	332.88
395.454	336.88
395.678	323.88
395.903	339.88
396.127	343.88
396.352	342.88
396.576	340.88
396.801	356.88
397.025	348.88
397.249	339.88
397.474	334.88
397.698	362.88
397.922	355.88
398.147	385.88
398.371	380.88
398.595	349.88
398.82	369.88
399.044	377.88
399.268	359.88
399.492	392.88
399.717	428.88
399.941	412.88
400.165	444.88
400.389	431.88
400.613	415.88
400.837	384.88
401.062	376.88
401.286	361.88
401.51	353.88
401.734	362.88
401.958	356.88
402.182	364.88
402.406	375.88
402.63	379.88
402.854	363.88
403.078	379.88
403.302	379.88
403.526	374.88
403.75	384.88
403.974	378.88
404.198	393.88
404.422	380.88
404.645	389.88
404.869	387.88
405.093	394.88
405.317	442.88
405.541	451.88
405.765	402.88
405.988	419.88
406.212	419.88
406.436	433.88
406.66	426.88
406.883	417.88
407.107	439.88
407.331	470.88
407.555	514.88
407.778	509.88
408.002	439.88
408.226	436.88
408.449	431.88
408.673	414.88
408.896	454.88
409.12	460.88
409.344	450.88
409.567	394.88
409.791	380.88
410.014	375.88
410.238	363.88
410.461	369.88
410.685	387.88
410.908	409.88
411.132	424.88
411.355	425.88
411.578	429.88
411.802	385.88
412.025	379.88
412.249	381.88
412.472	411.88
412.695	442.88
412.919	451.88
413.142	384.88
413.365	375.88
413.589	362.88
413.812	374.88
414.035	347.88
414.258	346.88
414.482	362.88
414.705	354.88
414.928	370.88
415.151	364.88
415.374	383.88
415.597	342.88
415.821	351.88
416.044	361.88
416.267	369.88
416.49	347.88
416.713	349.88
416.936	363.88
417.159	362.88
417.382	376.88
417.605	357.88
417.828	362.88
418.051	381.88
418.274	370.88
418.497	348.88
418.72	356.88
418.943	344.88
419.166	363.88
419.389	367.88
419.611	377.88
419.834	381.88
420.057	391.88
420.28	374.88
420.503	374.88
420.726	387.88
420.948	409.88
421.171	418.88
421.394	446.88
421.617	378.88
421.839	358.88
422.062	371.88
422.285	399.88
422.507	424.88
422.73	469.88
422.953	459.88
423.175	410.88
423.398	403.88
423.621	406.88
423.843	416.88
424.066	409.88
424.288	414.88
424.511	425.88
424.733	459.88
424.956	526.88
425.178	519.88
425.401	500.88
425.623	505.88
425.846	444.88
426.068	433.88
426.291	405.88
426.513	408.88
426.735	411.88
426.958	468.88
427.18	511.88
427.402	594.88
427.625	683.88
427.847	578.88
428.069	523.88
428.292	449.88
428.514	401.88
428.736	381.88
428.958	398.88
429.181	400.88
429.403	384.88
429.625	383.88
429.847	406.88
430.069	456.88
430.292	452.88
430.514	409.88
430.736	387.88
430.958	383.88
431.18	362.88
431.402	377.88
431.624	363.88
431.846	373.88
432.068	361.88
432.29	366.88
432.512	355.88
432.734	349.88
432.956	374.88
433.178	370.88
433.4	368.88
433.622	375.88
433.844	370.88
434.066	368.88
434.287	366.88
434.509	372.88
434.731	381.88
434.953	352.88
435.175	393.88
435.397	402.88
435.618	419.88
435.84	440.88
436.062	505.88
436.284	562.88
436.505	465.88
436.727	431.88
436.949	409.88
437.17	419.88
437.392	413.88
437.614	397.88
437.835	442.88
438.057	503.88
438.278	555.88
438.5	549.88
438.721	604.88
438.943	579.88
439.165	476.88
439.386	437.88
439.608	413.88
439.829	435.88
440.05	453.88
440.272	488.88
440.493	452.88
440.715	429.88
440.936	401.88
441.158	393.88
441.379	383.88
441.6	387.88
441.822	413.88
442.043	447.88
442.264	509.88
442.486	547.88
442.707	455.88
442.928	444.88
443.149	431.88
443.371	453.88
443.592	496.88
443.813	565.88
444.034	585.88
444.255	485.88
444.476	435.88
444.698	423.88
444.919	424.88
445.14	536.88
445.361	482.88
445.582	447.88
445.803	505.88
446.024	601.88
446.245	586.88
446.466	532.88
446.687	457.88
446.908	447.88
447.129	417.88
447.35	373.88
447.571	381.88
447.792	387.88
448.013	389.88
448.234	402.88
448.455	439.88
448.675	523.88
448.896	620.88
449.117	532.88
449.338	501.88
449.559	577.88
449.779	628.88
450	517.88
450.221	415.88
450.442	414.88
450.662	397.88
450.883	402.88
451.104	401.88
451.324	384.88
451.545	384.88
451.766	374.88
451.986	354.88
452.207	343.88
452.428	356.88
452.648	374.88
452.869	348.88
453.089	362.88
453.31	362.88
453.53	358.88
453.751	356.88
453.971	341.88
454.192	389.88
454.412	359.88
454.633	368.88
454.853	358.88
455.073	342.88
455.294	363.88
455.514	417.88
455.734	417.88
455.955	361.88
456.175	343.88
456.395	330.88
456.616	345.88
456.836	328.88
457.056	327.88
457.276	324.88
457.497	334.88
457.717	354.88
457.937	360.88
458.157	345.88
458.377	341.88
458.598	370.88
458.818	397.88
459.038	466.88
459.258	483.88
459.478	411.88
459.698	384.88
459.918	357.88
460.138	369.88
460.358	362.88
460.578	364.88
460.798	371.88
461.018	349.88
461.238	363.88
461.458	378.88
461.678	372.88
461.898	391.88
462.118	379.88
462.338	362.88
462.558	361.88
462.777	371.88
462.997	390.88
463.217	394.88
463.437	387.88
463.657	399.88
463.876	402.88
464.096	377.88
464.316	402.88
464.536	386.88
464.755	408.88
464.975	403.88
465.195	435.88
465.414	502.88
465.634	445.88
465.854	403.88
466.073	374.88
466.293	373.88
466.512	361.88
466.732	364.88
466.951	365.88
467.171	346.88
467.391	363.88
467.61	390.88
467.829	373.88
468.049	359.88
468.268	357.88
468.488	363.88
468.707	339.88
468.927	353.88
469.146	350.88
469.365	349.88
469.585	343.88
469.804	365.88
470.023	357.88
470.243	370.88
470.462	363.88
470.681	376.88
470.901	377.88
471.12	365.88
471.339	360.88
471.558	361.88
471.777	367.88
471.997	376.88
472.216	361.88
472.435	420.88
472.654	415.88
472.873	384.88
473.092	389.88
473.311	359.88
473.53	370.88
473.749	371.88
473.968	409.88
474.187	470.88
474.406	484.88
474.625	409.88
474.844	378.88
475.063	353.88
475.282	378.88
475.501	381.88
475.72	382.88
475.939	398.88
476.158	380.88
476.377	383.88
476.596	389.88
476.814	384.88
477.033	387.88
477.252	394.88
477.471	393.88
477.69	384.88
477.908	401.88
478.127	408.88
478.346	402.88
478.564	400.88
478.783	406.88
479.002	414.88
479.22	409.88
479.439	431.88
479.658	445.88
479.876	429.88
480.095	419.88
480.313	461.88
480.532	457.88
480.751	465.88
480.969	460.88
481.188	519.88
481.406	551.88
481.624	472.88
481.843	476.88
482.061	451.88
482.28	447.88
482.498	447.88
482.717	420.88
482.935	445.88
483.153	431.88
483.372	427.88
483.59	437.88
483.808	411.88
484.027	411.88
484.245	466.88
484.463	422.88
484.681	441.88
484.9	447.88
485.118	419.88
485.336	437.88
485.554	444.88
485.772	429.88
485.99	453.88
486.209	446.88
486.427	451.88
486.645	461.88
486.863	465.88
487.081	483.88
487.299	439.88
487.517	458.88
487.735	447.88
487.953	476.88
488.171	464.88
488.389	451.88
488.607	479.88
488.825	453.88
489.043	447.88
489.261	459.88
489.479	439.88
489.696	449.88
489.914	462.88
490.132	462.88
490.35	483.88
490.568	479.88
490.786	478.88
491.003	516.88
491.221	490.88
491.439	517.88
491.657	519.88
491.874	512.88
492.092	533.88
492.31	531.88
492.527	525.88
492.745	528.88
492.963	520.88
493.18	528.88
493.398	503.88
493.615	523.88
493.833	537.88
494.05	544.88
494.268	519.88
494.485	530.88
494.703	516.88
494.92	551.88
495.138	544.88
495.355	528.88
495.573	534.88
495.79	554.88
496.008	557.88
496.225	537.88
496.442	539.88
496.66	527.88
496.877	538.88
497.094	531.88
497.312	549.88
497.529	572.88
497.746	556.88
497.963	563.88
498.181	588.88
498.398	572.88
498.615	582.88
498.832	586.88
499.049	602.88
499.267	602.88
499.484	625.88
499.701	656.88
499.918	646.88
500.135	651.88
500.352	701.88
500.569	682.88
500.786	702.88
501.003	675.88
501.22	682.88
501.437	681.88
501.654	651.88
501.871	673.88
502.088	625.88
502.305	639.88
502.522	619.88
502.739	599.88
502.956	577.88
503.172	569.88
503.389	594.88
503.606	598.88
503.823	576.88
504.04	561.88
504.256	560.88
504.473	555.88
504.69	535.88
504.907	546.88
505.123	540.88
505.34	532.88
505.557	515.88
505.773	536.88
505.99	529.88
506.207	522.88
506.423	531.88
506.64	543.88
506.856	519.88
507.073	511.88
507.289	522.88
507.506	521.88
507.722	538.88
507.939	538.88
508.155	532.88
508.372	507.88
508.588	488.88
508.805	504.88
509.021	518.88
509.238	511.88
509.454	498.88
509.67	500.88
509.887	487.88
510.103	484.88
510.319	519.88
510.536	595.88
510.752	984.88
510.968	809.88
511.184	543.88
511.401	531.88
511.617	488.88
511.833	467.88
512.049	475.88
512.265	492.88
512.481	463.88
512.698	458.88
512.914	492.88
513.13	475.88
513.346	481.88
513.562	486.88
513.778	478.88
513.994	489.88
514.21	498.88
514.426	509.88
514.642	563.88
514.858	588.88
515.074	595.88
515.29	724.88
515.506	1054.88
515.721	868.88
515.937	619.88
516.153	532.88
516.369	521.88
516.585	515.88
516.801	492.88
517.016	497.88
517.232	509.88
517.448	491.88
517.664	487.88
517.879	506.88
518.095	495.88
518.311	511.88
518.527	493.88
518.742	478.88
518.958	457.88
519.173	481.88
519.389	495.88
519.605	493.88
519.82	477.88
520.036	492.88
520.251	508.88
520.467	531.88
520.682	536.88
520.898	532.88
521.113	559.88
521.329	570.88
521.544	670.88
521.76	830.88
521.975	1424.88
522.19	1328.88
522.406	763.88
522.621	588.88
522.836	482.88
523.052	483.88
523.267	468.88
523.482	466.88
523.698	448.88
523.913	444.88
524.128	458.88
524.343	441.88
524.559	448.88
524.774	423.88
524.989	455.88
525.204	419.88
525.419	429.88
525.634	435.88
525.849	410.88
526.064	404.88
526.28	407.88
526.495	419.88
526.71	412.88
526.925	396.88
527.14	398.88
527.355	411.88
527.57	397.88
527.785	380.88
527.999	402.88
528.214	401.88
528.429	388.88
528.644	381.88
528.859	385.88
529.074	421.88
529.289	436.88
529.503	480.88
529.718	451.88
529.933	425.88
530.148	419.88
530.363	403.88
530.577	392.88
530.792	392.88
531.007	392.88
531.221	398.88
531.436	386.88
531.651	387.88
531.865	390.88
532.08	380.88
532.295	395.88
532.509	377.88
532.724	391.88
532.938	373.88
533.153	383.88
533.367	386.88
533.582	369.88
533.796	361.88
534.011	381.88
534.225	372.88
534.44	357.88
534.654	379.88
534.868	355.88
535.083	368.88
535.297	370.88
535.511	372.88
535.726	379.88
535.94	400.88
536.154	377.88
536.369	373.88
536.583	388.88
536.797	354.88
537.011	369.88
537.225	363.88
537.44	371.88
537.654	368.88
537.868	369.88
538.082	357.88
538.296	375.88
538.51	362.88
538.724	379.88
538.938	376.88
539.153	363.88
539.367	389.88
539.581	387.88
539.795	355.88
540.009	378.88
540.222	376.88
540.436	361.88
540.65	374.88
540.864	375.88
541.078	376.88
541.292	359.88
541.506	362.88
541.72	345.88
541.934	358.88
542.147	358.88
542.361	348.88
542.575	380.88
542.789	367.88
543.002	369.88
543.216	384.88
543.43	358.88
543.644	351.88
543.857	368.88
544.071	362.88
544.285	385.88
544.498	372.88
544.712	351.88
544.925	377.88
545.139	356.88
545.352	356.88
545.566	361.88
545.779	353.88
545.993	361.88
546.206	376.88
546.42	356.88
546.633	356.88
546.847	347.88
547.06	332.88
547.274	363.88
547.487	335.88
547.7	346.88
547.914	356.88
548.127	344.88
548.34	354.88
548.554	352.88
548.767	361.88
548.98	342.88
549.193	348.88
549.407	369.88
549.62	332.88
549.833	336.88
550.046	337.88
550.259	319.88
550.473	319.88
550.686	345.88
550.899	323.88
551.112	338.88
551.325	344.88
551.538	358.88
551.751	335.88
551.964	336.88
552.177	340.88
552.39	342.88
552.603	328.88
552.816	340.88
553.029	346.88
553.242	332.88
553.455	329.88
553.667	355.88
553.88	353.88
554.093	370.88
554.306	334.88
554.519	354.88
554.732	337.88
554.944	347.88
555.157	332.88
555.37	320.88
555.583	338.88
555.795	334.88
556.008	331.88
556.221	318.88
556.433	327.88
556.646	313.88
556.859	331.88
557.071	315.88
557.284	326.88
557.496	315.88
557.709	305.88
557.921	331.88
558.134	296.88
558.346	311.88
558.559	308.88
558.771	327.88
558.984	337.88
559.196	321.88
559.409	311.88
559.621	332.88
559.833	313.88
560.046	300.88
560.258	308.88
560.47	323.88
560.683	303.88
560.895	306.88
561.107	319.88
561.32	298.88
561.532	314.88
561.744	331.88
561.956	307.88
562.168	306.88
562.381	302.88
562.593	312.88
562.805	320.88
563.017	298.88
563.229	315.88
563.441	296.88
563.653	315.88
563.865	325.88
564.077	319.88
564.289	312.88
564.501	338.88
564.713	320.88
564.925	340.88
565.137	339.88
565.349	315.88
565.561	312.88
565.773	335.88
565.985	331.88
566.197	334.88
566.408	327.88
566.62	350.88
566.832	348.88
567.044	356.88
567.255	360.88
567.467	348.88
567.679	346.88
567.891	378.88
568.102	368.88
568.314	347.88
568.526	353.88
568.737	350.88
568.949	356.88
569.161	335.88
569.372	329.88
569.584	314.88
569.795	326.88
570.007	322.88
570.218	345.88
570.43	333.88
570.641	311.88
570.853	301.88
571.064	291.88
571.276	305.88
571.487	300.88
571.698	304.88
571.91	275.88
572.121	296.88
572.333	285.88
572.544	283.88
572.755	269.88
572.966	272.88
573.178	284.88
573.389	289.88
573.6	295.88
573.811	267.88
574.023	278.88
574.234	273.88
574.445	290.88
574.656	274.88
574.867	279.88
575.078	264.88
575.289	289.88
575.501	277.88
575.712	265.88
575.923	264.88
576.134	259.88
576.345	267.88
576.556	262.88
576.767	280.88
576.978	269.88
577.188	271.88
577.399	275.88
577.61	259.88
577.821	274.88
578.032	272.88
578.243	301.88
578.454	483.88
578.665	362.88
578.875	269.88
579.086	253.88
579.297	273.88
579.508	265.88
579.718	240.88
579.929	268.88
580.14	269.88
580.35	270.88
580.561	268.88
580.772	252.88
580.982	243.88
581.193	244.88
581.403	261.88
581.614	236.88
581.825	251.88
582.035	237.88
582.246	244.88
582.456	230.88
582.667	247.88
582.877	259.88
583.087	252.88
583.298	244.88
583.508	249.88
583.719	255.88
583.929	269.88
584.139	245.88
584.35	244.88
584.56	257.88
584.77	229.88
584.981	244.88
585.191	258.88
585.401	253.88
585.611	249.88
585.821	225.88
586.032	237.88
586.242	242.88
586.452	260.88
586.662	233.88
586.872	244.88
587.082	247.88
587.292	226.88
587.502	237.88
587.713	225.88
587.923	258.88
588.133	242.88
588.343	232.88
588.553	218.88
588.762	245.88
588.972	237.88
589.182	270.88
589.392	240.88
589.602	251.88
589.812	246.88
590.022	243.88
590.232	235.88
590.441	242.88
590.651	237.88
590.861	219.88
591.071	241.88
591.281	243.88
591.49	225.88
591.7	227.88
591.91	240.88
592.119	224.88
592.329	230.88
592.539	235.88
592.748	244.88
592.958	251.88
593.167	239.88
593.377	241.88
593.587	244.88
593.796	231.88
594.006	236.88
594.215	238.88
594.424	241.88
594.634	239.88
594.843	239.88
595.053	233.88
595.262	227.88
595.472	227.88
595.681	236.88
595.89	243.88
596.1	232.88
596.309	234.88
596.518	234.88
596.727	229.88
596.937	225.88
597.146	233.88
597.355	235.88
597.564	205.88
597.774	213.88
597.983	220.88
598.192	241.88
598.401	211.88
598.61	224.88
598.819	221.88
599.028	236.88
599.237	216.88
599.446	204.88
599.655	205.88
599.864	218.88
600.073	212.88
600.282	218.88
600.491	187.88
600.7	216.88
600.909	216.88
601.118	201.88
601.327	212.88
601.536	226.88
601.745	209.88
601.953	207.88
602.162	227.88
602.371	197.88
602.58	204.88
602.789	225.88
602.997	232.88
603.206	204.88
603.415	208.88
603.623	200.88
603.832	215.88
604.041	199.88
604.249	221.88
604.458	210.88
604.666	200.88
604.875	211.88
605.084	195.88
605.292	204.88
605.501	188.88
605.709	196.88
605.918	185.88
606.126	215.88
606.334	205.88
606.543	189.88
606.751	196.88
606.96	207.88
607.168	209.88
607.376	224.88
607.585	191.88
607.793	203.88
608.001	212.88
608.21	210.88
608.418	215.88
608.626	195.88
608.834	197.88
609.043	195.88
609.251	205.88
609.459	205.88
609.667	197.88
609.875	218.88
610.083	200.88
610.291	201.88
610.499	195.88
610.707	201.88
610.916	221.88
611.124	231.88
611.332	213.88
611.54	212.88
611.748	219.88
611.955	197.88
612.163	208.88
612.371	200.88
612.579	195.88
612.787	195.88
612.995	198.88
613.203	203.88
613.411	184.88
613.618	193.88
613.826	193.88
614.034	191.88
614.242	179.88
614.449	208.88
614.657	184.88
614.865	186.88
615.072	166.88
615.28	190.88
615.488	203.88
615.695	195.88
615.903	189.88
616.111	191.88
616.318	199.88
616.526	203.88
616.733	204.88
616.941	219.88
617.148	198.88
617.356	195.88
617.563	197.88
617.771	203.88
617.978	196.88
618.185	200.88
618.393	183.88
618.6	194.88
618.807	191.88
619.015	190.88
619.222	186.88
619.429	191.88
619.637	176.88
619.844	180.88
620.051	187.88
620.258	177.88
620.466	184.88
620.673	185.88
620.88	177.88
621.087	182.88
621.294	177.88
621.501	181.88
621.708	178.88
621.915	192.88
622.122	185.88
622.329	179.88
622.536	186.88
622.743	194.88
622.95	183.88
623.157	179.88
623.364	187.88
623.571	180.88
623.778	169.88
623.985	186.88
624.192	175.88
624.399	168.88
624.606	183.88
624.812	181.88
625.019	179.88
625.226	180.88
625.433	186.88
625.639	180.88
625.846	177.88
626.053	192.88
626.259	187.88
626.466	180.88
626.673	170.88
626.879	177.88
627.086	177.88
627.293	182.88
627.499	172.88
627.706	153.88
627.912	163.88
628.119	175.88
628.325	168.88
628.532	184.88
628.738	188.88
628.945	174.88
629.151	168.88
629.357	176.88
629.564	189.88
629.77	163.88
629.976	171.88
630.183	170.88
630.389	178.88
630.595	164.88
630.802	151.88
631.008	173.88
631.214	171.88
631.42	173.88
631.627	181.88
631.833	163.88
632.039	151.88
632.245	168.88
632.451	163.88
632.657	179.88
632.863	163.88
633.069	136.88
633.275	139.88
633.481	162.88
633.688	177.88
633.893	178.88
634.099	166.88
634.305	146.88
634.511	156.88
634.717	151.88
634.923	147.88
635.129	159.88
635.335	168.88
635.541	157.88
635.747	164.88
635.952	153.88
636.158	154.88
636.364	150.88
636.57	154.88
636.775	175.88
636.981	155.88
637.187	169.88
637.392	153.88
637.598	163.88
637.804	172.88
638.009	159.88
638.215	160.88
638.421	168.88
638.626	155.88
638.832	163.88
639.037	144.88
639.243	159.88
639.448	153.88
639.654	155.88
639.859	159.88
640.065	144.88
640.27	158.88
640.475	160.88
640.681	142.88
640.886	154.88
641.091	135.88
641.297	155.88
641.502	158.88
641.707	145.88
641.913	159.88
642.118	150.88
642.323	145.88
642.528	143.88
642.733	163.88
642.939	158.88
643.144	157.88
643.349	128.88
643.554	139.88
643.759	137.88
643.964	148.88
644.169	146.88
644.374	146.88
644.579	152.88
644.784	138.88
644.989	139.88
645.194	143.88
645.399	143.88
645.604	132.88
645.809	140.88
646.014	139.88
646.219	152.88
646.423	134.88
646.628	159.88
646.833	146.88
647.038	136.88
647.243	130.88
647.447	137.88
647.652	153.88
647.857	144.88
648.062	141.88
648.266	144.88
648.471	153.88
648.676	139.88
648.88	145.88
649.085	161.88
649.289	158.88
649.494	155.88
649.698	145.88
649.903	148.88
650.107	164.88
650.312	152.88
650.516	124.88
650.721	143.88
650.925	141.88
651.13	124.88
651.334	145.88
651.539	117.88
651.743	133.88
651.947	122.88
652.152	149.88
652.356	140.88
652.56	135.88
652.764	133.88
652.969	127.88
653.173	118.88
653.377	143.88
653.581	143.88
653.785	142.88
653.99	124.88
654.194	127.88
654.398	135.88
654.602	134.88
654.806	119.88
655.01	129.88
655.214	127.88
655.418	124.88
655.622	109.88
655.826	113.88
656.03	125.88
656.234	127.88
656.438	137.88
656.642	123.88
656.846	120.88
657.049	130.88
657.253	117.88
657.457	111.88
657.661	110.88
657.865	111.88
658.068	119.88
658.272	108.88
658.476	100.88
658.68	105.88
658.883	106.88
659.087	96.88
659.291	83.88
659.494	93.88
659.698	93.88
659.901	91.88
660.105	91.88
660.309	89.88
660.512	94.88
660.716	89.88
660.919	94.88
661.123	91.88
661.326	84.88
661.53	83.88
661.733	97.88
661.936	105.88
662.14	83.88
662.343	84.88
662.546	82.88
662.75	86.88
662.953	88.88
663.156	84.88
663.36	88.88
663.563	78.88
663.766	66.88
663.969	71.88
664.173	86.88
664.376	91.88
664.579	83.88
664.782	78.88
664.985	86.88
665.188	90.88
665.391	94.88
665.594	89.88
665.797	74.88
666	97.88
666.203	82.88
666.406	79.88
666.609	90.88
666.812	82.88
667.015	89.88
667.218	83.88
667.421	74.88
667.624	91.88
667.827	99.88
668.03	81.88
668.232	90.88
668.435	80.88
668.638	104.88
668.841	90.88
669.043	67.88
669.246	91.88
669.449	82.88
669.651	92.88
669.854	88.88
670.057	81.88
670.259	89.88
670.462	96.88
670.665	81.88
670.867	77.88
671.07	73.88
671.272	89.88
671.475	85.88
671.677	84.88
671.88	91.88
672.082	83.88
672.284	82.88
672.487	74.88
672.689	91.88
672.892	82.88
