Data from 1961.PennyLincolnUp.Lamp.En5.5.200Scan.071719.P1._HRD10591_13-46-24-057.txt Node
Date: Thu Jul 18 13:46:24 EDT 2019
User: cochatt
Spectrometer: HR+D1059
Trigger mode: 1
Integration Time (sec): 1.000000E-1
Scans to average: 1
Electric dark correction enabled: true
Nonlinearity correction enabled: false
Boxcar width: 0
XAxis mode: Wavelengths
Number of Pixels in Spectrum: 2048
>>>>>Begin Spectral Data<<<<<
223.165	2.88
223.4	2.88
223.635	2.88
223.869	-17.12
224.104	-22.12
224.338	-8.12
224.573	-1.12
224.808	-11.12
225.042	-13.12
225.277	-4.12
225.511	-3.12
225.746	-3.12
225.98	0.88
226.215	8.88
226.449	6.88
226.683	19.88
226.918	17.88
227.152	25.88
227.387	39.88
227.621	43.88
227.856	31.88
228.09	56.88
228.324	46.88
228.559	65.88
228.793	81.88
229.027	85.88
229.262	102.88
229.496	93.88
229.73	108.88
229.964	126.88
230.199	116.88
230.433	105.88
230.667	89.88
230.901	107.88
231.136	93.88
231.37	90.88
231.604	106.88
231.838	116.88
232.072	87.88
232.306	102.88
232.541	92.88
232.775	88.88
233.009	102.88
233.243	111.88
233.477	103.88
233.711	113.88
233.945	89.88
234.179	106.88
234.413	90.88
234.647	104.88
234.881	116.88
235.115	106.88
235.349	105.88
235.583	102.88
235.817	106.88
236.051	106.88
236.285	101.88
236.519	115.88
236.753	112.88
236.987	117.88
237.221	149.88
237.455	161.88
237.689	129.88
237.922	122.88
238.156	107.88
238.39	117.88
238.624	99.88
238.858	103.88
239.091	107.88
239.325	98.88
239.559	102.88
239.793	110.88
240.027	101.88
240.26	106.88
240.494	121.88
240.728	125.88
240.961	124.88
241.195	129.88
241.429	124.88
241.662	108.88
241.896	114.88
242.13	110.88
242.363	104.88
242.597	106.88
242.83	125.88
243.064	123.88
243.298	124.88
243.531	116.88
243.765	124.88
243.998	123.88
244.232	123.88
244.465	111.88
244.699	130.88
244.932	140.88
245.166	131.88
245.399	126.88
245.633	129.88
245.866	129.88
246.099	135.88
246.333	148.88
246.566	117.88
246.8	130.88
247.033	129.88
247.266	135.88
247.5	127.88
247.733	144.88
247.966	124.88
248.2	140.88
248.433	131.88
248.666	149.88
248.899	130.88
249.133	131.88
249.366	163.88
249.599	155.88
249.832	139.88
250.066	147.88
250.299	145.88
250.532	139.88
250.765	151.88
250.998	164.88
251.231	161.88
251.465	161.88
251.698	160.88
251.931	154.88
252.164	161.88
252.397	158.88
252.63	137.88
252.863	144.88
253.096	158.88
253.329	166.88
253.562	163.88
253.795	178.88
254.028	158.88
254.261	158.88
254.494	171.88
254.727	183.88
254.96	175.88
255.193	203.88
255.426	174.88
255.659	160.88
255.892	173.88
256.124	175.88
256.357	172.88
256.59	165.88
256.823	150.88
257.056	155.88
257.289	167.88
257.521	168.88
257.754	165.88
257.987	156.88
258.22	159.88
258.452	158.88
258.685	158.88
258.918	169.88
259.151	159.88
259.383	155.88
259.616	153.88
259.849	151.88
260.081	164.88
260.314	172.88
260.547	178.88
260.779	165.88
261.012	167.88
261.244	166.88
261.477	166.88
261.71	167.88
261.942	156.88
262.175	167.88
262.407	179.88
262.64	167.88
262.872	149.88
263.105	164.88
263.337	146.88
263.57	166.88
263.802	159.88
264.035	181.88
264.267	166.88
264.499	163.88
264.732	164.88
264.964	142.88
265.197	157.88
265.429	151.88
265.661	166.88
265.894	174.88
266.126	160.88
266.358	153.88
266.591	159.88
266.823	178.88
267.055	178.88
267.287	159.88
267.52	168.88
267.752	166.88
267.984	168.88
268.216	158.88
268.448	167.88
268.681	189.88
268.913	177.88
269.145	191.88
269.377	171.88
269.609	185.88
269.841	190.88
270.073	186.88
270.306	206.88
270.538	215.88
270.77	217.88
271.002	217.88
271.234	203.88
271.466	207.88
271.698	219.88
271.93	197.88
272.162	211.88
272.394	202.88
272.626	193.88
272.858	180.88
273.09	195.88
273.322	204.88
273.553	207.88
273.785	205.88
274.017	185.88
274.249	178.88
274.481	180.88
274.713	200.88
274.945	201.88
275.176	196.88
275.408	166.88
275.64	198.88
275.872	182.88
276.104	172.88
276.335	191.88
276.567	196.88
276.799	201.88
277.031	207.88
277.262	228.88
277.494	214.88
277.726	199.88
277.957	212.88
278.189	194.88
278.421	181.88
278.652	185.88
278.884	200.88
279.115	193.88
279.347	205.88
279.579	192.88
279.81	199.88
280.042	194.88
280.273	194.88
280.505	196.88
280.736	189.88
280.968	199.88
281.199	193.88
281.431	190.88
281.662	191.88
281.894	173.88
282.125	183.88
282.356	220.88
282.588	207.88
282.819	204.88
283.051	197.88
283.282	190.88
283.513	184.88
283.745	199.88
283.976	209.88
284.207	207.88
284.439	220.88
284.67	191.88
284.901	184.88
285.132	198.88
285.364	192.88
285.595	201.88
285.826	194.88
286.057	194.88
286.288	174.88
286.52	202.88
286.751	185.88
286.982	216.88
287.213	191.88
287.444	191.88
287.675	198.88
287.906	189.88
288.138	202.88
288.369	226.88
288.6	210.88
288.831	201.88
289.062	218.88
289.293	204.88
289.524	200.88
289.755	214.88
289.986	198.88
290.217	197.88
290.448	200.88
290.679	195.88
290.91	196.88
291.141	190.88
291.371	202.88
291.602	229.88
291.833	202.88
292.064	210.88
292.295	201.88
292.526	215.88
292.757	209.88
292.987	211.88
293.218	198.88
293.449	222.88
293.68	196.88
293.91	191.88
294.141	204.88
294.372	206.88
294.603	214.88
294.833	213.88
295.064	197.88
295.295	198.88
295.525	203.88
295.756	219.88
295.987	208.88
296.217	201.88
296.448	237.88
296.679	199.88
296.909	215.88
297.14	218.88
297.37	216.88
297.601	190.88
297.831	191.88
298.062	214.88
298.292	203.88
298.523	218.88
298.753	218.88
298.984	212.88
299.214	229.88
299.445	202.88
299.675	219.88
299.905	214.88
300.136	201.88
300.366	229.88
300.597	227.88
300.827	223.88
301.057	213.88
301.288	212.88
301.518	217.88
301.748	223.88
301.979	242.88
302.209	235.88
302.439	221.88
302.669	236.88
302.9	224.88
303.13	219.88
303.36	231.88
303.59	220.88
303.82	222.88
304.051	231.88
304.281	237.88
304.511	231.88
304.741	225.88
304.971	236.88
305.201	253.88
305.431	209.88
305.661	226.88
305.891	224.88
306.121	232.88
306.352	232.88
306.582	236.88
306.812	220.88
307.042	230.88
307.272	220.88
307.502	228.88
307.731	232.88
307.961	243.88
308.191	249.88
308.421	222.88
308.651	235.88
308.881	220.88
309.111	245.88
309.341	217.88
309.571	264.88
309.8	237.88
310.03	241.88
310.26	270.88
310.49	242.88
310.72	259.88
310.949	250.88
311.179	263.88
311.409	276.88
311.639	252.88
311.868	245.88
312.098	250.88
312.328	261.88
312.557	269.88
312.787	281.88
313.017	281.88
313.246	269.88
313.476	262.88
313.706	279.88
313.935	253.88
314.165	247.88
314.394	263.88
314.624	275.88
314.853	257.88
315.083	261.88
315.312	273.88
315.542	261.88
315.771	237.88
316.001	256.88
316.23	254.88
316.46	249.88
316.689	249.88
316.919	256.88
317.148	267.88
317.377	269.88
317.607	273.88
317.836	260.88
318.065	265.88
318.295	270.88
318.524	271.88
318.753	258.88
318.983	286.88
319.212	257.88
319.441	265.88
319.67	262.88
319.9	278.88
320.129	270.88
320.358	275.88
320.587	255.88
320.816	266.88
321.046	290.88
321.275	290.88
321.504	275.88
321.733	291.88
321.962	267.88
322.191	288.88
322.42	286.88
322.649	289.88
322.878	314.88
323.108	323.88
323.337	325.88
323.566	332.88
323.795	331.88
324.024	386.88
324.253	420.88
324.482	644.88
324.71	963.88
324.939	1352.88
325.168	1124.88
325.397	598.88
325.626	399.88
325.855	362.88
326.084	311.88
326.313	347.88
326.542	336.88
326.77	375.88
326.999	435.88
327.228	587.88
327.457	842.88
327.686	985.88
327.914	665.88
328.143	498.88
328.372	420.88
328.6	373.88
328.829	374.88
329.058	364.88
329.287	374.88
329.515	359.88
329.744	317.88
329.972	343.88
330.201	354.88
330.43	366.88
330.658	389.88
330.887	371.88
331.115	365.88
331.344	346.88
331.572	347.88
331.801	317.88
332.03	320.88
332.258	322.88
332.486	318.88
332.715	294.88
332.943	300.88
333.172	289.88
333.4	321.88
333.629	300.88
333.857	332.88
334.085	310.88
334.314	324.88
334.542	369.88
334.771	344.88
334.999	338.88
335.227	318.88
335.455	313.88
335.684	302.88
335.912	293.88
336.14	307.88
336.369	305.88
336.597	315.88
336.825	312.88
337.053	293.88
337.281	294.88
337.51	309.88
337.738	306.88
337.966	306.88
338.194	303.88
338.422	305.88
338.65	297.88
338.878	279.88
339.106	300.88
339.334	284.88
339.562	302.88
339.79	296.88
340.018	297.88
340.246	297.88
340.474	318.88
340.702	311.88
340.93	296.88
341.158	294.88
341.386	289.88
341.614	294.88
341.842	284.88
342.07	307.88
342.298	293.88
342.526	293.88
342.754	276.88
342.981	288.88
343.209	308.88
343.437	290.88
343.665	296.88
343.893	283.88
344.12	310.88
344.348	302.88
344.576	286.88
344.804	305.88
345.031	313.88
345.259	324.88
345.487	305.88
345.714	287.88
345.942	305.88
346.17	309.88
346.397	288.88
346.625	293.88
346.853	287.88
347.08	272.88
347.308	302.88
347.535	286.88
347.763	299.88
347.99	298.88
348.218	287.88
348.445	308.88
348.673	286.88
348.9	286.88
349.128	285.88
349.355	287.88
349.583	282.88
349.81	282.88
350.037	264.88
350.265	279.88
350.492	269.88
350.72	283.88
350.947	263.88
351.174	301.88
351.402	300.88
351.629	297.88
351.856	285.88
352.083	293.88
352.311	285.88
352.538	313.88
352.765	287.88
352.992	312.88
353.22	319.88
353.447	286.88
353.674	291.88
353.901	279.88
354.128	289.88
354.355	281.88
354.583	267.88
354.81	279.88
355.037	271.88
355.264	269.88
355.491	249.88
355.718	268.88
355.945	274.88
356.172	282.88
356.399	293.88
356.626	288.88
356.853	243.88
357.08	273.88
357.307	271.88
357.534	266.88
357.761	276.88
357.988	301.88
358.215	295.88
358.441	285.88
358.668	289.88
358.895	277.88
359.122	278.88
359.349	282.88
359.576	310.88
359.802	302.88
360.029	303.88
360.256	317.88
360.483	315.88
360.709	293.88
360.936	302.88
361.163	273.88
361.39	289.88
361.616	313.88
361.843	293.88
362.07	295.88
362.296	293.88
362.523	283.88
362.749	302.88
362.976	292.88
363.203	283.88
363.429	281.88
363.656	281.88
363.882	278.88
364.109	285.88
364.335	259.88
364.562	281.88
364.788	281.88
365.015	294.88
365.241	300.88
365.468	275.88
365.694	284.88
365.92	291.88
366.147	276.88
366.373	290.88
366.599	259.88
366.826	286.88
367.052	289.88
367.278	287.88
367.505	272.88
367.731	284.88
367.957	279.88
368.184	263.88
368.41	278.88
368.636	308.88
368.862	285.88
369.089	286.88
369.315	275.88
369.541	293.88
369.767	289.88
369.993	278.88
370.219	295.88
370.445	261.88
370.672	279.88
370.898	274.88
371.124	278.88
371.35	275.88
371.576	268.88
371.802	257.88
372.028	284.88
372.254	297.88
372.48	290.88
372.706	285.88
372.932	274.88
373.158	266.88
373.384	273.88
373.61	283.88
373.835	282.88
374.061	288.88
374.287	301.88
374.513	289.88
374.739	292.88
374.965	293.88
375.191	283.88
375.416	294.88
375.642	285.88
375.868	295.88
376.094	271.88
376.319	294.88
376.545	275.88
376.771	275.88
376.997	280.88
377.222	272.88
377.448	269.88
377.674	285.88
377.899	284.88
378.125	293.88
378.35	292.88
378.576	296.88
378.802	299.88
379.027	287.88
379.253	282.88
379.478	279.88
379.704	266.88
379.929	267.88
380.155	287.88
380.38	290.88
380.606	297.88
380.831	288.88
381.057	303.88
381.282	300.88
381.507	290.88
381.733	279.88
381.958	276.88
382.184	300.88
382.409	298.88
382.634	301.88
382.86	295.88
383.085	293.88
383.31	307.88
383.535	285.88
383.761	296.88
383.986	306.88
384.211	307.88
384.436	308.88
384.662	305.88
384.887	305.88
385.112	295.88
385.337	326.88
385.562	315.88
385.787	310.88
386.013	328.88
386.238	307.88
386.463	314.88
386.688	312.88
386.913	314.88
387.138	318.88
387.363	313.88
387.588	329.88
387.813	311.88
388.038	305.88
388.263	325.88
388.488	302.88
388.713	294.88
388.938	297.88
389.163	323.88
389.387	305.88
389.612	289.88
389.837	323.88
390.062	316.88
390.287	324.88
390.512	305.88
390.736	312.88
390.961	296.88
391.186	334.88
391.411	310.88
391.636	307.88
391.86	310.88
392.085	314.88
392.31	307.88
392.534	315.88
392.759	314.88
392.984	322.88
393.208	321.88
393.433	307.88
393.658	316.88
393.882	330.88
394.107	307.88
394.331	310.88
394.556	306.88
394.78	320.88
395.005	309.88
395.229	317.88
395.454	323.88
395.678	332.88
395.903	321.88
396.127	329.88
396.352	342.88
396.576	344.88
396.801	328.88
397.025	349.88
397.249	328.88
397.474	324.88
397.698	331.88
397.922	355.88
398.147	351.88
398.371	366.88
398.595	335.88
398.82	332.88
399.044	340.88
399.268	358.88
399.492	374.88
399.717	375.88
399.941	391.88
400.165	417.88
400.389	406.88
400.613	379.88
400.837	361.88
401.062	377.88
401.286	358.88
401.51	352.88
401.734	331.88
401.958	357.88
402.182	362.88
402.406	367.88
402.63	348.88
402.854	350.88
403.078	344.88
403.302	341.88
403.526	372.88
403.75	363.88
403.974	336.88
404.198	347.88
404.422	371.88
404.645	369.88
404.869	370.88
405.093	386.88
405.317	397.88
405.541	442.88
405.765	409.88
405.988	399.88
406.212	385.88
406.436	360.88
406.66	385.88
406.883	391.88
407.107	408.88
407.331	441.88
407.555	464.88
407.778	466.88
408.002	428.88
408.226	399.88
408.449	417.88
408.673	404.88
408.896	399.88
409.12	433.88
409.344	414.88
409.567	381.88
409.791	366.88
410.014	374.88
410.238	375.88
410.461	395.88
410.685	378.88
410.908	367.88
411.132	400.88
411.355	415.88
411.578	421.88
411.802	363.88
412.025	377.88
412.249	372.88
412.472	389.88
412.695	395.88
412.919	395.88
413.142	371.88
413.365	362.88
413.589	352.88
413.812	358.88
414.035	349.88
414.258	361.88
414.482	347.88
414.705	371.88
414.928	335.88
415.151	347.88
415.374	352.88
415.597	345.88
415.821	356.88
416.044	349.88
416.267	349.88
416.49	346.88
416.713	341.88
416.936	353.88
417.159	344.88
417.382	350.88
417.605	346.88
417.828	345.88
418.051	341.88
418.274	350.88
418.497	351.88
418.72	351.88
418.943	339.88
419.166	354.88
419.389	373.88
419.611	349.88
419.834	369.88
420.057	375.88
420.28	363.88
420.503	379.88
420.726	359.88
420.948	379.88
421.171	393.88
421.394	404.88
421.617	377.88
421.839	361.88
422.062	372.88
422.285	375.88
422.507	398.88
422.73	451.88
422.953	434.88
423.175	394.88
423.398	371.88
423.621	375.88
423.843	378.88
424.066	379.88
424.288	386.88
424.511	389.88
424.733	403.88
424.956	469.88
425.178	461.88
425.401	447.88
425.623	474.88
425.846	397.88
426.068	399.88
426.291	379.88
426.513	387.88
426.735	405.88
426.958	419.88
427.18	471.88
427.402	542.88
427.625	583.88
427.847	517.88
428.069	474.88
428.292	395.88
428.514	364.88
428.736	363.88
428.958	360.88
429.181	343.88
429.403	372.88
429.625	365.88
429.847	387.88
430.069	433.88
430.292	429.88
430.514	395.88
430.736	346.88
430.958	337.88
431.18	348.88
431.402	371.88
431.624	339.88
431.846	338.88
432.068	351.88
432.29	359.88
432.512	323.88
432.734	345.88
432.956	373.88
433.178	361.88
433.4	369.88
433.622	343.88
433.844	354.88
434.066	349.88
434.287	350.88
434.509	355.88
434.731	359.88
434.953	338.88
435.175	365.88
435.397	377.88
435.618	393.88
435.84	401.88
436.062	484.88
436.284	511.88
436.505	433.88
436.727	406.88
436.949	367.88
437.17	374.88
437.392	355.88
437.614	381.88
437.835	391.88
438.057	447.88
438.278	528.88
438.5	515.88
438.721	573.88
438.943	526.88
439.165	433.88
439.386	400.88
439.608	391.88
439.829	380.88
440.05	406.88
440.272	439.88
440.493	407.88
440.715	376.88
440.936	357.88
441.158	356.88
441.379	361.88
441.6	378.88
441.822	413.88
442.043	422.88
442.264	454.88
442.486	493.88
442.707	425.88
442.928	406.88
443.149	406.88
443.371	409.88
443.592	442.88
443.813	477.88
444.034	530.88
444.255	455.88
444.476	406.88
444.698	381.88
444.919	398.88
445.14	523.88
445.361	447.88
445.582	421.88
445.803	434.88
446.024	517.88
446.245	554.88
446.466	495.88
446.687	424.88
446.908	386.88
447.129	382.88
447.35	382.88
447.571	350.88
447.792	373.88
448.013	361.88
448.234	390.88
448.455	416.88
448.675	462.88
448.896	550.88
449.117	481.88
449.338	469.88
449.559	538.88
449.779	589.88
450	459.88
450.221	407.88
450.442	364.88
450.662	358.88
450.883	350.88
451.104	364.88
451.324	379.88
451.545	357.88
451.766	335.88
451.986	323.88
452.207	328.88
452.428	323.88
452.648	342.88
452.869	348.88
453.089	353.88
453.31	327.88
453.53	315.88
453.751	333.88
453.971	334.88
454.192	330.88
454.412	329.88
454.633	325.88
454.853	332.88
455.073	322.88
455.294	364.88
455.514	385.88
455.734	389.88
455.955	339.88
456.175	319.88
456.395	331.88
456.616	300.88
456.836	312.88
457.056	307.88
457.276	303.88
457.497	302.88
457.717	322.88
457.937	305.88
458.157	320.88
458.377	330.88
458.598	341.88
458.818	352.88
459.038	408.88
459.258	433.88
459.478	369.88
459.698	340.88
459.918	367.88
460.138	350.88
460.358	342.88
460.578	354.88
460.798	349.88
461.018	368.88
461.238	335.88
461.458	362.88
461.678	363.88
461.898	348.88
462.118	347.88
462.338	363.88
462.558	357.88
462.777	361.88
462.997	369.88
463.217	385.88
463.437	386.88
463.657	365.88
463.876	355.88
464.096	381.88
464.316	387.88
464.536	359.88
464.755	366.88
464.975	370.88
465.195	384.88
465.414	424.88
465.634	385.88
465.854	375.88
466.073	357.88
466.293	353.88
466.512	345.88
466.732	323.88
466.951	341.88
467.171	362.88
467.391	329.88
467.61	333.88
467.829	332.88
468.049	359.88
468.268	344.88
468.488	330.88
468.707	342.88
468.927	347.88
469.146	343.88
469.365	347.88
469.585	335.88
469.804	338.88
470.023	346.88
470.243	335.88
470.462	353.88
470.681	359.88
470.901	340.88
471.12	350.88
471.339	355.88
471.558	338.88
471.777	342.88
471.997	334.88
472.216	352.88
472.435	356.88
472.654	356.88
472.873	354.88
473.092	365.88
473.311	357.88
473.53	363.88
473.749	358.88
473.968	361.88
474.187	412.88
474.406	441.88
474.625	381.88
474.844	352.88
475.063	351.88
475.282	349.88
475.501	346.88
475.72	342.88
475.939	342.88
476.158	344.88
476.377	372.88
476.596	342.88
476.814	368.88
477.033	383.88
477.252	372.88
477.471	371.88
477.69	352.88
477.908	373.88
478.127	403.88
478.346	367.88
478.564	383.88
478.783	389.88
479.002	399.88
479.22	385.88
479.439	400.88
479.658	409.88
479.876	405.88
480.095	418.88
480.313	437.88
480.532	430.88
480.751	405.88
480.969	431.88
481.188	437.88
481.406	474.88
481.624	426.88
481.843	426.88
482.061	408.88
482.28	397.88
482.498	414.88
482.717	388.88
482.935	395.88
483.153	396.88
483.372	404.88
483.59	414.88
483.808	412.88
484.027	404.88
484.245	407.88
484.463	413.88
484.681	424.88
484.9	419.88
485.118	423.88
485.336	412.88
485.554	426.88
485.772	435.88
485.99	408.88
486.209	431.88
486.427	413.88
486.645	414.88
486.863	425.88
487.081	424.88
487.299	444.88
487.517	421.88
487.735	418.88
487.953	437.88
488.171	442.88
488.389	424.88
488.607	432.88
488.825	412.88
489.043	417.88
489.261	420.88
489.479	445.88
489.696	449.88
489.914	447.88
490.132	438.88
490.35	438.88
490.568	434.88
490.786	454.88
491.003	443.88
491.221	470.88
491.439	473.88
491.657	491.88
491.874	494.88
492.092	480.88
492.31	491.88
492.527	485.88
492.745	469.88
492.963	489.88
493.18	479.88
493.398	481.88
493.615	524.88
493.833	493.88
494.05	498.88
494.268	492.88
494.485	494.88
494.703	475.88
494.92	497.88
495.138	498.88
495.355	510.88
495.573	507.88
495.79	503.88
496.008	495.88
496.225	494.88
496.442	504.88
496.66	509.88
496.877	517.88
497.094	519.88
497.312	498.88
497.529	512.88
497.746	507.88
497.963	518.88
498.181	555.88
498.398	565.88
498.615	579.88
498.832	562.88
499.049	557.88
499.267	565.88
499.484	609.88
499.701	606.88
499.918	635.88
500.135	649.88
500.352	646.88
500.569	645.88
500.786	690.88
501.003	675.88
501.22	644.88
501.437	635.88
501.654	625.88
501.871	604.88
502.088	613.88
502.305	571.88
502.522	561.88
502.739	579.88
502.956	543.88
503.172	569.88
503.389	540.88
503.606	519.88
503.823	546.88
504.04	548.88
504.256	534.88
504.473	513.88
504.69	489.88
504.907	509.88
505.123	484.88
505.34	508.88
505.557	497.88
505.773	486.88
505.99	500.88
506.207	503.88
506.423	498.88
506.64	477.88
506.856	469.88
507.073	486.88
507.289	483.88
507.506	489.88
507.722	472.88
507.939	481.88
508.155	472.88
508.372	468.88
508.588	463.88
508.805	460.88
509.021	465.88
509.238	474.88
509.454	466.88
509.67	461.88
509.887	455.88
510.103	463.88
510.319	449.88
510.536	520.88
510.752	807.88
510.968	641.88
511.184	469.88
511.401	462.88
511.617	453.88
511.833	448.88
512.049	441.88
512.265	437.88
512.481	442.88
512.698	427.88
512.914	451.88
513.13	423.88
513.346	449.88
513.562	438.88
513.778	421.88
513.994	445.88
514.21	440.88
514.426	461.88
514.642	468.88
514.858	520.88
515.074	501.88
515.29	573.88
515.506	775.88
515.721	658.88
515.937	499.88
516.153	513.88
516.369	474.88
516.585	476.88
516.801	460.88
517.016	446.88
517.232	445.88
517.448	427.88
517.664	469.88
517.879	446.88
518.095	450.88
518.311	467.88
518.527	456.88
518.742	430.88
518.958	437.88
519.173	449.88
519.389	452.88
519.605	430.88
519.82	451.88
520.036	465.88
520.251	468.88
520.467	478.88
520.682	457.88
520.898	470.88
521.113	496.88
521.329	492.88
521.544	562.88
521.76	674.88
521.975	975.88
522.19	959.88
522.406	583.88
522.621	464.88
522.836	454.88
523.052	411.88
523.267	421.88
523.482	410.88
523.698	418.88
523.913	424.88
524.128	403.88
524.343	406.88
524.559	405.88
524.774	404.88
524.989	397.88
525.204	392.88
525.419	387.88
525.634	364.88
525.849	393.88
526.064	387.88
526.28	392.88
526.495	386.88
526.71	382.88
526.925	362.88
527.14	372.88
527.355	377.88
527.57	371.88
527.785	389.88
527.999	379.88
528.214	360.88
528.429	363.88
528.644	367.88
528.859	386.88
529.074	369.88
529.289	386.88
529.503	418.88
529.718	439.88
529.933	386.88
530.148	379.88
530.363	374.88
530.577	367.88
530.792	377.88
531.007	362.88
531.221	359.88
531.436	354.88
531.651	350.88
531.865	385.88
532.08	348.88
532.295	365.88
532.509	357.88
532.724	350.88
532.938	347.88
533.153	365.88
533.367	353.88
533.582	363.88
533.796	340.88
534.011	350.88
534.225	357.88
534.44	341.88
534.654	350.88
534.868	345.88
535.083	362.88
535.297	356.88
535.511	363.88
535.726	366.88
535.94	363.88
536.154	355.88
536.369	365.88
536.583	364.88
536.797	359.88
537.011	345.88
537.225	343.88
537.44	360.88
537.654	356.88
537.868	356.88
538.082	341.88
538.296	343.88
538.51	367.88
538.724	341.88
538.938	330.88
539.153	359.88
539.367	369.88
539.581	371.88
539.795	346.88
540.009	335.88
540.222	350.88
540.436	353.88
540.65	345.88
540.864	345.88
541.078	356.88
541.292	338.88
541.506	361.88
541.72	353.88
541.934	345.88
542.147	348.88
542.361	355.88
542.575	352.88
542.789	342.88
543.002	332.88
543.216	335.88
543.43	353.88
543.644	343.88
543.857	347.88
544.071	344.88
544.285	349.88
544.498	348.88
544.712	342.88
544.925	363.88
545.139	346.88
545.352	350.88
545.566	334.88
545.779	331.88
545.993	339.88
546.206	345.88
546.42	339.88
546.633	328.88
546.847	348.88
547.06	336.88
547.274	341.88
547.487	343.88
547.7	312.88
547.914	339.88
548.127	335.88
548.34	341.88
548.554	330.88
548.767	332.88
548.98	348.88
549.193	328.88
549.407	319.88
549.62	339.88
549.833	348.88
550.046	314.88
550.259	335.88
550.473	318.88
550.686	321.88
550.899	332.88
551.112	343.88
551.325	319.88
551.538	322.88
551.751	342.88
551.964	333.88
552.177	335.88
552.39	342.88
552.603	341.88
552.816	344.88
553.029	351.88
553.242	341.88
553.455	329.88
553.667	339.88
553.88	333.88
554.093	335.88
554.306	343.88
554.519	330.88
554.732	325.88
554.944	330.88
555.157	317.88
555.37	316.88
555.583	301.88
555.795	330.88
556.008	307.88
556.221	313.88
556.433	318.88
556.646	299.88
556.859	312.88
557.071	294.88
557.284	299.88
557.496	314.88
557.709	302.88
557.921	322.88
558.134	317.88
558.346	317.88
558.559	287.88
558.771	297.88
558.984	301.88
559.196	325.88
559.409	312.88
559.621	307.88
559.833	298.88
560.046	298.88
560.258	284.88
560.47	295.88
560.683	293.88
560.895	281.88
561.107	302.88
561.32	295.88
561.532	311.88
561.744	304.88
561.956	285.88
562.168	297.88
562.381	300.88
562.593	309.88
562.805	321.88
563.017	316.88
563.229	294.88
563.441	314.88
563.653	324.88
563.865	316.88
564.077	313.88
564.289	313.88
564.501	326.88
564.713	296.88
564.925	323.88
565.137	307.88
565.349	335.88
565.561	323.88
565.773	316.88
565.985	314.88
566.197	327.88
566.408	333.88
566.62	324.88
566.832	365.88
567.044	318.88
567.255	337.88
567.467	350.88
567.679	350.88
567.891	380.88
568.102	335.88
568.314	366.88
568.526	351.88
568.737	346.88
568.949	319.88
569.161	329.88
569.372	313.88
569.584	299.88
569.795	298.88
570.007	317.88
570.218	319.88
570.43	322.88
570.641	311.88
570.853	288.88
571.064	281.88
571.276	309.88
571.487	286.88
571.698	284.88
571.91	301.88
572.121	272.88
572.333	278.88
572.544	291.88
572.755	290.88
572.966	281.88
573.178	279.88
573.389	290.88
573.6	253.88
573.811	272.88
574.023	273.88
574.234	275.88
574.445	277.88
574.656	274.88
574.867	269.88
575.078	280.88
575.289	276.88
575.501	247.88
575.712	275.88
575.923	254.88
576.134	265.88
576.345	264.88
576.556	267.88
576.767	267.88
576.978	261.88
577.188	246.88
577.399	256.88
577.61	278.88
577.821	238.88
578.032	262.88
578.243	278.88
578.454	367.88
578.665	307.88
578.875	262.88
579.086	253.88
579.297	227.88
579.508	265.88
579.718	241.88
579.929	262.88
580.14	250.88
580.35	240.88
580.561	261.88
580.772	265.88
580.982	255.88
581.193	244.88
581.403	251.88
581.614	250.88
581.825	232.88
582.035	245.88
582.246	258.88
582.456	257.88
582.667	229.88
582.877	238.88
583.087	245.88
583.298	230.88
583.508	237.88
583.719	234.88
583.929	253.88
584.139	251.88
584.35	261.88
584.56	246.88
584.77	243.88
584.981	228.88
585.191	235.88
585.401	257.88
585.611	252.88
585.821	238.88
586.032	237.88
586.242	249.88
586.452	215.88
586.662	233.88
586.872	243.88
587.082	243.88
587.292	246.88
587.502	233.88
587.713	235.88
587.923	245.88
588.133	225.88
588.343	245.88
588.553	223.88
588.762	236.88
588.972	236.88
589.182	258.88
589.392	245.88
589.602	233.88
589.812	247.88
590.022	218.88
590.232	229.88
590.441	238.88
590.651	228.88
590.861	236.88
591.071	240.88
591.281	234.88
591.49	234.88
591.7	227.88
591.91	244.88
592.119	231.88
592.329	228.88
592.539	241.88
592.748	232.88
592.958	251.88
593.167	242.88
593.377	221.88
593.587	265.88
593.796	218.88
594.006	243.88
594.215	247.88
594.424	235.88
594.634	230.88
594.843	226.88
595.053	252.88
595.262	252.88
595.472	235.88
595.681	230.88
595.89	221.88
596.1	210.88
596.309	233.88
596.518	231.88
596.727	226.88
596.937	232.88
597.146	225.88
597.355	231.88
597.564	213.88
597.774	220.88
597.983	206.88
598.192	228.88
598.401	231.88
598.61	220.88
598.819	210.88
599.028	215.88
599.237	210.88
599.446	225.88
599.655	215.88
599.864	204.88
600.073	193.88
600.282	213.88
600.491	215.88
600.7	210.88
600.909	204.88
601.118	213.88
601.327	219.88
601.536	202.88
601.745	217.88
601.953	228.88
602.162	222.88
602.371	205.88
602.58	212.88
602.789	220.88
602.997	220.88
603.206	197.88
603.415	201.88
603.623	200.88
603.832	193.88
604.041	204.88
604.249	195.88
604.458	199.88
604.666	208.88
604.875	206.88
605.084	193.88
605.292	214.88
605.501	206.88
605.709	199.88
605.918	191.88
606.126	198.88
606.334	200.88
606.543	190.88
606.751	212.88
606.96	194.88
607.168	198.88
607.376	197.88
607.585	204.88
607.793	215.88
608.001	215.88
608.21	201.88
608.418	211.88
608.626	203.88
608.834	201.88
609.043	206.88
609.251	211.88
609.459	209.88
609.667	199.88
609.875	200.88
610.083	199.88
610.291	200.88
610.499	203.88
610.707	191.88
610.916	182.88
611.124	208.88
611.332	189.88
611.54	200.88
611.748	222.88
611.955	194.88
612.163	191.88
612.371	201.88
612.579	193.88
612.787	190.88
612.995	205.88
613.203	204.88
613.411	198.88
613.618	204.88
613.826	194.88
614.034	182.88
614.242	193.88
614.449	193.88
614.657	187.88
614.865	176.88
615.072	187.88
615.28	183.88
615.488	193.88
615.695	190.88
615.903	185.88
616.111	188.88
616.318	178.88
616.526	207.88
616.733	193.88
616.941	187.88
617.148	205.88
617.356	195.88
617.563	213.88
617.771	181.88
617.978	203.88
618.185	194.88
618.393	181.88
618.6	188.88
618.807	181.88
619.015	193.88
619.222	174.88
619.429	188.88
619.637	185.88
619.844	175.88
620.051	184.88
620.258	200.88
620.466	173.88
620.673	179.88
620.88	175.88
621.087	188.88
621.294	179.88
621.501	190.88
621.708	195.88
621.915	183.88
622.122	181.88
622.329	169.88
622.536	174.88
622.743	189.88
622.95	189.88
623.157	189.88
623.364	191.88
623.571	184.88
623.778	179.88
623.985	176.88
624.192	180.88
624.399	188.88
624.606	182.88
624.812	171.88
625.019	189.88
625.226	171.88
625.433	177.88
625.639	174.88
625.846	172.88
626.053	173.88
626.259	194.88
626.466	183.88
626.673	190.88
626.879	180.88
627.086	171.88
627.293	185.88
627.499	169.88
627.706	161.88
627.912	178.88
628.119	178.88
628.325	162.88
628.532	178.88
628.738	155.88
628.945	159.88
629.151	180.88
629.357	169.88
629.564	171.88
629.77	166.88
629.976	159.88
630.183	187.88
630.389	165.88
630.595	181.88
630.802	177.88
631.008	174.88
631.214	177.88
631.42	165.88
631.627	175.88
631.833	177.88
632.039	172.88
632.245	157.88
632.451	169.88
632.657	161.88
632.863	155.88
633.069	136.88
633.275	159.88
633.481	167.88
633.688	154.88
633.893	161.88
634.099	167.88
634.305	161.88
634.511	153.88
634.717	170.88
634.923	144.88
635.129	160.88
635.335	154.88
635.541	151.88
635.747	161.88
635.952	142.88
636.158	152.88
636.364	151.88
636.57	151.88
636.775	153.88
636.981	168.88
637.187	159.88
637.392	175.88
637.598	163.88
637.804	165.88
638.009	161.88
638.215	156.88
638.421	162.88
638.626	155.88
638.832	145.88
639.037	138.88
639.243	155.88
639.448	153.88
639.654	159.88
639.859	150.88
640.065	147.88
640.27	177.88
640.475	161.88
640.681	153.88
640.886	146.88
641.091	147.88
641.297	153.88
641.502	130.88
641.707	153.88
641.913	170.88
642.118	147.88
642.323	154.88
642.528	155.88
642.733	162.88
642.939	148.88
643.144	149.88
643.349	153.88
643.554	160.88
643.759	161.88
643.964	147.88
644.169	162.88
644.374	148.88
644.579	141.88
644.784	147.88
644.989	137.88
645.194	155.88
645.399	154.88
645.604	168.88
645.809	145.88
646.014	149.88
646.219	137.88
646.423	150.88
646.628	155.88
646.833	141.88
647.038	148.88
647.243	150.88
647.447	151.88
647.652	147.88
647.857	141.88
648.062	143.88
648.266	140.88
648.471	141.88
648.676	151.88
648.88	147.88
649.085	129.88
649.289	139.88
649.494	153.88
649.698	154.88
649.903	142.88
650.107	162.88
650.312	160.88
650.516	142.88
650.721	164.88
650.925	149.88
651.13	143.88
651.334	129.88
651.539	149.88
651.743	135.88
651.947	126.88
652.152	124.88
652.356	134.88
652.56	142.88
652.764	141.88
652.969	131.88
653.173	118.88
653.377	126.88
653.581	126.88
653.785	115.88
653.99	132.88
654.194	124.88
654.398	127.88
654.602	128.88
654.806	133.88
655.01	125.88
655.214	150.88
655.418	126.88
655.622	121.88
655.826	129.88
656.03	130.88
656.234	129.88
656.438	127.88
656.642	125.88
656.846	129.88
657.049	125.88
657.253	123.88
657.457	115.88
657.661	118.88
657.865	119.88
658.068	117.88
658.272	133.88
658.476	102.88
658.68	113.88
658.883	99.88
659.087	111.88
659.291	108.88
659.494	97.88
659.698	101.88
659.901	103.88
660.105	99.88
660.309	100.88
660.512	97.88
660.716	88.88
660.919	91.88
661.123	93.88
661.326	72.88
661.53	93.88
661.733	78.88
661.936	94.88
662.14	95.88
662.343	87.88
662.546	96.88
662.75	98.88
662.953	98.88
663.156	91.88
663.36	100.88
663.563	78.88
663.766	81.88
663.969	103.88
664.173	83.88
664.376	78.88
664.579	94.88
664.782	96.88
664.985	90.88
665.188	78.88
665.391	96.88
665.594	83.88
665.797	81.88
666	86.88
666.203	97.88
666.406	81.88
666.609	83.88
666.812	91.88
667.015	97.88
667.218	86.88
667.421	77.88
667.624	88.88
667.827	89.88
668.03	102.88
668.232	85.88
668.435	91.88
668.638	82.88
668.841	100.88
669.043	80.88
669.246	94.88
669.449	95.88
669.651	79.88
669.854	77.88
670.057	83.88
670.259	83.88
670.462	88.88
670.665	83.88
670.867	95.88
671.07	97.88
671.272	78.88
671.475	112.88
671.677	96.88
671.88	85.88
672.082	92.88
672.284	82.88
672.487	89.88
672.689	84.88
672.892	75.88
