Data from 1961.PennyLincolnUp.Lamp.En5.5.200Scan.071719.P1._HRD10591_13-48-34-057.txt Node
Date: Thu Jul 18 13:48:34 EDT 2019
User: cochatt
Spectrometer: HR+D1059
Trigger mode: 1
Integration Time (sec): 1.000000E-1
Scans to average: 1
Electric dark correction enabled: true
Nonlinearity correction enabled: false
Boxcar width: 0
XAxis mode: Wavelengths
Number of Pixels in Spectrum: 2048
>>>>>Begin Spectral Data<<<<<
223.165	-19.12
223.4	-19.12
223.635	-19.12
223.869	-10.12
224.104	-24.12
224.338	-6.12
224.573	-10.12
224.808	-10.12
225.042	-7.12
225.277	-5.12
225.511	-3.12
225.746	0.88
225.98	17.88
226.215	9.88
226.449	1.88
226.683	29.88
226.918	2.88
227.152	31.88
227.387	25.88
227.621	23.88
227.856	50.88
228.09	48.88
228.324	55.88
228.559	76.88
228.793	63.88
229.027	107.88
229.262	105.88
229.496	114.88
229.73	120.88
229.964	138.88
230.199	103.88
230.433	111.88
230.667	108.88
230.901	118.88
231.136	99.88
231.37	108.88
231.604	114.88
231.838	110.88
232.072	99.88
232.306	114.88
232.541	108.88
232.775	112.88
233.009	109.88
233.243	88.88
233.477	106.88
233.711	102.88
233.945	110.88
234.179	100.88
234.413	114.88
234.647	100.88
234.881	107.88
235.115	108.88
235.349	104.88
235.583	121.88
235.817	117.88
236.051	105.88
236.285	116.88
236.519	115.88
236.753	119.88
236.987	117.88
237.221	170.88
237.455	201.88
237.689	176.88
237.922	127.88
238.156	121.88
238.39	120.88
238.624	112.88
238.858	128.88
239.091	122.88
239.325	113.88
239.559	124.88
239.793	125.88
240.027	137.88
240.26	126.88
240.494	128.88
240.728	142.88
240.961	130.88
241.195	111.88
241.429	114.88
241.662	121.88
241.896	110.88
242.13	114.88
242.363	118.88
242.597	131.88
242.83	124.88
243.064	117.88
243.298	129.88
243.531	126.88
243.765	116.88
243.998	119.88
244.232	117.88
244.465	139.88
244.699	128.88
244.932	124.88
245.166	137.88
245.399	126.88
245.633	124.88
245.866	144.88
246.099	135.88
246.333	122.88
246.566	122.88
246.8	122.88
247.033	133.88
247.266	130.88
247.5	149.88
247.733	152.88
247.966	148.88
248.2	131.88
248.433	133.88
248.666	160.88
248.899	150.88
249.133	161.88
249.366	198.88
249.599	182.88
249.832	161.88
250.066	172.88
250.299	145.88
250.532	158.88
250.765	174.88
250.998	202.88
251.231	194.88
251.465	185.88
251.698	183.88
251.931	169.88
252.164	174.88
252.397	177.88
252.63	164.88
252.863	181.88
253.096	176.88
253.329	197.88
253.562	184.88
253.795	186.88
254.028	170.88
254.261	188.88
254.494	193.88
254.727	204.88
254.96	256.88
255.193	225.88
255.426	213.88
255.659	201.88
255.892	201.88
256.124	193.88
256.357	202.88
256.59	199.88
256.823	191.88
257.056	186.88
257.289	203.88
257.521	170.88
257.754	153.88
257.987	169.88
258.22	174.88
258.452	168.88
258.685	194.88
258.918	182.88
259.151	194.88
259.383	181.88
259.616	181.88
259.849	186.88
260.081	195.88
260.314	218.88
260.547	221.88
260.779	216.88
261.012	218.88
261.244	205.88
261.477	199.88
261.71	189.88
261.942	204.88
262.175	209.88
262.407	192.88
262.64	193.88
262.872	196.88
263.105	189.88
263.337	178.88
263.57	185.88
263.802	173.88
264.035	192.88
264.267	183.88
264.499	159.88
264.732	162.88
264.964	188.88
265.197	177.88
265.429	179.88
265.661	177.88
265.894	166.88
266.126	176.88
266.358	185.88
266.591	164.88
266.823	204.88
267.055	199.88
267.287	180.88
267.52	188.88
267.752	197.88
267.984	187.88
268.216	187.88
268.448	186.88
268.681	201.88
268.913	199.88
269.145	218.88
269.377	226.88
269.609	228.88
269.841	253.88
270.073	240.88
270.306	252.88
270.538	260.88
270.77	253.88
271.002	250.88
271.234	234.88
271.466	250.88
271.698	263.88
271.93	255.88
272.162	278.88
272.394	272.88
272.626	261.88
272.858	260.88
273.09	223.88
273.322	240.88
273.553	246.88
273.785	215.88
274.017	209.88
274.249	206.88
274.481	228.88
274.713	222.88
274.945	242.88
275.176	233.88
275.408	228.88
275.64	234.88
275.872	209.88
276.104	227.88
276.335	224.88
276.567	240.88
276.799	245.88
277.031	271.88
277.262	274.88
277.494	278.88
277.726	236.88
277.957	241.88
278.189	227.88
278.421	213.88
278.652	222.88
278.884	205.88
279.115	229.88
279.347	242.88
279.579	220.88
279.81	214.88
280.042	207.88
280.273	212.88
280.505	218.88
280.736	227.88
280.968	224.88
281.199	212.88
281.431	229.88
281.662	237.88
281.894	220.88
282.125	222.88
282.356	230.88
282.588	258.88
282.819	286.88
283.051	236.88
283.282	217.88
283.513	242.88
283.745	225.88
283.976	228.88
284.207	243.88
284.439	237.88
284.67	231.88
284.901	221.88
285.132	222.88
285.364	235.88
285.595	218.88
285.826	229.88
286.057	230.88
286.288	229.88
286.52	214.88
286.751	232.88
286.982	236.88
287.213	227.88
287.444	224.88
287.675	236.88
287.906	233.88
288.138	230.88
288.369	255.88
288.6	244.88
288.831	250.88
289.062	233.88
289.293	236.88
289.524	236.88
289.755	253.88
289.986	248.88
290.217	238.88
290.448	231.88
290.679	235.88
290.91	247.88
291.141	236.88
291.371	245.88
291.602	227.88
291.833	218.88
292.064	237.88
292.295	243.88
292.526	228.88
292.757	236.88
292.987	232.88
293.218	236.88
293.449	242.88
293.68	223.88
293.91	221.88
294.141	245.88
294.372	233.88
294.603	224.88
294.833	240.88
295.064	252.88
295.295	249.88
295.525	252.88
295.756	257.88
295.987	243.88
296.217	255.88
296.448	281.88
296.679	272.88
296.909	238.88
297.14	260.88
297.37	242.88
297.601	246.88
297.831	245.88
298.062	241.88
298.292	254.88
298.523	232.88
298.753	247.88
298.984	236.88
299.214	250.88
299.445	267.88
299.675	256.88
299.905	256.88
300.136	260.88
300.366	254.88
300.597	245.88
300.827	241.88
301.057	256.88
301.288	262.88
301.518	263.88
301.748	259.88
301.979	263.88
302.209	261.88
302.439	287.88
302.669	278.88
302.9	268.88
303.13	245.88
303.36	263.88
303.59	274.88
303.82	285.88
304.051	283.88
304.281	265.88
304.511	268.88
304.741	274.88
304.971	278.88
305.201	277.88
305.431	255.88
305.661	270.88
305.891	276.88
306.121	266.88
306.352	287.88
306.582	269.88
306.812	267.88
307.042	255.88
307.272	263.88
307.502	271.88
307.731	269.88
307.961	271.88
308.191	282.88
308.421	286.88
308.651	265.88
308.881	282.88
309.111	287.88
309.341	272.88
309.571	302.88
309.8	292.88
310.03	307.88
310.26	310.88
310.49	319.88
310.72	331.88
310.949	333.88
311.179	345.88
311.409	325.88
311.639	306.88
311.868	324.88
312.098	328.88
312.328	325.88
312.557	338.88
312.787	366.88
313.017	361.88
313.246	330.88
313.476	331.88
313.706	311.88
313.935	331.88
314.165	327.88
314.394	340.88
314.624	330.88
314.853	346.88
315.083	334.88
315.312	313.88
315.542	301.88
315.771	313.88
316.001	304.88
316.23	287.88
316.46	318.88
316.689	304.88
316.919	315.88
317.148	334.88
317.377	326.88
317.607	334.88
317.836	336.88
318.065	324.88
318.295	322.88
318.524	319.88
318.753	342.88
318.983	340.88
319.212	313.88
319.441	330.88
319.67	323.88
319.9	317.88
320.129	314.88
320.358	326.88
320.587	316.88
320.816	327.88
321.046	345.88
321.275	351.88
321.504	341.88
321.733	346.88
321.962	359.88
322.191	353.88
322.42	368.88
322.649	388.88
322.878	392.88
323.108	417.88
323.337	447.88
323.566	452.88
323.795	510.88
324.024	577.88
324.253	702.88
324.482	1053.88
324.71	1664.88
324.939	2258.88
325.168	1868.88
325.397	978.88
325.626	654.88
325.855	563.88
326.084	485.88
326.313	506.88
326.542	472.88
326.77	529.88
326.999	652.88
327.228	907.88
327.457	1420.88
327.686	1654.88
327.914	1075.88
328.143	734.88
328.372	629.88
328.6	563.88
328.829	531.88
329.058	549.88
329.287	565.88
329.515	514.88
329.744	458.88
329.972	471.88
330.201	477.88
330.43	537.88
330.658	527.88
330.887	577.88
331.115	570.88
331.344	484.88
331.572	454.88
331.801	468.88
332.03	411.88
332.258	421.88
332.486	385.88
332.715	382.88
332.943	385.88
333.172	389.88
333.4	394.88
333.629	401.88
333.857	390.88
334.085	410.88
334.314	454.88
334.542	484.88
334.771	501.88
334.999	434.88
335.227	416.88
335.455	394.88
335.684	382.88
335.912	374.88
336.14	383.88
336.369	376.88
336.597	375.88
336.825	386.88
337.053	372.88
337.281	353.88
337.51	355.88
337.738	373.88
337.966	346.88
338.194	372.88
338.422	384.88
338.65	365.88
338.878	367.88
339.106	351.88
339.334	338.88
339.562	358.88
339.79	358.88
340.018	350.88
340.246	356.88
340.474	358.88
340.702	365.88
340.93	369.88
341.158	360.88
341.386	348.88
341.614	376.88
341.842	356.88
342.07	356.88
342.298	349.88
342.526	351.88
342.754	329.88
342.981	339.88
343.209	336.88
343.437	348.88
343.665	335.88
343.893	346.88
344.12	338.88
344.348	346.88
344.576	368.88
344.804	356.88
345.031	366.88
345.259	391.88
345.487	393.88
345.714	359.88
345.942	374.88
346.17	359.88
346.397	352.88
346.625	361.88
346.853	342.88
347.08	361.88
347.308	356.88
347.535	388.88
347.763	383.88
347.99	363.88
348.218	349.88
348.445	353.88
348.673	378.88
348.9	354.88
349.128	350.88
349.355	339.88
349.583	344.88
349.81	342.88
350.037	327.88
350.265	332.88
350.492	335.88
350.72	323.88
350.947	340.88
351.174	357.88
351.402	354.88
351.629	373.88
351.856	382.88
352.083	364.88
352.311	360.88
352.538	361.88
352.765	353.88
352.992	366.88
353.22	366.88
353.447	362.88
353.674	332.88
353.901	342.88
354.128	337.88
354.355	334.88
354.583	336.88
354.81	341.88
355.037	318.88
355.264	324.88
355.491	306.88
355.718	321.88
355.945	307.88
356.172	327.88
356.399	316.88
356.626	309.88
356.853	325.88
357.08	310.88
357.307	313.88
357.534	312.88
357.761	317.88
357.988	305.88
358.215	329.88
358.441	323.88
358.668	343.88
358.895	313.88
359.122	333.88
359.349	360.88
359.576	366.88
359.802	346.88
360.029	396.88
360.256	405.88
360.483	386.88
360.709	360.88
360.936	354.88
361.163	361.88
361.39	355.88
361.616	364.88
361.843	336.88
362.07	368.88
362.296	352.88
362.523	358.88
362.749	341.88
362.976	353.88
363.203	333.88
363.429	343.88
363.656	332.88
363.882	356.88
364.109	323.88
364.335	341.88
364.562	337.88
364.788	330.88
365.015	355.88
365.241	340.88
365.468	341.88
365.694	348.88
365.92	337.88
366.147	324.88
366.373	350.88
366.599	318.88
366.826	327.88
367.052	318.88
367.278	338.88
367.505	324.88
367.731	324.88
367.957	330.88
368.184	335.88
368.41	329.88
368.636	338.88
368.862	318.88
369.089	318.88
369.315	339.88
369.541	341.88
369.767	337.88
369.993	325.88
370.219	335.88
370.445	330.88
370.672	319.88
370.898	311.88
371.124	288.88
371.35	318.88
371.576	316.88
371.802	330.88
372.028	324.88
372.254	327.88
372.48	331.88
372.706	317.88
372.932	322.88
373.158	300.88
373.384	340.88
373.61	339.88
373.835	310.88
374.061	320.88
374.287	342.88
374.513	337.88
374.739	325.88
374.965	346.88
375.191	333.88
375.416	312.88
375.642	336.88
375.868	312.88
376.094	328.88
376.319	314.88
376.545	328.88
376.771	335.88
376.997	316.88
377.222	319.88
377.448	330.88
377.674	325.88
377.899	316.88
378.125	327.88
378.35	336.88
378.576	326.88
378.802	318.88
379.027	319.88
379.253	322.88
379.478	305.88
379.704	323.88
379.929	310.88
380.155	323.88
380.38	303.88
380.606	328.88
380.831	311.88
381.057	333.88
381.282	329.88
381.507	316.88
381.733	329.88
381.958	326.88
382.184	320.88
382.409	320.88
382.634	334.88
382.86	330.88
383.085	319.88
383.31	337.88
383.535	331.88
383.761	330.88
383.986	334.88
384.211	316.88
384.436	335.88
384.662	327.88
384.887	342.88
385.112	327.88
385.337	339.88
385.562	348.88
385.787	339.88
386.013	343.88
386.238	361.88
386.463	348.88
386.688	329.88
386.913	334.88
387.138	346.88
387.363	340.88
387.588	352.88
387.813	352.88
388.038	349.88
388.263	350.88
388.488	336.88
388.713	346.88
388.938	343.88
389.163	348.88
389.387	367.88
389.612	342.88
389.837	336.88
390.062	349.88
390.287	342.88
390.512	337.88
390.736	357.88
390.961	341.88
391.186	354.88
391.411	340.88
391.636	341.88
391.86	346.88
392.085	374.88
392.31	349.88
392.534	346.88
392.759	343.88
392.984	339.88
393.208	325.88
393.433	362.88
393.658	361.88
393.882	332.88
394.107	342.88
394.331	338.88
394.556	334.88
394.78	336.88
395.005	360.88
395.229	351.88
395.454	368.88
395.678	356.88
395.903	376.88
396.127	372.88
396.352	406.88
396.576	361.88
396.801	364.88
397.025	348.88
397.249	346.88
397.474	364.88
397.698	368.88
397.922	383.88
398.147	401.88
398.371	381.88
398.595	360.88
398.82	374.88
399.044	388.88
399.268	395.88
399.492	409.88
399.717	418.88
399.941	431.88
400.165	468.88
400.389	485.88
400.613	461.88
400.837	414.88
401.062	416.88
401.286	388.88
401.51	374.88
401.734	391.88
401.958	392.88
402.182	368.88
402.406	404.88
402.63	411.88
402.854	420.88
403.078	406.88
403.302	425.88
403.526	432.88
403.75	419.88
403.974	417.88
404.198	392.88
404.422	411.88
404.645	451.88
404.869	445.88
405.093	452.88
405.317	476.88
405.541	513.88
405.765	466.88
405.988	430.88
406.212	465.88
406.436	484.88
406.66	478.88
406.883	444.88
407.107	467.88
407.331	508.88
407.555	529.88
407.778	568.88
408.002	497.88
408.226	456.88
408.449	450.88
408.673	471.88
408.896	479.88
409.12	517.88
409.344	466.88
409.567	446.88
409.791	408.88
410.014	405.88
410.238	432.88
410.461	430.88
410.685	417.88
410.908	436.88
411.132	464.88
411.355	491.88
411.578	445.88
411.802	433.88
412.025	432.88
412.249	459.88
412.472	447.88
412.695	484.88
412.919	471.88
413.142	450.88
413.365	417.88
413.589	408.88
413.812	423.88
414.035	403.88
414.258	377.88
414.482	374.88
414.705	410.88
414.928	365.88
415.151	368.88
415.374	386.88
415.597	394.88
415.821	391.88
416.044	397.88
416.267	398.88
416.49	403.88
416.713	373.88
416.936	382.88
417.159	392.88
417.382	384.88
417.605	383.88
417.828	402.88
418.051	397.88
418.274	420.88
418.497	409.88
418.72	393.88
418.943	393.88
419.166	413.88
419.389	423.88
419.611	400.88
419.834	401.88
420.057	424.88
420.28	412.88
420.503	399.88
420.726	415.88
420.948	419.88
421.171	477.88
421.394	490.88
421.617	438.88
421.839	438.88
422.062	401.88
422.285	441.88
422.507	477.88
422.73	561.88
422.953	530.88
423.175	473.88
423.398	421.88
423.621	412.88
423.843	436.88
424.066	432.88
424.288	467.88
424.511	469.88
424.733	503.88
424.956	589.88
425.178	569.88
425.401	549.88
425.623	580.88
425.846	492.88
426.068	462.88
426.291	457.88
426.513	463.88
426.735	458.88
426.958	516.88
427.18	566.88
427.402	684.88
427.625	760.88
427.847	679.88
428.069	588.88
428.292	528.88
428.514	447.88
428.736	449.88
428.958	447.88
429.181	423.88
429.403	441.88
429.625	432.88
429.847	462.88
430.069	508.88
430.292	499.88
430.514	449.88
430.736	450.88
430.958	402.88
431.18	400.88
431.402	408.88
431.624	389.88
431.846	408.88
432.068	403.88
432.29	415.88
432.512	429.88
432.734	404.88
432.956	372.88
433.178	423.88
433.4	407.88
433.622	414.88
433.844	380.88
434.066	397.88
434.287	412.88
434.509	399.88
434.731	387.88
434.953	408.88
435.175	432.88
435.397	421.88
435.618	459.88
435.84	512.88
436.062	582.88
436.284	633.88
436.505	533.88
436.727	487.88
436.949	450.88
437.17	434.88
437.392	439.88
437.614	444.88
437.835	493.88
438.057	587.88
438.278	634.88
438.5	636.88
438.721	686.88
438.943	656.88
439.165	542.88
439.386	478.88
439.608	500.88
439.829	472.88
440.05	524.88
440.272	547.88
440.493	508.88
440.715	466.88
440.936	425.88
441.158	423.88
441.379	421.88
441.6	423.88
441.822	465.88
442.043	497.88
442.264	562.88
442.486	609.88
442.707	494.88
442.928	479.88
443.149	485.88
443.371	503.88
443.592	528.88
443.813	646.88
444.034	639.88
444.255	543.88
444.476	485.88
444.698	462.88
444.919	444.88
445.14	545.88
445.361	520.88
445.582	499.88
445.803	586.88
446.024	664.88
446.245	673.88
446.466	626.88
446.687	505.88
446.908	448.88
447.129	438.88
447.35	432.88
447.571	451.88
447.792	412.88
448.013	424.88
448.234	453.88
448.455	500.88
448.675	597.88
448.896	682.88
449.117	591.88
449.338	560.88
449.559	635.88
449.779	729.88
450	588.88
450.221	462.88
450.442	447.88
450.662	431.88
450.883	428.88
451.104	461.88
451.324	452.88
451.545	428.88
451.766	400.88
451.986	406.88
452.207	390.88
452.428	405.88
452.648	394.88
452.869	398.88
453.089	409.88
453.31	397.88
453.53	408.88
453.751	380.88
453.971	390.88
454.192	414.88
454.412	416.88
454.633	418.88
454.853	402.88
455.073	386.88
455.294	415.88
455.514	471.88
455.734	455.88
455.955	389.88
456.175	346.88
456.395	359.88
456.616	375.88
456.836	364.88
457.056	360.88
457.276	353.88
457.497	378.88
457.717	352.88
457.937	349.88
458.157	374.88
458.377	384.88
458.598	412.88
458.818	468.88
459.038	540.88
459.258	538.88
459.478	476.88
459.698	422.88
459.918	388.88
460.138	402.88
460.358	406.88
460.578	387.88
460.798	405.88
461.018	403.88
461.238	394.88
461.458	404.88
461.678	402.88
461.898	398.88
462.118	403.88
462.338	412.88
462.558	405.88
462.777	414.88
462.997	400.88
463.217	443.88
463.437	425.88
463.657	414.88
463.876	412.88
464.096	425.88
464.316	409.88
464.536	418.88
464.755	418.88
464.975	436.88
465.195	502.88
465.414	534.88
465.634	512.88
465.854	445.88
466.073	436.88
466.293	405.88
466.512	390.88
466.732	383.88
466.951	389.88
467.171	388.88
467.391	397.88
467.61	424.88
467.829	417.88
468.049	403.88
468.268	433.88
468.488	415.88
468.707	406.88
468.927	386.88
469.146	399.88
469.365	375.88
469.585	384.88
469.804	399.88
470.023	401.88
470.243	402.88
470.462	408.88
470.681	422.88
470.901	417.88
471.12	415.88
471.339	388.88
471.558	401.88
471.777	394.88
471.997	373.88
472.216	412.88
472.435	462.88
472.654	432.88
472.873	392.88
473.092	403.88
473.311	387.88
473.53	414.88
473.749	400.88
473.968	449.88
474.187	548.88
474.406	558.88
474.625	469.88
474.844	436.88
475.063	396.88
475.282	412.88
475.501	390.88
475.72	414.88
475.939	411.88
476.158	411.88
476.377	419.88
476.596	415.88
476.814	424.88
477.033	413.88
477.252	427.88
477.471	420.88
477.69	423.88
477.908	426.88
478.127	400.88
478.346	456.88
478.564	429.88
478.783	416.88
479.002	452.88
479.22	470.88
479.439	483.88
479.658	472.88
479.876	476.88
480.095	487.88
480.313	514.88
480.532	489.88
480.751	478.88
480.969	509.88
481.188	580.88
481.406	623.88
481.624	542.88
481.843	478.88
482.061	469.88
482.28	489.88
482.498	481.88
482.717	450.88
482.935	470.88
483.153	447.88
483.372	477.88
483.59	477.88
483.808	489.88
484.027	469.88
484.245	466.88
484.463	469.88
484.681	464.88
484.9	458.88
485.118	492.88
485.336	484.88
485.554	481.88
485.772	468.88
485.99	464.88
486.209	488.88
486.427	488.88
486.645	515.88
486.863	506.88
487.081	516.88
487.299	534.88
487.517	522.88
487.735	510.88
487.953	508.88
488.171	510.88
488.389	509.88
488.607	511.88
488.825	501.88
489.043	510.88
489.261	503.88
489.479	536.88
489.696	512.88
489.914	493.88
490.132	512.88
490.35	530.88
490.568	523.88
490.786	542.88
491.003	544.88
491.221	549.88
491.439	566.88
491.657	558.88
491.874	576.88
492.092	571.88
492.31	567.88
492.527	589.88
492.745	584.88
492.963	584.88
493.18	608.88
493.398	598.88
493.615	585.88
493.833	586.88
494.05	599.88
494.268	614.88
494.485	600.88
494.703	570.88
494.92	589.88
495.138	611.88
495.355	610.88
495.573	587.88
495.79	602.88
496.008	596.88
496.225	599.88
496.442	591.88
496.66	609.88
496.877	597.88
497.094	607.88
497.312	596.88
497.529	605.88
497.746	625.88
497.963	629.88
498.181	637.88
498.398	639.88
498.615	648.88
498.832	644.88
499.049	657.88
499.267	688.88
499.484	708.88
499.701	699.88
499.918	700.88
500.135	721.88
500.352	725.88
500.569	749.88
500.786	736.88
501.003	745.88
501.22	730.88
501.437	731.88
501.654	727.88
501.871	726.88
502.088	718.88
502.305	704.88
502.522	662.88
502.739	646.88
502.956	636.88
503.172	607.88
503.389	638.88
503.606	628.88
503.823	637.88
504.04	639.88
504.256	597.88
504.473	594.88
504.69	572.88
504.907	601.88
505.123	607.88
505.34	582.88
505.557	593.88
505.773	577.88
505.99	580.88
506.207	582.88
506.423	587.88
506.64	570.88
506.856	569.88
507.073	576.88
507.289	573.88
507.506	585.88
507.722	594.88
507.939	606.88
508.155	581.88
508.372	560.88
508.588	566.88
508.805	577.88
509.021	576.88
509.238	587.88
509.454	574.88
509.67	563.88
509.887	560.88
510.103	560.88
510.319	581.88
510.536	649.88
510.752	1233.88
510.968	991.88
511.184	603.88
511.401	577.88
511.617	560.88
511.833	523.88
512.049	550.88
512.265	554.88
512.481	533.88
512.698	538.88
512.914	519.88
513.13	532.88
513.346	527.88
513.562	514.88
513.778	539.88
513.994	551.88
514.21	551.88
514.426	580.88
514.642	646.88
514.858	664.88
515.074	716.88
515.29	843.88
515.506	1273.88
515.721	1061.88
515.937	686.88
516.153	598.88
516.369	595.88
516.585	578.88
516.801	535.88
517.016	567.88
517.232	546.88
517.448	562.88
517.664	549.88
517.879	552.88
518.095	568.88
518.311	542.88
518.527	533.88
518.742	562.88
518.958	539.88
519.173	548.88
519.389	539.88
519.605	553.88
519.82	568.88
520.036	541.88
520.251	594.88
520.467	623.88
520.682	620.88
520.898	626.88
521.113	676.88
521.329	725.88
521.544	813.88
521.76	1047.88
521.975	1777.88
522.19	1704.88
522.406	919.88
522.621	659.88
522.836	577.88
523.052	564.88
523.267	486.88
523.482	512.88
523.698	494.88
523.913	492.88
524.128	493.88
524.343	485.88
524.559	494.88
524.774	464.88
524.989	474.88
525.204	493.88
525.419	490.88
525.634	479.88
525.849	460.88
526.064	445.88
526.28	440.88
526.495	426.88
526.71	430.88
526.925	446.88
527.14	425.88
527.355	455.88
527.57	431.88
527.785	432.88
527.999	430.88
528.214	440.88
528.429	421.88
528.644	449.88
528.859	456.88
529.074	439.88
529.289	451.88
529.503	572.88
529.718	527.88
529.933	484.88
530.148	453.88
530.363	448.88
530.577	433.88
530.792	432.88
531.007	416.88
531.221	412.88
531.436	414.88
531.651	412.88
531.865	436.88
532.08	410.88
532.295	421.88
532.509	411.88
532.724	407.88
532.938	401.88
533.153	412.88
533.367	405.88
533.582	415.88
533.796	408.88
534.011	404.88
534.225	408.88
534.44	409.88
534.654	404.88
534.868	412.88
535.083	415.88
535.297	361.88
535.511	426.88
535.726	406.88
535.94	409.88
536.154	417.88
536.369	405.88
536.583	403.88
536.797	402.88
537.011	393.88
537.225	401.88
537.44	382.88
537.654	396.88
537.868	410.88
538.082	384.88
538.296	390.88
538.51	391.88
538.724	408.88
538.938	392.88
539.153	390.88
539.367	407.88
539.581	394.88
539.795	406.88
540.009	410.88
540.222	402.88
540.436	393.88
540.65	382.88
540.864	381.88
541.078	407.88
541.292	391.88
541.506	403.88
541.72	408.88
541.934	398.88
542.147	383.88
542.361	399.88
542.575	383.88
542.789	398.88
543.002	402.88
543.216	390.88
543.43	390.88
543.644	406.88
543.857	379.88
544.071	384.88
544.285	386.88
544.498	374.88
544.712	418.88
544.925	393.88
545.139	381.88
545.352	378.88
545.566	382.88
545.779	370.88
545.993	382.88
546.206	379.88
546.42	373.88
546.633	372.88
546.847	373.88
547.06	368.88
547.274	345.88
547.487	358.88
547.7	373.88
547.914	364.88
548.127	378.88
548.34	386.88
548.554	373.88
548.767	373.88
548.98	363.88
549.193	350.88
549.407	360.88
549.62	365.88
549.833	359.88
550.046	360.88
550.259	371.88
550.473	349.88
550.686	354.88
550.899	360.88
551.112	357.88
551.325	361.88
551.538	385.88
551.751	361.88
551.964	366.88
552.177	352.88
552.39	353.88
552.603	349.88
552.816	361.88
553.029	351.88
553.242	364.88
553.455	386.88
553.667	370.88
553.88	383.88
554.093	365.88
554.306	382.88
554.519	364.88
554.732	377.88
554.944	358.88
555.157	360.88
555.37	355.88
555.583	362.88
555.795	368.88
556.008	331.88
556.221	336.88
556.433	338.88
556.646	342.88
556.859	331.88
557.071	329.88
557.284	348.88
557.496	329.88
557.709	344.88
557.921	329.88
558.134	317.88
558.346	326.88
558.559	342.88
558.771	308.88
558.984	304.88
559.196	329.88
559.409	328.88
559.621	344.88
559.833	321.88
560.046	334.88
560.258	309.88
560.47	316.88
560.683	342.88
560.895	336.88
561.107	312.88
561.32	312.88
561.532	346.88
561.744	325.88
561.956	335.88
562.168	340.88
562.381	316.88
562.593	326.88
562.805	337.88
563.017	325.88
563.229	329.88
563.441	323.88
563.653	325.88
563.865	329.88
564.077	323.88
564.289	336.88
564.501	348.88
564.713	342.88
564.925	337.88
565.137	333.88
565.349	353.88
565.561	349.88
565.773	361.88
565.985	369.88
566.197	354.88
566.408	357.88
566.62	367.88
566.832	361.88
567.044	356.88
567.255	372.88
567.467	376.88
567.679	380.88
567.891	384.88
568.102	366.88
568.314	360.88
568.526	374.88
568.737	361.88
568.949	341.88
569.161	348.88
569.372	345.88
569.584	322.88
569.795	345.88
570.007	349.88
570.218	362.88
570.43	371.88
570.641	328.88
570.853	310.88
571.064	319.88
571.276	328.88
571.487	311.88
571.698	324.88
571.91	305.88
572.121	300.88
572.333	312.88
572.544	281.88
572.755	269.88
572.966	292.88
573.178	288.88
573.389	270.88
573.6	292.88
573.811	295.88
574.023	293.88
574.234	288.88
574.445	306.88
574.656	265.88
574.867	296.88
575.078	286.88
575.289	300.88
575.501	280.88
575.712	267.88
575.923	281.88
576.134	271.88
576.345	265.88
576.556	286.88
576.767	300.88
576.978	284.88
577.188	292.88
577.399	285.88
577.61	285.88
577.821	284.88
578.032	280.88
578.243	329.88
578.454	556.88
578.665	392.88
578.875	287.88
579.086	292.88
579.297	257.88
579.508	272.88
579.718	269.88
579.929	256.88
580.14	260.88
580.35	271.88
580.561	254.88
580.772	280.88
580.982	270.88
581.193	253.88
581.403	246.88
581.614	261.88
581.825	261.88
582.035	262.88
582.246	281.88
582.456	242.88
582.667	244.88
582.877	256.88
583.087	269.88
583.298	268.88
583.508	263.88
583.719	255.88
583.929	264.88
584.139	264.88
584.35	257.88
584.56	251.88
584.77	261.88
584.981	257.88
585.191	268.88
585.401	244.88
585.611	237.88
585.821	260.88
586.032	262.88
586.242	252.88
586.452	239.88
586.662	242.88
586.872	262.88
587.082	250.88
587.292	256.88
587.502	241.88
587.713	244.88
587.923	255.88
588.133	234.88
588.343	246.88
588.553	247.88
588.762	262.88
588.972	229.88
589.182	244.88
589.392	244.88
589.602	245.88
589.812	241.88
590.022	256.88
590.232	247.88
590.441	236.88
590.651	252.88
590.861	246.88
591.071	262.88
591.281	241.88
591.49	264.88
591.7	240.88
591.91	266.88
592.119	257.88
592.329	245.88
592.539	264.88
592.748	244.88
592.958	248.88
593.167	261.88
593.377	254.88
593.587	245.88
593.796	261.88
594.006	256.88
594.215	254.88
594.424	236.88
594.634	263.88
594.843	239.88
595.053	254.88
595.262	241.88
595.472	255.88
595.681	243.88
595.89	232.88
596.1	252.88
596.309	243.88
596.518	216.88
596.727	222.88
596.937	237.88
597.146	228.88
597.355	244.88
597.564	213.88
597.774	214.88
597.983	226.88
598.192	223.88
598.401	226.88
598.61	213.88
598.819	216.88
599.028	216.88
599.237	237.88
599.446	240.88
599.655	230.88
599.864	206.88
600.073	221.88
600.282	226.88
600.491	225.88
600.7	223.88
600.909	229.88
601.118	216.88
601.327	233.88
601.536	226.88
601.745	212.88
601.953	227.88
602.162	213.88
602.371	217.88
602.58	215.88
602.789	202.88
602.997	220.88
603.206	222.88
603.415	210.88
603.623	218.88
603.832	215.88
604.041	220.88
604.249	214.88
604.458	206.88
604.666	196.88
604.875	214.88
605.084	223.88
605.292	203.88
605.501	210.88
605.709	205.88
605.918	197.88
606.126	200.88
606.334	207.88
606.543	201.88
606.751	204.88
606.96	229.88
607.168	198.88
607.376	204.88
607.585	218.88
607.793	213.88
608.001	211.88
608.21	205.88
608.418	204.88
608.626	199.88
608.834	213.88
609.043	201.88
609.251	212.88
609.459	204.88
609.667	215.88
609.875	193.88
610.083	191.88
610.291	206.88
610.499	215.88
610.707	197.88
610.916	209.88
611.124	228.88
611.332	223.88
611.54	215.88
611.748	196.88
611.955	211.88
612.163	204.88
612.371	214.88
612.579	188.88
612.787	210.88
612.995	180.88
613.203	207.88
613.411	192.88
613.618	197.88
613.826	205.88
614.034	202.88
614.242	198.88
614.449	202.88
614.657	198.88
614.865	199.88
615.072	223.88
615.28	199.88
615.488	195.88
615.695	202.88
615.903	194.88
616.111	196.88
616.318	206.88
616.526	197.88
616.733	193.88
616.941	200.88
617.148	209.88
617.356	214.88
617.563	202.88
617.771	210.88
617.978	188.88
618.185	180.88
618.393	186.88
618.6	206.88
618.807	193.88
619.015	198.88
619.222	199.88
619.429	190.88
619.637	199.88
619.844	188.88
620.051	185.88
620.258	186.88
620.466	202.88
620.673	202.88
620.88	181.88
621.087	202.88
621.294	192.88
621.501	199.88
621.708	186.88
621.915	196.88
622.122	201.88
622.329	199.88
622.536	184.88
622.743	198.88
622.95	190.88
623.157	170.88
623.364	196.88
623.571	201.88
623.778	196.88
623.985	184.88
624.192	197.88
624.399	196.88
624.606	198.88
624.812	194.88
625.019	173.88
625.226	197.88
625.433	187.88
625.639	172.88
625.846	197.88
626.053	190.88
626.259	179.88
626.466	181.88
626.673	173.88
626.879	173.88
627.086	177.88
627.293	189.88
627.499	174.88
627.706	170.88
627.912	170.88
628.119	193.88
628.325	193.88
628.532	170.88
628.738	175.88
628.945	169.88
629.151	168.88
629.357	164.88
629.564	186.88
629.77	179.88
629.976	175.88
630.183	162.88
630.389	161.88
630.595	163.88
630.802	167.88
631.008	166.88
631.214	172.88
631.42	177.88
631.627	181.88
631.833	150.88
632.039	175.88
632.245	174.88
632.451	167.88
632.657	171.88
632.863	159.88
633.069	162.88
633.275	161.88
633.481	170.88
633.688	162.88
633.893	166.88
634.099	169.88
634.305	165.88
634.511	145.88
634.717	163.88
634.923	153.88
635.129	136.88
635.335	160.88
635.541	148.88
635.747	166.88
635.952	175.88
636.158	165.88
636.364	184.88
636.57	154.88
636.775	165.88
636.981	167.88
637.187	161.88
637.392	159.88
637.598	152.88
637.804	170.88
638.009	176.88
638.215	161.88
638.421	177.88
638.626	150.88
638.832	149.88
639.037	148.88
639.243	157.88
639.448	149.88
639.654	146.88
639.859	157.88
640.065	145.88
640.27	150.88
640.475	151.88
640.681	153.88
640.886	149.88
641.091	152.88
641.297	160.88
641.502	156.88
641.707	144.88
641.913	160.88
642.118	166.88
642.323	162.88
642.528	169.88
642.733	163.88
642.939	147.88
643.144	142.88
643.349	157.88
643.554	142.88
643.759	134.88
643.964	171.88
644.169	145.88
644.374	141.88
644.579	142.88
644.784	137.88
644.989	133.88
645.194	139.88
645.399	132.88
645.604	144.88
645.809	157.88
646.014	158.88
646.219	162.88
646.423	147.88
646.628	142.88
646.833	139.88
647.038	152.88
647.243	165.88
647.447	136.88
647.652	146.88
647.857	140.88
648.062	150.88
648.266	129.88
648.471	143.88
648.676	132.88
648.88	164.88
649.085	168.88
649.289	148.88
649.494	165.88
649.698	177.88
649.903	177.88
650.107	160.88
650.312	147.88
650.516	134.88
650.721	158.88
650.925	128.88
651.13	139.88
651.334	133.88
651.539	137.88
651.743	126.88
651.947	132.88
652.152	132.88
652.356	134.88
652.56	135.88
652.764	139.88
652.969	129.88
653.173	133.88
653.377	120.88
653.581	140.88
653.785	133.88
653.99	141.88
654.194	130.88
654.398	148.88
654.602	126.88
654.806	132.88
655.01	111.88
655.214	127.88
655.418	122.88
655.622	113.88
655.826	133.88
656.03	130.88
656.234	127.88
656.438	122.88
656.642	126.88
656.846	110.88
657.049	119.88
657.253	119.88
657.457	114.88
657.661	123.88
657.865	106.88
658.068	106.88
658.272	107.88
658.476	111.88
658.68	104.88
658.883	111.88
659.087	100.88
659.291	96.88
659.494	98.88
659.698	98.88
659.901	111.88
660.105	100.88
660.309	87.88
660.512	96.88
660.716	84.88
660.919	84.88
661.123	81.88
661.326	88.88
661.53	91.88
661.733	87.88
661.936	77.88
662.14	88.88
662.343	86.88
662.546	88.88
662.75	64.88
662.953	97.88
663.156	88.88
663.36	91.88
663.563	84.88
663.766	86.88
663.969	85.88
664.173	89.88
664.376	86.88
664.579	89.88
664.782	82.88
664.985	81.88
665.188	87.88
665.391	87.88
665.594	74.88
665.797	79.88
666	87.88
666.203	72.88
666.406	88.88
666.609	75.88
666.812	85.88
667.015	82.88
667.218	88.88
667.421	85.88
667.624	80.88
667.827	81.88
668.03	77.88
668.232	84.88
668.435	87.88
668.638	61.88
668.841	86.88
669.043	92.88
669.246	93.88
669.449	78.88
669.651	55.88
669.854	82.88
670.057	81.88
670.259	85.88
670.462	104.88
670.665	79.88
670.867	81.88
671.07	77.88
671.272	76.88
671.475	68.88
671.677	90.88
671.88	86.88
672.082	91.88
672.284	81.88
672.487	74.88
672.689	68.88
672.892	88.88
