Data from 1961.PennyLincolnUp.Lamp.En5.5.200Scan.071719.P1._HRD10591_13-46-50-058.txt Node
Date: Thu Jul 18 13:46:50 EDT 2019
User: cochatt
Spectrometer: HR+D1059
Trigger mode: 1
Integration Time (sec): 1.000000E-1
Scans to average: 1
Electric dark correction enabled: true
Nonlinearity correction enabled: false
Boxcar width: 0
XAxis mode: Wavelengths
Number of Pixels in Spectrum: 2048
>>>>>Begin Spectral Data<<<<<
223.165	-15.94
223.4	-15.94
223.635	-15.94
223.869	-25.94
224.104	-4.94
224.338	-24.94
224.573	-14.94
224.808	-6.94
225.042	-15.94
225.277	-2.94
225.511	11.06
225.746	11.06
225.98	-2.94
226.215	19.06
226.449	22.06
226.683	15.06
226.918	8.06
227.152	29.06
227.387	21.06
227.621	42.06
227.856	32.06
228.09	49.06
228.324	51.06
228.559	45.06
228.793	54.06
229.027	77.06
229.262	85.06
229.496	101.06
229.73	127.06
229.964	125.06
230.199	109.06
230.433	101.06
230.667	93.06
230.901	106.06
231.136	88.06
231.37	96.06
231.604	99.06
231.838	116.06
232.072	93.06
232.306	93.06
232.541	85.06
232.775	105.06
233.009	108.06
233.243	98.06
233.477	95.06
233.711	93.06
233.945	117.06
234.179	109.06
234.413	119.06
234.647	112.06
234.881	98.06
235.115	107.06
235.349	102.06
235.583	105.06
235.817	109.06
236.051	113.06
236.285	106.06
236.519	104.06
236.753	124.06
236.987	121.06
237.221	151.06
237.455	199.06
237.689	159.06
237.922	129.06
238.156	118.06
238.39	120.06
238.624	111.06
238.858	99.06
239.091	107.06
239.325	104.06
239.559	114.06
239.793	118.06
240.027	115.06
240.26	118.06
240.494	124.06
240.728	134.06
240.961	117.06
241.195	111.06
241.429	120.06
241.662	116.06
241.896	118.06
242.13	125.06
242.363	106.06
242.597	115.06
242.83	98.06
243.064	119.06
243.298	115.06
243.531	101.06
243.765	125.06
243.998	125.06
244.232	127.06
244.465	120.06
244.699	126.06
244.932	112.06
245.166	125.06
245.399	125.06
245.633	115.06
245.866	123.06
246.099	130.06
246.333	121.06
246.566	130.06
246.8	115.06
247.033	131.06
247.266	121.06
247.5	130.06
247.733	138.06
247.966	131.06
248.2	151.06
248.433	137.06
248.666	134.06
248.899	154.06
249.133	160.06
249.366	164.06
249.599	162.06
249.832	141.06
250.066	157.06
250.299	150.06
250.532	145.06
250.765	150.06
250.998	173.06
251.231	168.06
251.465	173.06
251.698	165.06
251.931	179.06
252.164	171.06
252.397	152.06
252.63	151.06
252.863	178.06
253.096	177.06
253.329	183.06
253.562	168.06
253.795	184.06
254.028	173.06
254.261	192.06
254.494	173.06
254.727	194.06
254.96	218.06
255.193	196.06
255.426	188.06
255.659	181.06
255.892	175.06
256.124	174.06
256.357	192.06
256.59	167.06
256.823	164.06
257.056	151.06
257.289	181.06
257.521	175.06
257.754	160.06
257.987	163.06
258.22	163.06
258.452	179.06
258.685	167.06
258.918	159.06
259.151	162.06
259.383	171.06
259.616	167.06
259.849	184.06
260.081	179.06
260.314	201.06
260.547	187.06
260.779	198.06
261.012	199.06
261.244	180.06
261.477	177.06
261.71	158.06
261.942	180.06
262.175	185.06
262.407	183.06
262.64	184.06
262.872	151.06
263.105	154.06
263.337	174.06
263.57	167.06
263.802	178.06
264.035	178.06
264.267	157.06
264.499	171.06
264.732	170.06
264.964	167.06
265.197	164.06
265.429	169.06
265.661	166.06
265.894	165.06
266.126	179.06
266.358	166.06
266.591	165.06
266.823	164.06
267.055	182.06
267.287	171.06
267.52	168.06
267.752	173.06
267.984	181.06
268.216	182.06
268.448	197.06
268.681	177.06
268.913	169.06
269.145	196.06
269.377	198.06
269.609	202.06
269.841	190.06
270.073	217.06
270.306	209.06
270.538	228.06
270.77	234.06
271.002	218.06
271.234	217.06
271.466	213.06
271.698	213.06
271.93	230.06
272.162	237.06
272.394	229.06
272.626	222.06
272.858	208.06
273.09	219.06
273.322	210.06
273.553	206.06
273.785	191.06
274.017	194.06
274.249	194.06
274.481	204.06
274.713	196.06
274.945	206.06
275.176	185.06
275.408	196.06
275.64	184.06
275.872	194.06
276.104	205.06
276.335	212.06
276.567	214.06
276.799	219.06
277.031	232.06
277.262	248.06
277.494	231.06
277.726	213.06
277.957	216.06
278.189	207.06
278.421	207.06
278.652	204.06
278.884	199.06
279.115	224.06
279.347	197.06
279.579	207.06
279.81	210.06
280.042	195.06
280.273	211.06
280.505	224.06
280.736	197.06
280.968	196.06
281.199	209.06
281.431	179.06
281.662	207.06
281.894	209.06
282.125	197.06
282.356	207.06
282.588	235.06
282.819	228.06
283.051	218.06
283.282	200.06
283.513	221.06
283.745	205.06
283.976	207.06
284.207	202.06
284.439	223.06
284.67	211.06
284.901	221.06
285.132	210.06
285.364	215.06
285.595	219.06
285.826	209.06
286.057	195.06
286.288	218.06
286.52	202.06
286.751	207.06
286.982	215.06
287.213	225.06
287.444	206.06
287.675	224.06
287.906	218.06
288.138	227.06
288.369	205.06
288.6	220.06
288.831	226.06
289.062	219.06
289.293	215.06
289.524	211.06
289.755	204.06
289.986	210.06
290.217	216.06
290.448	204.06
290.679	214.06
290.91	219.06
291.141	213.06
291.371	200.06
291.602	227.06
291.833	229.06
292.064	216.06
292.295	235.06
292.526	221.06
292.757	226.06
292.987	207.06
293.218	222.06
293.449	219.06
293.68	218.06
293.91	227.06
294.141	218.06
294.372	200.06
294.603	225.06
294.833	210.06
295.064	226.06
295.295	217.06
295.525	222.06
295.756	240.06
295.987	223.06
296.217	248.06
296.448	264.06
296.679	230.06
296.909	222.06
297.14	222.06
297.37	230.06
297.601	222.06
297.831	225.06
298.062	218.06
298.292	221.06
298.523	226.06
298.753	213.06
298.984	225.06
299.214	223.06
299.445	241.06
299.675	230.06
299.905	235.06
300.136	250.06
300.366	231.06
300.597	248.06
300.827	221.06
301.057	234.06
301.288	255.06
301.518	243.06
301.748	219.06
301.979	224.06
302.209	232.06
302.439	259.06
302.669	254.06
302.9	246.06
303.13	254.06
303.36	265.06
303.59	257.06
303.82	236.06
304.051	246.06
304.281	249.06
304.511	235.06
304.741	224.06
304.971	250.06
305.201	241.06
305.431	250.06
305.661	251.06
305.891	247.06
306.121	245.06
306.352	254.06
306.582	254.06
306.812	255.06
307.042	237.06
307.272	250.06
307.502	253.06
307.731	258.06
307.961	250.06
308.191	242.06
308.421	254.06
308.651	261.06
308.881	246.06
309.111	241.06
309.341	259.06
309.571	273.06
309.8	270.06
310.03	281.06
310.26	280.06
310.49	268.06
310.72	283.06
310.949	303.06
311.179	307.06
311.409	288.06
311.639	275.06
311.868	264.06
312.098	282.06
312.328	275.06
312.557	322.06
312.787	333.06
313.017	315.06
313.246	293.06
313.476	278.06
313.706	266.06
313.935	280.06
314.165	297.06
314.394	279.06
314.624	295.06
314.853	287.06
315.083	291.06
315.312	282.06
315.542	283.06
315.771	282.06
316.001	272.06
316.23	296.06
316.46	265.06
316.689	291.06
316.919	286.06
317.148	285.06
317.377	301.06
317.607	292.06
317.836	290.06
318.065	276.06
318.295	280.06
318.524	293.06
318.753	267.06
318.983	289.06
319.212	287.06
319.441	298.06
319.67	312.06
319.9	294.06
320.129	277.06
320.358	278.06
320.587	290.06
320.816	279.06
321.046	314.06
321.275	319.06
321.504	304.06
321.733	292.06
321.962	321.06
322.191	305.06
322.42	337.06
322.649	334.06
322.878	337.06
323.108	360.06
323.337	391.06
323.566	383.06
323.795	422.06
324.024	476.06
324.253	557.06
324.482	804.06
324.71	1253.06
324.939	1749.06
325.168	1523.06
325.397	792.06
325.626	521.06
325.855	431.06
326.084	397.06
326.313	406.06
326.542	419.06
326.77	438.06
326.999	529.06
327.228	734.06
327.457	1093.06
327.686	1266.06
327.914	861.06
328.143	570.06
328.372	513.06
328.6	477.06
328.829	459.06
329.058	447.06
329.287	451.06
329.515	426.06
329.744	395.06
329.972	391.06
330.201	411.06
330.43	458.06
330.658	446.06
330.887	479.06
331.115	465.06
331.344	403.06
331.572	384.06
331.801	377.06
332.03	361.06
332.258	352.06
332.486	356.06
332.715	340.06
332.943	341.06
333.172	351.06
333.4	351.06
333.629	340.06
333.857	360.06
334.085	378.06
334.314	363.06
334.542	415.06
334.771	429.06
334.999	384.06
335.227	344.06
335.455	345.06
335.684	331.06
335.912	312.06
336.14	333.06
336.369	342.06
336.597	341.06
336.825	338.06
337.053	330.06
337.281	338.06
337.51	310.06
337.738	319.06
337.966	330.06
338.194	340.06
338.422	346.06
338.65	319.06
338.878	321.06
339.106	327.06
339.334	320.06
339.562	299.06
339.79	317.06
340.018	328.06
340.246	337.06
340.474	326.06
340.702	325.06
340.93	329.06
341.158	306.06
341.386	309.06
341.614	326.06
341.842	337.06
342.07	317.06
342.298	320.06
342.526	317.06
342.754	295.06
342.981	305.06
343.209	299.06
343.437	309.06
343.665	307.06
343.893	309.06
344.12	335.06
344.348	334.06
344.576	321.06
344.804	322.06
345.031	337.06
345.259	332.06
345.487	325.06
345.714	326.06
345.942	332.06
346.17	313.06
346.397	295.06
346.625	319.06
346.853	320.06
347.08	303.06
347.308	319.06
347.535	334.06
347.763	333.06
347.99	321.06
348.218	333.06
348.445	316.06
348.673	328.06
348.9	323.06
349.128	318.06
349.355	284.06
349.583	299.06
349.81	303.06
350.037	316.06
350.265	303.06
350.492	319.06
350.72	309.06
350.947	328.06
351.174	328.06
351.402	324.06
351.629	314.06
351.856	319.06
352.083	329.06
352.311	317.06
352.538	341.06
352.765	339.06
352.992	331.06
353.22	314.06
353.447	310.06
353.674	299.06
353.901	321.06
354.128	289.06
354.355	286.06
354.583	306.06
354.81	296.06
355.037	295.06
355.264	287.06
355.491	286.06
355.718	279.06
355.945	280.06
356.172	311.06
356.399	305.06
356.626	301.06
356.853	301.06
357.08	290.06
357.307	310.06
357.534	302.06
357.761	299.06
357.988	289.06
358.215	306.06
358.441	314.06
358.668	304.06
358.895	294.06
359.122	293.06
359.349	308.06
359.576	320.06
359.802	365.06
360.029	359.06
360.256	363.06
360.483	354.06
360.709	330.06
360.936	326.06
361.163	300.06
361.39	317.06
361.616	310.06
361.843	311.06
362.07	313.06
362.296	309.06
362.523	311.06
362.749	320.06
362.976	325.06
363.203	308.06
363.429	317.06
363.656	308.06
363.882	311.06
364.109	294.06
364.335	303.06
364.562	297.06
364.788	306.06
365.015	294.06
365.241	314.06
365.468	284.06
365.694	306.06
365.92	317.06
366.147	313.06
366.373	317.06
366.599	303.06
366.826	291.06
367.052	287.06
367.278	301.06
367.505	297.06
367.731	303.06
367.957	299.06
368.184	302.06
368.41	293.06
368.636	317.06
368.862	300.06
369.089	319.06
369.315	317.06
369.541	307.06
369.767	320.06
369.993	305.06
370.219	301.06
370.445	275.06
370.672	300.06
370.898	280.06
371.124	305.06
371.35	321.06
371.576	303.06
371.802	297.06
372.028	294.06
372.254	316.06
372.48	295.06
372.706	304.06
372.932	292.06
373.158	317.06
373.384	326.06
373.61	319.06
373.835	295.06
374.061	289.06
374.287	302.06
374.513	291.06
374.739	312.06
374.965	312.06
375.191	301.06
375.416	293.06
375.642	316.06
375.868	286.06
376.094	322.06
376.319	307.06
376.545	304.06
376.771	290.06
376.997	313.06
377.222	298.06
377.448	314.06
377.674	306.06
377.899	310.06
378.125	309.06
378.35	299.06
378.576	279.06
378.802	280.06
379.027	295.06
379.253	298.06
379.478	301.06
379.704	287.06
379.929	309.06
380.155	313.06
380.38	293.06
380.606	306.06
380.831	302.06
381.057	320.06
381.282	305.06
381.507	291.06
381.733	316.06
381.958	288.06
382.184	298.06
382.409	306.06
382.634	301.06
382.86	309.06
383.085	313.06
383.31	314.06
383.535	301.06
383.761	307.06
383.986	317.06
384.211	317.06
384.436	300.06
384.662	330.06
384.887	303.06
385.112	308.06
385.337	314.06
385.562	325.06
385.787	327.06
386.013	310.06
386.238	307.06
386.463	325.06
386.688	333.06
386.913	328.06
387.138	318.06
387.363	318.06
387.588	320.06
387.813	326.06
388.038	337.06
388.263	335.06
388.488	327.06
388.713	308.06
388.938	325.06
389.163	332.06
389.387	328.06
389.612	321.06
389.837	309.06
390.062	326.06
390.287	342.06
390.512	325.06
390.736	324.06
390.961	316.06
391.186	316.06
391.411	343.06
391.636	313.06
391.86	322.06
392.085	338.06
392.31	330.06
392.534	330.06
392.759	310.06
392.984	338.06
393.208	322.06
393.433	325.06
393.658	335.06
393.882	319.06
394.107	319.06
394.331	350.06
394.556	319.06
394.78	335.06
395.005	325.06
395.229	313.06
395.454	336.06
395.678	351.06
395.903	351.06
396.127	379.06
396.352	377.06
396.576	347.06
396.801	333.06
397.025	338.06
397.249	328.06
397.474	345.06
397.698	333.06
397.922	376.06
398.147	377.06
398.371	358.06
398.595	349.06
398.82	369.06
399.044	376.06
399.268	376.06
399.492	385.06
399.717	404.06
399.941	435.06
400.165	436.06
400.389	455.06
400.613	418.06
400.837	382.06
401.062	382.06
401.286	375.06
401.51	372.06
401.734	352.06
401.958	383.06
402.182	372.06
402.406	363.06
402.63	388.06
402.854	377.06
403.078	389.06
403.302	370.06
403.526	385.06
403.75	380.06
403.974	393.06
404.198	367.06
404.422	391.06
404.645	377.06
404.869	387.06
405.093	400.06
405.317	434.06
405.541	463.06
405.765	427.06
405.988	415.06
406.212	418.06
406.436	430.06
406.66	442.06
406.883	420.06
407.107	433.06
407.331	442.06
407.555	473.06
407.778	509.06
408.002	453.06
408.226	414.06
408.449	420.06
408.673	414.06
408.896	426.06
409.12	482.06
409.344	452.06
409.567	413.06
409.791	409.06
410.014	378.06
410.238	381.06
410.461	378.06
410.685	391.06
410.908	400.06
411.132	420.06
411.355	421.06
411.578	417.06
411.802	389.06
412.025	376.06
412.249	395.06
412.472	390.06
412.695	411.06
412.919	426.06
413.142	371.06
413.365	390.06
413.589	373.06
413.812	382.06
414.035	394.06
414.258	379.06
414.482	367.06
414.705	370.06
414.928	372.06
415.151	367.06
415.374	351.06
415.597	349.06
415.821	349.06
416.044	361.06
416.267	359.06
416.49	367.06
416.713	359.06
416.936	356.06
417.159	359.06
417.382	366.06
417.605	377.06
417.828	370.06
418.051	378.06
418.274	387.06
418.497	367.06
418.72	368.06
418.943	360.06
419.166	375.06
419.389	393.06
419.611	404.06
419.834	389.06
420.057	388.06
420.28	384.06
420.503	373.06
420.726	365.06
420.948	392.06
421.171	415.06
421.394	434.06
421.617	399.06
421.839	370.06
422.062	383.06
422.285	400.06
422.507	433.06
422.73	470.06
422.953	466.06
423.175	423.06
423.398	425.06
423.621	399.06
423.843	404.06
424.066	408.06
424.288	407.06
424.511	422.06
424.733	476.06
424.956	501.06
425.178	486.06
425.401	500.06
425.623	483.06
425.846	443.06
426.068	426.06
426.291	431.06
426.513	395.06
426.735	431.06
426.958	448.06
427.18	535.06
427.402	608.06
427.625	651.06
427.847	603.06
428.069	502.06
428.292	471.06
428.514	419.06
428.736	406.06
428.958	401.06
429.181	391.06
429.403	366.06
429.625	398.06
429.847	443.06
430.069	460.06
430.292	470.06
430.514	411.06
430.736	389.06
430.958	393.06
431.18	375.06
431.402	379.06
431.624	375.06
431.846	347.06
432.068	375.06
432.29	360.06
432.512	375.06
432.734	373.06
432.956	385.06
433.178	387.06
433.4	377.06
433.622	377.06
433.844	365.06
434.066	346.06
434.287	363.06
434.509	382.06
434.731	360.06
434.953	399.06
435.175	391.06
435.397	398.06
435.618	403.06
435.84	436.06
436.062	517.06
436.284	582.06
436.505	490.06
436.727	420.06
436.949	419.06
437.17	409.06
437.392	393.06
437.614	408.06
437.835	440.06
438.057	514.06
438.278	574.06
438.5	560.06
438.721	633.06
438.943	583.06
439.165	484.06
439.386	432.06
439.608	419.06
439.829	429.06
440.05	460.06
440.272	487.06
440.493	467.06
440.715	408.06
440.936	408.06
441.158	389.06
441.379	397.06
441.6	392.06
441.822	426.06
442.043	452.06
442.264	526.06
442.486	531.06
442.707	465.06
442.928	424.06
443.149	465.06
443.371	440.06
443.592	500.06
443.813	554.06
444.034	601.06
444.255	499.06
444.476	421.06
444.698	431.06
444.919	436.06
445.14	546.06
445.361	480.06
445.582	448.06
445.803	530.06
446.024	584.06
446.245	589.06
446.466	541.06
446.687	437.06
446.908	419.06
447.129	411.06
447.35	409.06
447.571	403.06
447.792	384.06
448.013	393.06
448.234	425.06
448.455	463.06
448.675	547.06
448.896	621.06
449.117	527.06
449.338	499.06
449.559	583.06
449.779	639.06
450	526.06
450.221	439.06
450.442	407.06
450.662	394.06
450.883	399.06
451.104	405.06
451.324	388.06
451.545	381.06
451.766	362.06
451.986	348.06
452.207	349.06
452.428	336.06
452.648	331.06
452.869	367.06
453.089	369.06
453.31	373.06
453.53	353.06
453.751	360.06
453.971	338.06
454.192	387.06
454.412	363.06
454.633	346.06
454.853	350.06
455.073	373.06
455.294	391.06
455.514	422.06
455.734	411.06
455.955	365.06
456.175	337.06
456.395	335.06
456.616	336.06
456.836	342.06
457.056	344.06
457.276	338.06
457.497	359.06
457.717	344.06
457.937	338.06
458.157	359.06
458.377	357.06
458.598	369.06
458.818	422.06
459.038	459.06
459.258	471.06
459.478	401.06
459.698	365.06
459.918	353.06
460.138	373.06
460.358	374.06
460.578	383.06
460.798	366.06
461.018	383.06
461.238	367.06
461.458	359.06
461.678	359.06
461.898	377.06
462.118	371.06
462.338	382.06
462.558	377.06
462.777	379.06
462.997	392.06
463.217	400.06
463.437	386.06
463.657	404.06
463.876	407.06
464.096	366.06
464.316	401.06
464.536	421.06
464.755	383.06
464.975	382.06
465.195	455.06
465.414	487.06
465.634	449.06
465.854	439.06
466.073	416.06
466.293	403.06
466.512	367.06
466.732	367.06
466.951	385.06
467.171	367.06
467.391	366.06
467.61	358.06
467.829	378.06
468.049	383.06
468.268	373.06
468.488	362.06
468.707	358.06
468.927	360.06
469.146	369.06
469.365	355.06
469.585	344.06
469.804	362.06
470.023	365.06
470.243	375.06
470.462	377.06
470.681	378.06
470.901	370.06
471.12	354.06
471.339	356.06
471.558	346.06
471.777	376.06
471.997	381.06
472.216	382.06
472.435	398.06
472.654	402.06
472.873	384.06
473.092	375.06
473.311	370.06
473.53	358.06
473.749	372.06
473.968	399.06
474.187	475.06
474.406	498.06
474.625	439.06
474.844	391.06
475.063	351.06
475.282	363.06
475.501	370.06
475.72	383.06
475.939	355.06
476.158	385.06
476.377	360.06
476.596	387.06
476.814	373.06
477.033	392.06
477.252	396.06
477.471	378.06
477.69	389.06
477.908	410.06
478.127	417.06
478.346	404.06
478.564	410.06
478.783	395.06
479.002	414.06
479.22	385.06
479.439	410.06
479.658	439.06
479.876	433.06
480.095	446.06
480.313	464.06
480.532	454.06
480.751	446.06
480.969	458.06
481.188	516.06
481.406	541.06
481.624	480.06
481.843	432.06
482.061	450.06
482.28	457.06
482.498	426.06
482.717	426.06
482.935	414.06
483.153	444.06
483.372	437.06
483.59	441.06
483.808	423.06
484.027	429.06
484.245	440.06
484.463	437.06
484.681	458.06
484.9	458.06
485.118	429.06
485.336	449.06
485.554	443.06
485.772	447.06
485.99	461.06
486.209	455.06
486.427	463.06
486.645	458.06
486.863	482.06
487.081	469.06
487.299	455.06
487.517	478.06
487.735	467.06
487.953	456.06
488.171	459.06
488.389	463.06
488.607	487.06
488.825	463.06
489.043	469.06
489.261	473.06
489.479	485.06
489.696	442.06
489.914	477.06
490.132	481.06
490.35	480.06
490.568	501.06
490.786	506.06
491.003	504.06
491.221	517.06
491.439	506.06
491.657	519.06
491.874	515.06
492.092	515.06
492.31	520.06
492.527	521.06
492.745	519.06
492.963	513.06
493.18	542.06
493.398	506.06
493.615	537.06
493.833	529.06
494.05	527.06
494.268	522.06
494.485	541.06
494.703	548.06
494.92	550.06
495.138	538.06
495.355	534.06
495.573	563.06
495.79	532.06
496.008	542.06
496.225	536.06
496.442	555.06
496.66	535.06
496.877	559.06
497.094	557.06
497.312	558.06
497.529	562.06
497.746	568.06
497.963	569.06
498.181	594.06
498.398	599.06
498.615	603.06
498.832	612.06
499.049	624.06
499.267	618.06
499.484	626.06
499.701	673.06
499.918	659.06
500.135	695.06
500.352	685.06
500.569	670.06
500.786	694.06
501.003	703.06
501.22	672.06
501.437	679.06
501.654	660.06
501.871	665.06
502.088	638.06
502.305	639.06
502.522	596.06
502.739	585.06
502.956	591.06
503.172	585.06
503.389	572.06
503.606	579.06
503.823	597.06
504.04	583.06
504.256	562.06
504.473	552.06
504.69	527.06
504.907	539.06
505.123	533.06
505.34	532.06
505.557	530.06
505.773	521.06
505.99	523.06
506.207	526.06
506.423	541.06
506.64	524.06
506.856	519.06
507.073	538.06
507.289	486.06
507.506	495.06
507.722	513.06
507.939	544.06
508.155	520.06
508.372	488.06
508.588	497.06
508.805	492.06
509.021	510.06
509.238	515.06
509.454	511.06
509.67	511.06
509.887	513.06
510.103	508.06
510.319	521.06
510.536	607.06
510.752	989.06
510.968	794.06
511.184	511.06
511.401	505.06
511.617	518.06
511.833	489.06
512.049	467.06
512.265	478.06
512.481	491.06
512.698	479.06
512.914	464.06
513.13	482.06
513.346	490.06
513.562	488.06
513.778	507.06
513.994	481.06
514.21	513.06
514.426	517.06
514.642	567.06
514.858	576.06
515.074	598.06
515.29	714.06
515.506	1035.06
515.721	853.06
515.937	597.06
516.153	543.06
516.369	519.06
516.585	511.06
516.801	512.06
517.016	518.06
517.232	525.06
517.448	498.06
517.664	512.06
517.879	496.06
518.095	471.06
518.311	482.06
518.527	477.06
518.742	475.06
518.958	478.06
519.173	482.06
519.389	483.06
519.605	517.06
519.82	474.06
520.036	515.06
520.251	523.06
520.467	530.06
520.682	532.06
520.898	533.06
521.113	546.06
521.329	626.06
521.544	689.06
521.76	844.06
521.975	1376.06
522.19	1375.06
522.406	720.06
522.621	580.06
522.836	523.06
523.052	497.06
523.267	481.06
523.482	457.06
523.698	455.06
523.913	465.06
524.128	426.06
524.343	446.06
524.559	438.06
524.774	420.06
524.989	454.06
525.204	419.06
525.419	433.06
525.634	418.06
525.849	433.06
526.064	415.06
526.28	405.06
526.495	399.06
526.71	408.06
526.925	409.06
527.14	399.06
527.355	394.06
527.57	403.06
527.785	408.06
527.999	389.06
528.214	405.06
528.429	406.06
528.644	420.06
528.859	413.06
529.074	406.06
529.289	414.06
529.503	473.06
529.718	477.06
529.933	430.06
530.148	429.06
530.363	391.06
530.577	396.06
530.792	421.06
531.007	409.06
531.221	403.06
531.436	389.06
531.651	406.06
531.865	397.06
532.08	379.06
532.295	410.06
532.509	375.06
532.724	377.06
532.938	394.06
533.153	392.06
533.367	372.06
533.582	362.06
533.796	381.06
534.011	357.06
534.225	359.06
534.44	386.06
534.654	383.06
534.868	363.06
535.083	379.06
535.297	378.06
535.511	381.06
535.726	399.06
535.94	374.06
536.154	376.06
536.369	381.06
536.583	372.06
536.797	367.06
537.011	384.06
537.225	373.06
537.44	380.06
537.654	372.06
537.868	359.06
538.082	354.06
538.296	383.06
538.51	371.06
538.724	389.06
538.938	367.06
539.153	366.06
539.367	390.06
539.581	372.06
539.795	361.06
540.009	375.06
540.222	381.06
540.436	384.06
540.65	381.06
540.864	358.06
541.078	371.06
541.292	392.06
541.506	375.06
541.72	347.06
541.934	387.06
542.147	373.06
542.361	376.06
542.575	371.06
542.789	346.06
543.002	359.06
543.216	360.06
543.43	381.06
543.644	371.06
543.857	361.06
544.071	346.06
544.285	354.06
544.498	373.06
544.712	365.06
544.925	368.06
545.139	353.06
545.352	347.06
545.566	335.06
545.779	345.06
545.993	365.06
546.206	344.06
546.42	362.06
546.633	362.06
546.847	370.06
547.06	350.06
547.274	342.06
547.487	353.06
547.7	331.06
547.914	343.06
548.127	354.06
548.34	367.06
548.554	352.06
548.767	353.06
548.98	354.06
549.193	354.06
549.407	338.06
549.62	333.06
549.833	354.06
550.046	345.06
550.259	352.06
550.473	350.06
550.686	351.06
550.899	342.06
551.112	339.06
551.325	334.06
551.538	334.06
551.751	342.06
551.964	330.06
552.177	336.06
552.39	348.06
552.603	360.06
552.816	341.06
553.029	347.06
553.242	336.06
553.455	345.06
553.667	344.06
553.88	328.06
554.093	358.06
554.306	343.06
554.519	316.06
554.732	352.06
554.944	334.06
555.157	334.06
555.37	308.06
555.583	324.06
555.795	335.06
556.008	338.06
556.221	311.06
556.433	317.06
556.646	335.06
556.859	333.06
557.071	321.06
557.284	335.06
557.496	316.06
557.709	334.06
557.921	320.06
558.134	323.06
558.346	323.06
558.559	311.06
558.771	311.06
558.984	322.06
559.196	314.06
559.409	304.06
559.621	321.06
559.833	315.06
560.046	327.06
560.258	319.06
560.47	320.06
560.683	309.06
560.895	317.06
561.107	311.06
561.32	313.06
561.532	310.06
561.744	319.06
561.956	303.06
562.168	323.06
562.381	304.06
562.593	319.06
562.805	326.06
563.017	325.06
563.229	322.06
563.441	318.06
563.653	307.06
563.865	324.06
564.077	309.06
564.289	311.06
564.501	323.06
564.713	312.06
564.925	333.06
565.137	349.06
565.349	328.06
565.561	339.06
565.773	343.06
565.985	356.06
566.197	337.06
566.408	353.06
566.62	343.06
566.832	372.06
567.044	349.06
567.255	371.06
567.467	358.06
567.679	343.06
567.891	371.06
568.102	374.06
568.314	373.06
568.526	355.06
568.737	357.06
568.949	352.06
569.161	332.06
569.372	312.06
569.584	327.06
569.795	321.06
570.007	333.06
570.218	345.06
570.43	325.06
570.641	303.06
570.853	282.06
571.064	314.06
571.276	293.06
571.487	285.06
571.698	303.06
571.91	295.06
572.121	297.06
572.333	280.06
572.544	298.06
572.755	286.06
572.966	281.06
573.178	265.06
573.389	288.06
573.6	277.06
573.811	292.06
574.023	281.06
574.234	267.06
574.445	279.06
574.656	290.06
574.867	287.06
575.078	267.06
575.289	287.06
575.501	276.06
575.712	266.06
575.923	257.06
576.134	263.06
576.345	270.06
576.556	268.06
576.767	271.06
576.978	272.06
577.188	286.06
577.399	285.06
577.61	277.06
577.821	251.06
578.032	275.06
578.243	289.06
578.454	469.06
578.665	357.06
578.875	259.06
579.086	271.06
579.297	254.06
579.508	274.06
579.718	258.06
579.929	255.06
580.14	255.06
580.35	257.06
580.561	277.06
580.772	258.06
580.982	248.06
581.193	248.06
581.403	255.06
581.614	239.06
581.825	246.06
582.035	237.06
582.246	257.06
582.456	240.06
582.667	248.06
582.877	243.06
583.087	233.06
583.298	256.06
583.508	243.06
583.719	243.06
583.929	248.06
584.139	233.06
584.35	246.06
584.56	249.06
584.77	241.06
584.981	234.06
585.191	261.06
585.401	245.06
585.611	254.06
585.821	259.06
586.032	245.06
586.242	239.06
586.452	224.06
586.662	239.06
586.872	254.06
587.082	246.06
587.292	225.06
587.502	243.06
587.713	260.06
587.923	250.06
588.133	234.06
588.343	240.06
588.553	251.06
588.762	247.06
588.972	237.06
589.182	259.06
589.392	273.06
589.602	237.06
589.812	244.06
590.022	241.06
590.232	250.06
590.441	243.06
590.651	242.06
590.861	244.06
591.071	246.06
591.281	243.06
591.49	233.06
591.7	244.06
591.91	239.06
592.119	239.06
592.329	243.06
592.539	232.06
592.748	246.06
592.958	262.06
593.167	230.06
593.377	243.06
593.587	256.06
593.796	242.06
594.006	257.06
594.215	249.06
594.424	222.06
594.634	224.06
594.843	238.06
595.053	247.06
595.262	237.06
595.472	223.06
595.681	221.06
595.89	232.06
596.1	239.06
596.309	229.06
596.518	231.06
596.727	213.06
596.937	214.06
597.146	224.06
597.355	230.06
597.564	229.06
597.774	232.06
597.983	239.06
598.192	219.06
598.401	216.06
598.61	221.06
598.819	220.06
599.028	199.06
599.237	207.06
599.446	229.06
599.655	203.06
599.864	228.06
600.073	220.06
600.282	220.06
600.491	201.06
600.7	211.06
600.909	210.06
601.118	203.06
601.327	197.06
601.536	201.06
601.745	219.06
601.953	213.06
602.162	197.06
602.371	220.06
602.58	214.06
602.789	215.06
602.997	207.06
603.206	206.06
603.415	206.06
603.623	223.06
603.832	208.06
604.041	192.06
604.249	207.06
604.458	209.06
604.666	197.06
604.875	199.06
605.084	190.06
605.292	211.06
605.501	191.06
605.709	206.06
605.918	198.06
606.126	202.06
606.334	189.06
606.543	198.06
606.751	210.06
606.96	199.06
607.168	198.06
607.376	216.06
607.585	202.06
607.793	192.06
608.001	197.06
608.21	193.06
608.418	196.06
608.626	204.06
608.834	197.06
609.043	198.06
609.251	198.06
609.459	191.06
609.667	198.06
609.875	180.06
610.083	189.06
610.291	196.06
610.499	201.06
610.707	194.06
610.916	208.06
611.124	196.06
611.332	197.06
611.54	210.06
611.748	211.06
611.955	192.06
612.163	212.06
612.371	181.06
612.579	202.06
612.787	198.06
612.995	191.06
613.203	206.06
613.411	200.06
613.618	207.06
613.826	187.06
614.034	209.06
614.242	202.06
614.449	189.06
614.657	199.06
614.865	194.06
615.072	181.06
615.28	193.06
615.488	194.06
615.695	189.06
615.903	181.06
616.111	178.06
616.318	182.06
616.526	198.06
616.733	198.06
616.941	186.06
617.148	196.06
617.356	185.06
617.563	213.06
617.771	185.06
617.978	189.06
618.185	194.06
618.393	188.06
618.6	192.06
618.807	185.06
619.015	195.06
619.222	182.06
619.429	167.06
619.637	184.06
619.844	193.06
620.051	189.06
620.258	197.06
620.466	196.06
620.673	172.06
620.88	168.06
621.087	178.06
621.294	171.06
621.501	183.06
621.708	198.06
621.915	203.06
622.122	185.06
622.329	191.06
622.536	177.06
622.743	183.06
622.95	183.06
623.157	169.06
623.364	182.06
623.571	187.06
623.778	181.06
623.985	193.06
624.192	160.06
624.399	162.06
624.606	180.06
624.812	179.06
625.019	175.06
625.226	189.06
625.433	182.06
625.639	169.06
625.846	166.06
626.053	187.06
626.259	182.06
626.466	182.06
626.673	173.06
626.879	164.06
627.086	182.06
627.293	168.06
627.499	163.06
627.706	167.06
627.912	181.06
628.119	176.06
628.325	177.06
628.532	159.06
628.738	163.06
628.945	163.06
629.151	155.06
629.357	175.06
629.564	162.06
629.77	157.06
629.976	193.06
630.183	160.06
630.389	174.06
630.595	166.06
630.802	189.06
631.008	165.06
631.214	170.06
631.42	177.06
631.627	165.06
631.833	168.06
632.039	174.06
632.245	163.06
632.451	156.06
632.657	151.06
632.863	170.06
633.069	163.06
633.275	163.06
633.481	166.06
633.688	157.06
633.893	161.06
634.099	161.06
634.305	149.06
634.511	154.06
634.717	171.06
634.923	166.06
635.129	153.06
635.335	144.06
635.541	149.06
635.747	153.06
635.952	155.06
636.158	140.06
636.364	170.06
636.57	167.06
636.775	170.06
636.981	165.06
637.187	159.06
637.392	147.06
637.598	143.06
637.804	157.06
638.009	162.06
638.215	147.06
638.421	147.06
638.626	146.06
638.832	144.06
639.037	144.06
639.243	150.06
639.448	146.06
639.654	161.06
639.859	145.06
640.065	162.06
640.27	167.06
640.475	149.06
640.681	157.06
640.886	162.06
641.091	126.06
641.297	158.06
641.502	147.06
641.707	132.06
641.913	143.06
642.118	146.06
642.323	164.06
642.528	148.06
642.733	146.06
642.939	154.06
643.144	138.06
643.349	150.06
643.554	142.06
643.759	157.06
643.964	165.06
644.169	138.06
644.374	150.06
644.579	143.06
644.784	132.06
644.989	141.06
645.194	159.06
645.399	143.06
645.604	136.06
645.809	147.06
646.014	149.06
646.219	147.06
646.423	151.06
646.628	147.06
646.833	151.06
647.038	146.06
647.243	145.06
647.447	150.06
647.652	163.06
647.857	130.06
648.062	153.06
648.266	157.06
648.471	151.06
648.676	143.06
648.88	153.06
649.085	138.06
649.289	123.06
649.494	164.06
649.698	166.06
649.903	158.06
650.107	144.06
650.312	137.06
650.516	139.06
650.721	126.06
650.925	151.06
651.13	146.06
651.334	145.06
651.539	151.06
651.743	130.06
651.947	129.06
652.152	128.06
652.356	117.06
652.56	126.06
652.764	121.06
652.969	125.06
653.173	116.06
653.377	125.06
653.581	121.06
653.785	122.06
653.99	121.06
654.194	122.06
654.398	115.06
654.602	138.06
654.806	120.06
655.01	117.06
655.214	119.06
655.418	126.06
655.622	113.06
655.826	129.06
656.03	134.06
656.234	128.06
656.438	137.06
656.642	125.06
656.846	121.06
657.049	121.06
657.253	128.06
657.457	110.06
657.661	102.06
657.865	110.06
658.068	99.06
658.272	120.06
658.476	101.06
658.68	102.06
658.883	94.06
659.087	97.06
659.291	90.06
659.494	94.06
659.698	94.06
659.901	86.06
660.105	87.06
660.309	89.06
660.512	102.06
660.716	87.06
660.919	82.06
661.123	98.06
661.326	107.06
661.53	95.06
661.733	99.06
661.936	97.06
662.14	86.06
662.343	82.06
662.546	88.06
662.75	81.06
662.953	89.06
663.156	74.06
663.36	64.06
663.563	92.06
663.766	83.06
663.969	86.06
664.173	95.06
664.376	96.06
664.579	83.06
664.782	79.06
664.985	82.06
665.188	73.06
665.391	80.06
665.594	84.06
665.797	87.06
666	83.06
666.203	82.06
666.406	90.06
666.609	83.06
666.812	67.06
667.015	90.06
667.218	70.06
667.421	79.06
667.624	92.06
667.827	94.06
668.03	76.06
668.232	82.06
668.435	75.06
668.638	79.06
668.841	78.06
669.043	83.06
669.246	71.06
669.449	81.06
669.651	91.06
669.854	70.06
670.057	90.06
670.259	86.06
670.462	67.06
670.665	73.06
670.867	95.06
671.07	88.06
671.272	75.06
671.475	89.06
671.677	87.06
671.88	87.06
672.082	76.06
672.284	89.06
672.487	92.06
672.689	66.06
672.892	89.06
