Data from 1961.PennyLincolnUp.Lamp.En5.5.200Scan.071719.P1._HRD10591_13-46-39-056.txt Node
Date: Thu Jul 18 13:46:39 EDT 2019
User: cochatt
Spectrometer: HR+D1059
Trigger mode: 1
Integration Time (sec): 1.000000E-1
Scans to average: 1
Electric dark correction enabled: true
Nonlinearity correction enabled: false
Boxcar width: 0
XAxis mode: Wavelengths
Number of Pixels in Spectrum: 2048
>>>>>Begin Spectral Data<<<<<
223.165	-15.31
223.4	-15.31
223.635	-15.31
223.869	-10.31
224.104	-2.31
224.338	-24.31
224.573	-20.31
224.808	-14.31
225.042	-7.31
225.277	-15.31
225.511	-8.31
225.746	3.69
225.98	6.69
226.215	6.69
226.449	22.69
226.683	20.69
226.918	19.69
227.152	37.69
227.387	32.69
227.621	24.69
227.856	53.69
228.09	53.69
228.324	54.69
228.559	63.69
228.793	50.69
229.027	71.69
229.262	96.69
229.496	92.69
229.73	101.69
229.964	138.69
230.199	114.69
230.433	112.69
230.667	87.69
230.901	97.69
231.136	106.69
231.37	99.69
231.604	99.69
231.838	104.69
232.072	91.69
232.306	104.69
232.541	104.69
232.775	101.69
233.009	81.69
233.243	87.69
233.477	109.69
233.711	104.69
233.945	89.69
234.179	104.69
234.413	94.69
234.647	109.69
234.881	93.69
235.115	104.69
235.349	110.69
235.583	102.69
235.817	107.69
236.051	104.69
236.285	120.69
236.519	96.69
236.753	95.69
236.987	119.69
237.221	128.69
237.455	176.69
237.689	155.69
237.922	122.69
238.156	109.69
238.39	100.69
238.624	89.69
238.858	110.69
239.091	96.69
239.325	108.69
239.559	112.69
239.793	93.69
240.027	117.69
240.26	114.69
240.494	134.69
240.728	135.69
240.961	112.69
241.195	117.69
241.429	116.69
241.662	129.69
241.896	116.69
242.13	112.69
242.363	105.69
242.597	99.69
242.83	112.69
243.064	126.69
243.298	113.69
243.531	105.69
243.765	109.69
243.998	109.69
244.232	120.69
244.465	122.69
244.699	129.69
244.932	120.69
245.166	114.69
245.399	121.69
245.633	110.69
245.866	119.69
246.099	123.69
246.333	124.69
246.566	128.69
246.8	121.69
247.033	125.69
247.266	127.69
247.5	128.69
247.733	132.69
247.966	135.69
248.2	124.69
248.433	149.69
248.666	132.69
248.899	139.69
249.133	157.69
249.366	160.69
249.599	144.69
249.832	149.69
250.066	132.69
250.299	120.69
250.532	161.69
250.765	152.69
250.998	171.69
251.231	182.69
251.465	170.69
251.698	151.69
251.931	158.69
252.164	149.69
252.397	148.69
252.63	156.69
252.863	155.69
253.096	180.69
253.329	163.69
253.562	176.69
253.795	163.69
254.028	173.69
254.261	157.69
254.494	181.69
254.727	172.69
254.96	206.69
255.193	206.69
255.426	196.69
255.659	173.69
255.892	178.69
256.124	174.69
256.357	179.69
256.59	186.69
256.823	169.69
257.056	160.69
257.289	165.69
257.521	152.69
257.754	172.69
257.987	168.69
258.22	171.69
258.452	149.69
258.685	158.69
258.918	160.69
259.151	152.69
259.383	161.69
259.616	164.69
259.849	168.69
260.081	181.69
260.314	174.69
260.547	189.69
260.779	206.69
261.012	170.69
261.244	166.69
261.477	187.69
261.71	177.69
261.942	172.69
262.175	175.69
262.407	179.69
262.64	163.69
262.872	156.69
263.105	166.69
263.337	173.69
263.57	160.69
263.802	171.69
264.035	156.69
264.267	164.69
264.499	173.69
264.732	177.69
264.964	143.69
265.197	154.69
265.429	157.69
265.661	154.69
265.894	157.69
266.126	153.69
266.358	148.69
266.591	156.69
266.823	171.69
267.055	180.69
267.287	187.69
267.52	178.69
267.752	165.69
267.984	155.69
268.216	173.69
268.448	183.69
268.681	177.69
268.913	180.69
269.145	188.69
269.377	191.69
269.609	188.69
269.841	195.69
270.073	201.69
270.306	205.69
270.538	228.69
270.77	210.69
271.002	215.69
271.234	205.69
271.466	218.69
271.698	208.69
271.93	220.69
272.162	201.69
272.394	221.69
272.626	212.69
272.858	207.69
273.09	205.69
273.322	207.69
273.553	180.69
273.785	206.69
274.017	195.69
274.249	188.69
274.481	199.69
274.713	188.69
274.945	211.69
275.176	188.69
275.408	199.69
275.64	182.69
275.872	197.69
276.104	203.69
276.335	200.69
276.567	199.69
276.799	202.69
277.031	212.69
277.262	204.69
277.494	224.69
277.726	205.69
277.957	210.69
278.189	193.69
278.421	196.69
278.652	188.69
278.884	198.69
279.115	194.69
279.347	182.69
279.579	213.69
279.81	197.69
280.042	184.69
280.273	182.69
280.505	200.69
280.736	189.69
280.968	204.69
281.199	198.69
281.431	183.69
281.662	194.69
281.894	196.69
282.125	189.69
282.356	210.69
282.588	207.69
282.819	223.69
283.051	200.69
283.282	191.69
283.513	193.69
283.745	180.69
283.976	205.69
284.207	208.69
284.439	194.69
284.67	192.69
284.901	200.69
285.132	195.69
285.364	180.69
285.595	183.69
285.826	199.69
286.057	200.69
286.288	189.69
286.52	197.69
286.751	193.69
286.982	198.69
287.213	206.69
287.444	200.69
287.675	209.69
287.906	202.69
288.138	202.69
288.369	211.69
288.6	217.69
288.831	217.69
289.062	208.69
289.293	212.69
289.524	192.69
289.755	210.69
289.986	200.69
290.217	201.69
290.448	198.69
290.679	215.69
290.91	209.69
291.141	206.69
291.371	204.69
291.602	206.69
291.833	200.69
292.064	208.69
292.295	198.69
292.526	209.69
292.757	213.69
292.987	212.69
293.218	203.69
293.449	196.69
293.68	210.69
293.91	204.69
294.141	216.69
294.372	198.69
294.603	212.69
294.833	221.69
295.064	225.69
295.295	224.69
295.525	210.69
295.756	210.69
295.987	216.69
296.217	234.69
296.448	237.69
296.679	239.69
296.909	213.69
297.14	197.69
297.37	215.69
297.601	216.69
297.831	207.69
298.062	211.69
298.292	224.69
298.523	227.69
298.753	219.69
298.984	210.69
299.214	228.69
299.445	231.69
299.675	227.69
299.905	200.69
300.136	226.69
300.366	221.69
300.597	226.69
300.827	229.69
301.057	224.69
301.288	244.69
301.518	222.69
301.748	213.69
301.979	226.69
302.209	230.69
302.439	233.69
302.669	211.69
302.9	221.69
303.13	246.69
303.36	225.69
303.59	231.69
303.82	229.69
304.051	244.69
304.281	247.69
304.511	245.69
304.741	232.69
304.971	229.69
305.201	231.69
305.431	233.69
305.661	223.69
305.891	224.69
306.121	228.69
306.352	237.69
306.582	233.69
306.812	249.69
307.042	232.69
307.272	240.69
307.502	240.69
307.731	227.69
307.961	244.69
308.191	218.69
308.421	240.69
308.651	244.69
308.881	227.69
309.111	248.69
309.341	247.69
309.571	261.69
309.8	258.69
310.03	275.69
310.26	282.69
310.49	264.69
310.72	291.69
310.949	292.69
311.179	265.69
311.409	262.69
311.639	270.69
311.868	256.69
312.098	272.69
312.328	272.69
312.557	276.69
312.787	289.69
313.017	277.69
313.246	265.69
313.476	269.69
313.706	271.69
313.935	276.69
314.165	286.69
314.394	283.69
314.624	270.69
314.853	261.69
315.083	267.69
315.312	264.69
315.542	260.69
315.771	257.69
316.001	275.69
316.23	278.69
316.46	274.69
316.689	249.69
316.919	274.69
317.148	289.69
317.377	271.69
317.607	268.69
317.836	276.69
318.065	260.69
318.295	287.69
318.524	253.69
318.753	248.69
318.983	266.69
319.212	270.69
319.441	257.69
319.67	270.69
319.9	275.69
320.129	291.69
320.358	266.69
320.587	268.69
320.816	277.69
321.046	277.69
321.275	284.69
321.504	283.69
321.733	323.69
321.962	284.69
322.191	290.69
322.42	337.69
322.649	318.69
322.878	318.69
323.108	354.69
323.337	345.69
323.566	383.69
323.795	380.69
324.024	426.69
324.253	514.69
324.482	749.69
324.71	1180.69
324.939	1609.69
325.168	1342.69
325.397	717.69
325.626	476.69
325.855	405.69
326.084	387.69
326.313	374.69
326.542	378.69
326.77	413.69
326.999	507.69
327.228	665.69
327.457	1028.69
327.686	1188.69
327.914	800.69
328.143	560.69
328.372	462.69
328.6	444.69
328.829	410.69
329.058	429.69
329.287	418.69
329.515	407.69
329.744	388.69
329.972	378.69
330.201	405.69
330.43	425.69
330.658	462.69
330.887	450.69
331.115	422.69
331.344	380.69
331.572	361.69
331.801	364.69
332.03	350.69
332.258	326.69
332.486	320.69
332.715	312.69
332.943	331.69
333.172	306.69
333.4	306.69
333.629	318.69
333.857	347.69
334.085	347.69
334.314	357.69
334.542	372.69
334.771	411.69
334.999	355.69
335.227	334.69
335.455	314.69
335.684	324.69
335.912	310.69
336.14	314.69
336.369	292.69
336.597	318.69
336.825	329.69
337.053	318.69
337.281	310.69
337.51	304.69
337.738	290.69
337.966	315.69
338.194	310.69
338.422	310.69
338.65	301.69
338.878	304.69
339.106	294.69
339.334	287.69
339.562	308.69
339.79	293.69
340.018	291.69
340.246	299.69
340.474	296.69
340.702	308.69
340.93	288.69
341.158	296.69
341.386	302.69
341.614	306.69
341.842	305.69
342.07	293.69
342.298	292.69
342.526	293.69
342.754	290.69
342.981	301.69
343.209	289.69
343.437	304.69
343.665	301.69
343.893	310.69
344.12	305.69
344.348	306.69
344.576	305.69
344.804	296.69
345.031	316.69
345.259	314.69
345.487	322.69
345.714	294.69
345.942	301.69
346.17	299.69
346.397	312.69
346.625	300.69
346.853	295.69
347.08	286.69
347.308	289.69
347.535	302.69
347.763	299.69
347.99	301.69
348.218	300.69
348.445	306.69
348.673	308.69
348.9	298.69
349.128	292.69
349.355	278.69
349.583	289.69
349.81	273.69
350.037	275.69
350.265	296.69
350.492	300.69
350.72	304.69
350.947	300.69
351.174	319.69
351.402	316.69
351.629	306.69
351.856	316.69
352.083	299.69
352.311	297.69
352.538	330.69
352.765	313.69
352.992	306.69
353.22	289.69
353.447	298.69
353.674	294.69
353.901	289.69
354.128	280.69
354.355	265.69
354.583	296.69
354.81	261.69
355.037	281.69
355.264	283.69
355.491	273.69
355.718	269.69
355.945	295.69
356.172	270.69
356.399	288.69
356.626	284.69
356.853	269.69
357.08	285.69
357.307	273.69
357.534	276.69
357.761	286.69
357.988	288.69
358.215	261.69
358.441	285.69
358.668	254.69
358.895	279.69
359.122	280.69
359.349	297.69
359.576	292.69
359.802	323.69
360.029	349.69
360.256	322.69
360.483	306.69
360.709	320.69
360.936	314.69
361.163	307.69
361.39	289.69
361.616	294.69
361.843	334.69
362.07	311.69
362.296	300.69
362.523	301.69
362.749	281.69
362.976	301.69
363.203	282.69
363.429	276.69
363.656	286.69
363.882	284.69
364.109	290.69
364.335	290.69
364.562	286.69
364.788	301.69
365.015	299.69
365.241	281.69
365.468	289.69
365.694	294.69
365.92	274.69
366.147	285.69
366.373	285.69
366.599	293.69
366.826	281.69
367.052	295.69
367.278	290.69
367.505	268.69
367.731	291.69
367.957	276.69
368.184	291.69
368.41	286.69
368.636	294.69
368.862	284.69
369.089	273.69
369.315	264.69
369.541	296.69
369.767	297.69
369.993	267.69
370.219	292.69
370.445	292.69
370.672	287.69
370.898	288.69
371.124	298.69
371.35	274.69
371.576	276.69
371.802	280.69
372.028	270.69
372.254	288.69
372.48	272.69
372.706	291.69
372.932	276.69
373.158	289.69
373.384	284.69
373.61	297.69
373.835	285.69
374.061	305.69
374.287	300.69
374.513	292.69
374.739	266.69
374.965	295.69
375.191	282.69
375.416	310.69
375.642	289.69
375.868	275.69
376.094	304.69
376.319	280.69
376.545	307.69
376.771	289.69
376.997	273.69
377.222	285.69
377.448	259.69
377.674	301.69
377.899	282.69
378.125	287.69
378.35	282.69
378.576	277.69
378.802	282.69
379.027	284.69
379.253	288.69
379.478	280.69
379.704	283.69
379.929	285.69
380.155	289.69
380.38	286.69
380.606	298.69
380.831	273.69
381.057	286.69
381.282	288.69
381.507	287.69
381.733	287.69
381.958	299.69
382.184	286.69
382.409	298.69
382.634	284.69
382.86	298.69
383.085	294.69
383.31	298.69
383.535	299.69
383.761	294.69
383.986	284.69
384.211	301.69
384.436	297.69
384.662	285.69
384.887	301.69
385.112	288.69
385.337	292.69
385.562	315.69
385.787	298.69
386.013	307.69
386.238	313.69
386.463	307.69
386.688	289.69
386.913	314.69
387.138	319.69
387.363	300.69
387.588	288.69
387.813	304.69
388.038	324.69
388.263	320.69
388.488	306.69
388.713	304.69
388.938	332.69
389.163	323.69
389.387	306.69
389.612	282.69
389.837	307.69
390.062	314.69
390.287	297.69
390.512	297.69
390.736	288.69
390.961	292.69
391.186	308.69
391.411	313.69
391.636	304.69
391.86	312.69
392.085	328.69
392.31	312.69
392.534	303.69
392.759	333.69
392.984	310.69
393.208	314.69
393.433	327.69
393.658	325.69
393.882	291.69
394.107	306.69
394.331	309.69
394.556	294.69
394.78	296.69
395.005	295.69
395.229	293.69
395.454	317.69
395.678	308.69
395.903	342.69
396.127	332.69
396.352	341.69
396.576	325.69
396.801	327.69
397.025	332.69
397.249	315.69
397.474	331.69
397.698	325.69
397.922	325.69
398.147	342.69
398.371	336.69
398.595	358.69
398.82	328.69
399.044	324.69
399.268	358.69
399.492	351.69
399.717	362.69
399.941	394.69
400.165	418.69
400.389	429.69
400.613	390.69
400.837	353.69
401.062	372.69
401.286	356.69
401.51	366.69
401.734	341.69
401.958	333.69
402.182	370.69
402.406	372.69
402.63	344.69
402.854	352.69
403.078	352.69
403.302	359.69
403.526	369.69
403.75	362.69
403.974	365.69
404.198	364.69
404.422	349.69
404.645	353.69
404.869	370.69
405.093	389.69
405.317	412.69
405.541	435.69
405.765	386.69
405.988	374.69
406.212	379.69
406.436	389.69
406.66	414.69
406.883	413.69
407.107	390.69
407.331	408.69
407.555	473.69
407.778	468.69
408.002	404.69
408.226	384.69
408.449	401.69
408.673	381.69
408.896	406.69
409.12	446.69
409.344	425.69
409.567	358.69
409.791	378.69
410.014	374.69
410.238	357.69
410.461	345.69
410.685	360.69
410.908	394.69
411.132	395.69
411.355	416.69
411.578	403.69
411.802	357.69
412.025	361.69
412.249	379.69
412.472	396.69
412.695	416.69
412.919	391.69
413.142	358.69
413.365	389.69
413.589	358.69
413.812	369.69
414.035	349.69
414.258	339.69
414.482	337.69
414.705	345.69
414.928	357.69
415.151	315.69
415.374	338.69
415.597	352.69
415.821	347.69
416.044	338.69
416.267	334.69
416.49	331.69
416.713	316.69
416.936	341.69
417.159	332.69
417.382	351.69
417.605	357.69
417.828	353.69
418.051	363.69
418.274	371.69
418.497	338.69
418.72	346.69
418.943	339.69
419.166	359.69
419.389	362.69
419.611	364.69
419.834	352.69
420.057	357.69
420.28	349.69
420.503	364.69
420.726	347.69
420.948	360.69
421.171	386.69
421.394	420.69
421.617	374.69
421.839	344.69
422.062	357.69
422.285	371.69
422.507	413.69
422.73	447.69
422.953	436.69
423.175	389.69
423.398	360.69
423.621	388.69
423.843	376.69
424.066	399.69
424.288	384.69
424.511	393.69
424.733	435.69
424.956	481.69
425.178	463.69
425.401	475.69
425.623	474.69
425.846	419.69
426.068	397.69
426.291	381.69
426.513	384.69
426.735	383.69
426.958	416.69
427.18	495.69
427.402	581.69
427.625	606.69
427.847	541.69
428.069	497.69
428.292	428.69
428.514	396.69
428.736	381.69
428.958	363.69
429.181	372.69
429.403	377.69
429.625	352.69
429.847	376.69
430.069	441.69
430.292	445.69
430.514	395.69
430.736	353.69
430.958	353.69
431.18	343.69
431.402	355.69
431.624	347.69
431.846	347.69
432.068	342.69
432.29	338.69
432.512	364.69
432.734	343.69
432.956	357.69
433.178	346.69
433.4	364.69
433.622	369.69
433.844	349.69
434.066	342.69
434.287	337.69
434.509	354.69
434.731	338.69
434.953	344.69
435.175	372.69
435.397	368.69
435.618	387.69
435.84	440.69
436.062	480.69
436.284	518.69
436.505	460.69
436.727	401.69
436.949	386.69
437.17	376.69
437.392	378.69
437.614	372.69
437.835	419.69
438.057	481.69
438.278	518.69
438.5	523.69
438.721	580.69
438.943	561.69
439.165	436.69
439.386	407.69
439.608	412.69
439.829	391.69
440.05	422.69
440.272	482.69
440.493	434.69
440.715	381.69
440.936	371.69
441.158	379.69
441.379	362.69
441.6	392.69
441.822	401.69
442.043	419.69
442.264	476.69
442.486	502.69
442.707	444.69
442.928	387.69
443.149	404.69
443.371	447.69
443.592	460.69
443.813	527.69
444.034	554.69
444.255	462.69
444.476	414.69
444.698	392.69
444.919	384.69
445.14	492.69
445.361	450.69
445.582	432.69
445.803	458.69
446.024	533.69
446.245	538.69
446.466	485.69
446.687	442.69
446.908	397.69
447.129	380.69
447.35	363.69
447.571	376.69
447.792	366.69
448.013	376.69
448.234	402.69
448.455	409.69
448.675	513.69
448.896	588.69
449.117	476.69
449.338	473.69
449.559	557.69
449.779	591.69
450	474.69
450.221	393.69
450.442	382.69
450.662	365.69
450.883	360.69
451.104	396.69
451.324	370.69
451.545	363.69
451.766	352.69
451.986	344.69
452.207	340.69
452.428	325.69
452.648	328.69
452.869	341.69
453.089	337.69
453.31	353.69
453.53	340.69
453.751	333.69
453.971	338.69
454.192	341.69
454.412	345.69
454.633	342.69
454.853	335.69
455.073	352.69
455.294	361.69
455.514	408.69
455.734	388.69
455.955	333.69
456.175	333.69
456.395	308.69
456.616	341.69
456.836	312.69
457.056	328.69
457.276	310.69
457.497	327.69
457.717	313.69
457.937	312.69
458.157	323.69
458.377	331.69
458.598	350.69
458.818	402.69
459.038	439.69
459.258	450.69
459.478	388.69
459.698	361.69
459.918	343.69
460.138	348.69
460.358	360.69
460.578	329.69
460.798	354.69
461.018	368.69
461.238	367.69
461.458	359.69
461.678	347.69
461.898	359.69
462.118	334.69
462.338	356.69
462.558	356.69
462.777	361.69
462.997	368.69
463.217	364.69
463.437	367.69
463.657	352.69
463.876	380.69
464.096	363.69
464.316	390.69
464.536	378.69
464.755	376.69
464.975	381.69
465.195	416.69
465.414	470.69
465.634	408.69
465.854	372.69
466.073	372.69
466.293	373.69
466.512	360.69
466.732	352.69
466.951	339.69
467.171	339.69
467.391	341.69
467.61	356.69
467.829	349.69
468.049	346.69
468.268	355.69
468.488	341.69
468.707	331.69
468.927	346.69
469.146	329.69
469.365	352.69
469.585	333.69
469.804	351.69
470.023	368.69
470.243	360.69
470.462	331.69
470.681	336.69
470.901	355.69
471.12	363.69
471.339	365.69
471.558	335.69
471.777	343.69
471.997	354.69
472.216	339.69
472.435	378.69
472.654	359.69
472.873	354.69
473.092	354.69
473.311	352.69
473.53	347.69
473.749	338.69
473.968	377.69
474.187	448.69
474.406	476.69
474.625	382.69
474.844	380.69
475.063	364.69
475.282	362.69
475.501	329.69
475.72	358.69
475.939	363.69
476.158	370.69
476.377	371.69
476.596	364.69
476.814	360.69
477.033	360.69
477.252	362.69
477.471	374.69
477.69	380.69
477.908	362.69
478.127	374.69
478.346	380.69
478.564	393.69
478.783	374.69
479.002	390.69
479.22	369.69
479.439	410.69
479.658	408.69
479.876	425.69
480.095	415.69
480.313	408.69
480.532	424.69
480.751	411.69
480.969	417.69
481.188	482.69
481.406	505.69
481.624	444.69
481.843	434.69
482.061	393.69
482.28	394.69
482.498	421.69
482.717	398.69
482.935	403.69
483.153	397.69
483.372	416.69
483.59	388.69
483.808	398.69
484.027	413.69
484.245	412.69
484.463	420.69
484.681	424.69
484.9	420.69
485.118	394.69
485.336	423.69
485.554	433.69
485.772	408.69
485.99	407.69
486.209	441.69
486.427	412.69
486.645	436.69
486.863	434.69
487.081	453.69
487.299	449.69
487.517	438.69
487.735	446.69
487.953	454.69
488.171	425.69
488.389	436.69
488.607	445.69
488.825	419.69
489.043	440.69
489.261	445.69
489.479	437.69
489.696	453.69
489.914	429.69
490.132	429.69
490.35	440.69
490.568	438.69
490.786	449.69
491.003	464.69
491.221	459.69
491.439	477.69
491.657	490.69
491.874	488.69
492.092	496.69
492.31	502.69
492.527	496.69
492.745	497.69
492.963	466.69
493.18	492.69
493.398	519.69
493.615	489.69
493.833	484.69
494.05	494.69
494.268	499.69
494.485	489.69
494.703	503.69
494.92	526.69
495.138	503.69
495.355	500.69
495.573	501.69
495.79	500.69
496.008	506.69
496.225	497.69
496.442	517.69
496.66	488.69
496.877	516.69
497.094	507.69
497.312	528.69
497.529	541.69
497.746	534.69
497.963	511.69
498.181	560.69
498.398	545.69
498.615	532.69
498.832	568.69
499.049	567.69
499.267	584.69
499.484	580.69
499.701	616.69
499.918	616.69
500.135	639.69
500.352	641.69
500.569	671.69
500.786	633.69
501.003	661.69
501.22	634.69
501.437	644.69
501.654	624.69
501.871	617.69
502.088	618.69
502.305	600.69
502.522	587.69
502.739	580.69
502.956	536.69
503.172	524.69
503.389	550.69
503.606	528.69
503.823	546.69
504.04	533.69
504.256	526.69
504.473	496.69
504.69	532.69
504.907	520.69
505.123	493.69
505.34	521.69
505.557	499.69
505.773	509.69
505.99	503.69
506.207	502.69
506.423	499.69
506.64	488.69
506.856	477.69
507.073	491.69
507.289	488.69
507.506	483.69
507.722	512.69
507.939	509.69
508.155	478.69
508.372	475.69
508.588	457.69
508.805	465.69
509.021	474.69
509.238	473.69
509.454	482.69
509.67	485.69
509.887	474.69
510.103	485.69
510.319	484.69
510.536	540.69
510.752	915.69
510.968	747.69
511.184	482.69
511.401	473.69
511.617	458.69
511.833	461.69
512.049	466.69
512.265	438.69
512.481	411.69
512.698	444.69
512.914	436.69
513.13	480.69
513.346	462.69
513.562	460.69
513.778	463.69
513.994	445.69
514.21	457.69
514.426	475.69
514.642	496.69
514.858	522.69
515.074	551.69
515.29	666.69
515.506	952.69
515.721	796.69
515.937	548.69
516.153	486.69
516.369	508.69
516.585	477.69
516.801	466.69
517.016	475.69
517.232	446.69
517.448	464.69
517.664	456.69
517.879	450.69
518.095	477.69
518.311	485.69
518.527	460.69
518.742	459.69
518.958	459.69
519.173	472.69
519.389	441.69
519.605	465.69
519.82	469.69
520.036	453.69
520.251	479.69
520.467	521.69
520.682	503.69
520.898	509.69
521.113	515.69
521.329	555.69
521.544	627.69
521.76	762.69
521.975	1222.69
522.19	1206.69
522.406	689.69
522.621	521.69
522.836	482.69
523.052	447.69
523.267	461.69
523.482	449.69
523.698	440.69
523.913	423.69
524.128	437.69
524.343	432.69
524.559	400.69
524.774	410.69
524.989	404.69
525.204	400.69
525.419	405.69
525.634	414.69
525.849	399.69
526.064	390.69
526.28	391.69
526.495	386.69
526.71	381.69
526.925	380.69
527.14	379.69
527.355	377.69
527.57	373.69
527.785	398.69
527.999	365.69
528.214	368.69
528.429	376.69
528.644	398.69
528.859	382.69
529.074	382.69
529.289	396.69
529.503	465.69
529.718	458.69
529.933	416.69
530.148	414.69
530.363	414.69
530.577	376.69
530.792	384.69
531.007	365.69
531.221	369.69
531.436	392.69
531.651	370.69
531.865	373.69
532.08	376.69
532.295	368.69
532.509	360.69
532.724	366.69
532.938	353.69
533.153	368.69
533.367	368.69
533.582	358.69
533.796	376.69
534.011	365.69
534.225	386.69
534.44	370.69
534.654	359.69
534.868	345.69
535.083	365.69
535.297	363.69
535.511	377.69
535.726	388.69
535.94	363.69
536.154	378.69
536.369	373.69
536.583	364.69
536.797	360.69
537.011	347.69
537.225	338.69
537.44	343.69
537.654	343.69
537.868	349.69
538.082	353.69
538.296	333.69
538.51	350.69
538.724	358.69
538.938	332.69
539.153	348.69
539.367	354.69
539.581	364.69
539.795	375.69
540.009	346.69
540.222	336.69
540.436	351.69
540.65	355.69
540.864	346.69
541.078	359.69
541.292	373.69
541.506	323.69
541.72	357.69
541.934	338.69
542.147	349.69
542.361	345.69
542.575	348.69
542.789	350.69
543.002	356.69
543.216	355.69
543.43	354.69
543.644	344.69
543.857	345.69
544.071	330.69
544.285	339.69
544.498	341.69
544.712	346.69
544.925	345.69
545.139	330.69
545.352	335.69
545.566	342.69
545.779	340.69
545.993	337.69
546.206	339.69
546.42	338.69
546.633	344.69
546.847	346.69
547.06	332.69
547.274	329.69
547.487	333.69
547.7	327.69
547.914	332.69
548.127	334.69
548.34	310.69
548.554	339.69
548.767	314.69
548.98	324.69
549.193	330.69
549.407	317.69
549.62	309.69
549.833	320.69
550.046	318.69
550.259	321.69
550.473	320.69
550.686	324.69
550.899	326.69
551.112	309.69
551.325	325.69
551.538	328.69
551.751	317.69
551.964	321.69
552.177	331.69
552.39	310.69
552.603	312.69
552.816	340.69
553.029	346.69
553.242	340.69
553.455	313.69
553.667	308.69
553.88	334.69
554.093	314.69
554.306	321.69
554.519	328.69
554.732	319.69
554.944	320.69
555.157	297.69
555.37	297.69
555.583	308.69
555.795	314.69
556.008	322.69
556.221	285.69
556.433	289.69
556.646	311.69
556.859	305.69
557.071	295.69
557.284	314.69
557.496	307.69
557.709	310.69
557.921	312.69
558.134	299.69
558.346	288.69
558.559	286.69
558.771	306.69
558.984	290.69
559.196	285.69
559.409	293.69
559.621	292.69
559.833	294.69
560.046	300.69
560.258	285.69
560.47	313.69
560.683	279.69
560.895	287.69
561.107	294.69
561.32	312.69
561.532	292.69
561.744	308.69
561.956	286.69
562.168	281.69
562.381	312.69
562.593	292.69
562.805	302.69
563.017	308.69
563.229	301.69
563.441	290.69
563.653	306.69
563.865	308.69
564.077	308.69
564.289	314.69
564.501	309.69
564.713	294.69
564.925	317.69
565.137	314.69
565.349	330.69
565.561	321.69
565.773	346.69
565.985	326.69
566.197	313.69
566.408	308.69
566.62	324.69
566.832	330.69
567.044	338.69
567.255	346.69
567.467	332.69
567.679	338.69
567.891	348.69
568.102	349.69
568.314	337.69
568.526	331.69
568.737	349.69
568.949	305.69
569.161	306.69
569.372	327.69
569.584	316.69
569.795	286.69
570.007	304.69
570.218	347.69
570.43	330.69
570.641	298.69
570.853	290.69
571.064	280.69
571.276	283.69
571.487	293.69
571.698	297.69
571.91	271.69
572.121	300.69
572.333	261.69
572.544	271.69
572.755	272.69
572.966	285.69
573.178	267.69
573.389	261.69
573.6	268.69
573.811	273.69
574.023	258.69
574.234	281.69
574.445	270.69
574.656	277.69
574.867	264.69
575.078	260.69
575.289	262.69
575.501	276.69
575.712	269.69
575.923	281.69
576.134	254.69
576.345	253.69
576.556	243.69
576.767	256.69
576.978	265.69
577.188	254.69
577.399	271.69
577.61	258.69
577.821	261.69
578.032	261.69
578.243	262.69
578.454	434.69
578.665	342.69
578.875	270.69
579.086	240.69
579.297	242.69
579.508	243.69
579.718	245.69
579.929	261.69
580.14	244.69
580.35	243.69
580.561	259.69
580.772	254.69
580.982	246.69
581.193	230.69
581.403	245.69
581.614	245.69
581.825	241.69
582.035	235.69
582.246	251.69
582.456	237.69
582.667	232.69
582.877	248.69
583.087	236.69
583.298	244.69
583.508	242.69
583.719	234.69
583.929	234.69
584.139	240.69
584.35	231.69
584.56	243.69
584.77	228.69
584.981	217.69
585.191	232.69
585.401	235.69
585.611	244.69
585.821	219.69
586.032	227.69
586.242	206.69
586.452	240.69
586.662	240.69
586.872	246.69
587.082	234.69
587.292	230.69
587.502	230.69
587.713	234.69
587.923	240.69
588.133	235.69
588.343	246.69
588.553	222.69
588.762	221.69
588.972	235.69
589.182	235.69
589.392	236.69
589.602	229.69
589.812	249.69
590.022	235.69
590.232	218.69
590.441	236.69
590.651	224.69
590.861	221.69
591.071	221.69
591.281	240.69
591.49	229.69
591.7	248.69
591.91	240.69
592.119	228.69
592.329	233.69
592.539	269.69
592.748	246.69
592.958	221.69
593.167	218.69
593.377	212.69
593.587	252.69
593.796	232.69
594.006	241.69
594.215	229.69
594.424	231.69
594.634	244.69
594.843	245.69
595.053	221.69
595.262	218.69
595.472	225.69
595.681	228.69
595.89	222.69
596.1	221.69
596.309	228.69
596.518	209.69
596.727	224.69
596.937	221.69
597.146	216.69
597.355	220.69
597.564	214.69
597.774	214.69
597.983	212.69
598.192	207.69
598.401	224.69
598.61	204.69
598.819	224.69
599.028	224.69
599.237	206.69
599.446	199.69
599.655	215.69
599.864	209.69
600.073	209.69
600.282	206.69
600.491	210.69
600.7	204.69
600.909	220.69
601.118	196.69
601.327	203.69
601.536	217.69
601.745	204.69
601.953	200.69
602.162	207.69
602.371	213.69
602.58	193.69
602.789	200.69
602.997	202.69
603.206	184.69
603.415	211.69
603.623	206.69
603.832	196.69
604.041	206.69
604.249	200.69
604.458	202.69
604.666	193.69
604.875	182.69
605.084	190.69
605.292	213.69
605.501	192.69
605.709	198.69
605.918	190.69
606.126	189.69
606.334	195.69
606.543	190.69
606.751	215.69
606.96	190.69
607.168	195.69
607.376	190.69
607.585	188.69
607.793	177.69
608.001	197.69
608.21	194.69
608.418	192.69
608.626	196.69
608.834	205.69
609.043	200.69
609.251	200.69
609.459	205.69
609.667	188.69
609.875	188.69
610.083	202.69
610.291	189.69
610.499	196.69
610.707	192.69
610.916	194.69
611.124	185.69
611.332	202.69
611.54	196.69
611.748	215.69
611.955	200.69
612.163	216.69
612.371	204.69
612.579	183.69
612.787	205.69
612.995	197.69
613.203	209.69
613.411	193.69
613.618	180.69
613.826	203.69
614.034	180.69
614.242	199.69
614.449	180.69
614.657	185.69
614.865	184.69
615.072	197.69
615.28	180.69
615.488	203.69
615.695	180.69
615.903	181.69
616.111	176.69
616.318	185.69
616.526	180.69
616.733	194.69
616.941	187.69
617.148	191.69
617.356	199.69
617.563	197.69
617.771	184.69
617.978	179.69
618.185	192.69
618.393	179.69
618.6	180.69
618.807	191.69
619.015	198.69
619.222	197.69
619.429	184.69
619.637	197.69
619.844	180.69
620.051	205.69
620.258	165.69
620.466	173.69
620.673	186.69
620.88	184.69
621.087	190.69
621.294	176.69
621.501	184.69
621.708	194.69
621.915	203.69
622.122	193.69
622.329	174.69
622.536	168.69
622.743	183.69
622.95	185.69
623.157	173.69
623.364	172.69
623.571	174.69
623.778	172.69
623.985	169.69
624.192	170.69
624.399	181.69
624.606	176.69
624.812	149.69
625.019	172.69
625.226	160.69
625.433	179.69
625.639	173.69
625.846	159.69
626.053	186.69
626.259	178.69
626.466	176.69
626.673	191.69
626.879	158.69
627.086	173.69
627.293	172.69
627.499	165.69
627.706	177.69
627.912	161.69
628.119	168.69
628.325	179.69
628.532	148.69
628.738	150.69
628.945	169.69
629.151	167.69
629.357	163.69
629.564	165.69
629.77	151.69
629.976	167.69
630.183	162.69
630.389	159.69
630.595	172.69
630.802	162.69
631.008	172.69
631.214	170.69
631.42	162.69
631.627	150.69
631.833	174.69
632.039	156.69
632.245	180.69
632.451	164.69
632.657	154.69
632.863	176.69
633.069	152.69
633.275	167.69
633.481	173.69
633.688	157.69
633.893	156.69
634.099	160.69
634.305	149.69
634.511	165.69
634.717	171.69
634.923	155.69
635.129	152.69
635.335	169.69
635.541	141.69
635.747	141.69
635.952	159.69
636.158	154.69
636.364	162.69
636.57	164.69
636.775	157.69
636.981	159.69
637.187	162.69
637.392	147.69
637.598	154.69
637.804	158.69
638.009	150.69
638.215	165.69
638.421	158.69
638.626	171.69
638.832	174.69
639.037	155.69
639.243	161.69
639.448	149.69
639.654	148.69
639.859	140.69
640.065	146.69
640.27	140.69
640.475	155.69
640.681	146.69
640.886	148.69
641.091	142.69
641.297	151.69
641.502	157.69
641.707	144.69
641.913	147.69
642.118	154.69
642.323	153.69
642.528	151.69
642.733	147.69
642.939	142.69
643.144	142.69
643.349	146.69
643.554	149.69
643.759	150.69
643.964	148.69
644.169	141.69
644.374	148.69
644.579	160.69
644.784	158.69
644.989	126.69
645.194	136.69
645.399	148.69
645.604	154.69
645.809	139.69
646.014	140.69
646.219	143.69
646.423	148.69
646.628	136.69
646.833	149.69
647.038	160.69
647.243	142.69
647.447	145.69
647.652	150.69
647.857	146.69
648.062	142.69
648.266	148.69
648.471	145.69
648.676	142.69
648.88	138.69
649.085	149.69
649.289	148.69
649.494	170.69
649.698	159.69
649.903	159.69
650.107	162.69
650.312	148.69
650.516	129.69
650.721	130.69
650.925	139.69
651.13	135.69
651.334	142.69
651.539	128.69
651.743	130.69
651.947	137.69
652.152	136.69
652.356	129.69
652.56	136.69
652.764	131.69
652.969	139.69
653.173	125.69
653.377	120.69
653.581	126.69
653.785	129.69
653.99	121.69
654.194	134.69
654.398	133.69
654.602	131.69
654.806	119.69
655.01	136.69
655.214	140.69
655.418	140.69
655.622	142.69
655.826	125.69
656.03	123.69
656.234	125.69
656.438	122.69
656.642	116.69
656.846	117.69
657.049	119.69
657.253	134.69
657.457	112.69
657.661	116.69
657.865	99.69
658.068	123.69
658.272	105.69
658.476	86.69
658.68	100.69
658.883	109.69
659.087	91.69
659.291	99.69
659.494	88.69
659.698	111.69
659.901	90.69
660.105	102.69
660.309	106.69
660.512	102.69
660.716	90.69
660.919	105.69
661.123	94.69
661.326	88.69
661.53	88.69
661.733	85.69
661.936	91.69
662.14	86.69
662.343	99.69
662.546	91.69
662.75	88.69
662.953	99.69
663.156	84.69
663.36	84.69
663.563	87.69
663.766	81.69
663.969	91.69
664.173	76.69
664.376	85.69
664.579	97.69
664.782	84.69
664.985	89.69
665.188	86.69
665.391	91.69
665.594	77.69
665.797	84.69
666	96.69
666.203	71.69
666.406	86.69
666.609	96.69
666.812	88.69
667.015	89.69
667.218	92.69
667.421	82.69
667.624	79.69
667.827	77.69
668.03	77.69
668.232	75.69
668.435	85.69
668.638	65.69
668.841	83.69
669.043	80.69
669.246	101.69
669.449	94.69
669.651	77.69
669.854	94.69
670.057	94.69
670.259	93.69
670.462	84.69
670.665	77.69
670.867	95.69
671.07	84.69
671.272	77.69
671.475	86.69
671.677	85.69
671.88	81.69
672.082	84.69
672.284	83.69
672.487	90.69
672.689	84.69
672.892	77.69
