Data from 1961.PennyLincolnUp.Lamp.En5.5.200Scan.071719.P1._HRD10591_13-47-27-058.txt Node
Date: Thu Jul 18 13:47:27 EDT 2019
User: cochatt
Spectrometer: HR+D1059
Trigger mode: 1
Integration Time (sec): 1.000000E-1
Scans to average: 1
Electric dark correction enabled: true
Nonlinearity correction enabled: false
Boxcar width: 0
XAxis mode: Wavelengths
Number of Pixels in Spectrum: 2048
>>>>>Begin Spectral Data<<<<<
223.165	-19.31
223.4	-19.31
223.635	-19.31
223.869	-11.31
224.104	-12.31
224.338	-16.31
224.573	-22.31
224.808	-13.31
225.042	-20.31
225.277	3.69
225.511	3.69
225.746	2.69
225.98	6.69
226.215	-3.31
226.449	9.69
226.683	24.69
226.918	31.69
227.152	35.69
227.387	32.69
227.621	43.69
227.856	55.69
228.09	51.69
228.324	40.69
228.559	49.69
228.793	75.69
229.027	103.69
229.262	100.69
229.496	109.69
229.73	129.69
229.964	126.69
230.199	112.69
230.433	108.69
230.667	124.69
230.901	106.69
231.136	111.69
231.37	93.69
231.604	103.69
231.838	102.69
232.072	109.69
232.306	95.69
232.541	103.69
232.775	101.69
233.009	113.69
233.243	88.69
233.477	111.69
233.711	118.69
233.945	118.69
234.179	100.69
234.413	104.69
234.647	108.69
234.881	113.69
235.115	98.69
235.349	118.69
235.583	113.69
235.817	109.69
236.051	113.69
236.285	111.69
236.519	104.69
236.753	121.69
236.987	135.69
237.221	166.69
237.455	200.69
237.689	157.69
237.922	138.69
238.156	121.69
238.39	119.69
238.624	124.69
238.858	115.69
239.091	115.69
239.325	113.69
239.559	108.69
239.793	113.69
240.027	116.69
240.26	119.69
240.494	134.69
240.728	135.69
240.961	131.69
241.195	140.69
241.429	118.69
241.662	115.69
241.896	108.69
242.13	131.69
242.363	106.69
242.597	121.69
242.83	114.69
243.064	134.69
243.298	120.69
243.531	124.69
243.765	127.69
243.998	121.69
244.232	127.69
244.465	117.69
244.699	131.69
244.932	136.69
245.166	136.69
245.399	117.69
245.633	133.69
245.866	136.69
246.099	128.69
246.333	122.69
246.566	137.69
246.8	144.69
247.033	124.69
247.266	139.69
247.5	135.69
247.733	142.69
247.966	140.69
248.2	138.69
248.433	128.69
248.666	147.69
248.899	155.69
249.133	157.69
249.366	173.69
249.599	166.69
249.832	151.69
250.066	168.69
250.299	159.69
250.532	166.69
250.765	177.69
250.998	173.69
251.231	182.69
251.465	184.69
251.698	187.69
251.931	163.69
252.164	172.69
252.397	171.69
252.63	166.69
252.863	166.69
253.096	188.69
253.329	175.69
253.562	187.69
253.795	169.69
254.028	196.69
254.261	178.69
254.494	187.69
254.727	203.69
254.96	212.69
255.193	210.69
255.426	184.69
255.659	183.69
255.892	188.69
256.124	204.69
256.357	203.69
256.59	181.69
256.823	188.69
257.056	165.69
257.289	194.69
257.521	182.69
257.754	176.69
257.987	176.69
258.22	172.69
258.452	151.69
258.685	183.69
258.918	163.69
259.151	172.69
259.383	199.69
259.616	198.69
259.849	193.69
260.081	189.69
260.314	200.69
260.547	192.69
260.779	212.69
261.012	191.69
261.244	188.69
261.477	189.69
261.71	203.69
261.942	182.69
262.175	186.69
262.407	183.69
262.64	184.69
262.872	185.69
263.105	184.69
263.337	180.69
263.57	180.69
263.802	177.69
264.035	178.69
264.267	170.69
264.499	170.69
264.732	160.69
264.964	176.69
265.197	169.69
265.429	184.69
265.661	167.69
265.894	199.69
266.126	177.69
266.358	166.69
266.591	163.69
266.823	181.69
267.055	181.69
267.287	194.69
267.52	178.69
267.752	190.69
267.984	189.69
268.216	183.69
268.448	204.69
268.681	199.69
268.913	197.69
269.145	212.69
269.377	210.69
269.609	212.69
269.841	217.69
270.073	209.69
270.306	220.69
270.538	238.69
270.77	235.69
271.002	247.69
271.234	240.69
271.466	231.69
271.698	235.69
271.93	265.69
272.162	259.69
272.394	252.69
272.626	233.69
272.858	214.69
273.09	232.69
273.322	221.69
273.553	213.69
273.785	220.69
274.017	219.69
274.249	214.69
274.481	212.69
274.713	194.69
274.945	208.69
275.176	224.69
275.408	223.69
275.64	212.69
275.872	236.69
276.104	216.69
276.335	198.69
276.567	222.69
276.799	220.69
277.031	222.69
277.262	243.69
277.494	265.69
277.726	232.69
277.957	221.69
278.189	210.69
278.421	243.69
278.652	223.69
278.884	219.69
279.115	195.69
279.347	211.69
279.579	212.69
279.81	212.69
280.042	214.69
280.273	209.69
280.505	217.69
280.736	212.69
280.968	195.69
281.199	203.69
281.431	207.69
281.662	227.69
281.894	206.69
282.125	215.69
282.356	234.69
282.588	244.69
282.819	273.69
283.051	203.69
283.282	221.69
283.513	225.69
283.745	203.69
283.976	213.69
284.207	214.69
284.439	218.69
284.67	214.69
284.901	223.69
285.132	202.69
285.364	211.69
285.595	219.69
285.826	202.69
286.057	209.69
286.288	211.69
286.52	223.69
286.751	212.69
286.982	215.69
287.213	220.69
287.444	225.69
287.675	221.69
287.906	229.69
288.138	243.69
288.369	229.69
288.6	235.69
288.831	220.69
289.062	254.69
289.293	221.69
289.524	231.69
289.755	240.69
289.986	215.69
290.217	228.69
290.448	227.69
290.679	226.69
290.91	214.69
291.141	205.69
291.371	232.69
291.602	216.69
291.833	218.69
292.064	211.69
292.295	205.69
292.526	237.69
292.757	209.69
292.987	221.69
293.218	214.69
293.449	204.69
293.68	221.69
293.91	204.69
294.141	230.69
294.372	225.69
294.603	235.69
294.833	229.69
295.064	230.69
295.295	225.69
295.525	232.69
295.756	222.69
295.987	231.69
296.217	243.69
296.448	257.69
296.679	230.69
296.909	218.69
297.14	218.69
297.37	231.69
297.601	210.69
297.831	214.69
298.062	237.69
298.292	251.69
298.523	228.69
298.753	244.69
298.984	232.69
299.214	229.69
299.445	227.69
299.675	240.69
299.905	225.69
300.136	235.69
300.366	263.69
300.597	230.69
300.827	228.69
301.057	239.69
301.288	240.69
301.518	266.69
301.748	227.69
301.979	259.69
302.209	259.69
302.439	264.69
302.669	265.69
302.9	244.69
303.13	239.69
303.36	246.69
303.59	243.69
303.82	261.69
304.051	251.69
304.281	250.69
304.511	260.69
304.741	261.69
304.971	259.69
305.201	247.69
305.431	262.69
305.661	256.69
305.891	253.69
306.121	258.69
306.352	249.69
306.582	248.69
306.812	255.69
307.042	249.69
307.272	263.69
307.502	259.69
307.731	286.69
307.961	257.69
308.191	260.69
308.421	248.69
308.651	251.69
308.881	277.69
309.111	274.69
309.341	268.69
309.571	270.69
309.8	291.69
310.03	294.69
310.26	277.69
310.49	288.69
310.72	305.69
310.949	306.69
311.179	321.69
311.409	312.69
311.639	298.69
311.868	313.69
312.098	306.69
312.328	319.69
312.557	312.69
312.787	324.69
313.017	327.69
313.246	313.69
313.476	308.69
313.706	307.69
313.935	305.69
314.165	288.69
314.394	303.69
314.624	329.69
314.853	303.69
315.083	290.69
315.312	307.69
315.542	287.69
315.771	284.69
316.001	306.69
316.23	303.69
316.46	289.69
316.689	304.69
316.919	315.69
317.148	304.69
317.377	307.69
317.607	293.69
317.836	297.69
318.065	291.69
318.295	287.69
318.524	294.69
318.753	285.69
318.983	297.69
319.212	313.69
319.441	311.69
319.67	323.69
319.9	305.69
320.129	311.69
320.358	307.69
320.587	293.69
320.816	321.69
321.046	323.69
321.275	337.69
321.504	312.69
321.733	315.69
321.962	337.69
322.191	347.69
322.42	346.69
322.649	375.69
322.878	382.69
323.108	385.69
323.337	403.69
323.566	414.69
323.795	446.69
324.024	499.69
324.253	620.69
324.482	909.69
324.71	1351.69
324.939	1972.69
325.168	1640.69
325.397	869.69
325.626	579.69
325.855	484.69
326.084	441.69
326.313	449.69
326.542	445.69
326.77	480.69
326.999	565.69
327.228	806.69
327.457	1181.69
327.686	1435.69
327.914	959.69
328.143	628.69
328.372	556.69
328.6	519.69
328.829	463.69
329.058	505.69
329.287	515.69
329.515	449.69
329.744	413.69
329.972	428.69
330.201	478.69
330.43	487.69
330.658	516.69
330.887	515.69
331.115	497.69
331.344	437.69
331.572	396.69
331.801	398.69
332.03	397.69
332.258	359.69
332.486	379.69
332.715	376.69
332.943	361.69
333.172	363.69
333.4	355.69
333.629	375.69
333.857	364.69
334.085	385.69
334.314	401.69
334.542	437.69
334.771	439.69
334.999	400.69
335.227	370.69
335.455	352.69
335.684	383.69
335.912	324.69
336.14	334.69
336.369	342.69
336.597	363.69
336.825	351.69
337.053	329.69
337.281	345.69
337.51	352.69
337.738	340.69
337.966	335.69
338.194	356.69
338.422	356.69
338.65	345.69
338.878	339.69
339.106	328.69
339.334	343.69
339.562	348.69
339.79	332.69
340.018	308.69
340.246	333.69
340.474	344.69
340.702	325.69
340.93	328.69
341.158	315.69
341.386	330.69
341.614	335.69
341.842	334.69
342.07	338.69
342.298	333.69
342.526	328.69
342.754	308.69
342.981	323.69
343.209	321.69
343.437	328.69
343.665	295.69
343.893	301.69
344.12	340.69
344.348	325.69
344.576	337.69
344.804	330.69
345.031	351.69
345.259	363.69
345.487	348.69
345.714	356.69
345.942	339.69
346.17	325.69
346.397	292.69
346.625	347.69
346.853	305.69
347.08	325.69
347.308	335.69
347.535	315.69
347.763	339.69
347.99	343.69
348.218	349.69
348.445	336.69
348.673	352.69
348.9	331.69
349.128	320.69
349.355	330.69
349.583	342.69
349.81	316.69
350.037	300.69
350.265	327.69
350.492	309.69
350.72	309.69
350.947	322.69
351.174	323.69
351.402	334.69
351.629	311.69
351.856	317.69
352.083	346.69
352.311	343.69
352.538	351.69
352.765	345.69
352.992	335.69
353.22	338.69
353.447	325.69
353.674	314.69
353.901	304.69
354.128	299.69
354.355	294.69
354.583	304.69
354.81	319.69
355.037	293.69
355.264	304.69
355.491	298.69
355.718	307.69
355.945	306.69
356.172	312.69
356.399	292.69
356.626	303.69
356.853	299.69
357.08	313.69
357.307	291.69
357.534	301.69
357.761	293.69
357.988	321.69
358.215	319.69
358.441	314.69
358.668	300.69
358.895	302.69
359.122	319.69
359.349	317.69
359.576	315.69
359.802	345.69
360.029	364.69
360.256	391.69
360.483	381.69
360.709	357.69
360.936	355.69
361.163	357.69
361.39	328.69
361.616	324.69
361.843	324.69
362.07	336.69
362.296	328.69
362.523	312.69
362.749	323.69
362.976	315.69
363.203	317.69
363.429	321.69
363.656	315.69
363.882	326.69
364.109	327.69
364.335	317.69
364.562	314.69
364.788	340.69
365.015	309.69
365.241	324.69
365.468	315.69
365.694	335.69
365.92	312.69
366.147	317.69
366.373	316.69
366.599	288.69
366.826	304.69
367.052	298.69
367.278	299.69
367.505	307.69
367.731	306.69
367.957	295.69
368.184	321.69
368.41	319.69
368.636	328.69
368.862	311.69
369.089	329.69
369.315	307.69
369.541	299.69
369.767	311.69
369.993	319.69
370.219	314.69
370.445	310.69
370.672	312.69
370.898	312.69
371.124	298.69
371.35	298.69
371.576	312.69
371.802	307.69
372.028	300.69
372.254	299.69
372.48	305.69
372.706	300.69
372.932	306.69
373.158	293.69
373.384	295.69
373.61	297.69
373.835	307.69
374.061	303.69
374.287	317.69
374.513	306.69
374.739	304.69
374.965	303.69
375.191	313.69
375.416	333.69
375.642	320.69
375.868	318.69
376.094	306.69
376.319	312.69
376.545	297.69
376.771	306.69
376.997	302.69
377.222	307.69
377.448	300.69
377.674	311.69
377.899	296.69
378.125	298.69
378.35	313.69
378.576	294.69
378.802	281.69
379.027	298.69
379.253	330.69
379.478	295.69
379.704	291.69
379.929	319.69
380.155	305.69
380.38	313.69
380.606	293.69
380.831	321.69
381.057	321.69
381.282	306.69
381.507	295.69
381.733	310.69
381.958	311.69
382.184	289.69
382.409	306.69
382.634	313.69
382.86	310.69
383.085	301.69
383.31	312.69
383.535	317.69
383.761	328.69
383.986	343.69
384.211	293.69
384.436	327.69
384.662	312.69
384.887	319.69
385.112	323.69
385.337	328.69
385.562	339.69
385.787	324.69
386.013	350.69
386.238	329.69
386.463	344.69
386.688	331.69
386.913	312.69
387.138	336.69
387.363	323.69
387.588	328.69
387.813	315.69
388.038	303.69
388.263	315.69
388.488	306.69
388.713	335.69
388.938	343.69
389.163	332.69
389.387	309.69
389.612	339.69
389.837	321.69
390.062	319.69
390.287	321.69
390.512	330.69
390.736	314.69
390.961	338.69
391.186	357.69
391.411	304.69
391.636	331.69
391.86	329.69
392.085	319.69
392.31	329.69
392.534	311.69
392.759	337.69
392.984	357.69
393.208	345.69
393.433	339.69
393.658	325.69
393.882	338.69
394.107	337.69
394.331	354.69
394.556	314.69
394.78	329.69
395.005	314.69
395.229	317.69
395.454	337.69
395.678	330.69
395.903	360.69
396.127	373.69
396.352	359.69
396.576	344.69
396.801	363.69
397.025	359.69
397.249	350.69
397.474	355.69
397.698	353.69
397.922	361.69
398.147	361.69
398.371	348.69
398.595	384.69
398.82	387.69
399.044	377.69
399.268	378.69
399.492	384.69
399.717	399.69
399.941	436.69
400.165	431.69
400.389	456.69
400.613	413.69
400.837	384.69
401.062	367.69
401.286	379.69
401.51	381.69
401.734	363.69
401.958	361.69
402.182	360.69
402.406	385.69
402.63	384.69
402.854	376.69
403.078	389.69
403.302	377.69
403.526	377.69
403.75	386.69
403.974	390.69
404.198	375.69
404.422	380.69
404.645	390.69
404.869	391.69
405.093	409.69
405.317	448.69
405.541	450.69
405.765	439.69
405.988	404.69
406.212	425.69
406.436	415.69
406.66	436.69
406.883	427.69
407.107	425.69
407.331	468.69
407.555	501.69
407.778	488.69
408.002	462.69
408.226	443.69
408.449	431.69
408.673	432.69
408.896	458.69
409.12	473.69
409.344	446.69
409.567	413.69
409.791	411.69
410.014	391.69
410.238	407.69
410.461	403.69
410.685	400.69
410.908	394.69
411.132	435.69
411.355	453.69
411.578	444.69
411.802	394.69
412.025	404.69
412.249	417.69
412.472	425.69
412.695	439.69
412.919	438.69
413.142	393.69
413.365	384.69
413.589	386.69
413.812	360.69
414.035	387.69
414.258	371.69
414.482	375.69
414.705	388.69
414.928	371.69
415.151	361.69
415.374	375.69
415.597	371.69
415.821	379.69
416.044	400.69
416.267	389.69
416.49	357.69
416.713	369.69
416.936	356.69
417.159	358.69
417.382	372.69
417.605	340.69
417.828	382.69
418.051	383.69
418.274	383.69
418.497	383.69
418.72	360.69
418.943	357.69
419.166	391.69
419.389	401.69
419.611	407.69
419.834	389.69
420.057	400.69
420.28	387.69
420.503	380.69
420.726	379.69
420.948	419.69
421.171	447.69
421.394	441.69
421.617	396.69
421.839	379.69
422.062	395.69
422.285	402.69
422.507	455.69
422.73	474.69
422.953	482.69
423.175	432.69
423.398	412.69
423.621	402.69
423.843	423.69
424.066	407.69
424.288	418.69
424.511	419.69
424.733	483.69
424.956	553.69
425.178	543.69
425.401	514.69
425.623	550.69
425.846	472.69
426.068	413.69
426.291	407.69
426.513	437.69
426.735	450.69
426.958	469.69
427.18	535.69
427.402	608.69
427.625	695.69
427.847	611.69
428.069	551.69
428.292	479.69
428.514	447.69
428.736	421.69
428.958	410.69
429.181	388.69
429.403	393.69
429.625	406.69
429.847	446.69
430.069	474.69
430.292	456.69
430.514	403.69
430.736	395.69
430.958	389.69
431.18	362.69
431.402	393.69
431.624	360.69
431.846	380.69
432.068	354.69
432.29	365.69
432.512	358.69
432.734	367.69
432.956	368.69
433.178	400.69
433.4	405.69
433.622	381.69
433.844	374.69
434.066	375.69
434.287	359.69
434.509	376.69
434.731	382.69
434.953	391.69
435.175	396.69
435.397	413.69
435.618	420.69
435.84	470.69
436.062	533.69
436.284	598.69
436.505	511.69
436.727	471.69
436.949	404.69
437.17	407.69
437.392	383.69
437.614	414.69
437.835	449.69
438.057	522.69
438.278	591.69
438.5	601.69
438.721	643.69
438.943	606.69
439.165	484.69
439.386	456.69
439.608	420.69
439.829	441.69
440.05	453.69
440.272	522.69
440.493	490.69
440.715	429.69
440.936	434.69
441.158	403.69
441.379	409.69
441.6	395.69
441.822	438.69
442.043	475.69
442.264	538.69
442.486	551.69
442.707	470.69
442.928	449.69
443.149	447.69
443.371	475.69
443.592	524.69
443.813	554.69
444.034	598.69
444.255	521.69
444.476	448.69
444.698	415.69
444.919	431.69
445.14	493.69
445.361	492.69
445.582	479.69
445.803	519.69
446.024	587.69
446.245	596.69
446.466	566.69
446.687	474.69
446.908	444.69
447.129	422.69
447.35	399.69
447.571	416.69
447.792	402.69
448.013	417.69
448.234	439.69
448.455	491.69
448.675	543.69
448.896	608.69
449.117	550.69
449.338	538.69
449.559	599.69
449.779	650.69
450	553.69
450.221	438.69
450.442	401.69
450.662	384.69
450.883	397.69
451.104	433.69
451.324	409.69
451.545	398.69
451.766	387.69
451.986	359.69
452.207	352.69
452.428	365.69
452.648	360.69
452.869	358.69
453.089	374.69
453.31	407.69
453.53	391.69
453.751	354.69
453.971	369.69
454.192	373.69
454.412	391.69
454.633	378.69
454.853	349.69
455.073	342.69
455.294	390.69
455.514	446.69
455.734	435.69
455.955	370.69
456.175	363.69
456.395	358.69
456.616	353.69
456.836	361.69
457.056	341.69
457.276	325.69
457.497	333.69
457.717	340.69
457.937	352.69
458.157	351.69
458.377	358.69
458.598	371.69
458.818	415.69
459.038	497.69
459.258	504.69
459.478	420.69
459.698	373.69
459.918	381.69
460.138	395.69
460.358	375.69
460.578	381.69
460.798	386.69
461.018	379.69
461.238	385.69
461.458	364.69
461.678	373.69
461.898	387.69
462.118	385.69
462.338	385.69
462.558	400.69
462.777	408.69
462.997	397.69
463.217	392.69
463.437	393.69
463.657	387.69
463.876	407.69
464.096	399.69
464.316	383.69
464.536	393.69
464.755	384.69
464.975	399.69
465.195	449.69
465.414	520.69
465.634	466.69
465.854	409.69
466.073	381.69
466.293	379.69
466.512	354.69
466.732	389.69
466.951	379.69
467.171	358.69
467.391	357.69
467.61	405.69
467.829	411.69
468.049	381.69
468.268	401.69
468.488	385.69
468.707	377.69
468.927	374.69
469.146	360.69
469.365	381.69
469.585	362.69
469.804	365.69
470.023	387.69
470.243	379.69
470.462	382.69
470.681	401.69
470.901	393.69
471.12	371.69
471.339	392.69
471.558	367.69
471.777	378.69
471.997	366.69
472.216	383.69
472.435	433.69
472.654	422.69
472.873	379.69
473.092	392.69
473.311	391.69
473.53	380.69
473.749	383.69
473.968	408.69
474.187	498.69
474.406	512.69
474.625	423.69
474.844	408.69
475.063	371.69
475.282	393.69
475.501	383.69
475.72	392.69
475.939	383.69
476.158	387.69
476.377	392.69
476.596	395.69
476.814	392.69
477.033	390.69
477.252	396.69
477.471	395.69
477.69	413.69
477.908	416.69
478.127	413.69
478.346	412.69
478.564	403.69
478.783	394.69
479.002	427.69
479.22	435.69
479.439	442.69
479.658	455.69
479.876	455.69
480.095	459.69
480.313	447.69
480.532	461.69
480.751	435.69
480.969	464.69
481.188	555.69
481.406	572.69
481.624	505.69
481.843	448.69
482.061	462.69
482.28	466.69
482.498	442.69
482.717	443.69
482.935	423.69
483.153	444.69
483.372	443.69
483.59	429.69
483.808	450.69
484.027	442.69
484.245	439.69
484.463	451.69
484.681	460.69
484.9	465.69
485.118	449.69
485.336	445.69
485.554	472.69
485.772	456.69
485.99	453.69
486.209	444.69
486.427	454.69
486.645	465.69
486.863	491.69
487.081	490.69
487.299	483.69
487.517	472.69
487.735	462.69
487.953	473.69
488.171	483.69
488.389	465.69
488.607	469.69
488.825	463.69
489.043	498.69
489.261	474.69
489.479	479.69
489.696	493.69
489.914	472.69
490.132	474.69
490.35	491.69
490.568	483.69
490.786	518.69
491.003	518.69
491.221	515.69
491.439	523.69
491.657	543.69
491.874	510.69
492.092	523.69
492.31	515.69
492.527	529.69
492.745	536.69
492.963	572.69
493.18	529.69
493.398	577.69
493.615	533.69
493.833	538.69
494.05	550.69
494.268	552.69
494.485	560.69
494.703	556.69
494.92	557.69
495.138	571.69
495.355	573.69
495.573	556.69
495.79	560.69
496.008	557.69
496.225	559.69
496.442	541.69
496.66	576.69
496.877	545.69
497.094	574.69
497.312	573.69
497.529	577.69
497.746	570.69
497.963	601.69
498.181	599.69
498.398	603.69
498.615	609.69
498.832	625.69
499.049	617.69
499.267	625.69
499.484	632.69
499.701	638.69
499.918	651.69
500.135	676.69
500.352	674.69
500.569	695.69
500.786	705.69
501.003	699.69
501.22	672.69
501.437	669.69
501.654	664.69
501.871	665.69
502.088	684.69
502.305	634.69
502.522	616.69
502.739	610.69
502.956	593.69
503.172	586.69
503.389	583.69
503.606	597.69
503.823	589.69
504.04	588.69
504.256	596.69
504.473	567.69
504.69	560.69
504.907	550.69
505.123	546.69
505.34	552.69
505.557	555.69
505.773	573.69
505.99	523.69
506.207	547.69
506.423	520.69
506.64	547.69
506.856	537.69
507.073	547.69
507.289	535.69
507.506	520.69
507.722	551.69
507.939	561.69
508.155	539.69
508.372	549.69
508.588	507.69
508.805	503.69
509.021	509.69
509.238	527.69
509.454	531.69
509.67	534.69
509.887	536.69
510.103	539.69
510.319	553.69
510.536	618.69
510.752	1099.69
510.968	870.69
511.184	568.69
511.401	522.69
511.617	508.69
511.833	510.69
512.049	490.69
512.265	503.69
512.481	491.69
512.698	485.69
512.914	484.69
513.13	484.69
513.346	495.69
513.562	488.69
513.778	508.69
513.994	502.69
514.21	540.69
514.426	563.69
514.642	587.69
514.858	635.69
515.074	684.69
515.29	768.69
515.506	1172.69
515.721	935.69
515.937	645.69
516.153	602.69
516.369	551.69
516.585	545.69
516.801	509.69
517.016	499.69
517.232	507.69
517.448	520.69
517.664	524.69
517.879	481.69
518.095	511.69
518.311	519.69
518.527	507.69
518.742	521.69
518.958	514.69
519.173	522.69
519.389	503.69
519.605	512.69
519.82	515.69
520.036	507.69
520.251	562.69
520.467	575.69
520.682	568.69
520.898	562.69
521.113	590.69
521.329	645.69
521.544	735.69
521.76	943.69
521.975	1557.69
522.19	1483.69
522.406	805.69
522.621	607.69
522.836	547.69
523.052	505.69
523.267	495.69
523.482	487.69
523.698	476.69
523.913	481.69
524.128	447.69
524.343	444.69
524.559	454.69
524.774	437.69
524.989	440.69
525.204	459.69
525.419	462.69
525.634	437.69
525.849	433.69
526.064	425.69
526.28	416.69
526.495	401.69
526.71	431.69
526.925	423.69
527.14	404.69
527.355	406.69
527.57	411.69
527.785	416.69
527.999	418.69
528.214	409.69
528.429	403.69
528.644	400.69
528.859	405.69
529.074	409.69
529.289	452.69
529.503	497.69
529.718	498.69
529.933	447.69
530.148	428.69
530.363	436.69
530.577	406.69
530.792	406.69
531.007	402.69
531.221	404.69
531.436	403.69
531.651	419.69
531.865	396.69
532.08	401.69
532.295	416.69
532.509	398.69
532.724	375.69
532.938	401.69
533.153	398.69
533.367	385.69
533.582	393.69
533.796	381.69
534.011	388.69
534.225	391.69
534.44	373.69
534.654	385.69
534.868	384.69
535.083	375.69
535.297	365.69
535.511	385.69
535.726	385.69
535.94	388.69
536.154	384.69
536.369	381.69
536.583	385.69
536.797	357.69
537.011	382.69
537.225	377.69
537.44	388.69
537.654	389.69
537.868	366.69
538.082	369.69
538.296	378.69
538.51	382.69
538.724	378.69
538.938	390.69
539.153	372.69
539.367	396.69
539.581	387.69
539.795	380.69
540.009	379.69
540.222	381.69
540.436	378.69
540.65	367.69
540.864	362.69
541.078	370.69
541.292	361.69
541.506	364.69
541.72	381.69
541.934	375.69
542.147	352.69
542.361	379.69
542.575	362.69
542.789	359.69
543.002	355.69
543.216	358.69
543.43	364.69
543.644	373.69
543.857	369.69
544.071	365.69
544.285	361.69
544.498	355.69
544.712	349.69
544.925	364.69
545.139	349.69
545.352	375.69
545.566	357.69
545.779	367.69
545.993	380.69
546.206	358.69
546.42	352.69
546.633	346.69
546.847	352.69
547.06	341.69
547.274	352.69
547.487	344.69
547.7	355.69
547.914	358.69
548.127	331.69
548.34	347.69
548.554	353.69
548.767	357.69
548.98	367.69
549.193	352.69
549.407	334.69
549.62	354.69
549.833	334.69
550.046	355.69
550.259	355.69
550.473	346.69
550.686	336.69
550.899	343.69
551.112	347.69
551.325	343.69
551.538	324.69
551.751	325.69
551.964	346.69
552.177	358.69
552.39	344.69
552.603	327.69
552.816	346.69
553.029	355.69
553.242	339.69
553.455	359.69
553.667	368.69
553.88	371.69
554.093	362.69
554.306	351.69
554.519	360.69
554.732	317.69
554.944	348.69
555.157	331.69
555.37	333.69
555.583	325.69
555.795	335.69
556.008	316.69
556.221	329.69
556.433	338.69
556.646	347.69
556.859	328.69
557.071	322.69
557.284	314.69
557.496	329.69
557.709	327.69
557.921	313.69
558.134	324.69
558.346	313.69
558.559	307.69
558.771	308.69
558.984	300.69
559.196	307.69
559.409	315.69
559.621	321.69
559.833	312.69
560.046	323.69
560.258	314.69
560.47	308.69
560.683	326.69
560.895	318.69
561.107	301.69
561.32	297.69
561.532	290.69
561.744	315.69
561.956	315.69
562.168	299.69
562.381	305.69
562.593	323.69
562.805	313.69
563.017	311.69
563.229	328.69
563.441	327.69
563.653	316.69
563.865	304.69
564.077	314.69
564.289	302.69
564.501	314.69
564.713	306.69
564.925	327.69
565.137	335.69
565.349	344.69
565.561	326.69
565.773	344.69
565.985	338.69
566.197	339.69
566.408	309.69
566.62	341.69
566.832	333.69
567.044	364.69
567.255	360.69
567.467	345.69
567.679	345.69
567.891	331.69
568.102	355.69
568.314	355.69
568.526	356.69
568.737	332.69
568.949	334.69
569.161	320.69
569.372	320.69
569.584	309.69
569.795	306.69
570.007	335.69
570.218	372.69
570.43	353.69
570.641	320.69
570.853	290.69
571.064	291.69
571.276	292.69
571.487	289.69
571.698	287.69
571.91	293.69
572.121	311.69
572.333	291.69
572.544	281.69
572.755	273.69
572.966	301.69
573.178	271.69
573.389	288.69
573.6	280.69
573.811	280.69
574.023	276.69
574.234	279.69
574.445	264.69
574.656	271.69
574.867	275.69
575.078	272.69
575.289	279.69
575.501	284.69
575.712	260.69
575.923	266.69
576.134	263.69
576.345	265.69
576.556	287.69
576.767	264.69
576.978	267.69
577.188	275.69
577.399	259.69
577.61	274.69
577.821	288.69
578.032	275.69
578.243	317.69
578.454	515.69
578.665	358.69
578.875	286.69
579.086	266.69
579.297	252.69
579.508	249.69
579.718	262.69
579.929	247.69
580.14	248.69
580.35	261.69
580.561	249.69
580.772	255.69
580.982	233.69
581.193	264.69
581.403	235.69
581.614	230.69
581.825	246.69
582.035	257.69
582.246	234.69
582.456	240.69
582.667	249.69
582.877	237.69
583.087	241.69
583.298	233.69
583.508	244.69
583.719	232.69
583.929	261.69
584.139	248.69
584.35	256.69
584.56	251.69
584.77	255.69
584.981	246.69
585.191	245.69
585.401	237.69
585.611	251.69
585.821	241.69
586.032	240.69
586.242	247.69
586.452	241.69
586.662	227.69
586.872	256.69
587.082	234.69
587.292	227.69
587.502	250.69
587.713	256.69
587.923	241.69
588.133	244.69
588.343	229.69
588.553	243.69
588.762	245.69
588.972	241.69
589.182	253.69
589.392	235.69
589.602	229.69
589.812	227.69
590.022	230.69
590.232	239.69
590.441	235.69
590.651	233.69
590.861	223.69
591.071	253.69
591.281	234.69
591.49	255.69
591.7	238.69
591.91	232.69
592.119	234.69
592.329	248.69
592.539	266.69
592.748	243.69
592.958	245.69
593.167	219.69
593.377	226.69
593.587	228.69
593.796	267.69
594.006	249.69
594.215	242.69
594.424	243.69
594.634	255.69
594.843	224.69
595.053	259.69
595.262	256.69
595.472	218.69
595.681	237.69
595.89	227.69
596.1	222.69
596.309	231.69
596.518	211.69
596.727	224.69
596.937	216.69
597.146	239.69
597.355	219.69
597.564	231.69
597.774	224.69
597.983	225.69
598.192	224.69
598.401	221.69
598.61	215.69
598.819	200.69
599.028	204.69
599.237	224.69
599.446	213.69
599.655	211.69
599.864	225.69
600.073	216.69
600.282	210.69
600.491	240.69
600.7	200.69
600.909	210.69
601.118	219.69
601.327	211.69
601.536	205.69
601.745	213.69
601.953	220.69
602.162	210.69
602.371	212.69
602.58	199.69
602.789	199.69
602.997	196.69
603.206	204.69
603.415	194.69
603.623	202.69
603.832	208.69
604.041	210.69
604.249	202.69
604.458	207.69
604.666	211.69
604.875	203.69
605.084	201.69
605.292	195.69
605.501	200.69
605.709	213.69
605.918	208.69
606.126	199.69
606.334	210.69
606.543	209.69
606.751	201.69
606.96	216.69
607.168	202.69
607.376	202.69
607.585	191.69
607.793	185.69
608.001	202.69
608.21	209.69
608.418	194.69
608.626	193.69
608.834	197.69
609.043	203.69
609.251	218.69
609.459	192.69
609.667	198.69
609.875	205.69
610.083	201.69
610.291	198.69
610.499	215.69
610.707	215.69
610.916	194.69
611.124	191.69
611.332	211.69
611.54	191.69
611.748	182.69
611.955	200.69
612.163	199.69
612.371	202.69
612.579	204.69
612.787	196.69
612.995	195.69
613.203	191.69
613.411	202.69
613.618	199.69
613.826	202.69
614.034	188.69
614.242	202.69
614.449	181.69
614.657	188.69
614.865	203.69
615.072	206.69
615.28	199.69
615.488	177.69
615.695	192.69
615.903	175.69
616.111	200.69
616.318	202.69
616.526	183.69
616.733	199.69
616.941	195.69
617.148	199.69
617.356	207.69
617.563	187.69
617.771	200.69
617.978	199.69
618.185	192.69
618.393	173.69
618.6	182.69
618.807	196.69
619.015	207.69
619.222	191.69
619.429	180.69
619.637	195.69
619.844	181.69
620.051	184.69
620.258	194.69
620.466	186.69
620.673	182.69
620.88	187.69
621.087	187.69
621.294	169.69
621.501	187.69
621.708	193.69
621.915	185.69
622.122	183.69
622.329	196.69
622.536	179.69
622.743	199.69
622.95	181.69
623.157	175.69
623.364	193.69
623.571	183.69
623.778	186.69
623.985	176.69
624.192	176.69
624.399	175.69
624.606	169.69
624.812	167.69
625.019	191.69
625.226	165.69
625.433	178.69
625.639	178.69
625.846	171.69
626.053	169.69
626.259	175.69
626.466	171.69
626.673	162.69
626.879	186.69
627.086	199.69
627.293	176.69
627.499	183.69
627.706	187.69
627.912	203.69
628.119	165.69
628.325	166.69
628.532	176.69
628.738	175.69
628.945	170.69
629.151	181.69
629.357	165.69
629.564	175.69
629.77	165.69
629.976	157.69
630.183	156.69
630.389	162.69
630.595	172.69
630.802	170.69
631.008	169.69
631.214	170.69
631.42	163.69
631.627	160.69
631.833	170.69
632.039	163.69
632.245	163.69
632.451	142.69
632.657	164.69
632.863	171.69
633.069	160.69
633.275	163.69
633.481	163.69
633.688	168.69
633.893	177.69
634.099	147.69
634.305	148.69
634.511	152.69
634.717	156.69
634.923	153.69
635.129	167.69
635.335	149.69
635.541	145.69
635.747	163.69
635.952	166.69
636.158	143.69
636.364	169.69
636.57	154.69
636.775	161.69
636.981	155.69
637.187	157.69
637.392	146.69
637.598	159.69
637.804	156.69
638.009	145.69
638.215	159.69
638.421	137.69
638.626	140.69
638.832	155.69
639.037	148.69
639.243	153.69
639.448	158.69
639.654	149.69
639.859	139.69
640.065	143.69
640.27	160.69
640.475	151.69
640.681	158.69
640.886	157.69
641.091	147.69
641.297	148.69
641.502	153.69
641.707	158.69
641.913	141.69
642.118	154.69
642.323	146.69
642.528	156.69
642.733	161.69
642.939	144.69
643.144	152.69
643.349	160.69
643.554	135.69
643.759	139.69
643.964	137.69
644.169	152.69
644.374	131.69
644.579	137.69
644.784	151.69
644.989	145.69
645.194	152.69
645.399	149.69
645.604	147.69
645.809	146.69
646.014	146.69
646.219	134.69
646.423	131.69
646.628	139.69
646.833	130.69
647.038	154.69
647.243	137.69
647.447	151.69
647.652	145.69
647.857	138.69
648.062	137.69
648.266	141.69
648.471	138.69
648.676	157.69
648.88	147.69
649.085	129.69
649.289	158.69
649.494	160.69
649.698	172.69
649.903	159.69
650.107	140.69
650.312	151.69
650.516	139.69
650.721	131.69
650.925	145.69
651.13	153.69
651.334	142.69
651.539	125.69
651.743	127.69
651.947	135.69
652.152	133.69
652.356	135.69
652.56	117.69
652.764	133.69
652.969	125.69
653.173	139.69
653.377	124.69
653.581	129.69
653.785	117.69
653.99	126.69
654.194	131.69
654.398	123.69
654.602	128.69
654.806	141.69
655.01	114.69
655.214	129.69
655.418	133.69
655.622	124.69
655.826	128.69
656.03	137.69
656.234	122.69
656.438	130.69
656.642	135.69
656.846	123.69
657.049	123.69
657.253	123.69
657.457	102.69
657.661	95.69
657.865	106.69
658.068	115.69
658.272	102.69
658.476	97.69
658.68	113.69
658.883	106.69
659.087	91.69
659.291	100.69
659.494	81.69
659.698	83.69
659.901	88.69
660.105	102.69
660.309	92.69
660.512	104.69
660.716	79.69
660.919	97.69
661.123	86.69
661.326	93.69
661.53	90.69
661.733	89.69
661.936	106.69
662.14	87.69
662.343	90.69
662.546	77.69
662.75	83.69
662.953	97.69
663.156	84.69
663.36	87.69
663.563	95.69
663.766	90.69
663.969	91.69
664.173	88.69
664.376	90.69
664.579	90.69
664.782	79.69
664.985	91.69
665.188	85.69
665.391	91.69
665.594	82.69
665.797	100.69
666	80.69
666.203	92.69
666.406	81.69
666.609	84.69
666.812	88.69
667.015	77.69
667.218	96.69
667.421	93.69
667.624	72.69
667.827	81.69
668.03	83.69
668.232	74.69
668.435	82.69
668.638	81.69
668.841	101.69
669.043	75.69
669.246	80.69
669.449	67.69
669.651	81.69
669.854	67.69
670.057	96.69
670.259	88.69
670.462	103.69
670.665	97.69
670.867	96.69
671.07	98.69
671.272	97.69
671.475	92.69
671.677	71.69
671.88	82.69
672.082	88.69
672.284	82.69
672.487	77.69
672.689	74.69
672.892	67.69
