Data from 1961.PennyLincolnUp.Lamp.En5.5.200Scan.071719.P1._HRD10591_13-46-51-057.txt Node
Date: Thu Jul 18 13:46:51 EDT 2019
User: cochatt
Spectrometer: HR+D1059
Trigger mode: 1
Integration Time (sec): 1.000000E-1
Scans to average: 1
Electric dark correction enabled: true
Nonlinearity correction enabled: false
Boxcar width: 0
XAxis mode: Wavelengths
Number of Pixels in Spectrum: 2048
>>>>>Begin Spectral Data<<<<<
223.165	-11.94
223.4	-11.94
223.635	-11.94
223.869	-13.94
224.104	-25.94
224.338	-14.94
224.573	-4.94
224.808	-8.94
225.042	-13.94
225.277	-11.94
225.511	-13.94
225.746	9.06
225.98	3.06
226.215	6.06
226.449	20.06
226.683	20.06
226.918	19.06
227.152	43.06
227.387	35.06
227.621	44.06
227.856	50.06
228.09	37.06
228.324	40.06
228.559	51.06
228.793	62.06
229.027	96.06
229.262	90.06
229.496	95.06
229.73	116.06
229.964	130.06
230.199	128.06
230.433	113.06
230.667	106.06
230.901	96.06
231.136	111.06
231.37	107.06
231.604	100.06
231.838	103.06
232.072	100.06
232.306	98.06
232.541	90.06
232.775	105.06
233.009	103.06
233.243	105.06
233.477	112.06
233.711	116.06
233.945	91.06
234.179	109.06
234.413	103.06
234.647	107.06
234.881	98.06
235.115	99.06
235.349	110.06
235.583	110.06
235.817	115.06
236.051	97.06
236.285	97.06
236.519	126.06
236.753	116.06
236.987	121.06
237.221	152.06
237.455	185.06
237.689	142.06
237.922	118.06
238.156	114.06
238.39	107.06
238.624	103.06
238.858	111.06
239.091	107.06
239.325	96.06
239.559	115.06
239.793	124.06
240.027	122.06
240.26	123.06
240.494	129.06
240.728	121.06
240.961	152.06
241.195	118.06
241.429	117.06
241.662	119.06
241.896	120.06
242.13	127.06
242.363	118.06
242.597	119.06
242.83	130.06
243.064	116.06
243.298	128.06
243.531	106.06
243.765	108.06
243.998	122.06
244.232	115.06
244.465	118.06
244.699	121.06
244.932	120.06
245.166	119.06
245.399	117.06
245.633	127.06
245.866	121.06
246.099	124.06
246.333	125.06
246.566	146.06
246.8	134.06
247.033	138.06
247.266	119.06
247.5	122.06
247.733	148.06
247.966	148.06
248.2	138.06
248.433	134.06
248.666	147.06
248.899	141.06
249.133	155.06
249.366	165.06
249.599	161.06
249.832	155.06
250.066	144.06
250.299	148.06
250.532	159.06
250.765	182.06
250.998	165.06
251.231	187.06
251.465	161.06
251.698	149.06
251.931	153.06
252.164	166.06
252.397	138.06
252.63	169.06
252.863	168.06
253.096	171.06
253.329	167.06
253.562	166.06
253.795	158.06
254.028	170.06
254.261	167.06
254.494	158.06
254.727	181.06
254.96	210.06
255.193	202.06
255.426	185.06
255.659	191.06
255.892	187.06
256.124	186.06
256.357	184.06
256.59	184.06
256.823	167.06
257.056	154.06
257.289	179.06
257.521	179.06
257.754	163.06
257.987	174.06
258.22	168.06
258.452	171.06
258.685	172.06
258.918	157.06
259.151	167.06
259.383	156.06
259.616	179.06
259.849	178.06
260.081	184.06
260.314	194.06
260.547	198.06
260.779	194.06
261.012	181.06
261.244	183.06
261.477	181.06
261.71	185.06
261.942	170.06
262.175	187.06
262.407	194.06
262.64	187.06
262.872	176.06
263.105	174.06
263.337	178.06
263.57	162.06
263.802	178.06
264.035	166.06
264.267	174.06
264.499	170.06
264.732	182.06
264.964	171.06
265.197	152.06
265.429	178.06
265.661	169.06
265.894	199.06
266.126	172.06
266.358	166.06
266.591	167.06
266.823	168.06
267.055	161.06
267.287	167.06
267.52	178.06
267.752	186.06
267.984	186.06
268.216	182.06
268.448	188.06
268.681	208.06
268.913	212.06
269.145	191.06
269.377	201.06
269.609	204.06
269.841	194.06
270.073	198.06
270.306	224.06
270.538	226.06
270.77	234.06
271.002	236.06
271.234	219.06
271.466	234.06
271.698	224.06
271.93	227.06
272.162	229.06
272.394	236.06
272.626	234.06
272.858	209.06
273.09	200.06
273.322	196.06
273.553	206.06
273.785	198.06
274.017	185.06
274.249	194.06
274.481	214.06
274.713	203.06
274.945	196.06
275.176	208.06
275.408	201.06
275.64	198.06
275.872	200.06
276.104	204.06
276.335	215.06
276.567	208.06
276.799	224.06
277.031	224.06
277.262	236.06
277.494	221.06
277.726	239.06
277.957	218.06
278.189	208.06
278.421	222.06
278.652	203.06
278.884	218.06
279.115	204.06
279.347	199.06
279.579	207.06
279.81	216.06
280.042	204.06
280.273	218.06
280.505	199.06
280.736	195.06
280.968	192.06
281.199	207.06
281.431	204.06
281.662	218.06
281.894	218.06
282.125	219.06
282.356	226.06
282.588	232.06
282.819	233.06
283.051	221.06
283.282	199.06
283.513	224.06
283.745	203.06
283.976	217.06
284.207	207.06
284.439	206.06
284.67	226.06
284.901	204.06
285.132	209.06
285.364	200.06
285.595	194.06
285.826	197.06
286.057	203.06
286.288	216.06
286.52	207.06
286.751	201.06
286.982	202.06
287.213	203.06
287.444	213.06
287.675	211.06
287.906	223.06
288.138	214.06
288.369	204.06
288.6	227.06
288.831	228.06
289.062	211.06
289.293	232.06
289.524	212.06
289.755	210.06
289.986	212.06
290.217	228.06
290.448	224.06
290.679	214.06
290.91	211.06
291.141	218.06
291.371	205.06
291.602	223.06
291.833	215.06
292.064	217.06
292.295	202.06
292.526	201.06
292.757	207.06
292.987	215.06
293.218	209.06
293.449	219.06
293.68	217.06
293.91	213.06
294.141	218.06
294.372	210.06
294.603	214.06
294.833	204.06
295.064	215.06
295.295	222.06
295.525	218.06
295.756	220.06
295.987	250.06
296.217	236.06
296.448	245.06
296.679	229.06
296.909	225.06
297.14	211.06
297.37	243.06
297.601	208.06
297.831	229.06
298.062	224.06
298.292	216.06
298.523	235.06
298.753	245.06
298.984	239.06
299.214	233.06
299.445	222.06
299.675	231.06
299.905	231.06
300.136	248.06
300.366	227.06
300.597	230.06
300.827	227.06
301.057	232.06
301.288	267.06
301.518	262.06
301.748	246.06
301.979	242.06
302.209	248.06
302.439	242.06
302.669	244.06
302.9	235.06
303.13	240.06
303.36	247.06
303.59	248.06
303.82	251.06
304.051	239.06
304.281	227.06
304.511	246.06
304.741	246.06
304.971	254.06
305.201	242.06
305.431	249.06
305.661	227.06
305.891	230.06
306.121	252.06
306.352	251.06
306.582	244.06
306.812	267.06
307.042	244.06
307.272	248.06
307.502	259.06
307.731	245.06
307.961	264.06
308.191	240.06
308.421	244.06
308.651	262.06
308.881	251.06
309.111	258.06
309.341	241.06
309.571	258.06
309.8	271.06
310.03	283.06
310.26	285.06
310.49	274.06
310.72	298.06
310.949	311.06
311.179	321.06
311.409	278.06
311.639	284.06
311.868	290.06
312.098	292.06
312.328	281.06
312.557	299.06
312.787	302.06
313.017	298.06
313.246	287.06
313.476	276.06
313.706	272.06
313.935	279.06
314.165	294.06
314.394	288.06
314.624	309.06
314.853	291.06
315.083	291.06
315.312	275.06
315.542	300.06
315.771	281.06
316.001	267.06
316.23	279.06
316.46	294.06
316.689	281.06
316.919	285.06
317.148	313.06
317.377	310.06
317.607	308.06
317.836	288.06
318.065	277.06
318.295	283.06
318.524	279.06
318.753	303.06
318.983	291.06
319.212	272.06
319.441	289.06
319.67	309.06
319.9	305.06
320.129	289.06
320.358	292.06
320.587	293.06
320.816	298.06
321.046	302.06
321.275	306.06
321.504	311.06
321.733	302.06
321.962	307.06
322.191	328.06
322.42	330.06
322.649	343.06
322.878	356.06
323.108	363.06
323.337	375.06
323.566	362.06
323.795	422.06
324.024	463.06
324.253	565.06
324.482	805.06
324.71	1247.06
324.939	1744.06
325.168	1464.06
325.397	776.06
325.626	527.06
325.855	438.06
326.084	421.06
326.313	405.06
326.542	436.06
326.77	428.06
326.999	540.06
327.228	743.06
327.457	1106.06
327.686	1276.06
327.914	856.06
328.143	582.06
328.372	536.06
328.6	476.06
328.829	468.06
329.058	449.06
329.287	466.06
329.515	442.06
329.744	413.06
329.972	402.06
330.201	403.06
330.43	452.06
330.658	466.06
330.887	483.06
331.115	454.06
331.344	402.06
331.572	392.06
331.801	388.06
332.03	382.06
332.258	357.06
332.486	360.06
332.715	361.06
332.943	336.06
333.172	361.06
333.4	315.06
333.629	357.06
333.857	361.06
334.085	381.06
334.314	376.06
334.542	413.06
334.771	430.06
334.999	392.06
335.227	363.06
335.455	350.06
335.684	354.06
335.912	351.06
336.14	330.06
336.369	340.06
336.597	333.06
336.825	353.06
337.053	331.06
337.281	315.06
337.51	326.06
337.738	330.06
337.966	343.06
338.194	329.06
338.422	333.06
338.65	327.06
338.878	326.06
339.106	326.06
339.334	322.06
339.562	315.06
339.79	306.06
340.018	300.06
340.246	328.06
340.474	334.06
340.702	324.06
340.93	329.06
341.158	305.06
341.386	322.06
341.614	333.06
341.842	335.06
342.07	310.06
342.298	324.06
342.526	317.06
342.754	315.06
342.981	299.06
343.209	302.06
343.437	320.06
343.665	319.06
343.893	321.06
344.12	311.06
344.348	315.06
344.576	326.06
344.804	342.06
345.031	315.06
345.259	333.06
345.487	337.06
345.714	322.06
345.942	322.06
346.17	318.06
346.397	320.06
346.625	323.06
346.853	323.06
347.08	319.06
347.308	308.06
347.535	312.06
347.763	313.06
347.99	308.06
348.218	320.06
348.445	342.06
348.673	328.06
348.9	315.06
349.128	307.06
349.355	309.06
349.583	295.06
349.81	302.06
350.037	321.06
350.265	307.06
350.492	301.06
350.72	321.06
350.947	303.06
351.174	332.06
351.402	335.06
351.629	327.06
351.856	320.06
352.083	315.06
352.311	343.06
352.538	318.06
352.765	329.06
352.992	322.06
353.22	319.06
353.447	302.06
353.674	315.06
353.901	296.06
354.128	299.06
354.355	285.06
354.583	321.06
354.81	291.06
355.037	294.06
355.264	297.06
355.491	296.06
355.718	285.06
355.945	306.06
356.172	302.06
356.399	286.06
356.626	289.06
356.853	287.06
357.08	294.06
357.307	292.06
357.534	307.06
357.761	309.06
357.988	294.06
358.215	296.06
358.441	300.06
358.668	313.06
358.895	316.06
359.122	294.06
359.349	298.06
359.576	316.06
359.802	327.06
360.029	344.06
360.256	368.06
360.483	332.06
360.709	331.06
360.936	310.06
361.163	316.06
361.39	323.06
361.616	333.06
361.843	320.06
362.07	313.06
362.296	319.06
362.523	325.06
362.749	315.06
362.976	323.06
363.203	336.06
363.429	309.06
363.656	288.06
363.882	298.06
364.109	311.06
364.335	303.06
364.562	289.06
364.788	290.06
365.015	328.06
365.241	289.06
365.468	320.06
365.694	310.06
365.92	307.06
366.147	302.06
366.373	318.06
366.599	315.06
366.826	299.06
367.052	302.06
367.278	308.06
367.505	308.06
367.731	310.06
367.957	302.06
368.184	306.06
368.41	293.06
368.636	322.06
368.862	329.06
369.089	306.06
369.315	313.06
369.541	308.06
369.767	316.06
369.993	312.06
370.219	308.06
370.445	294.06
370.672	302.06
370.898	295.06
371.124	306.06
371.35	291.06
371.576	297.06
371.802	295.06
372.028	291.06
372.254	309.06
372.48	290.06
372.706	302.06
372.932	302.06
373.158	310.06
373.384	314.06
373.61	286.06
373.835	303.06
374.061	308.06
374.287	308.06
374.513	315.06
374.739	305.06
374.965	308.06
375.191	283.06
375.416	294.06
375.642	294.06
375.868	312.06
376.094	303.06
376.319	290.06
376.545	293.06
376.771	303.06
376.997	299.06
377.222	287.06
377.448	292.06
377.674	285.06
377.899	306.06
378.125	289.06
378.35	279.06
378.576	283.06
378.802	311.06
379.027	303.06
379.253	307.06
379.478	296.06
379.704	282.06
379.929	307.06
380.155	306.06
380.38	312.06
380.606	295.06
380.831	296.06
381.057	314.06
381.282	297.06
381.507	311.06
381.733	290.06
381.958	307.06
382.184	310.06
382.409	316.06
382.634	307.06
382.86	305.06
383.085	305.06
383.31	303.06
383.535	311.06
383.761	317.06
383.986	306.06
384.211	293.06
384.436	318.06
384.662	336.06
384.887	328.06
385.112	302.06
385.337	312.06
385.562	323.06
385.787	296.06
386.013	321.06
386.238	331.06
386.463	326.06
386.688	326.06
386.913	326.06
387.138	316.06
387.363	324.06
387.588	319.06
387.813	325.06
388.038	339.06
388.263	320.06
388.488	336.06
388.713	325.06
388.938	329.06
389.163	330.06
389.387	323.06
389.612	312.06
389.837	320.06
390.062	320.06
390.287	330.06
390.512	303.06
390.736	331.06
390.961	330.06
391.186	323.06
391.411	326.06
391.636	319.06
391.86	327.06
392.085	325.06
392.31	326.06
392.534	328.06
392.759	322.06
392.984	321.06
393.208	330.06
393.433	339.06
393.658	343.06
393.882	327.06
394.107	345.06
394.331	326.06
394.556	315.06
394.78	319.06
395.005	334.06
395.229	334.06
395.454	348.06
395.678	338.06
395.903	338.06
396.127	345.06
396.352	368.06
396.576	349.06
396.801	329.06
397.025	362.06
397.249	344.06
397.474	335.06
397.698	342.06
397.922	355.06
398.147	378.06
398.371	369.06
398.595	372.06
398.82	368.06
399.044	347.06
399.268	391.06
399.492	372.06
399.717	390.06
399.941	410.06
400.165	421.06
400.389	449.06
400.613	408.06
400.837	384.06
401.062	384.06
401.286	375.06
401.51	379.06
401.734	347.06
401.958	366.06
402.182	366.06
402.406	392.06
402.63	379.06
402.854	382.06
403.078	377.06
403.302	384.06
403.526	374.06
403.75	383.06
403.974	358.06
404.198	363.06
404.422	388.06
404.645	374.06
404.869	400.06
405.093	433.06
405.317	478.06
405.541	451.06
405.765	410.06
405.988	416.06
406.212	390.06
406.436	437.06
406.66	427.06
406.883	425.06
407.107	439.06
407.331	459.06
407.555	494.06
407.778	514.06
408.002	465.06
408.226	423.06
408.449	419.06
408.673	446.06
408.896	442.06
409.12	452.06
409.344	440.06
409.567	402.06
409.791	408.06
410.014	394.06
410.238	377.06
410.461	397.06
410.685	384.06
410.908	402.06
411.132	415.06
411.355	435.06
411.578	425.06
411.802	378.06
412.025	384.06
412.249	400.06
412.472	384.06
412.695	440.06
412.919	428.06
413.142	397.06
413.365	378.06
413.589	374.06
413.812	370.06
414.035	377.06
414.258	359.06
414.482	356.06
414.705	369.06
414.928	345.06
415.151	351.06
415.374	363.06
415.597	362.06
415.821	344.06
416.044	368.06
416.267	368.06
416.49	370.06
416.713	354.06
416.936	360.06
417.159	368.06
417.382	363.06
417.605	343.06
417.828	370.06
418.051	365.06
418.274	388.06
418.497	359.06
418.72	373.06
418.943	358.06
419.166	376.06
419.389	364.06
419.611	376.06
419.834	390.06
420.057	377.06
420.28	371.06
420.503	370.06
420.726	372.06
420.948	385.06
421.171	404.06
421.394	438.06
421.617	430.06
421.839	389.06
422.062	395.06
422.285	400.06
422.507	444.06
422.73	480.06
422.953	451.06
423.175	417.06
423.398	408.06
423.621	399.06
423.843	395.06
424.066	386.06
424.288	398.06
424.511	415.06
424.733	438.06
424.956	510.06
425.178	517.06
425.401	513.06
425.623	516.06
425.846	452.06
426.068	423.06
426.291	406.06
426.513	406.06
426.735	415.06
426.958	468.06
427.18	521.06
427.402	613.06
427.625	648.06
427.847	588.06
428.069	524.06
428.292	467.06
428.514	420.06
428.736	395.06
428.958	399.06
429.181	387.06
429.403	370.06
429.625	400.06
429.847	420.06
430.069	479.06
430.292	470.06
430.514	406.06
430.736	387.06
430.958	383.06
431.18	371.06
431.402	356.06
431.624	374.06
431.846	363.06
432.068	361.06
432.29	356.06
432.512	366.06
432.734	363.06
432.956	373.06
433.178	385.06
433.4	380.06
433.622	368.06
433.844	366.06
434.066	378.06
434.287	366.06
434.509	346.06
434.731	358.06
434.953	377.06
435.175	393.06
435.397	424.06
435.618	427.06
435.84	449.06
436.062	496.06
436.284	562.06
436.505	460.06
436.727	420.06
436.949	394.06
437.17	377.06
437.392	394.06
437.614	390.06
437.835	433.06
438.057	508.06
438.278	569.06
438.5	562.06
438.721	618.06
438.943	591.06
439.165	483.06
439.386	440.06
439.608	424.06
439.829	425.06
440.05	461.06
440.272	480.06
440.493	451.06
440.715	431.06
440.936	425.06
441.158	386.06
441.379	399.06
441.6	412.06
441.822	409.06
442.043	454.06
442.264	488.06
442.486	538.06
442.707	441.06
442.928	430.06
443.149	448.06
443.371	418.06
443.592	471.06
443.813	538.06
444.034	583.06
444.255	497.06
444.476	444.06
444.698	418.06
444.919	412.06
445.14	536.06
445.361	498.06
445.582	445.06
445.803	522.06
446.024	581.06
446.245	564.06
446.466	532.06
446.687	459.06
446.908	425.06
447.129	399.06
447.35	400.06
447.571	411.06
447.792	380.06
448.013	407.06
448.234	406.06
448.455	446.06
448.675	534.06
448.896	589.06
449.117	530.06
449.338	493.06
449.559	583.06
449.779	614.06
450	519.06
450.221	434.06
450.442	404.06
450.662	397.06
450.883	389.06
451.104	416.06
451.324	378.06
451.545	404.06
451.766	384.06
451.986	383.06
452.207	343.06
452.428	350.06
452.648	343.06
452.869	341.06
453.089	367.06
453.31	363.06
453.53	357.06
453.751	354.06
453.971	365.06
454.192	346.06
454.412	367.06
454.633	357.06
454.853	345.06
455.073	343.06
455.294	386.06
455.514	418.06
455.734	395.06
455.955	351.06
456.175	336.06
456.395	349.06
456.616	321.06
456.836	332.06
457.056	330.06
457.276	333.06
457.497	318.06
457.717	344.06
457.937	330.06
458.157	347.06
458.377	340.06
458.598	377.06
458.818	430.06
459.038	475.06
459.258	461.06
459.478	406.06
459.698	386.06
459.918	362.06
460.138	370.06
460.358	363.06
460.578	350.06
460.798	362.06
461.018	369.06
461.238	380.06
461.458	378.06
461.678	379.06
461.898	369.06
462.118	378.06
462.338	384.06
462.558	379.06
462.777	378.06
462.997	404.06
463.217	396.06
463.437	408.06
463.657	404.06
463.876	399.06
464.096	403.06
464.316	397.06
464.536	384.06
464.755	379.06
464.975	408.06
465.195	442.06
465.414	490.06
465.634	454.06
465.854	394.06
466.073	404.06
466.293	395.06
466.512	379.06
466.732	361.06
466.951	379.06
467.171	350.06
467.391	355.06
467.61	379.06
467.829	377.06
468.049	379.06
468.268	370.06
468.488	363.06
468.707	340.06
468.927	357.06
469.146	357.06
469.365	350.06
469.585	346.06
469.804	354.06
470.023	373.06
470.243	359.06
470.462	353.06
470.681	373.06
470.901	387.06
471.12	378.06
471.339	352.06
471.558	368.06
471.777	363.06
471.997	376.06
472.216	382.06
472.435	406.06
472.654	395.06
472.873	359.06
473.092	370.06
473.311	374.06
473.53	359.06
473.749	384.06
473.968	386.06
474.187	483.06
474.406	500.06
474.625	410.06
474.844	387.06
475.063	373.06
475.282	362.06
475.501	376.06
475.72	370.06
475.939	380.06
476.158	387.06
476.377	376.06
476.596	368.06
476.814	394.06
477.033	401.06
477.252	400.06
477.471	389.06
477.69	391.06
477.908	398.06
478.127	399.06
478.346	404.06
478.564	396.06
478.783	400.06
479.002	412.06
479.22	427.06
479.439	436.06
479.658	443.06
479.876	445.06
480.095	450.06
480.313	450.06
480.532	437.06
480.751	465.06
480.969	462.06
481.188	532.06
481.406	564.06
481.624	455.06
481.843	438.06
482.061	418.06
482.28	452.06
482.498	418.06
482.717	419.06
482.935	431.06
483.153	440.06
483.372	428.06
483.59	428.06
483.808	431.06
484.027	432.06
484.245	424.06
484.463	444.06
484.681	448.06
484.9	418.06
485.118	442.06
485.336	447.06
485.554	447.06
485.772	440.06
485.99	442.06
486.209	439.06
486.427	440.06
486.645	452.06
486.863	486.06
487.081	464.06
487.299	449.06
487.517	474.06
487.735	458.06
487.953	484.06
488.171	464.06
488.389	474.06
488.607	476.06
488.825	453.06
489.043	460.06
489.261	468.06
489.479	458.06
489.696	471.06
489.914	471.06
490.132	479.06
490.35	487.06
490.568	484.06
490.786	499.06
491.003	500.06
491.221	487.06
491.439	518.06
491.657	511.06
491.874	523.06
492.092	516.06
492.31	538.06
492.527	515.06
492.745	524.06
492.963	542.06
493.18	512.06
493.398	554.06
493.615	524.06
493.833	514.06
494.05	538.06
494.268	530.06
494.485	527.06
494.703	559.06
494.92	528.06
495.138	533.06
495.355	538.06
495.573	542.06
495.79	562.06
496.008	549.06
496.225	523.06
496.442	544.06
496.66	537.06
496.877	528.06
497.094	551.06
497.312	554.06
497.529	545.06
497.746	566.06
497.963	544.06
498.181	601.06
498.398	598.06
498.615	600.06
498.832	583.06
499.049	605.06
499.267	607.06
499.484	633.06
499.701	642.06
499.918	638.06
500.135	682.06
500.352	665.06
500.569	675.06
500.786	706.06
501.003	690.06
501.22	686.06
501.437	649.06
501.654	670.06
501.871	678.06
502.088	645.06
502.305	634.06
502.522	611.06
502.739	596.06
502.956	577.06
503.172	569.06
503.389	562.06
503.606	567.06
503.823	576.06
504.04	542.06
504.256	533.06
504.473	542.06
504.69	538.06
504.907	521.06
505.123	535.06
505.34	549.06
505.557	542.06
505.773	505.06
505.99	520.06
506.207	534.06
506.423	512.06
506.64	537.06
506.856	508.06
507.073	519.06
507.289	498.06
507.506	526.06
507.722	514.06
507.939	530.06
508.155	532.06
508.372	535.06
508.588	496.06
508.805	510.06
509.021	489.06
509.238	514.06
509.454	508.06
509.67	515.06
509.887	508.06
510.103	531.06
510.319	506.06
510.536	590.06
510.752	969.06
510.968	802.06
511.184	520.06
511.401	506.06
511.617	505.06
511.833	499.06
512.049	485.06
512.265	486.06
512.481	469.06
512.698	471.06
512.914	476.06
513.13	482.06
513.346	476.06
513.562	482.06
513.778	491.06
513.994	495.06
514.21	520.06
514.426	501.06
514.642	555.06
514.858	574.06
515.074	604.06
515.29	723.06
515.506	1057.06
515.721	852.06
515.937	595.06
516.153	544.06
516.369	546.06
516.585	507.06
516.801	508.06
517.016	495.06
517.232	490.06
517.448	495.06
517.664	514.06
517.879	514.06
518.095	487.06
518.311	490.06
518.527	488.06
518.742	499.06
518.958	465.06
519.173	475.06
519.389	498.06
519.605	487.06
519.82	491.06
520.036	494.06
520.251	510.06
520.467	509.06
520.682	542.06
520.898	533.06
521.113	556.06
521.329	607.06
521.544	652.06
521.76	826.06
521.975	1356.06
522.19	1319.06
522.406	738.06
522.621	572.06
522.836	526.06
523.052	484.06
523.267	481.06
523.482	454.06
523.698	455.06
523.913	470.06
524.128	469.06
524.343	451.06
524.559	440.06
524.774	434.06
524.989	444.06
525.204	459.06
525.419	441.06
525.634	424.06
525.849	417.06
526.064	416.06
526.28	431.06
526.495	415.06
526.71	422.06
526.925	411.06
527.14	390.06
527.355	401.06
527.57	410.06
527.785	402.06
527.999	414.06
528.214	391.06
528.429	401.06
528.644	411.06
528.859	387.06
529.074	400.06
529.289	444.06
529.503	485.06
529.718	464.06
529.933	456.06
530.148	414.06
530.363	413.06
530.577	404.06
530.792	405.06
531.007	388.06
531.221	417.06
531.436	372.06
531.651	379.06
531.865	412.06
532.08	386.06
532.295	389.06
532.509	370.06
532.724	379.06
532.938	374.06
533.153	386.06
533.367	389.06
533.582	371.06
533.796	380.06
534.011	401.06
534.225	374.06
534.44	382.06
534.654	367.06
534.868	358.06
535.083	366.06
535.297	375.06
535.511	382.06
535.726	382.06
535.94	380.06
536.154	409.06
536.369	350.06
536.583	372.06
536.797	400.06
537.011	371.06
537.225	371.06
537.44	360.06
537.654	348.06
537.868	363.06
538.082	354.06
538.296	373.06
538.51	370.06
538.724	394.06
538.938	372.06
539.153	363.06
539.367	392.06
539.581	373.06
539.795	360.06
540.009	376.06
540.222	374.06
540.436	362.06
540.65	352.06
540.864	362.06
541.078	389.06
541.292	376.06
541.506	380.06
541.72	362.06
541.934	366.06
542.147	374.06
542.361	370.06
542.575	352.06
542.789	366.06
543.002	370.06
543.216	363.06
543.43	359.06
543.644	388.06
543.857	374.06
544.071	380.06
544.285	365.06
544.498	348.06
544.712	363.06
544.925	371.06
545.139	347.06
545.352	348.06
545.566	333.06
545.779	354.06
545.993	349.06
546.206	353.06
546.42	352.06
546.633	366.06
546.847	347.06
547.06	338.06
547.274	369.06
547.487	348.06
547.7	362.06
547.914	340.06
548.127	345.06
548.34	337.06
548.554	340.06
548.767	330.06
548.98	354.06
549.193	342.06
549.407	337.06
549.62	349.06
549.833	332.06
550.046	339.06
550.259	341.06
550.473	347.06
550.686	339.06
550.899	344.06
551.112	340.06
551.325	341.06
551.538	331.06
551.751	351.06
551.964	332.06
552.177	333.06
552.39	326.06
552.603	328.06
552.816	343.06
553.029	332.06
553.242	343.06
553.455	339.06
553.667	350.06
553.88	344.06
554.093	350.06
554.306	335.06
554.519	355.06
554.732	328.06
554.944	327.06
555.157	320.06
555.37	326.06
555.583	342.06
555.795	314.06
556.008	344.06
556.221	328.06
556.433	306.06
556.646	332.06
556.859	303.06
557.071	328.06
557.284	331.06
557.496	306.06
557.709	310.06
557.921	320.06
558.134	326.06
558.346	336.06
558.559	324.06
558.771	321.06
558.984	303.06
559.196	327.06
559.409	325.06
559.621	323.06
559.833	315.06
560.046	318.06
560.258	322.06
560.47	325.06
560.683	322.06
560.895	318.06
561.107	322.06
561.32	307.06
561.532	323.06
561.744	307.06
561.956	305.06
562.168	313.06
562.381	322.06
562.593	323.06
562.805	315.06
563.017	317.06
563.229	328.06
563.441	313.06
563.653	304.06
563.865	307.06
564.077	324.06
564.289	324.06
564.501	328.06
564.713	331.06
564.925	329.06
565.137	346.06
565.349	323.06
565.561	319.06
565.773	322.06
565.985	337.06
566.197	331.06
566.408	336.06
566.62	361.06
566.832	336.06
567.044	344.06
567.255	350.06
567.467	351.06
567.679	357.06
567.891	358.06
568.102	352.06
568.314	336.06
568.526	354.06
568.737	354.06
568.949	335.06
569.161	337.06
569.372	310.06
569.584	315.06
569.795	336.06
570.007	314.06
570.218	346.06
570.43	339.06
570.641	313.06
570.853	310.06
571.064	300.06
571.276	311.06
571.487	275.06
571.698	287.06
571.91	283.06
572.121	297.06
572.333	289.06
572.544	303.06
572.755	286.06
572.966	276.06
573.178	275.06
573.389	273.06
573.6	274.06
573.811	279.06
574.023	287.06
574.234	277.06
574.445	277.06
574.656	277.06
574.867	271.06
575.078	275.06
575.289	264.06
575.501	264.06
575.712	268.06
575.923	259.06
576.134	262.06
576.345	268.06
576.556	274.06
576.767	267.06
576.978	276.06
577.188	260.06
577.399	288.06
577.61	263.06
577.821	262.06
578.032	281.06
578.243	307.06
578.454	446.06
578.665	356.06
578.875	247.06
579.086	245.06
579.297	256.06
579.508	269.06
579.718	258.06
579.929	262.06
580.14	236.06
580.35	252.06
580.561	253.06
580.772	273.06
580.982	259.06
581.193	238.06
581.403	251.06
581.614	269.06
581.825	252.06
582.035	245.06
582.246	248.06
582.456	263.06
582.667	248.06
582.877	263.06
583.087	242.06
583.298	249.06
583.508	254.06
583.719	247.06
583.929	264.06
584.139	257.06
584.35	245.06
584.56	254.06
584.77	231.06
584.981	227.06
585.191	233.06
585.401	254.06
585.611	243.06
585.821	247.06
586.032	243.06
586.242	240.06
586.452	244.06
586.662	245.06
586.872	226.06
587.082	247.06
587.292	248.06
587.502	235.06
587.713	254.06
587.923	249.06
588.133	240.06
588.343	227.06
588.553	243.06
588.762	235.06
588.972	235.06
589.182	257.06
589.392	239.06
589.602	242.06
589.812	239.06
590.022	251.06
590.232	224.06
590.441	237.06
590.651	239.06
590.861	248.06
591.071	243.06
591.281	239.06
591.49	235.06
591.7	234.06
591.91	233.06
592.119	241.06
592.329	239.06
592.539	248.06
592.748	245.06
592.958	239.06
593.167	230.06
593.377	240.06
593.587	248.06
593.796	242.06
594.006	240.06
594.215	231.06
594.424	233.06
594.634	240.06
594.843	275.06
595.053	258.06
595.262	247.06
595.472	249.06
595.681	234.06
595.89	222.06
596.1	231.06
596.309	217.06
596.518	232.06
596.727	228.06
596.937	238.06
597.146	222.06
597.355	240.06
597.564	226.06
597.774	218.06
597.983	234.06
598.192	209.06
598.401	226.06
598.61	220.06
598.819	231.06
599.028	217.06
599.237	224.06
599.446	218.06
599.655	208.06
599.864	214.06
600.073	215.06
600.282	213.06
600.491	206.06
600.7	233.06
600.909	207.06
601.118	215.06
601.327	218.06
601.536	195.06
601.745	211.06
601.953	216.06
602.162	222.06
602.371	206.06
602.58	225.06
602.789	216.06
602.997	227.06
603.206	197.06
603.415	198.06
603.623	203.06
603.832	195.06
604.041	199.06
604.249	207.06
604.458	203.06
604.666	218.06
604.875	211.06
605.084	212.06
605.292	209.06
605.501	222.06
605.709	220.06
605.918	196.06
606.126	204.06
606.334	202.06
606.543	198.06
606.751	201.06
606.96	209.06
607.168	184.06
607.376	198.06
607.585	204.06
607.793	203.06
608.001	199.06
608.21	189.06
608.418	182.06
608.626	204.06
608.834	184.06
609.043	193.06
609.251	186.06
609.459	199.06
609.667	217.06
609.875	195.06
610.083	202.06
610.291	191.06
610.499	206.06
610.707	206.06
610.916	201.06
611.124	225.06
611.332	199.06
611.54	221.06
611.748	215.06
611.955	203.06
612.163	201.06
612.371	199.06
612.579	204.06
612.787	178.06
612.995	192.06
613.203	190.06
613.411	198.06
613.618	197.06
613.826	200.06
614.034	203.06
614.242	203.06
614.449	190.06
614.657	182.06
614.865	174.06
615.072	198.06
615.28	180.06
615.488	200.06
615.695	191.06
615.903	193.06
616.111	188.06
616.318	193.06
616.526	208.06
616.733	188.06
616.941	188.06
617.148	207.06
617.356	178.06
617.563	183.06
617.771	194.06
617.978	184.06
618.185	199.06
618.393	183.06
618.6	195.06
618.807	206.06
619.015	194.06
619.222	195.06
619.429	188.06
619.637	188.06
619.844	182.06
620.051	186.06
620.258	198.06
620.466	181.06
620.673	181.06
620.88	195.06
621.087	187.06
621.294	171.06
621.501	200.06
621.708	174.06
621.915	200.06
622.122	174.06
622.329	189.06
622.536	191.06
622.743	171.06
622.95	176.06
623.157	168.06
623.364	180.06
623.571	184.06
623.778	190.06
623.985	187.06
624.192	183.06
624.399	189.06
624.606	176.06
624.812	166.06
625.019	168.06
625.226	173.06
625.433	199.06
625.639	188.06
625.846	177.06
626.053	187.06
626.259	170.06
626.466	188.06
626.673	173.06
626.879	178.06
627.086	174.06
627.293	179.06
627.499	166.06
627.706	172.06
627.912	169.06
628.119	164.06
628.325	171.06
628.532	182.06
628.738	149.06
628.945	172.06
629.151	153.06
629.357	167.06
629.564	161.06
629.77	179.06
629.976	170.06
630.183	160.06
630.389	160.06
630.595	172.06
630.802	154.06
631.008	176.06
631.214	174.06
631.42	151.06
631.627	172.06
631.833	174.06
632.039	154.06
632.245	160.06
632.451	170.06
632.657	158.06
632.863	161.06
633.069	170.06
633.275	155.06
633.481	162.06
633.688	160.06
633.893	166.06
634.099	156.06
634.305	166.06
634.511	170.06
634.717	153.06
634.923	168.06
635.129	150.06
635.335	146.06
635.541	162.06
635.747	157.06
635.952	152.06
636.158	144.06
636.364	166.06
636.57	181.06
636.775	161.06
636.981	154.06
637.187	141.06
637.392	152.06
637.598	156.06
637.804	146.06
638.009	147.06
638.215	153.06
638.421	152.06
638.626	159.06
638.832	156.06
639.037	164.06
639.243	148.06
639.448	147.06
639.654	133.06
639.859	155.06
640.065	147.06
640.27	145.06
640.475	146.06
640.681	155.06
640.886	147.06
641.091	140.06
641.297	148.06
641.502	146.06
641.707	150.06
641.913	147.06
642.118	135.06
642.323	156.06
642.528	157.06
642.733	166.06
642.939	145.06
643.144	153.06
643.349	122.06
643.554	145.06
643.759	149.06
643.964	136.06
644.169	137.06
644.374	150.06
644.579	137.06
644.784	152.06
644.989	146.06
645.194	140.06
645.399	152.06
645.604	142.06
645.809	146.06
646.014	141.06
646.219	146.06
646.423	142.06
646.628	159.06
646.833	133.06
647.038	149.06
647.243	164.06
647.447	156.06
647.652	132.06
647.857	136.06
648.062	134.06
648.266	142.06
648.471	146.06
648.676	154.06
648.88	157.06
649.085	155.06
649.289	137.06
649.494	151.06
649.698	174.06
649.903	174.06
650.107	152.06
650.312	149.06
650.516	141.06
650.721	150.06
650.925	137.06
651.13	126.06
651.334	126.06
651.539	134.06
651.743	132.06
651.947	144.06
652.152	138.06
652.356	128.06
652.56	133.06
652.764	135.06
652.969	120.06
653.173	119.06
653.377	120.06
653.581	114.06
653.785	128.06
653.99	120.06
654.194	128.06
654.398	124.06
654.602	126.06
654.806	125.06
655.01	135.06
655.214	132.06
655.418	127.06
655.622	125.06
655.826	119.06
656.03	133.06
656.234	134.06
656.438	124.06
656.642	120.06
656.846	130.06
657.049	104.06
657.253	119.06
657.457	117.06
657.661	118.06
657.865	112.06
658.068	87.06
658.272	98.06
658.476	120.06
658.68	122.06
658.883	112.06
659.087	118.06
659.291	98.06
659.494	98.06
659.698	94.06
659.901	102.06
660.105	86.06
660.309	75.06
660.512	84.06
660.716	98.06
660.919	79.06
661.123	96.06
661.326	99.06
661.53	99.06
661.733	95.06
661.936	96.06
662.14	73.06
662.343	85.06
662.546	86.06
662.75	94.06
662.953	91.06
663.156	80.06
663.36	79.06
663.563	86.06
663.766	83.06
663.969	94.06
664.173	99.06
664.376	88.06
664.579	81.06
664.782	87.06
664.985	79.06
665.188	80.06
665.391	85.06
665.594	81.06
665.797	85.06
666	100.06
666.203	84.06
666.406	75.06
666.609	94.06
666.812	85.06
667.015	99.06
667.218	76.06
667.421	80.06
667.624	92.06
667.827	81.06
668.03	106.06
668.232	83.06
668.435	72.06
668.638	89.06
668.841	82.06
669.043	66.06
669.246	89.06
669.449	98.06
669.651	66.06
669.854	80.06
670.057	80.06
670.259	81.06
670.462	79.06
670.665	97.06
670.867	80.06
671.07	82.06
671.272	89.06
671.475	84.06
671.677	100.06
671.88	79.06
672.082	81.06
672.284	79.06
672.487	73.06
672.689	73.06
672.892	78.06
