Data from 1961.PennyLincolnUp.Lamp.En5.5.200Scan.071719.P1._HRD10591_13-47-15-057.txt Node
Date: Thu Jul 18 13:47:15 EDT 2019
User: cochatt
Spectrometer: HR+D1059
Trigger mode: 1
Integration Time (sec): 1.000000E-1
Scans to average: 1
Electric dark correction enabled: true
Nonlinearity correction enabled: false
Boxcar width: 0
XAxis mode: Wavelengths
Number of Pixels in Spectrum: 2048
>>>>>Begin Spectral Data<<<<<
223.165	-22.62
223.4	-22.62
223.635	-22.62
223.869	-15.62
224.104	-11.62
224.338	-11.62
224.573	-15.62
224.808	-11.62
225.042	-0.62
225.277	2.38
225.511	-3.62
225.746	5.38
225.98	4.38
226.215	13.38
226.449	7.38
226.683	26.38
226.918	14.38
227.152	19.38
227.387	39.38
227.621	36.38
227.856	43.38
228.09	54.38
228.324	46.38
228.559	38.38
228.793	53.38
229.027	101.38
229.262	104.38
229.496	107.38
229.73	125.38
229.964	138.38
230.199	105.38
230.433	106.38
230.667	103.38
230.901	102.38
231.136	108.38
231.37	79.38
231.604	95.38
231.838	96.38
232.072	98.38
232.306	111.38
232.541	104.38
232.775	88.38
233.009	116.38
233.243	122.38
233.477	97.38
233.711	105.38
233.945	113.38
234.179	118.38
234.413	120.38
234.647	101.38
234.881	105.38
235.115	114.38
235.349	92.38
235.583	109.38
235.817	102.38
236.051	102.38
236.285	120.38
236.519	116.38
236.753	123.38
236.987	147.38
237.221	166.38
237.455	190.38
237.689	167.38
237.922	120.38
238.156	99.38
238.39	112.38
238.624	121.38
238.858	118.38
239.091	118.38
239.325	113.38
239.559	111.38
239.793	117.38
240.027	134.38
240.26	127.38
240.494	130.38
240.728	131.38
240.961	121.38
241.195	122.38
241.429	132.38
241.662	122.38
241.896	116.38
242.13	124.38
242.363	106.38
242.597	103.38
242.83	117.38
243.064	111.38
243.298	111.38
243.531	123.38
243.765	120.38
243.998	110.38
244.232	126.38
244.465	132.38
244.699	123.38
244.932	118.38
245.166	115.38
245.399	131.38
245.633	125.38
245.866	122.38
246.099	131.38
246.333	119.38
246.566	134.38
246.8	128.38
247.033	119.38
247.266	135.38
247.5	130.38
247.733	134.38
247.966	144.38
248.2	139.38
248.433	133.38
248.666	136.38
248.899	151.38
249.133	170.38
249.366	180.38
249.599	163.38
249.832	150.38
250.066	149.38
250.299	168.38
250.532	163.38
250.765	162.38
250.998	189.38
251.231	203.38
251.465	194.38
251.698	164.38
251.931	165.38
252.164	152.38
252.397	168.38
252.63	173.38
252.863	158.38
253.096	193.38
253.329	178.38
253.562	176.38
253.795	163.38
254.028	169.38
254.261	186.38
254.494	180.38
254.727	192.38
254.96	232.38
255.193	207.38
255.426	199.38
255.659	192.38
255.892	198.38
256.124	191.38
256.357	200.38
256.59	188.38
256.823	184.38
257.056	169.38
257.289	166.38
257.521	176.38
257.754	174.38
257.987	179.38
258.22	182.38
258.452	171.38
258.685	178.38
258.918	178.38
259.151	177.38
259.383	166.38
259.616	186.38
259.849	193.38
260.081	190.38
260.314	199.38
260.547	207.38
260.779	208.38
261.012	188.38
261.244	182.38
261.477	182.38
261.71	175.38
261.942	166.38
262.175	213.38
262.407	188.38
262.64	179.38
262.872	177.38
263.105	163.38
263.337	173.38
263.57	166.38
263.802	178.38
264.035	170.38
264.267	185.38
264.499	168.38
264.732	176.38
264.964	174.38
265.197	174.38
265.429	174.38
265.661	170.38
265.894	160.38
266.126	161.38
266.358	176.38
266.591	175.38
266.823	171.38
267.055	180.38
267.287	189.38
267.52	192.38
267.752	184.38
267.984	174.38
268.216	185.38
268.448	190.38
268.681	178.38
268.913	195.38
269.145	193.38
269.377	225.38
269.609	225.38
269.841	227.38
270.073	203.38
270.306	220.38
270.538	229.38
270.77	245.38
271.002	254.38
271.234	240.38
271.466	233.38
271.698	252.38
271.93	229.38
272.162	242.38
272.394	241.38
272.626	246.38
272.858	228.38
273.09	233.38
273.322	228.38
273.553	216.38
273.785	211.38
274.017	214.38
274.249	220.38
274.481	225.38
274.713	213.38
274.945	211.38
275.176	213.38
275.408	215.38
275.64	216.38
275.872	213.38
276.104	208.38
276.335	231.38
276.567	219.38
276.799	214.38
277.031	228.38
277.262	247.38
277.494	258.38
277.726	245.38
277.957	233.38
278.189	230.38
278.421	209.38
278.652	215.38
278.884	209.38
279.115	210.38
279.347	216.38
279.579	211.38
279.81	207.38
280.042	212.38
280.273	202.38
280.505	215.38
280.736	208.38
280.968	208.38
281.199	213.38
281.431	215.38
281.662	211.38
281.894	211.38
282.125	208.38
282.356	225.38
282.588	243.38
282.819	239.38
283.051	227.38
283.282	198.38
283.513	210.38
283.745	206.38
283.976	218.38
284.207	222.38
284.439	217.38
284.67	231.38
284.901	209.38
285.132	221.38
285.364	206.38
285.595	213.38
285.826	223.38
286.057	222.38
286.288	223.38
286.52	220.38
286.751	207.38
286.982	227.38
287.213	218.38
287.444	217.38
287.675	213.38
287.906	235.38
288.138	229.38
288.369	224.38
288.6	230.38
288.831	219.38
289.062	242.38
289.293	218.38
289.524	219.38
289.755	240.38
289.986	218.38
290.217	224.38
290.448	218.38
290.679	236.38
290.91	233.38
291.141	214.38
291.371	238.38
291.602	212.38
291.833	227.38
292.064	214.38
292.295	208.38
292.526	202.38
292.757	222.38
292.987	228.38
293.218	226.38
293.449	224.38
293.68	228.38
293.91	233.38
294.141	222.38
294.372	211.38
294.603	238.38
294.833	234.38
295.064	235.38
295.295	214.38
295.525	229.38
295.756	241.38
295.987	226.38
296.217	265.38
296.448	272.38
296.679	247.38
296.909	240.38
297.14	227.38
297.37	236.38
297.601	222.38
297.831	247.38
298.062	232.38
298.292	228.38
298.523	222.38
298.753	236.38
298.984	226.38
299.214	229.38
299.445	250.38
299.675	265.38
299.905	260.38
300.136	246.38
300.366	230.38
300.597	250.38
300.827	238.38
301.057	245.38
301.288	263.38
301.518	235.38
301.748	246.38
301.979	264.38
302.209	251.38
302.439	255.38
302.669	255.38
302.9	252.38
303.13	249.38
303.36	271.38
303.59	267.38
303.82	257.38
304.051	267.38
304.281	264.38
304.511	249.38
304.741	246.38
304.971	233.38
305.201	244.38
305.431	256.38
305.661	248.38
305.891	267.38
306.121	243.38
306.352	275.38
306.582	250.38
306.812	248.38
307.042	252.38
307.272	259.38
307.502	256.38
307.731	251.38
307.961	275.38
308.191	265.38
308.421	256.38
308.651	254.38
308.881	281.38
309.111	263.38
309.341	270.38
309.571	281.38
309.8	292.38
310.03	305.38
310.26	300.38
310.49	303.38
310.72	312.38
310.949	329.38
311.179	318.38
311.409	313.38
311.639	309.38
311.868	286.38
312.098	310.38
312.328	310.38
312.557	324.38
312.787	312.38
313.017	323.38
313.246	313.38
313.476	285.38
313.706	283.38
313.935	297.38
314.165	303.38
314.394	312.38
314.624	324.38
314.853	310.38
315.083	302.38
315.312	304.38
315.542	311.38
315.771	299.38
316.001	285.38
316.23	293.38
316.46	298.38
316.689	295.38
316.919	302.38
317.148	295.38
317.377	324.38
317.607	308.38
317.836	298.38
318.065	306.38
318.295	299.38
318.524	300.38
318.753	291.38
318.983	299.38
319.212	300.38
319.441	293.38
319.67	314.38
319.9	319.38
320.129	287.38
320.358	307.38
320.587	285.38
320.816	306.38
321.046	323.38
321.275	325.38
321.504	327.38
321.733	324.38
321.962	336.38
322.191	335.38
322.42	351.38
322.649	383.38
322.878	381.38
323.108	364.38
323.337	400.38
323.566	435.38
323.795	470.38
324.024	508.38
324.253	633.38
324.482	900.38
324.71	1395.38
324.939	1968.38
325.168	1619.38
325.397	849.38
325.626	574.38
325.855	491.38
326.084	460.38
326.313	447.38
326.542	449.38
326.77	464.38
326.999	564.38
327.228	804.38
327.457	1212.38
327.686	1453.38
327.914	960.38
328.143	663.38
328.372	549.38
328.6	512.38
328.829	489.38
329.058	488.38
329.287	496.38
329.515	464.38
329.744	425.38
329.972	427.38
330.201	465.38
330.43	486.38
330.658	488.38
330.887	499.38
331.115	514.38
331.344	412.38
331.572	391.38
331.801	392.38
332.03	383.38
332.258	377.38
332.486	366.38
332.715	371.38
332.943	364.38
333.172	350.38
333.4	375.38
333.629	383.38
333.857	381.38
334.085	382.38
334.314	400.38
334.542	455.38
334.771	444.38
334.999	404.38
335.227	390.38
335.455	356.38
335.684	332.38
335.912	338.38
336.14	332.38
336.369	359.38
336.597	357.38
336.825	369.38
337.053	342.38
337.281	318.38
337.51	334.38
337.738	358.38
337.966	346.38
338.194	346.38
338.422	363.38
338.65	356.38
338.878	337.38
339.106	319.38
339.334	330.38
339.562	348.38
339.79	322.38
340.018	332.38
340.246	329.38
340.474	328.38
340.702	333.38
340.93	336.38
341.158	348.38
341.386	321.38
341.614	350.38
341.842	335.38
342.07	353.38
342.298	339.38
342.526	342.38
342.754	305.38
342.981	306.38
343.209	336.38
343.437	316.38
343.665	323.38
343.893	310.38
344.12	337.38
344.348	348.38
344.576	342.38
344.804	349.38
345.031	338.38
345.259	340.38
345.487	346.38
345.714	360.38
345.942	324.38
346.17	328.38
346.397	314.38
346.625	327.38
346.853	332.38
347.08	337.38
347.308	343.38
347.535	343.38
347.763	345.38
347.99	363.38
348.218	350.38
348.445	336.38
348.673	331.38
348.9	328.38
349.128	321.38
349.355	324.38
349.583	318.38
349.81	311.38
350.037	309.38
350.265	307.38
350.492	335.38
350.72	321.38
350.947	327.38
351.174	341.38
351.402	346.38
351.629	332.38
351.856	320.38
352.083	341.38
352.311	347.38
352.538	343.38
352.765	343.38
352.992	331.38
353.22	346.38
353.447	325.38
353.674	329.38
353.901	322.38
354.128	314.38
354.355	301.38
354.583	306.38
354.81	298.38
355.037	280.38
355.264	305.38
355.491	302.38
355.718	302.38
355.945	312.38
356.172	308.38
356.399	303.38
356.626	291.38
356.853	297.38
357.08	287.38
357.307	295.38
357.534	300.38
357.761	291.38
357.988	287.38
358.215	299.38
358.441	300.38
358.668	300.38
358.895	311.38
359.122	299.38
359.349	315.38
359.576	315.38
359.802	332.38
360.029	363.38
360.256	379.38
360.483	372.38
360.709	324.38
360.936	325.38
361.163	330.38
361.39	323.38
361.616	323.38
361.843	327.38
362.07	328.38
362.296	316.38
362.523	344.38
362.749	316.38
362.976	319.38
363.203	331.38
363.429	299.38
363.656	318.38
363.882	283.38
364.109	323.38
364.335	318.38
364.562	327.38
364.788	314.38
365.015	310.38
365.241	293.38
365.468	315.38
365.694	314.38
365.92	322.38
366.147	324.38
366.373	315.38
366.599	331.38
366.826	302.38
367.052	306.38
367.278	323.38
367.505	304.38
367.731	309.38
367.957	310.38
368.184	305.38
368.41	305.38
368.636	339.38
368.862	318.38
369.089	321.38
369.315	309.38
369.541	304.38
369.767	312.38
369.993	309.38
370.219	290.38
370.445	295.38
370.672	297.38
370.898	298.38
371.124	316.38
371.35	305.38
371.576	299.38
371.802	299.38
372.028	283.38
372.254	293.38
372.48	337.38
372.706	311.38
372.932	325.38
373.158	289.38
373.384	323.38
373.61	316.38
373.835	310.38
374.061	308.38
374.287	294.38
374.513	296.38
374.739	296.38
374.965	314.38
375.191	308.38
375.416	304.38
375.642	300.38
375.868	315.38
376.094	314.38
376.319	296.38
376.545	310.38
376.771	303.38
376.997	303.38
377.222	321.38
377.448	306.38
377.674	302.38
377.899	303.38
378.125	309.38
378.35	300.38
378.576	290.38
378.802	296.38
379.027	310.38
379.253	300.38
379.478	295.38
379.704	316.38
379.929	322.38
380.155	297.38
380.38	292.38
380.606	299.38
380.831	300.38
381.057	312.38
381.282	315.38
381.507	310.38
381.733	300.38
381.958	299.38
382.184	319.38
382.409	327.38
382.634	319.38
382.86	313.38
383.085	320.38
383.31	325.38
383.535	322.38
383.761	320.38
383.986	314.38
384.211	337.38
384.436	321.38
384.662	314.38
384.887	322.38
385.112	324.38
385.337	335.38
385.562	320.38
385.787	316.38
386.013	327.38
386.238	336.38
386.463	335.38
386.688	343.38
386.913	338.38
387.138	333.38
387.363	316.38
387.588	332.38
387.813	328.38
388.038	331.38
388.263	318.38
388.488	335.38
388.713	327.38
388.938	330.38
389.163	337.38
389.387	325.38
389.612	337.38
389.837	327.38
390.062	329.38
390.287	329.38
390.512	343.38
390.736	321.38
390.961	350.38
391.186	333.38
391.411	332.38
391.636	334.38
391.86	338.38
392.085	336.38
392.31	337.38
392.534	332.38
392.759	321.38
392.984	329.38
393.208	320.38
393.433	338.38
393.658	326.38
393.882	327.38
394.107	337.38
394.331	327.38
394.556	312.38
394.78	324.38
395.005	337.38
395.229	346.38
395.454	341.38
395.678	351.38
395.903	378.38
396.127	364.38
396.352	360.38
396.576	360.38
396.801	345.38
397.025	353.38
397.249	367.38
397.474	336.38
397.698	358.38
397.922	364.38
398.147	360.38
398.371	380.38
398.595	364.38
398.82	358.38
399.044	373.38
399.268	388.38
399.492	397.38
399.717	408.38
399.941	433.38
400.165	445.38
400.389	452.38
400.613	424.38
400.837	384.38
401.062	392.38
401.286	383.38
401.51	373.38
401.734	376.38
401.958	379.38
402.182	388.38
402.406	389.38
402.63	388.38
402.854	391.38
403.078	376.38
403.302	391.38
403.526	404.38
403.75	386.38
403.974	388.38
404.198	391.38
404.422	392.38
404.645	387.38
404.869	401.38
405.093	418.38
405.317	463.38
405.541	472.38
405.765	433.38
405.988	410.38
406.212	436.38
406.436	426.38
406.66	452.38
406.883	424.38
407.107	445.38
407.331	474.38
407.555	511.38
407.778	529.38
408.002	480.38
408.226	446.38
408.449	432.38
408.673	441.38
408.896	472.38
409.12	510.38
409.344	452.38
409.567	423.38
409.791	408.38
410.014	411.38
410.238	402.38
410.461	391.38
410.685	414.38
410.908	388.38
411.132	451.38
411.355	466.38
411.578	432.38
411.802	402.38
412.025	403.38
412.249	404.38
412.472	427.38
412.695	436.38
412.919	417.38
413.142	393.38
413.365	389.38
413.589	372.38
413.812	381.38
414.035	371.38
414.258	390.38
414.482	375.38
414.705	372.38
414.928	375.38
415.151	363.38
415.374	368.38
415.597	358.38
415.821	385.38
416.044	354.38
416.267	373.38
416.49	378.38
416.713	374.38
416.936	372.38
417.159	354.38
417.382	372.38
417.605	392.38
417.828	372.38
418.051	382.38
418.274	370.38
418.497	374.38
418.72	358.38
418.943	363.38
419.166	383.38
419.389	401.38
419.611	363.38
419.834	402.38
420.057	392.38
420.28	382.38
420.503	389.38
420.726	385.38
420.948	397.38
421.171	441.38
421.394	463.38
421.617	400.38
421.839	388.38
422.062	402.38
422.285	411.38
422.507	464.38
422.73	500.38
422.953	482.38
423.175	419.38
423.398	406.38
423.621	402.38
423.843	415.38
424.066	445.38
424.288	411.38
424.511	436.38
424.733	482.38
424.956	546.38
425.178	528.38
425.401	531.38
425.623	538.38
425.846	458.38
426.068	442.38
426.291	428.38
426.513	415.38
426.735	435.38
426.958	467.38
427.18	560.38
427.402	632.38
427.625	675.38
427.847	627.38
428.069	546.38
428.292	492.38
428.514	426.38
428.736	418.38
428.958	424.38
429.181	394.38
429.403	403.38
429.625	406.38
429.847	429.38
430.069	479.38
430.292	486.38
430.514	424.38
430.736	400.38
430.958	398.38
431.18	397.38
431.402	383.38
431.624	366.38
431.846	380.38
432.068	360.38
432.29	368.38
432.512	359.38
432.734	378.38
432.956	396.38
433.178	405.38
433.4	403.38
433.622	373.38
433.844	370.38
434.066	379.38
434.287	378.38
434.509	398.38
434.731	396.38
434.953	394.38
435.175	405.38
435.397	442.38
435.618	425.38
435.84	480.38
436.062	560.38
436.284	599.38
436.505	496.38
436.727	439.38
436.949	415.38
437.17	406.38
437.392	389.38
437.614	417.38
437.835	463.38
438.057	530.38
438.278	596.38
438.5	586.38
438.721	637.38
438.943	610.38
439.165	499.38
439.386	459.38
439.608	452.38
439.829	447.38
440.05	474.38
440.272	496.38
440.493	480.38
440.715	450.38
440.936	414.38
441.158	418.38
441.379	427.38
441.6	416.38
441.822	450.38
442.043	463.38
442.264	538.38
442.486	570.38
442.707	479.38
442.928	437.38
443.149	455.38
443.371	463.38
443.592	516.38
443.813	559.38
444.034	614.38
444.255	498.38
444.476	453.38
444.698	454.38
444.919	442.38
445.14	527.38
445.361	503.38
445.582	465.38
445.803	537.38
446.024	605.38
446.245	643.38
446.466	563.38
446.687	503.38
446.908	466.38
447.129	412.38
447.35	415.38
447.571	404.38
447.792	406.38
448.013	423.38
448.234	424.38
448.455	466.38
448.675	540.38
448.896	617.38
449.117	555.38
449.338	506.38
449.559	592.38
449.779	653.38
450	552.38
450.221	460.38
450.442	432.38
450.662	396.38
450.883	410.38
451.104	435.38
451.324	408.38
451.545	400.38
451.766	363.38
451.986	380.38
452.207	378.38
452.428	377.38
452.648	375.38
452.869	370.38
453.089	378.38
453.31	388.38
453.53	367.38
453.751	366.38
453.971	379.38
454.192	380.38
454.412	395.38
454.633	395.38
454.853	364.38
455.073	364.38
455.294	392.38
455.514	441.38
455.734	430.38
455.955	392.38
456.175	355.38
456.395	360.38
456.616	356.38
456.836	354.38
457.056	350.38
457.276	351.38
457.497	342.38
457.717	338.38
457.937	363.38
458.157	368.38
458.377	374.38
458.598	395.38
458.818	425.38
459.038	504.38
459.258	520.38
459.478	426.38
459.698	388.38
459.918	374.38
460.138	374.38
460.358	372.38
460.578	390.38
460.798	386.38
461.018	385.38
461.238	366.38
461.458	378.38
461.678	379.38
461.898	377.38
462.118	382.38
462.338	374.38
462.558	380.38
462.777	383.38
462.997	385.38
463.217	388.38
463.437	403.38
463.657	406.38
463.876	406.38
464.096	401.38
464.316	402.38
464.536	386.38
464.755	404.38
464.975	413.38
465.195	461.38
465.414	525.38
465.634	468.38
465.854	434.38
466.073	388.38
466.293	363.38
466.512	365.38
466.732	370.38
466.951	367.38
467.171	374.38
467.391	393.38
467.61	397.38
467.829	396.38
468.049	408.38
468.268	412.38
468.488	382.38
468.707	375.38
468.927	351.38
469.146	355.38
469.365	368.38
469.585	367.38
469.804	381.38
470.023	386.38
470.243	397.38
470.462	382.38
470.681	410.38
470.901	396.38
471.12	378.38
471.339	378.38
471.558	388.38
471.777	386.38
471.997	362.38
472.216	400.38
472.435	434.38
472.654	409.38
472.873	394.38
473.092	390.38
473.311	386.38
473.53	368.38
473.749	403.38
473.968	451.38
474.187	514.38
474.406	541.38
474.625	448.38
474.844	413.38
475.063	402.38
475.282	388.38
475.501	400.38
475.72	379.38
475.939	375.38
476.158	381.38
476.377	376.38
476.596	385.38
476.814	406.38
477.033	419.38
477.252	397.38
477.471	423.38
477.69	401.38
477.908	404.38
478.127	403.38
478.346	381.38
478.564	407.38
478.783	412.38
479.002	415.38
479.22	409.38
479.439	455.38
479.658	461.38
479.876	475.38
480.095	448.38
480.313	486.38
480.532	447.38
480.751	441.38
480.969	487.38
481.188	523.38
481.406	596.38
481.624	489.38
481.843	478.38
482.061	440.38
482.28	451.38
482.498	460.38
482.717	431.38
482.935	437.38
483.153	446.38
483.372	470.38
483.59	438.38
483.808	439.38
484.027	447.38
484.245	438.38
484.463	442.38
484.681	443.38
484.9	457.38
485.118	462.38
485.336	427.38
485.554	461.38
485.772	460.38
485.99	451.38
486.209	446.38
486.427	476.38
486.645	476.38
486.863	507.38
487.081	488.38
487.299	467.38
487.517	486.38
487.735	488.38
487.953	477.38
488.171	490.38
488.389	489.38
488.607	487.38
488.825	483.38
489.043	467.38
489.261	470.38
489.479	485.38
489.696	495.38
489.914	485.38
490.132	485.38
490.35	518.38
490.568	502.38
490.786	515.38
491.003	530.38
491.221	520.38
491.439	524.38
491.657	551.38
491.874	521.38
492.092	551.38
492.31	545.38
492.527	552.38
492.745	529.38
492.963	564.38
493.18	516.38
493.398	560.38
493.615	558.38
493.833	565.38
494.05	554.38
494.268	578.38
494.485	564.38
494.703	546.38
494.92	568.38
495.138	578.38
495.355	548.38
495.573	560.38
495.79	547.38
496.008	556.38
496.225	566.38
496.442	574.38
496.66	570.38
496.877	541.38
497.094	584.38
497.312	583.38
497.529	578.38
497.746	576.38
497.963	590.38
498.181	622.38
498.398	615.38
498.615	606.38
498.832	612.38
499.049	618.38
499.267	640.38
499.484	639.38
499.701	675.38
499.918	674.38
500.135	689.38
500.352	692.38
500.569	726.38
500.786	707.38
501.003	757.38
501.22	724.38
501.437	682.38
501.654	699.38
501.871	702.38
502.088	688.38
502.305	633.38
502.522	657.38
502.739	610.38
502.956	609.38
503.172	601.38
503.389	588.38
503.606	594.38
503.823	615.38
504.04	569.38
504.256	562.38
504.473	566.38
504.69	564.38
504.907	572.38
505.123	577.38
505.34	560.38
505.557	572.38
505.773	577.38
505.99	550.38
506.207	534.38
506.423	550.38
506.64	546.38
506.856	527.38
507.073	541.38
507.289	554.38
507.506	545.38
507.722	525.38
507.939	556.38
508.155	549.38
508.372	542.38
508.588	531.38
508.805	539.38
509.021	528.38
509.238	530.38
509.454	528.38
509.67	518.38
509.887	528.38
510.103	521.38
510.319	532.38
510.536	627.38
510.752	1131.38
510.968	874.38
511.184	570.38
511.401	540.38
511.617	513.38
511.833	501.38
512.049	509.38
512.265	494.38
512.481	496.38
512.698	492.38
512.914	503.38
513.13	490.38
513.346	512.38
513.562	500.38
513.778	512.38
513.994	512.38
514.21	547.38
514.426	533.38
514.642	587.38
514.858	608.38
515.074	658.38
515.29	786.38
515.506	1182.38
515.721	960.38
515.937	656.38
516.153	569.38
516.369	539.38
516.585	542.38
516.801	522.38
517.016	531.38
517.232	514.38
517.448	533.38
517.664	523.38
517.879	514.38
518.095	500.38
518.311	512.38
518.527	502.38
518.742	512.38
518.958	489.38
519.173	512.38
519.389	519.38
519.605	528.38
519.82	517.38
520.036	514.38
520.251	530.38
520.467	566.38
520.682	574.38
520.898	582.38
521.113	594.38
521.329	653.38
521.544	720.38
521.76	932.38
521.975	1568.38
522.19	1520.38
522.406	834.38
522.621	617.38
522.836	534.38
523.052	540.38
523.267	483.38
523.482	494.38
523.698	498.38
523.913	480.38
524.128	488.38
524.343	459.38
524.559	472.38
524.774	472.38
524.989	448.38
525.204	480.38
525.419	452.38
525.634	437.38
525.849	455.38
526.064	454.38
526.28	424.38
526.495	406.38
526.71	423.38
526.925	417.38
527.14	405.38
527.355	412.38
527.57	400.38
527.785	410.38
527.999	392.38
528.214	406.38
528.429	418.38
528.644	419.38
528.859	391.38
529.074	427.38
529.289	453.38
529.503	518.38
529.718	501.38
529.933	460.38
530.148	423.38
530.363	421.38
530.577	426.38
530.792	417.38
531.007	399.38
531.221	405.38
531.436	418.38
531.651	400.38
531.865	402.38
532.08	407.38
532.295	412.38
532.509	393.38
532.724	396.38
532.938	382.38
533.153	380.38
533.367	395.38
533.582	395.38
533.796	378.38
534.011	383.38
534.225	393.38
534.44	399.38
534.654	395.38
534.868	392.38
535.083	380.38
535.297	378.38
535.511	392.38
535.726	406.38
535.94	400.38
536.154	382.38
536.369	397.38
536.583	391.38
536.797	381.38
537.011	371.38
537.225	373.38
537.44	380.38
537.654	381.38
537.868	366.38
538.082	377.38
538.296	372.38
538.51	390.38
538.724	368.38
538.938	381.38
539.153	388.38
539.367	396.38
539.581	383.38
539.795	385.38
540.009	362.38
540.222	366.38
540.436	363.38
540.65	384.38
540.864	393.38
541.078	380.38
541.292	380.38
541.506	379.38
541.72	388.38
541.934	366.38
542.147	372.38
542.361	387.38
542.575	366.38
542.789	357.38
543.002	363.38
543.216	364.38
543.43	370.38
543.644	368.38
543.857	378.38
544.071	388.38
544.285	366.38
544.498	377.38
544.712	355.38
544.925	366.38
545.139	377.38
545.352	358.38
545.566	378.38
545.779	376.38
545.993	350.38
546.206	364.38
546.42	363.38
546.633	358.38
546.847	364.38
547.06	360.38
547.274	357.38
547.487	366.38
547.7	338.38
547.914	352.38
548.127	367.38
548.34	371.38
548.554	353.38
548.767	350.38
548.98	350.38
549.193	351.38
549.407	353.38
549.62	352.38
549.833	366.38
550.046	352.38
550.259	359.38
550.473	345.38
550.686	346.38
550.899	343.38
551.112	355.38
551.325	350.38
551.538	338.38
551.751	346.38
551.964	336.38
552.177	354.38
552.39	326.38
552.603	353.38
552.816	351.38
553.029	369.38
553.242	363.38
553.455	359.38
553.667	364.38
553.88	371.38
554.093	355.38
554.306	378.38
554.519	363.38
554.732	349.38
554.944	356.38
555.157	350.38
555.37	331.38
555.583	344.38
555.795	330.38
556.008	341.38
556.221	333.38
556.433	332.38
556.646	321.38
556.859	338.38
557.071	343.38
557.284	316.38
557.496	312.38
557.709	333.38
557.921	336.38
558.134	326.38
558.346	302.38
558.559	327.38
558.771	327.38
558.984	304.38
559.196	305.38
559.409	313.38
559.621	318.38
559.833	315.38
560.046	319.38
560.258	310.38
560.47	319.38
560.683	322.38
560.895	312.38
561.107	324.38
561.32	314.38
561.532	299.38
561.744	329.38
561.956	299.38
562.168	306.38
562.381	328.38
562.593	329.38
562.805	318.38
563.017	328.38
563.229	319.38
563.441	316.38
563.653	329.38
563.865	315.38
564.077	324.38
564.289	339.38
564.501	323.38
564.713	331.38
564.925	327.38
565.137	362.38
565.349	336.38
565.561	325.38
565.773	327.38
565.985	354.38
566.197	342.38
566.408	350.38
566.62	346.38
566.832	344.38
567.044	362.38
567.255	362.38
567.467	373.38
567.679	351.38
567.891	369.38
568.102	354.38
568.314	356.38
568.526	355.38
568.737	324.38
568.949	352.38
569.161	347.38
569.372	318.38
569.584	319.38
569.795	319.38
570.007	326.38
570.218	345.38
570.43	344.38
570.641	306.38
570.853	320.38
571.064	306.38
571.276	310.38
571.487	297.38
571.698	289.38
571.91	280.38
572.121	297.38
572.333	295.38
572.544	288.38
572.755	287.38
572.966	266.38
573.178	288.38
573.389	295.38
573.6	281.38
573.811	291.38
574.023	270.38
574.234	278.38
574.445	241.38
574.656	274.38
574.867	279.38
575.078	259.38
575.289	281.38
575.501	280.38
575.712	259.38
575.923	262.38
576.134	258.38
576.345	258.38
576.556	262.38
576.767	286.38
576.978	265.38
577.188	276.38
577.399	276.38
577.61	268.38
577.821	271.38
578.032	280.38
578.243	304.38
578.454	497.38
578.665	368.38
578.875	284.38
579.086	261.38
579.297	244.38
579.508	274.38
579.718	275.38
579.929	278.38
580.14	272.38
580.35	243.38
580.561	251.38
580.772	258.38
580.982	253.38
581.193	268.38
581.403	242.38
581.614	245.38
581.825	237.38
582.035	260.38
582.246	246.38
582.456	268.38
582.667	261.38
582.877	255.38
583.087	246.38
583.298	228.38
583.508	236.38
583.719	247.38
583.929	242.38
584.139	235.38
584.35	224.38
584.56	257.38
584.77	261.38
584.981	260.38
585.191	248.38
585.401	236.38
585.611	254.38
585.821	230.38
586.032	257.38
586.242	243.38
586.452	233.38
586.662	233.38
586.872	241.38
587.082	246.38
587.292	260.38
587.502	222.38
587.713	256.38
587.923	241.38
588.133	246.38
588.343	227.38
588.553	252.38
588.762	238.38
588.972	245.38
589.182	242.38
589.392	250.38
589.602	235.38
589.812	244.38
590.022	258.38
590.232	238.38
590.441	246.38
590.651	243.38
590.861	242.38
591.071	226.38
591.281	252.38
591.49	237.38
591.7	235.38
591.91	254.38
592.119	232.38
592.329	243.38
592.539	270.38
592.748	236.38
592.958	244.38
593.167	262.38
593.377	240.38
593.587	238.38
593.796	228.38
594.006	256.38
594.215	261.38
594.424	245.38
594.634	241.38
594.843	254.38
595.053	232.38
595.262	246.38
595.472	235.38
595.681	250.38
595.89	242.38
596.1	232.38
596.309	224.38
596.518	241.38
596.727	218.38
596.937	238.38
597.146	219.38
597.355	216.38
597.564	233.38
597.774	221.38
597.983	214.38
598.192	231.38
598.401	220.38
598.61	228.38
598.819	216.38
599.028	227.38
599.237	208.38
599.446	219.38
599.655	216.38
599.864	218.38
600.073	220.38
600.282	208.38
600.491	213.38
600.7	215.38
600.909	195.38
601.118	214.38
601.327	198.38
601.536	197.38
601.745	210.38
601.953	199.38
602.162	222.38
602.371	204.38
602.58	194.38
602.789	209.38
602.997	201.38
603.206	207.38
603.415	216.38
603.623	213.38
603.832	211.38
604.041	213.38
604.249	212.38
604.458	202.38
604.666	201.38
604.875	202.38
605.084	196.38
605.292	204.38
605.501	198.38
605.709	208.38
605.918	193.38
606.126	208.38
606.334	192.38
606.543	203.38
606.751	194.38
606.96	210.38
607.168	197.38
607.376	206.38
607.585	198.38
607.793	204.38
608.001	211.38
608.21	195.38
608.418	192.38
608.626	199.38
608.834	203.38
609.043	195.38
609.251	207.38
609.459	204.38
609.667	201.38
609.875	216.38
610.083	209.38
610.291	192.38
610.499	206.38
610.707	205.38
610.916	194.38
611.124	204.38
611.332	197.38
611.54	190.38
611.748	209.38
611.955	201.38
612.163	201.38
612.371	208.38
612.579	206.38
612.787	198.38
612.995	212.38
613.203	212.38
613.411	201.38
613.618	200.38
613.826	194.38
614.034	201.38
614.242	201.38
614.449	202.38
614.657	189.38
614.865	203.38
615.072	201.38
615.28	185.38
615.488	204.38
615.695	179.38
615.903	190.38
616.111	190.38
616.318	196.38
616.526	196.38
616.733	194.38
616.941	187.38
617.148	192.38
617.356	184.38
617.563	194.38
617.771	198.38
617.978	184.38
618.185	204.38
618.393	198.38
618.6	204.38
618.807	171.38
619.015	200.38
619.222	186.38
619.429	202.38
619.637	190.38
619.844	167.38
620.051	182.38
620.258	186.38
620.466	179.38
620.673	184.38
620.88	178.38
621.087	181.38
621.294	185.38
621.501	202.38
621.708	190.38
621.915	189.38
622.122	182.38
622.329	198.38
622.536	185.38
622.743	185.38
622.95	200.38
623.157	168.38
623.364	171.38
623.571	179.38
623.778	182.38
623.985	181.38
624.192	179.38
624.399	162.38
624.606	175.38
624.812	176.38
625.019	179.38
625.226	190.38
625.433	167.38
625.639	178.38
625.846	171.38
626.053	181.38
626.259	185.38
626.466	184.38
626.673	183.38
626.879	190.38
627.086	188.38
627.293	183.38
627.499	175.38
627.706	176.38
627.912	185.38
628.119	166.38
628.325	176.38
628.532	176.38
628.738	159.38
628.945	156.38
629.151	174.38
629.357	156.38
629.564	160.38
629.77	159.38
629.976	182.38
630.183	158.38
630.389	182.38
630.595	165.38
630.802	167.38
631.008	169.38
631.214	171.38
631.42	168.38
631.627	140.38
631.833	174.38
632.039	178.38
632.245	149.38
632.451	163.38
632.657	181.38
632.863	166.38
633.069	166.38
633.275	168.38
633.481	160.38
633.688	160.38
633.893	167.38
634.099	150.38
634.305	166.38
634.511	158.38
634.717	160.38
634.923	157.38
635.129	151.38
635.335	143.38
635.541	146.38
635.747	157.38
635.952	165.38
636.158	164.38
636.364	159.38
636.57	160.38
636.775	145.38
636.981	154.38
637.187	154.38
637.392	169.38
637.598	147.38
637.804	155.38
638.009	142.38
638.215	164.38
638.421	163.38
638.626	151.38
638.832	152.38
639.037	169.38
639.243	143.38
639.448	169.38
639.654	163.38
639.859	157.38
640.065	148.38
640.27	166.38
640.475	164.38
640.681	134.38
640.886	156.38
641.091	150.38
641.297	157.38
641.502	159.38
641.707	144.38
641.913	166.38
642.118	145.38
642.323	152.38
642.528	144.38
642.733	161.38
642.939	133.38
643.144	147.38
643.349	155.38
643.554	150.38
643.759	136.38
643.964	137.38
644.169	140.38
644.374	149.38
644.579	150.38
644.784	134.38
644.989	136.38
645.194	154.38
645.399	152.38
645.604	147.38
645.809	146.38
646.014	151.38
646.219	134.38
646.423	154.38
646.628	136.38
646.833	150.38
647.038	141.38
647.243	150.38
647.447	158.38
647.652	140.38
647.857	147.38
648.062	154.38
648.266	149.38
648.471	164.38
648.676	144.38
648.88	133.38
649.085	142.38
649.289	151.38
649.494	146.38
649.698	166.38
649.903	161.38
650.107	147.38
650.312	139.38
650.516	141.38
650.721	136.38
650.925	145.38
651.13	137.38
651.334	140.38
651.539	141.38
651.743	132.38
651.947	123.38
652.152	138.38
652.356	136.38
652.56	142.38
652.764	136.38
652.969	132.38
653.173	129.38
653.377	127.38
653.581	131.38
653.785	121.38
653.99	120.38
654.194	140.38
654.398	130.38
654.602	144.38
654.806	134.38
655.01	148.38
655.214	126.38
655.418	120.38
655.622	135.38
655.826	124.38
656.03	124.38
656.234	137.38
656.438	126.38
656.642	115.38
656.846	134.38
657.049	121.38
657.253	131.38
657.457	118.38
657.661	94.38
657.865	110.38
658.068	120.38
658.272	110.38
658.476	102.38
658.68	91.38
658.883	96.38
659.087	95.38
659.291	97.38
659.494	85.38
659.698	98.38
659.901	94.38
660.105	90.38
660.309	88.38
660.512	98.38
660.716	83.38
660.919	95.38
661.123	94.38
661.326	89.38
661.53	86.38
661.733	88.38
661.936	76.38
662.14	90.38
662.343	84.38
662.546	84.38
662.75	93.38
662.953	95.38
663.156	81.38
663.36	67.38
663.563	78.38
663.766	87.38
663.969	89.38
664.173	73.38
664.376	82.38
664.579	88.38
664.782	66.38
664.985	86.38
665.188	86.38
665.391	97.38
665.594	84.38
665.797	94.38
666	86.38
666.203	75.38
666.406	69.38
666.609	84.38
666.812	78.38
667.015	72.38
667.218	79.38
667.421	71.38
667.624	84.38
667.827	84.38
668.03	88.38
668.232	70.38
668.435	88.38
668.638	83.38
668.841	71.38
669.043	91.38
669.246	87.38
669.449	74.38
669.651	90.38
669.854	94.38
670.057	83.38
670.259	80.38
670.462	76.38
670.665	75.38
670.867	89.38
671.07	80.38
671.272	78.38
671.475	86.38
671.677	83.38
671.88	72.38
672.082	83.38
672.284	86.38
672.487	95.38
672.689	82.38
672.892	87.38
