Data from 1961.PennyLincolnUp.Lamp.En5.5.200Scan.071719.P1._HRD10591_13-48-54-060.txt Node
Date: Thu Jul 18 13:48:54 EDT 2019
User: cochatt
Spectrometer: HR+D1059
Trigger mode: 1
Integration Time (sec): 1.000000E-1
Scans to average: 1
Electric dark correction enabled: true
Nonlinearity correction enabled: false
Boxcar width: 0
XAxis mode: Wavelengths
Number of Pixels in Spectrum: 2048
>>>>>Begin Spectral Data<<<<<
223.165	5.38
223.4	5.38
223.635	5.38
223.869	-12.62
224.104	-10.62
224.338	-11.62
224.573	-22.62
224.808	-24.62
225.042	-18.62
225.277	0.38
225.511	1.38
225.746	4.38
225.98	7.38
226.215	7.38
226.449	6.38
226.683	15.38
226.918	24.38
227.152	28.38
227.387	49.38
227.621	30.38
227.856	46.38
228.09	50.38
228.324	55.38
228.559	41.38
228.793	75.38
229.027	91.38
229.262	91.38
229.496	111.38
229.73	129.38
229.964	152.38
230.199	127.38
230.433	113.38
230.667	109.38
230.901	117.38
231.136	113.38
231.37	98.38
231.604	113.38
231.838	119.38
232.072	96.38
232.306	106.38
232.541	104.38
232.775	92.38
233.009	107.38
233.243	110.38
233.477	110.38
233.711	119.38
233.945	113.38
234.179	122.38
234.413	116.38
234.647	129.38
234.881	102.38
235.115	108.38
235.349	122.38
235.583	119.38
235.817	107.38
236.051	125.38
236.285	120.38
236.519	110.38
236.753	131.38
236.987	127.38
237.221	179.38
237.455	222.38
237.689	179.38
237.922	131.38
238.156	126.38
238.39	123.38
238.624	129.38
238.858	123.38
239.091	113.38
239.325	122.38
239.559	99.38
239.793	121.38
240.027	132.38
240.26	128.38
240.494	146.38
240.728	141.38
240.961	129.38
241.195	133.38
241.429	135.38
241.662	124.38
241.896	125.38
242.13	122.38
242.363	126.38
242.597	129.38
242.83	131.38
243.064	128.38
243.298	134.38
243.531	126.38
243.765	131.38
243.998	140.38
244.232	142.38
244.465	135.38
244.699	125.38
244.932	125.38
245.166	121.38
245.399	127.38
245.633	130.38
245.866	119.38
246.099	131.38
246.333	126.38
246.566	136.38
246.8	149.38
247.033	137.38
247.266	142.38
247.5	161.38
247.733	146.38
247.966	150.38
248.2	140.38
248.433	168.38
248.666	143.38
248.899	158.38
249.133	188.38
249.366	204.38
249.599	177.38
249.832	156.38
250.066	156.38
250.299	174.38
250.532	180.38
250.765	168.38
250.998	198.38
251.231	209.38
251.465	189.38
251.698	188.38
251.931	183.38
252.164	180.38
252.397	182.38
252.63	165.38
252.863	169.38
253.096	193.38
253.329	206.38
253.562	211.38
253.795	193.38
254.028	182.38
254.261	192.38
254.494	199.38
254.727	217.38
254.96	255.38
255.193	232.38
255.426	238.38
255.659	203.38
255.892	217.38
256.124	213.38
256.357	208.38
256.59	213.38
256.823	199.38
257.056	197.38
257.289	186.38
257.521	189.38
257.754	189.38
257.987	174.38
258.22	171.38
258.452	179.38
258.685	181.38
258.918	188.38
259.151	188.38
259.383	194.38
259.616	180.38
259.849	206.38
260.081	200.38
260.314	243.38
260.547	215.38
260.779	216.38
261.012	197.38
261.244	200.38
261.477	191.38
261.71	197.38
261.942	205.38
262.175	221.38
262.407	205.38
262.64	207.38
262.872	205.38
263.105	205.38
263.337	187.38
263.57	191.38
263.802	197.38
264.035	189.38
264.267	168.38
264.499	190.38
264.732	200.38
264.964	194.38
265.197	180.38
265.429	204.38
265.661	189.38
265.894	195.38
266.126	185.38
266.358	185.38
266.591	194.38
266.823	194.38
267.055	186.38
267.287	207.38
267.52	202.38
267.752	191.38
267.984	190.38
268.216	210.38
268.448	219.38
268.681	190.38
268.913	201.38
269.145	243.38
269.377	242.38
269.609	249.38
269.841	267.38
270.073	244.38
270.306	243.38
270.538	282.38
270.77	275.38
271.002	263.38
271.234	277.38
271.466	271.38
271.698	281.38
271.93	297.38
272.162	287.38
272.394	268.38
272.626	236.38
272.858	267.38
273.09	267.38
273.322	229.38
273.553	229.38
273.785	218.38
274.017	241.38
274.249	217.38
274.481	223.38
274.713	233.38
274.945	223.38
275.176	239.38
275.408	225.38
275.64	242.38
275.872	225.38
276.104	219.38
276.335	223.38
276.567	253.38
276.799	250.38
277.031	275.38
277.262	289.38
277.494	276.38
277.726	257.38
277.957	245.38
278.189	237.38
278.421	239.38
278.652	237.38
278.884	245.38
279.115	222.38
279.347	215.38
279.579	246.38
279.81	223.38
280.042	239.38
280.273	239.38
280.505	229.38
280.736	229.38
280.968	206.38
281.199	226.38
281.431	247.38
281.662	227.38
281.894	235.38
282.125	244.38
282.356	249.38
282.588	269.38
282.819	275.38
283.051	219.38
283.282	226.38
283.513	235.38
283.745	228.38
283.976	222.38
284.207	235.38
284.439	229.38
284.67	247.38
284.901	246.38
285.132	237.38
285.364	231.38
285.595	233.38
285.826	244.38
286.057	228.38
286.288	223.38
286.52	242.38
286.751	217.38
286.982	225.38
287.213	233.38
287.444	229.38
287.675	247.38
287.906	249.38
288.138	260.38
288.369	260.38
288.6	271.38
288.831	250.38
289.062	228.38
289.293	256.38
289.524	259.38
289.755	238.38
289.986	231.38
290.217	243.38
290.448	243.38
290.679	241.38
290.91	235.38
291.141	255.38
291.371	243.38
291.602	243.38
291.833	238.38
292.064	235.38
292.295	239.38
292.526	225.38
292.757	262.38
292.987	234.38
293.218	243.38
293.449	257.38
293.68	242.38
293.91	242.38
294.141	234.38
294.372	247.38
294.603	249.38
294.833	239.38
295.064	253.38
295.295	247.38
295.525	256.38
295.756	243.38
295.987	272.38
296.217	295.38
296.448	290.38
296.679	263.38
296.909	247.38
297.14	246.38
297.37	245.38
297.601	257.38
297.831	277.38
298.062	238.38
298.292	235.38
298.523	266.38
298.753	260.38
298.984	266.38
299.214	248.38
299.445	234.38
299.675	271.38
299.905	268.38
300.136	271.38
300.366	271.38
300.597	257.38
300.827	268.38
301.057	280.38
301.288	273.38
301.518	285.38
301.748	273.38
301.979	269.38
302.209	283.38
302.439	293.38
302.669	276.38
302.9	270.38
303.13	285.38
303.36	281.38
303.59	277.38
303.82	280.38
304.051	294.38
304.281	269.38
304.511	273.38
304.741	265.38
304.971	267.38
305.201	285.38
305.431	272.38
305.661	260.38
305.891	268.38
306.121	275.38
306.352	264.38
306.582	296.38
306.812	283.38
307.042	279.38
307.272	275.38
307.502	263.38
307.731	300.38
307.961	279.38
308.191	265.38
308.421	276.38
308.651	283.38
308.881	289.38
309.111	291.38
309.341	294.38
309.571	281.38
309.8	289.38
310.03	322.38
310.26	316.38
310.49	324.38
310.72	316.38
310.949	348.38
311.179	353.38
311.409	339.38
311.639	315.38
311.868	333.38
312.098	328.38
312.328	351.38
312.557	356.38
312.787	356.38
313.017	348.38
313.246	350.38
313.476	340.38
313.706	336.38
313.935	348.38
314.165	335.38
314.394	351.38
314.624	346.38
314.853	346.38
315.083	346.38
315.312	334.38
315.542	314.38
315.771	326.38
316.001	319.38
316.23	322.38
316.46	296.38
316.689	313.38
316.919	340.38
317.148	347.38
317.377	340.38
317.607	333.38
317.836	326.38
318.065	326.38
318.295	322.38
318.524	325.38
318.753	319.38
318.983	317.38
319.212	325.38
319.441	329.38
319.67	339.38
319.9	348.38
320.129	329.38
320.358	318.38
320.587	319.38
320.816	354.38
321.046	357.38
321.275	357.38
321.504	375.38
321.733	370.38
321.962	374.38
322.191	388.38
322.42	395.38
322.649	422.38
322.878	435.38
323.108	431.38
323.337	443.38
323.566	468.38
323.795	510.38
324.024	565.38
324.253	723.38
324.482	1058.38
324.71	1721.38
324.939	2301.38
325.168	1955.38
325.397	1025.38
325.626	644.38
325.855	518.38
326.084	502.38
326.313	474.38
326.542	481.38
326.77	536.38
326.999	655.38
327.228	940.38
327.457	1457.38
327.686	1671.38
327.914	1125.38
328.143	731.38
328.372	637.38
328.6	570.38
328.829	521.38
329.058	567.38
329.287	593.38
329.515	534.38
329.744	486.38
329.972	484.38
330.201	508.38
330.43	539.38
330.658	555.38
330.887	579.38
331.115	547.38
331.344	482.38
331.572	454.38
331.801	434.38
332.03	446.38
332.258	408.38
332.486	398.38
332.715	406.38
332.943	384.38
333.172	406.38
333.4	379.38
333.629	408.38
333.857	425.38
334.085	451.38
334.314	442.38
334.542	488.38
334.771	503.38
334.999	449.38
335.227	417.38
335.455	417.38
335.684	381.38
335.912	388.38
336.14	366.38
336.369	373.38
336.597	400.38
336.825	388.38
337.053	390.38
337.281	389.38
337.51	360.38
337.738	370.38
337.966	377.38
338.194	383.38
338.422	406.38
338.65	385.38
338.878	354.38
339.106	385.38
339.334	382.38
339.562	363.38
339.79	356.38
340.018	331.38
340.246	363.38
340.474	381.38
340.702	354.38
340.93	377.38
341.158	364.38
341.386	361.38
341.614	376.38
341.842	354.38
342.07	343.38
342.298	355.38
342.526	345.38
342.754	351.38
342.981	353.38
343.209	358.38
343.437	345.38
343.665	350.38
343.893	348.38
344.12	385.38
344.348	365.38
344.576	389.38
344.804	365.38
345.031	382.38
345.259	395.38
345.487	380.38
345.714	361.38
345.942	364.38
346.17	365.38
346.397	357.38
346.625	357.38
346.853	361.38
347.08	358.38
347.308	366.38
347.535	383.38
347.763	399.38
347.99	364.38
348.218	366.38
348.445	376.38
348.673	373.38
348.9	367.38
349.128	362.38
349.355	354.38
349.583	349.38
349.81	350.38
350.037	353.38
350.265	364.38
350.492	350.38
350.72	359.38
350.947	354.38
351.174	351.38
351.402	387.38
351.629	364.38
351.856	377.38
352.083	377.38
352.311	381.38
352.538	374.38
352.765	375.38
352.992	358.38
353.22	375.38
353.447	365.38
353.674	353.38
353.901	352.38
354.128	331.38
354.355	315.38
354.583	333.38
354.81	336.38
355.037	335.38
355.264	331.38
355.491	314.38
355.718	330.38
355.945	339.38
356.172	334.38
356.399	335.38
356.626	328.38
356.853	311.38
357.08	325.38
357.307	335.38
357.534	338.38
357.761	307.38
357.988	329.38
358.215	333.38
358.441	326.38
358.668	340.38
358.895	329.38
359.122	332.38
359.349	352.38
359.576	379.38
359.802	377.38
360.029	411.38
360.256	421.38
360.483	403.38
360.709	363.38
360.936	370.38
361.163	364.38
361.39	359.38
361.616	359.38
361.843	374.38
362.07	379.38
362.296	350.38
362.523	353.38
362.749	355.38
362.976	336.38
363.203	346.38
363.429	327.38
363.656	343.38
363.882	321.38
364.109	341.38
364.335	345.38
364.562	351.38
364.788	329.38
365.015	333.38
365.241	341.38
365.468	356.38
365.694	354.38
365.92	358.38
366.147	359.38
366.373	342.38
366.599	353.38
366.826	334.38
367.052	316.38
367.278	335.38
367.505	356.38
367.731	332.38
367.957	342.38
368.184	333.38
368.41	345.38
368.636	340.38
368.862	335.38
369.089	343.38
369.315	349.38
369.541	354.38
369.767	329.38
369.993	330.38
370.219	340.38
370.445	345.38
370.672	308.38
370.898	322.38
371.124	343.38
371.35	325.38
371.576	326.38
371.802	313.38
372.028	328.38
372.254	342.38
372.48	334.38
372.706	328.38
372.932	329.38
373.158	334.38
373.384	342.38
373.61	339.38
373.835	321.38
374.061	342.38
374.287	334.38
374.513	329.38
374.739	325.38
374.965	345.38
375.191	327.38
375.416	339.38
375.642	327.38
375.868	358.38
376.094	342.38
376.319	317.38
376.545	323.38
376.771	319.38
376.997	309.38
377.222	322.38
377.448	334.38
377.674	337.38
377.899	339.38
378.125	326.38
378.35	307.38
378.576	341.38
378.802	337.38
379.027	308.38
379.253	318.38
379.478	315.38
379.704	319.38
379.929	329.38
380.155	334.38
380.38	336.38
380.606	330.38
380.831	342.38
381.057	335.38
381.282	337.38
381.507	322.38
381.733	335.38
381.958	334.38
382.184	346.38
382.409	325.38
382.634	338.38
382.86	319.38
383.085	344.38
383.31	333.38
383.535	348.38
383.761	321.38
383.986	357.38
384.211	327.38
384.436	339.38
384.662	319.38
384.887	358.38
385.112	361.38
385.337	357.38
385.562	338.38
385.787	339.38
386.013	365.38
386.238	381.38
386.463	376.38
386.688	337.38
386.913	342.38
387.138	363.38
387.363	343.38
387.588	355.38
387.813	371.38
388.038	333.38
388.263	357.38
388.488	355.38
388.713	358.38
388.938	357.38
389.163	349.38
389.387	356.38
389.612	352.38
389.837	342.38
390.062	343.38
390.287	354.38
390.512	347.38
390.736	343.38
390.961	351.38
391.186	355.38
391.411	346.38
391.636	349.38
391.86	354.38
392.085	363.38
392.31	349.38
392.534	374.38
392.759	349.38
392.984	336.38
393.208	374.38
393.433	359.38
393.658	348.38
393.882	355.38
394.107	347.38
394.331	377.38
394.556	366.38
394.78	354.38
395.005	364.38
395.229	357.38
395.454	376.38
395.678	366.38
395.903	364.38
396.127	371.38
396.352	389.38
396.576	381.38
396.801	363.38
397.025	382.38
397.249	393.38
397.474	362.38
397.698	378.38
397.922	391.38
398.147	380.38
398.371	410.38
398.595	413.38
398.82	373.38
399.044	408.38
399.268	405.38
399.492	425.38
399.717	448.38
399.941	426.38
400.165	474.38
400.389	492.38
400.613	454.38
400.837	418.38
401.062	415.38
401.286	395.38
401.51	413.38
401.734	396.38
401.958	409.38
402.182	413.38
402.406	398.38
402.63	403.38
402.854	405.38
403.078	399.38
403.302	394.38
403.526	433.38
403.75	398.38
403.974	423.38
404.198	422.38
404.422	443.38
404.645	443.38
404.869	434.38
405.093	458.38
405.317	517.38
405.541	511.38
405.765	464.38
405.988	447.38
406.212	455.38
406.436	473.38
406.66	485.38
406.883	456.38
407.107	478.38
407.331	518.38
407.555	555.38
407.778	566.38
408.002	515.38
408.226	480.38
408.449	467.38
408.673	467.38
408.896	479.38
409.12	520.38
409.344	493.38
409.567	447.38
409.791	440.38
410.014	429.38
410.238	412.38
410.461	441.38
410.685	439.38
410.908	439.38
411.132	495.38
411.355	490.38
411.578	475.38
411.802	442.38
412.025	404.38
412.249	412.38
412.472	454.38
412.695	503.38
412.919	485.38
413.142	443.38
413.365	420.38
413.589	422.38
413.812	400.38
414.035	400.38
414.258	402.38
414.482	418.38
414.705	397.38
414.928	407.38
415.151	392.38
415.374	413.38
415.597	392.38
415.821	387.38
416.044	406.38
416.267	407.38
416.49	388.38
416.713	381.38
416.936	385.38
417.159	411.38
417.382	399.38
417.605	411.38
417.828	421.38
418.051	403.38
418.274	416.38
418.497	402.38
418.72	395.38
418.943	393.38
419.166	420.38
419.389	410.38
419.611	446.38
419.834	447.38
420.057	435.38
420.28	427.38
420.503	413.38
420.726	408.38
420.948	452.38
421.171	450.38
421.394	497.38
421.617	444.38
421.839	430.38
422.062	422.38
422.285	438.38
422.507	509.38
422.73	547.38
422.953	528.38
423.175	459.38
423.398	439.38
423.621	433.38
423.843	437.38
424.066	446.38
424.288	458.38
424.511	465.38
424.733	507.38
424.956	580.38
425.178	561.38
425.401	565.38
425.623	574.38
425.846	503.38
426.068	459.38
426.291	480.38
426.513	476.38
426.735	474.38
426.958	494.38
427.18	623.38
427.402	690.38
427.625	786.38
427.847	699.38
428.069	594.38
428.292	519.38
428.514	484.38
428.736	465.38
428.958	452.38
429.181	431.38
429.403	414.38
429.625	436.38
429.847	487.38
430.069	543.38
430.292	521.38
430.514	451.38
430.736	440.38
430.958	428.38
431.18	412.38
431.402	396.38
431.624	389.38
431.846	391.38
432.068	404.38
432.29	403.38
432.512	410.38
432.734	389.38
432.956	413.38
433.178	425.38
433.4	429.38
433.622	427.38
433.844	397.38
434.066	391.38
434.287	413.38
434.509	386.38
434.731	421.38
434.953	413.38
435.175	430.38
435.397	453.38
435.618	466.38
435.84	497.38
436.062	577.38
436.284	614.38
436.505	545.38
436.727	487.38
436.949	457.38
437.17	431.38
437.392	443.38
437.614	483.38
437.835	491.38
438.057	572.38
438.278	655.38
438.5	674.38
438.721	734.38
438.943	670.38
439.165	547.38
439.386	508.38
439.608	490.38
439.829	493.38
440.05	528.38
440.272	579.38
440.493	533.38
440.715	470.38
440.936	445.38
441.158	430.38
441.379	444.38
441.6	455.38
441.822	470.38
442.043	530.38
442.264	575.38
442.486	623.38
442.707	516.38
442.928	505.38
443.149	489.38
443.371	508.38
443.592	538.38
443.813	609.38
444.034	665.38
444.255	548.38
444.476	507.38
444.698	471.38
444.919	477.38
445.14	549.38
445.361	524.38
445.582	525.38
445.803	587.38
446.024	658.38
446.245	679.38
446.466	612.38
446.687	548.38
446.908	488.38
447.129	470.38
447.35	455.38
447.571	425.38
447.792	425.38
448.013	440.38
448.234	457.38
448.455	518.38
448.675	606.38
448.896	693.38
449.117	620.38
449.338	573.38
449.559	680.38
449.779	729.38
450	598.38
450.221	501.38
450.442	453.38
450.662	449.38
450.883	452.38
451.104	476.38
451.324	445.38
451.545	410.38
451.766	426.38
451.986	396.38
452.207	410.38
452.428	394.38
452.648	417.38
452.869	397.38
453.089	420.38
453.31	449.38
453.53	394.38
453.751	397.38
453.971	389.38
454.192	438.38
454.412	416.38
454.633	411.38
454.853	397.38
455.073	394.38
455.294	430.38
455.514	478.38
455.734	484.38
455.955	418.38
456.175	393.38
456.395	369.38
456.616	381.38
456.836	359.38
457.056	383.38
457.276	380.38
457.497	374.38
457.717	379.38
457.937	379.38
458.157	374.38
458.377	381.38
458.598	399.38
458.818	459.38
459.038	563.38
459.258	545.38
459.478	460.38
459.698	426.38
459.918	409.38
460.138	414.38
460.358	413.38
460.578	412.38
460.798	411.38
461.018	417.38
461.238	405.38
461.458	395.38
461.678	397.38
461.898	393.38
462.118	406.38
462.338	385.38
462.558	426.38
462.777	398.38
462.997	410.38
463.217	437.38
463.437	416.38
463.657	418.38
463.876	443.38
464.096	418.38
464.316	422.38
464.536	448.38
464.755	420.38
464.975	460.38
465.195	517.38
465.414	555.38
465.634	512.38
465.854	448.38
466.073	417.38
466.293	422.38
466.512	409.38
466.732	392.38
466.951	410.38
467.171	412.38
467.391	391.38
467.61	417.38
467.829	414.38
468.049	401.38
468.268	426.38
468.488	401.38
468.707	387.38
468.927	389.38
469.146	389.38
469.365	386.38
469.585	380.38
469.804	407.38
470.023	399.38
470.243	420.38
470.462	417.38
470.681	420.38
470.901	444.38
471.12	411.38
471.339	392.38
471.558	402.38
471.777	411.38
471.997	408.38
472.216	437.38
472.435	458.38
472.654	435.38
472.873	428.38
473.092	395.38
473.311	410.38
473.53	429.38
473.749	414.38
473.968	497.38
474.187	533.38
474.406	582.38
474.625	459.38
474.844	435.38
475.063	423.38
475.282	400.38
475.501	397.38
475.72	408.38
475.939	434.38
476.158	421.38
476.377	428.38
476.596	412.38
476.814	430.38
477.033	429.38
477.252	438.38
477.471	429.38
477.69	440.38
477.908	423.38
478.127	449.38
478.346	432.38
478.564	460.38
478.783	465.38
479.002	456.38
479.22	467.38
479.439	463.38
479.658	486.38
479.876	493.38
480.095	500.38
480.313	520.38
480.532	506.38
480.751	494.38
480.969	521.38
481.188	603.38
481.406	635.38
481.624	549.38
481.843	519.38
482.061	492.38
482.28	485.38
482.498	482.38
482.717	474.38
482.935	480.38
483.153	479.38
483.372	487.38
483.59	474.38
483.808	457.38
484.027	481.38
484.245	484.38
484.463	470.38
484.681	505.38
484.9	473.38
485.118	490.38
485.336	494.38
485.554	495.38
485.772	508.38
485.99	476.38
486.209	495.38
486.427	474.38
486.645	546.38
486.863	556.38
487.081	535.38
487.299	515.38
487.517	507.38
487.735	518.38
487.953	499.38
488.171	510.38
488.389	521.38
488.607	490.38
488.825	501.38
489.043	483.38
489.261	517.38
489.479	537.38
489.696	538.38
489.914	510.38
490.132	526.38
490.35	534.38
490.568	525.38
490.786	532.38
491.003	538.38
491.221	554.38
491.439	566.38
491.657	584.38
491.874	567.38
492.092	581.38
492.31	594.38
492.527	586.38
492.745	588.38
492.963	581.38
493.18	589.38
493.398	606.38
493.615	620.38
493.833	589.38
494.05	609.38
494.268	621.38
494.485	585.38
494.703	606.38
494.92	604.38
495.138	579.38
495.355	599.38
495.573	605.38
495.79	615.38
496.008	610.38
496.225	620.38
496.442	591.38
496.66	585.38
496.877	587.38
497.094	603.38
497.312	632.38
497.529	637.38
497.746	651.38
497.963	658.38
498.181	674.38
498.398	681.38
498.615	680.38
498.832	656.38
499.049	695.38
499.267	671.38
499.484	693.38
499.701	693.38
499.918	701.38
500.135	744.38
500.352	742.38
500.569	744.38
500.786	777.38
501.003	761.38
501.22	753.38
501.437	744.38
501.654	754.38
501.871	744.38
502.088	732.38
502.305	689.38
502.522	678.38
502.739	649.38
502.956	627.38
503.172	657.38
503.389	650.38
503.606	675.38
503.823	645.38
504.04	603.38
504.256	612.38
504.473	621.38
504.69	617.38
504.907	595.38
505.123	585.38
505.34	602.38
505.557	606.38
505.773	584.38
505.99	582.38
506.207	594.38
506.423	588.38
506.64	604.38
506.856	581.38
507.073	586.38
507.289	596.38
507.506	563.38
507.722	593.38
507.939	614.38
508.155	602.38
508.372	593.38
508.588	567.38
508.805	557.38
509.021	562.38
509.238	579.38
509.454	599.38
509.67	588.38
509.887	579.38
510.103	565.38
510.319	581.38
510.536	695.38
510.752	1237.38
510.968	984.38
511.184	623.38
511.401	549.38
511.617	583.38
511.833	554.38
512.049	549.38
512.265	554.38
512.481	553.38
512.698	534.38
512.914	551.38
513.13	556.38
513.346	556.38
513.562	558.38
513.778	551.38
513.994	558.38
514.21	556.38
514.426	582.38
514.642	650.38
514.858	715.38
515.074	744.38
515.29	862.38
515.506	1302.38
515.721	1055.38
515.937	709.38
516.153	634.38
516.369	587.38
516.585	554.38
516.801	567.38
517.016	566.38
517.232	574.38
517.448	564.38
517.664	557.38
517.879	555.38
518.095	557.38
518.311	565.38
518.527	574.38
518.742	542.38
518.958	530.38
519.173	556.38
519.389	561.38
519.605	574.38
519.82	577.38
520.036	565.38
520.251	594.38
520.467	641.38
520.682	643.38
520.898	638.38
521.113	675.38
521.329	728.38
521.544	837.38
521.76	1087.38
521.975	1759.38
522.19	1735.38
522.406	921.38
522.621	669.38
522.836	608.38
523.052	585.38
523.267	541.38
523.482	534.38
523.698	531.38
523.913	539.38
524.128	509.38
524.343	513.38
524.559	514.38
524.774	488.38
524.989	488.38
525.204	504.38
525.419	487.38
525.634	478.38
525.849	463.38
526.064	453.38
526.28	432.38
526.495	473.38
526.71	453.38
526.925	435.38
527.14	446.38
527.355	453.38
527.57	461.38
527.785	448.38
527.999	438.38
528.214	447.38
528.429	453.38
528.644	445.38
528.859	441.38
529.074	452.38
529.289	499.38
529.503	563.38
529.718	568.38
529.933	493.38
530.148	454.38
530.363	455.38
530.577	454.38
530.792	426.38
531.007	447.38
531.221	441.38
531.436	449.38
531.651	440.38
531.865	419.38
532.08	416.38
532.295	407.38
532.509	428.38
532.724	419.38
532.938	425.38
533.153	407.38
533.367	407.38
533.582	438.38
533.796	425.38
534.011	419.38
534.225	413.38
534.44	411.38
534.654	395.38
534.868	396.38
535.083	427.38
535.297	407.38
535.511	438.38
535.726	430.38
535.94	414.38
536.154	415.38
536.369	419.38
536.583	399.38
536.797	422.38
537.011	428.38
537.225	408.38
537.44	412.38
537.654	399.38
537.868	412.38
538.082	395.38
538.296	407.38
538.51	381.38
538.724	396.38
538.938	381.38
539.153	431.38
539.367	409.38
539.581	433.38
539.795	400.38
540.009	392.38
540.222	413.38
540.436	404.38
540.65	422.38
540.864	397.38
541.078	403.38
541.292	413.38
541.506	409.38
541.72	380.38
541.934	404.38
542.147	424.38
542.361	392.38
542.575	400.38
542.789	408.38
543.002	393.38
543.216	400.38
543.43	414.38
543.644	408.38
543.857	390.38
544.071	385.38
544.285	377.38
544.498	376.38
544.712	402.38
544.925	396.38
545.139	399.38
545.352	376.38
545.566	386.38
545.779	387.38
545.993	352.38
546.206	387.38
546.42	381.38
546.633	391.38
546.847	396.38
547.06	365.38
547.274	390.38
547.487	377.38
547.7	399.38
547.914	368.38
548.127	366.38
548.34	377.38
548.554	375.38
548.767	381.38
548.98	357.38
549.193	392.38
549.407	377.38
549.62	386.38
549.833	377.38
550.046	394.38
550.259	383.38
550.473	372.38
550.686	382.38
550.899	358.38
551.112	358.38
551.325	356.38
551.538	357.38
551.751	381.38
551.964	376.38
552.177	365.38
552.39	362.38
552.603	354.38
552.816	346.38
553.029	381.38
553.242	386.38
553.455	387.38
553.667	361.38
553.88	389.38
554.093	373.38
554.306	376.38
554.519	371.38
554.732	377.38
554.944	356.38
555.157	358.38
555.37	358.38
555.583	376.38
555.795	352.38
556.008	353.38
556.221	359.38
556.433	352.38
556.646	347.38
556.859	351.38
557.071	341.38
557.284	336.38
557.496	349.38
557.709	349.38
557.921	358.38
558.134	316.38
558.346	350.38
558.559	339.38
558.771	335.38
558.984	343.38
559.196	334.38
559.409	302.38
559.621	305.38
559.833	350.38
560.046	345.38
560.258	343.38
560.47	337.38
560.683	334.38
560.895	340.38
561.107	325.38
561.32	337.38
561.532	340.38
561.744	325.38
561.956	344.38
562.168	330.38
562.381	341.38
562.593	321.38
562.805	326.38
563.017	332.38
563.229	347.38
563.441	339.38
563.653	339.38
563.865	339.38
564.077	353.38
564.289	336.38
564.501	346.38
564.713	347.38
564.925	325.38
565.137	358.38
565.349	358.38
565.561	363.38
565.773	364.38
565.985	339.38
566.197	353.38
566.408	341.38
566.62	371.38
566.832	353.38
567.044	385.38
567.255	379.38
567.467	402.38
567.679	385.38
567.891	374.38
568.102	367.38
568.314	380.38
568.526	385.38
568.737	363.38
568.949	364.38
569.161	323.38
569.372	339.38
569.584	339.38
569.795	346.38
570.007	340.38
570.218	375.38
570.43	373.38
570.641	345.38
570.853	305.38
571.064	314.38
571.276	300.38
571.487	313.38
571.698	305.38
571.91	306.38
572.121	309.38
572.333	318.38
572.544	306.38
572.755	317.38
572.966	299.38
573.178	301.38
573.389	318.38
573.6	307.38
573.811	321.38
574.023	305.38
574.234	298.38
574.445	286.38
574.656	294.38
574.867	315.38
575.078	302.38
575.289	302.38
575.501	292.38
575.712	289.38
575.923	279.38
576.134	279.38
576.345	278.38
576.556	290.38
576.767	291.38
576.978	278.38
577.188	284.38
577.399	293.38
577.61	275.38
577.821	279.38
578.032	286.38
578.243	331.38
578.454	556.38
578.665	411.38
578.875	300.38
579.086	290.38
579.297	255.38
579.508	275.38
579.718	280.38
579.929	286.38
580.14	255.38
580.35	262.38
580.561	267.38
580.772	277.38
580.982	285.38
581.193	281.38
581.403	282.38
581.614	273.38
581.825	263.38
582.035	263.38
582.246	268.38
582.456	266.38
582.667	270.38
582.877	264.38
583.087	283.38
583.298	258.38
583.508	252.38
583.719	258.38
583.929	270.38
584.139	263.38
584.35	280.38
584.56	233.38
584.77	271.38
584.981	262.38
585.191	271.38
585.401	266.38
585.611	274.38
585.821	276.38
586.032	280.38
586.242	256.38
586.452	258.38
586.662	265.38
586.872	265.38
587.082	268.38
587.292	242.38
587.502	259.38
587.713	267.38
587.923	252.38
588.133	256.38
588.343	245.38
588.553	242.38
588.762	259.38
588.972	261.38
589.182	267.38
589.392	236.38
589.602	257.38
589.812	246.38
590.022	266.38
590.232	258.38
590.441	244.38
590.651	248.38
590.861	263.38
591.071	257.38
591.281	255.38
591.49	264.38
591.7	266.38
591.91	251.38
592.119	244.38
592.329	262.38
592.539	241.38
592.748	261.38
592.958	252.38
593.167	262.38
593.377	250.38
593.587	265.38
593.796	251.38
594.006	244.38
594.215	267.38
594.424	238.38
594.634	244.38
594.843	244.38
595.053	244.38
595.262	248.38
595.472	252.38
595.681	258.38
595.89	250.38
596.1	268.38
596.309	247.38
596.518	265.38
596.727	246.38
596.937	252.38
597.146	229.38
597.355	255.38
597.564	247.38
597.774	227.38
597.983	237.38
598.192	237.38
598.401	231.38
598.61	215.38
598.819	232.38
599.028	221.38
599.237	228.38
599.446	235.38
599.655	267.38
599.864	259.38
600.073	233.38
600.282	222.38
600.491	216.38
600.7	241.38
600.909	229.38
601.118	222.38
601.327	225.38
601.536	230.38
601.745	229.38
601.953	219.38
602.162	237.38
602.371	209.38
602.58	219.38
602.789	222.38
602.997	219.38
603.206	219.38
603.415	233.38
603.623	221.38
603.832	219.38
604.041	227.38
604.249	199.38
604.458	225.38
604.666	237.38
604.875	201.38
605.084	223.38
605.292	221.38
605.501	229.38
605.709	219.38
605.918	213.38
606.126	218.38
606.334	219.38
606.543	213.38
606.751	214.38
606.96	206.38
607.168	225.38
607.376	205.38
607.585	206.38
607.793	212.38
608.001	207.38
608.21	214.38
608.418	219.38
608.626	196.38
608.834	205.38
609.043	215.38
609.251	206.38
609.459	199.38
609.667	207.38
609.875	214.38
610.083	206.38
610.291	202.38
610.499	216.38
610.707	205.38
610.916	199.38
611.124	217.38
611.332	209.38
611.54	212.38
611.748	200.38
611.955	209.38
612.163	202.38
612.371	204.38
612.579	201.38
612.787	221.38
612.995	214.38
613.203	219.38
613.411	220.38
613.618	206.38
613.826	201.38
614.034	214.38
614.242	203.38
614.449	193.38
614.657	213.38
614.865	197.38
615.072	224.38
615.28	199.38
615.488	207.38
615.695	212.38
615.903	198.38
616.111	189.38
616.318	206.38
616.526	199.38
616.733	202.38
616.941	200.38
617.148	210.38
617.356	205.38
617.563	200.38
617.771	218.38
617.978	210.38
618.185	205.38
618.393	201.38
618.6	205.38
618.807	195.38
619.015	214.38
619.222	206.38
619.429	183.38
619.637	202.38
619.844	199.38
620.051	197.38
620.258	206.38
620.466	184.38
620.673	190.38
620.88	162.38
621.087	198.38
621.294	209.38
621.501	182.38
621.708	195.38
621.915	203.38
622.122	189.38
622.329	200.38
622.536	193.38
622.743	193.38
622.95	188.38
623.157	194.38
623.364	176.38
623.571	198.38
623.778	187.38
623.985	190.38
624.192	196.38
624.399	173.38
624.606	184.38
624.812	182.38
625.019	179.38
625.226	182.38
625.433	185.38
625.639	179.38
625.846	184.38
626.053	206.38
626.259	183.38
626.466	182.38
626.673	186.38
626.879	169.38
627.086	183.38
627.293	184.38
627.499	198.38
627.706	177.38
627.912	166.38
628.119	186.38
628.325	188.38
628.532	187.38
628.738	186.38
628.945	177.38
629.151	184.38
629.357	177.38
629.564	169.38
629.77	175.38
629.976	169.38
630.183	185.38
630.389	171.38
630.595	183.38
630.802	182.38
631.008	164.38
631.214	175.38
631.42	183.38
631.627	188.38
631.833	162.38
632.039	170.38
632.245	171.38
632.451	174.38
632.657	182.38
632.863	182.38
633.069	178.38
633.275	163.38
633.481	185.38
633.688	161.38
633.893	185.38
634.099	151.38
634.305	179.38
634.511	163.38
634.717	167.38
634.923	163.38
635.129	173.38
635.335	158.38
635.541	179.38
635.747	155.38
635.952	170.38
636.158	161.38
636.364	178.38
636.57	169.38
636.775	171.38
636.981	179.38
637.187	166.38
637.392	181.38
637.598	170.38
637.804	170.38
638.009	184.38
638.215	174.38
638.421	155.38
638.626	181.38
638.832	141.38
639.037	155.38
639.243	151.38
639.448	157.38
639.654	162.38
639.859	149.38
640.065	154.38
640.27	173.38
640.475	155.38
640.681	151.38
640.886	163.38
641.091	133.38
641.297	159.38
641.502	154.38
641.707	152.38
641.913	146.38
642.118	159.38
642.323	156.38
642.528	159.38
642.733	154.38
642.939	164.38
643.144	163.38
643.349	159.38
643.554	163.38
643.759	161.38
643.964	161.38
644.169	152.38
644.374	147.38
644.579	157.38
644.784	163.38
644.989	154.38
645.194	173.38
645.399	168.38
645.604	160.38
645.809	156.38
646.014	158.38
646.219	156.38
646.423	165.38
646.628	149.38
646.833	153.38
647.038	149.38
647.243	165.38
647.447	146.38
647.652	149.38
647.857	154.38
648.062	156.38
648.266	145.38
648.471	165.38
648.676	156.38
648.88	156.38
649.085	153.38
649.289	163.38
649.494	156.38
649.698	179.38
649.903	193.38
650.107	167.38
650.312	150.38
650.516	127.38
650.721	138.38
650.925	148.38
651.13	139.38
651.334	155.38
651.539	141.38
651.743	133.38
651.947	134.38
652.152	140.38
652.356	138.38
652.56	147.38
652.764	135.38
652.969	133.38
653.173	125.38
653.377	125.38
653.581	130.38
653.785	121.38
653.99	132.38
654.194	137.38
654.398	132.38
654.602	142.38
654.806	139.38
655.01	125.38
655.214	127.38
655.418	118.38
655.622	109.38
655.826	117.38
656.03	118.38
656.234	129.38
656.438	137.38
656.642	130.38
656.846	132.38
657.049	113.38
657.253	117.38
657.457	111.38
657.661	101.38
657.865	106.38
658.068	118.38
658.272	115.38
658.476	121.38
658.68	119.38
658.883	103.38
659.087	105.38
659.291	93.38
659.494	106.38
659.698	88.38
659.901	100.38
660.105	93.38
660.309	109.38
660.512	107.38
660.716	95.38
660.919	97.38
661.123	97.38
661.326	92.38
661.53	98.38
661.733	93.38
661.936	98.38
662.14	85.38
662.343	86.38
662.546	97.38
662.75	83.38
662.953	88.38
663.156	88.38
663.36	91.38
663.563	85.38
663.766	85.38
663.969	92.38
664.173	87.38
664.376	94.38
664.579	91.38
664.782	90.38
664.985	97.38
665.188	78.38
665.391	91.38
665.594	82.38
665.797	90.38
666	91.38
666.203	76.38
666.406	72.38
666.609	78.38
666.812	82.38
667.015	75.38
667.218	81.38
667.421	73.38
667.624	91.38
667.827	90.38
668.03	90.38
668.232	80.38
668.435	78.38
668.638	73.38
668.841	80.38
669.043	85.38
669.246	62.38
669.449	77.38
669.651	73.38
669.854	86.38
670.057	93.38
670.259	89.38
670.462	83.38
670.665	101.38
670.867	78.38
671.07	83.38
671.272	80.38
671.475	88.38
671.677	73.38
671.88	76.38
672.082	76.38
672.284	93.38
672.487	78.38
672.689	85.38
672.892	91.38
