Data from 1961.PennyLincolnUp.Lamp.En5.5.200Scan.071719.P1._HRD10591_13-45-50-057.txt Node
Date: Thu Jul 18 13:45:50 EDT 2019
User: cochatt
Spectrometer: HR+D1059
Trigger mode: 1
Integration Time (sec): 1.000000E-1
Scans to average: 1
Electric dark correction enabled: true
Nonlinearity correction enabled: false
Boxcar width: 0
XAxis mode: Wavelengths
Number of Pixels in Spectrum: 2048
>>>>>Begin Spectral Data<<<<<
223.165	-11.12
223.4	-11.12
223.635	-11.12
223.869	-19.12
224.104	-8.12
224.338	0.88
224.573	-12.12
224.808	-11.12
225.042	-4.12
225.277	-6.12
225.511	-8.12
225.746	1.88
225.98	10.88
226.215	-5.12
226.449	-1.12
226.683	20.88
226.918	24.88
227.152	26.88
227.387	39.88
227.621	38.88
227.856	42.88
228.09	40.88
228.324	24.88
228.559	55.88
228.793	63.88
229.027	77.88
229.262	87.88
229.496	96.88
229.73	84.88
229.964	99.88
230.199	95.88
230.433	92.88
230.667	98.88
230.901	97.88
231.136	112.88
231.37	87.88
231.604	90.88
231.838	88.88
232.072	91.88
232.306	77.88
232.541	102.88
232.775	99.88
233.009	99.88
233.243	99.88
233.477	104.88
233.711	108.88
233.945	90.88
234.179	106.88
234.413	100.88
234.647	112.88
234.881	101.88
235.115	109.88
235.349	112.88
235.583	105.88
235.817	100.88
236.051	112.88
236.285	108.88
236.519	97.88
236.753	111.88
236.987	115.88
237.221	121.88
237.455	140.88
237.689	131.88
237.922	105.88
238.156	115.88
238.39	92.88
238.624	104.88
238.858	114.88
239.091	100.88
239.325	104.88
239.559	95.88
239.793	111.88
240.027	104.88
240.26	109.88
240.494	122.88
240.728	123.88
240.961	104.88
241.195	105.88
241.429	124.88
241.662	106.88
241.896	97.88
242.13	115.88
242.363	113.88
242.597	92.88
242.83	115.88
243.064	119.88
243.298	111.88
243.531	107.88
243.765	109.88
243.998	123.88
244.232	123.88
244.465	119.88
244.699	122.88
244.932	124.88
245.166	115.88
245.399	117.88
245.633	119.88
245.866	117.88
246.099	102.88
246.333	105.88
246.566	118.88
246.8	137.88
247.033	141.88
247.266	136.88
247.5	139.88
247.733	133.88
247.966	138.88
248.2	143.88
248.433	143.88
248.666	127.88
248.899	147.88
249.133	131.88
249.366	135.88
249.599	136.88
249.832	146.88
250.066	144.88
250.299	137.88
250.532	127.88
250.765	147.88
250.998	141.88
251.231	142.88
251.465	166.88
251.698	139.88
251.931	135.88
252.164	158.88
252.397	142.88
252.63	146.88
252.863	152.88
253.096	154.88
253.329	142.88
253.562	152.88
253.795	148.88
254.028	152.88
254.261	163.88
254.494	154.88
254.727	168.88
254.96	164.88
255.193	162.88
255.426	198.88
255.659	147.88
255.892	162.88
256.124	162.88
256.357	151.88
256.59	153.88
256.823	166.88
257.056	150.88
257.289	155.88
257.521	144.88
257.754	170.88
257.987	163.88
258.22	147.88
258.452	149.88
258.685	144.88
258.918	158.88
259.151	156.88
259.383	172.88
259.616	153.88
259.849	147.88
260.081	164.88
260.314	178.88
260.547	166.88
260.779	167.88
261.012	177.88
261.244	169.88
261.477	167.88
261.71	158.88
261.942	171.88
262.175	169.88
262.407	172.88
262.64	163.88
262.872	175.88
263.105	164.88
263.337	163.88
263.57	176.88
263.802	173.88
264.035	165.88
264.267	163.88
264.499	160.88
264.732	172.88
264.964	165.88
265.197	175.88
265.429	170.88
265.661	167.88
265.894	172.88
266.126	175.88
266.358	167.88
266.591	167.88
266.823	171.88
267.055	185.88
267.287	180.88
267.52	177.88
267.752	173.88
267.984	191.88
268.216	186.88
268.448	179.88
268.681	173.88
268.913	187.88
269.145	169.88
269.377	194.88
269.609	181.88
269.841	183.88
270.073	192.88
270.306	205.88
270.538	206.88
270.77	212.88
271.002	217.88
271.234	210.88
271.466	216.88
271.698	195.88
271.93	210.88
272.162	210.88
272.394	224.88
272.626	211.88
272.858	198.88
273.09	184.88
273.322	193.88
273.553	196.88
273.785	189.88
274.017	198.88
274.249	213.88
274.481	197.88
274.713	195.88
274.945	199.88
275.176	197.88
275.408	181.88
275.64	193.88
275.872	191.88
276.104	194.88
276.335	205.88
276.567	217.88
276.799	201.88
277.031	220.88
277.262	200.88
277.494	219.88
277.726	212.88
277.957	214.88
278.189	237.88
278.421	204.88
278.652	207.88
278.884	210.88
279.115	196.88
279.347	210.88
279.579	226.88
279.81	203.88
280.042	205.88
280.273	211.88
280.505	208.88
280.736	208.88
280.968	193.88
281.199	202.88
281.431	203.88
281.662	194.88
281.894	201.88
282.125	204.88
282.356	199.88
282.588	217.88
282.819	209.88
283.051	217.88
283.282	223.88
283.513	218.88
283.745	206.88
283.976	212.88
284.207	213.88
284.439	234.88
284.67	220.88
284.901	209.88
285.132	203.88
285.364	223.88
285.595	222.88
285.826	212.88
286.057	222.88
286.288	227.88
286.52	217.88
286.751	227.88
286.982	229.88
287.213	221.88
287.444	213.88
287.675	228.88
287.906	228.88
288.138	228.88
288.369	231.88
288.6	239.88
288.831	235.88
289.062	229.88
289.293	216.88
289.524	226.88
289.755	211.88
289.986	221.88
290.217	224.88
290.448	231.88
290.679	239.88
290.91	218.88
291.141	223.88
291.371	216.88
291.602	217.88
291.833	221.88
292.064	235.88
292.295	219.88
292.526	220.88
292.757	228.88
292.987	221.88
293.218	240.88
293.449	239.88
293.68	243.88
293.91	228.88
294.141	224.88
294.372	235.88
294.603	254.88
294.833	243.88
295.064	227.88
295.295	233.88
295.525	236.88
295.756	226.88
295.987	247.88
296.217	236.88
296.448	245.88
296.679	213.88
296.909	235.88
297.14	233.88
297.37	233.88
297.601	241.88
297.831	257.88
298.062	234.88
298.292	233.88
298.523	232.88
298.753	242.88
298.984	230.88
299.214	259.88
299.445	239.88
299.675	232.88
299.905	234.88
300.136	233.88
300.366	240.88
300.597	242.88
300.827	233.88
301.057	246.88
301.288	253.88
301.518	250.88
301.748	228.88
301.979	259.88
302.209	261.88
302.439	253.88
302.669	263.88
302.9	267.88
303.13	256.88
303.36	266.88
303.59	243.88
303.82	262.88
304.051	241.88
304.281	246.88
304.511	269.88
304.741	243.88
304.971	265.88
305.201	243.88
305.431	247.88
305.661	242.88
305.891	226.88
306.121	263.88
306.352	244.88
306.582	258.88
306.812	265.88
307.042	259.88
307.272	251.88
307.502	240.88
307.731	259.88
307.961	239.88
308.191	256.88
308.421	231.88
308.651	255.88
308.881	242.88
309.111	261.88
309.341	248.88
309.571	270.88
309.8	269.88
310.03	282.88
310.26	275.88
310.49	275.88
310.72	283.88
310.949	279.88
311.179	276.88
311.409	281.88
311.639	276.88
311.868	271.88
312.098	279.88
312.328	265.88
312.557	268.88
312.787	284.88
313.017	288.88
313.246	281.88
313.476	287.88
313.706	287.88
313.935	272.88
314.165	293.88
314.394	273.88
314.624	286.88
314.853	273.88
315.083	291.88
315.312	275.88
315.542	277.88
315.771	275.88
316.001	282.88
316.23	260.88
316.46	289.88
316.689	283.88
316.919	286.88
317.148	269.88
317.377	290.88
317.607	279.88
317.836	279.88
318.065	295.88
318.295	258.88
318.524	289.88
318.753	276.88
318.983	285.88
319.212	300.88
319.441	289.88
319.67	304.88
319.9	279.88
320.129	283.88
320.358	289.88
320.587	285.88
320.816	273.88
321.046	280.88
321.275	285.88
321.504	283.88
321.733	300.88
321.962	312.88
322.191	314.88
322.42	289.88
322.649	305.88
322.878	291.88
323.108	306.88
323.337	306.88
323.566	309.88
323.795	336.88
324.024	342.88
324.253	394.88
324.482	528.88
324.71	720.88
324.939	951.88
325.168	781.88
325.397	476.88
325.626	361.88
325.855	343.88
326.084	316.88
326.313	334.88
326.542	327.88
326.77	350.88
326.999	394.88
327.228	478.88
327.457	676.88
327.686	712.88
327.914	498.88
328.143	367.88
328.372	358.88
328.6	359.88
328.829	346.88
329.058	333.88
329.287	326.88
329.515	331.88
329.744	325.88
329.972	314.88
330.201	321.88
330.43	340.88
330.658	348.88
330.887	352.88
331.115	350.88
331.344	323.88
331.572	327.88
331.801	335.88
332.03	335.88
332.258	333.88
332.486	311.88
332.715	309.88
332.943	321.88
333.172	317.88
333.4	336.88
333.629	348.88
333.857	332.88
334.085	356.88
334.314	343.88
334.542	369.88
334.771	355.88
334.999	344.88
335.227	351.88
335.455	324.88
335.684	327.88
335.912	341.88
336.14	331.88
336.369	341.88
336.597	344.88
336.825	341.88
337.053	315.88
337.281	309.88
337.51	322.88
337.738	304.88
337.966	311.88
338.194	327.88
338.422	314.88
338.65	330.88
338.878	319.88
339.106	324.88
339.334	300.88
339.562	310.88
339.79	317.88
340.018	323.88
340.246	328.88
340.474	315.88
340.702	305.88
340.93	313.88
341.158	299.88
341.386	311.88
341.614	311.88
341.842	296.88
342.07	294.88
342.298	306.88
342.526	308.88
342.754	300.88
342.981	313.88
343.209	314.88
343.437	327.88
343.665	321.88
343.893	319.88
344.12	328.88
344.348	330.88
344.576	338.88
344.804	313.88
345.031	307.88
345.259	312.88
345.487	303.88
345.714	298.88
345.942	323.88
346.17	306.88
346.397	294.88
346.625	309.88
346.853	273.88
347.08	299.88
347.308	299.88
347.535	295.88
347.763	300.88
347.99	288.88
348.218	299.88
348.445	280.88
348.673	311.88
348.9	303.88
349.128	291.88
349.355	291.88
349.583	281.88
349.81	294.88
350.037	272.88
350.265	294.88
350.492	291.88
350.72	300.88
350.947	292.88
351.174	310.88
351.402	291.88
351.629	268.88
351.856	301.88
352.083	301.88
352.311	280.88
352.538	284.88
352.765	290.88
352.992	262.88
353.22	292.88
353.447	276.88
353.674	300.88
353.901	301.88
354.128	292.88
354.355	291.88
354.583	293.88
354.81	276.88
355.037	279.88
355.264	275.88
355.491	280.88
355.718	273.88
355.945	253.88
356.172	276.88
356.399	285.88
356.626	294.88
356.853	277.88
357.08	277.88
357.307	285.88
357.534	284.88
357.761	291.88
357.988	282.88
358.215	289.88
358.441	281.88
358.668	292.88
358.895	287.88
359.122	281.88
359.349	282.88
359.576	287.88
359.802	291.88
360.029	305.88
360.256	272.88
360.483	299.88
360.709	282.88
360.936	297.88
361.163	280.88
361.39	306.88
361.616	273.88
361.843	285.88
362.07	279.88
362.296	296.88
362.523	297.88
362.749	274.88
362.976	284.88
363.203	290.88
363.429	271.88
363.656	282.88
363.882	269.88
364.109	296.88
364.335	287.88
364.562	283.88
364.788	269.88
365.015	284.88
365.241	292.88
365.468	279.88
365.694	277.88
365.92	284.88
366.147	296.88
366.373	296.88
366.599	278.88
366.826	279.88
367.052	276.88
367.278	267.88
367.505	291.88
367.731	280.88
367.957	287.88
368.184	260.88
368.41	288.88
368.636	291.88
368.862	286.88
369.089	285.88
369.315	283.88
369.541	284.88
369.767	287.88
369.993	285.88
370.219	285.88
370.445	291.88
370.672	265.88
370.898	277.88
371.124	267.88
371.35	290.88
371.576	279.88
371.802	284.88
372.028	276.88
372.254	274.88
372.48	295.88
372.706	277.88
372.932	280.88
373.158	275.88
373.384	276.88
373.61	298.88
373.835	305.88
374.061	292.88
374.287	283.88
374.513	280.88
374.739	292.88
374.965	294.88
375.191	291.88
375.416	282.88
375.642	284.88
375.868	278.88
376.094	288.88
376.319	259.88
376.545	290.88
376.771	284.88
376.997	285.88
377.222	297.88
377.448	280.88
377.674	283.88
377.899	248.88
378.125	271.88
378.35	277.88
378.576	282.88
378.802	267.88
379.027	283.88
379.253	304.88
379.478	285.88
379.704	277.88
379.929	284.88
380.155	284.88
380.38	268.88
380.606	279.88
380.831	255.88
381.057	301.88
381.282	272.88
381.507	270.88
381.733	290.88
381.958	297.88
382.184	290.88
382.409	279.88
382.634	256.88
382.86	277.88
383.085	275.88
383.31	290.88
383.535	301.88
383.761	277.88
383.986	295.88
384.211	281.88
384.436	278.88
384.662	291.88
384.887	313.88
385.112	289.88
385.337	302.88
385.562	294.88
385.787	311.88
386.013	300.88
386.238	284.88
386.463	286.88
386.688	295.88
386.913	308.88
387.138	316.88
387.363	305.88
387.588	315.88
387.813	298.88
388.038	303.88
388.263	308.88
388.488	323.88
388.713	306.88
388.938	293.88
389.163	322.88
389.387	308.88
389.612	303.88
389.837	287.88
390.062	305.88
390.287	282.88
390.512	296.88
390.736	296.88
390.961	300.88
391.186	305.88
391.411	295.88
391.636	307.88
391.86	309.88
392.085	336.88
392.31	312.88
392.534	321.88
392.759	298.88
392.984	307.88
393.208	323.88
393.433	321.88
393.658	322.88
393.882	305.88
394.107	297.88
394.331	307.88
394.556	291.88
394.78	309.88
395.005	313.88
395.229	309.88
395.454	329.88
395.678	327.88
395.903	317.88
396.127	344.88
396.352	304.88
396.576	310.88
396.801	324.88
397.025	336.88
397.249	311.88
397.474	319.88
397.698	330.88
397.922	312.88
398.147	323.88
398.371	318.88
398.595	327.88
398.82	348.88
399.044	359.88
399.268	348.88
399.492	370.88
399.717	369.88
399.941	388.88
400.165	418.88
400.389	394.88
400.613	383.88
400.837	339.88
401.062	336.88
401.286	348.88
401.51	351.88
401.734	333.88
401.958	333.88
402.182	320.88
402.406	343.88
402.63	348.88
402.854	326.88
403.078	327.88
403.302	328.88
403.526	335.88
403.75	353.88
403.974	322.88
404.198	333.88
404.422	340.88
404.645	338.88
404.869	355.88
405.093	364.88
405.317	377.88
405.541	387.88
405.765	363.88
405.988	357.88
406.212	352.88
406.436	351.88
406.66	357.88
406.883	356.88
407.107	378.88
407.331	407.88
407.555	417.88
407.778	416.88
408.002	392.88
408.226	377.88
408.449	386.88
408.673	354.88
408.896	372.88
409.12	391.88
409.344	377.88
409.567	334.88
409.791	339.88
410.014	352.88
410.238	349.88
410.461	354.88
410.685	332.88
410.908	350.88
411.132	372.88
411.355	387.88
411.578	378.88
411.802	354.88
412.025	324.88
412.249	339.88
412.472	348.88
412.695	346.88
412.919	367.88
413.142	343.88
413.365	331.88
413.589	352.88
413.812	326.88
414.035	332.88
414.258	327.88
414.482	315.88
414.705	322.88
414.928	325.88
415.151	330.88
415.374	345.88
415.597	332.88
415.821	312.88
416.044	329.88
416.267	325.88
416.49	327.88
416.713	326.88
416.936	326.88
417.159	321.88
417.382	333.88
417.605	331.88
417.828	316.88
418.051	333.88
418.274	344.88
418.497	320.88
418.72	319.88
418.943	325.88
419.166	320.88
419.389	340.88
419.611	342.88
419.834	317.88
420.057	323.88
420.28	343.88
420.503	330.88
420.726	333.88
420.948	333.88
421.171	354.88
421.394	346.88
421.617	316.88
421.839	303.88
422.062	332.88
422.285	342.88
422.507	370.88
422.73	414.88
422.953	370.88
423.175	346.88
423.398	333.88
423.621	335.88
423.843	337.88
424.066	334.88
424.288	345.88
424.511	344.88
424.733	377.88
424.956	416.88
425.178	410.88
425.401	399.88
425.623	399.88
425.846	339.88
426.068	329.88
426.291	353.88
426.513	314.88
426.735	345.88
426.958	365.88
427.18	388.88
427.402	443.88
427.625	472.88
427.847	411.88
428.069	377.88
428.292	370.88
428.514	322.88
428.736	319.88
428.958	303.88
429.181	316.88
429.403	300.88
429.625	305.88
429.847	330.88
430.069	357.88
430.292	361.88
430.514	304.88
430.736	324.88
430.958	311.88
431.18	315.88
431.402	299.88
431.624	293.88
431.846	290.88
432.068	315.88
432.29	298.88
432.512	322.88
432.734	312.88
432.956	308.88
433.178	295.88
433.4	321.88
433.622	303.88
433.844	300.88
434.066	298.88
434.287	325.88
434.509	326.88
434.731	320.88
434.953	321.88
435.175	321.88
435.397	330.88
435.618	319.88
435.84	361.88
436.062	367.88
436.284	409.88
436.505	352.88
436.727	335.88
436.949	308.88
437.17	297.88
437.392	315.88
437.614	311.88
437.835	333.88
438.057	380.88
438.278	405.88
438.5	423.88
438.721	442.88
438.943	427.88
439.165	353.88
439.386	321.88
439.608	331.88
439.829	327.88
440.05	328.88
440.272	348.88
440.493	330.88
440.715	321.88
440.936	319.88
441.158	331.88
441.379	322.88
441.6	339.88
441.822	330.88
442.043	358.88
442.264	383.88
442.486	407.88
442.707	353.88
442.928	349.88
443.149	330.88
443.371	331.88
443.592	370.88
443.813	410.88
444.034	431.88
444.255	389.88
444.476	328.88
444.698	329.88
444.919	340.88
445.14	457.88
445.361	393.88
445.582	338.88
445.803	362.88
446.024	411.88
446.245	420.88
446.466	393.88
446.687	340.88
446.908	325.88
447.129	321.88
447.35	293.88
447.571	323.88
447.792	313.88
448.013	308.88
448.234	326.88
448.455	325.88
448.675	390.88
448.896	446.88
449.117	376.88
449.338	367.88
449.559	415.88
449.779	455.88
450	377.88
450.221	309.88
450.442	303.88
450.662	316.88
450.883	287.88
451.104	291.88
451.324	289.88
451.545	298.88
451.766	290.88
451.986	293.88
452.207	295.88
452.428	280.88
452.648	283.88
452.869	287.88
453.089	267.88
453.31	263.88
453.53	287.88
453.751	274.88
453.971	274.88
454.192	291.88
454.412	296.88
454.633	283.88
454.853	285.88
455.073	278.88
455.294	285.88
455.514	312.88
455.734	304.88
455.955	287.88
456.175	271.88
456.395	266.88
456.616	264.88
456.836	272.88
457.056	294.88
457.276	278.88
457.497	277.88
457.717	287.88
457.937	288.88
458.157	280.88
458.377	275.88
458.598	285.88
458.818	325.88
459.038	309.88
459.258	328.88
459.478	340.88
459.698	311.88
459.918	320.88
460.138	296.88
460.358	309.88
460.578	322.88
460.798	310.88
461.018	316.88
461.238	321.88
461.458	291.88
461.678	320.88
461.898	315.88
462.118	318.88
462.338	335.88
462.558	345.88
462.777	347.88
462.997	351.88
463.217	344.88
463.437	344.88
463.657	341.88
463.876	343.88
464.096	345.88
464.316	327.88
464.536	334.88
464.755	332.88
464.975	337.88
465.195	328.88
465.414	354.88
465.634	319.88
465.854	319.88
466.073	296.88
466.293	303.88
466.512	300.88
466.732	303.88
466.951	283.88
467.171	288.88
467.391	286.88
467.61	301.88
467.829	289.88
468.049	298.88
468.268	288.88
468.488	303.88
468.707	287.88
468.927	263.88
469.146	295.88
469.365	270.88
469.585	295.88
469.804	292.88
470.023	302.88
470.243	295.88
470.462	314.88
470.681	295.88
470.901	292.88
471.12	312.88
471.339	310.88
471.558	310.88
471.777	287.88
471.997	303.88
472.216	289.88
472.435	314.88
472.654	317.88
472.873	297.88
473.092	284.88
473.311	306.88
473.53	280.88
473.749	274.88
473.968	301.88
474.187	342.88
474.406	340.88
474.625	310.88
474.844	291.88
475.063	299.88
475.282	308.88
475.501	301.88
475.72	316.88
475.939	307.88
476.158	300.88
476.377	307.88
476.596	322.88
476.814	324.88
477.033	296.88
477.252	326.88
477.471	340.88
477.69	333.88
477.908	319.88
478.127	327.88
478.346	313.88
478.564	323.88
478.783	333.88
479.002	349.88
479.22	346.88
479.439	331.88
479.658	341.88
479.876	328.88
480.095	332.88
480.313	364.88
480.532	357.88
480.751	353.88
480.969	359.88
481.188	344.88
481.406	357.88
481.624	351.88
481.843	342.88
482.061	343.88
482.28	346.88
482.498	343.88
482.717	332.88
482.935	333.88
483.153	336.88
483.372	345.88
483.59	336.88
483.808	345.88
484.027	336.88
484.245	355.88
484.463	340.88
484.681	349.88
484.9	340.88
485.118	332.88
485.336	351.88
485.554	339.88
485.772	351.88
485.99	341.88
486.209	346.88
486.427	352.88
486.645	366.88
486.863	361.88
487.081	356.88
487.299	373.88
487.517	361.88
487.735	349.88
487.953	363.88
488.171	335.88
488.389	358.88
488.607	355.88
488.825	363.88
489.043	364.88
489.261	375.88
489.479	373.88
489.696	358.88
489.914	365.88
490.132	373.88
490.35	360.88
490.568	381.88
490.786	362.88
491.003	369.88
491.221	369.88
491.439	389.88
491.657	387.88
491.874	397.88
492.092	381.88
492.31	373.88
492.527	382.88
492.745	368.88
492.963	388.88
493.18	379.88
493.398	401.88
493.615	380.88
493.833	392.88
494.05	408.88
494.268	397.88
494.485	412.88
494.703	393.88
494.92	384.88
495.138	395.88
495.355	404.88
495.573	400.88
495.79	389.88
496.008	420.88
496.225	407.88
496.442	418.88
496.66	395.88
496.877	408.88
497.094	425.88
497.312	417.88
497.529	411.88
497.746	424.88
497.963	422.88
498.181	450.88
498.398	465.88
498.615	462.88
498.832	462.88
499.049	483.88
499.267	515.88
499.484	514.88
499.701	537.88
499.918	566.88
500.135	584.88
500.352	608.88
500.569	637.88
500.786	620.88
501.003	609.88
501.22	570.88
501.437	561.88
501.654	535.88
501.871	533.88
502.088	492.88
502.305	487.88
502.522	469.88
502.739	467.88
502.956	452.88
503.172	467.88
503.389	428.88
503.606	405.88
503.823	423.88
504.04	420.88
504.256	413.88
504.473	406.88
504.69	426.88
504.907	417.88
505.123	401.88
505.34	399.88
505.557	403.88
505.773	389.88
505.99	389.88
506.207	380.88
506.423	383.88
506.64	379.88
506.856	395.88
507.073	350.88
507.289	348.88
507.506	362.88
507.722	386.88
507.939	377.88
508.155	379.88
508.372	371.88
508.588	372.88
508.805	358.88
509.021	349.88
509.238	359.88
509.454	362.88
509.67	360.88
509.887	350.88
510.103	359.88
510.319	352.88
510.536	376.88
510.752	457.88
510.968	417.88
511.184	355.88
511.401	342.88
511.617	348.88
511.833	348.88
512.049	321.88
512.265	357.88
512.481	348.88
512.698	345.88
512.914	344.88
513.13	334.88
513.346	328.88
513.562	347.88
513.778	339.88
513.994	332.88
514.21	352.88
514.426	359.88
514.642	369.88
514.858	351.88
515.074	372.88
515.29	387.88
515.506	465.88
515.721	441.88
515.937	364.88
516.153	348.88
516.369	367.88
516.585	351.88
516.801	353.88
517.016	354.88
517.232	366.88
517.448	359.88
517.664	383.88
517.879	364.88
518.095	366.88
518.311	349.88
518.527	361.88
518.742	348.88
518.958	373.88
519.173	348.88
519.389	357.88
519.605	356.88
519.82	342.88
520.036	364.88
520.251	359.88
520.467	360.88
520.682	327.88
520.898	367.88
521.113	359.88
521.329	379.88
521.544	403.88
521.76	424.88
521.975	551.88
522.19	493.88
522.406	387.88
522.621	339.88
522.836	339.88
523.052	331.88
523.267	314.88
523.482	312.88
523.698	314.88
523.913	325.88
524.128	321.88
524.343	329.88
524.559	333.88
524.774	306.88
524.989	313.88
525.204	307.88
525.419	315.88
525.634	291.88
525.849	310.88
526.064	312.88
526.28	314.88
526.495	308.88
526.71	284.88
526.925	286.88
527.14	308.88
527.355	299.88
527.57	305.88
527.785	311.88
527.999	310.88
528.214	283.88
528.429	298.88
528.644	305.88
528.859	286.88
529.074	279.88
529.289	304.88
529.503	319.88
529.718	330.88
529.933	328.88
530.148	320.88
530.363	314.88
530.577	294.88
530.792	312.88
531.007	292.88
531.221	295.88
531.436	323.88
531.651	308.88
531.865	304.88
532.08	303.88
532.295	283.88
532.509	303.88
532.724	308.88
532.938	306.88
533.153	292.88
533.367	288.88
533.582	279.88
533.796	283.88
534.011	312.88
534.225	283.88
534.44	295.88
534.654	286.88
534.868	287.88
535.083	268.88
535.297	285.88
535.511	285.88
535.726	287.88
535.94	301.88
536.154	288.88
536.369	313.88
536.583	291.88
536.797	255.88
537.011	288.88
537.225	284.88
537.44	278.88
537.654	295.88
537.868	283.88
538.082	272.88
538.296	293.88
538.51	293.88
538.724	281.88
538.938	292.88
539.153	288.88
539.367	290.88
539.581	294.88
539.795	283.88
540.009	278.88
540.222	277.88
540.436	291.88
540.65	291.88
540.864	288.88
541.078	275.88
541.292	289.88
541.506	280.88
541.72	284.88
541.934	291.88
542.147	284.88
542.361	289.88
542.575	281.88
542.789	279.88
543.002	274.88
543.216	292.88
543.43	274.88
543.644	296.88
543.857	270.88
544.071	286.88
544.285	282.88
544.498	279.88
544.712	271.88
544.925	280.88
545.139	279.88
545.352	288.88
545.566	277.88
545.779	285.88
545.993	281.88
546.206	295.88
546.42	297.88
546.633	283.88
546.847	290.88
547.06	298.88
547.274	286.88
547.487	292.88
547.7	280.88
547.914	265.88
548.127	265.88
548.34	265.88
548.554	282.88
548.767	275.88
548.98	274.88
549.193	275.88
549.407	287.88
549.62	279.88
549.833	286.88
550.046	266.88
550.259	281.88
550.473	270.88
550.686	273.88
550.899	265.88
551.112	269.88
551.325	289.88
551.538	279.88
551.751	283.88
551.964	287.88
552.177	289.88
552.39	266.88
552.603	277.88
552.816	285.88
553.029	287.88
553.242	285.88
553.455	286.88
553.667	281.88
553.88	265.88
554.093	289.88
554.306	282.88
554.519	281.88
554.732	253.88
554.944	271.88
555.157	261.88
555.37	275.88
555.583	255.88
555.795	263.88
556.008	270.88
556.221	241.88
556.433	265.88
556.646	248.88
556.859	257.88
557.071	255.88
557.284	261.88
557.496	255.88
557.709	246.88
557.921	253.88
558.134	247.88
558.346	256.88
558.559	252.88
558.771	239.88
558.984	244.88
559.196	259.88
559.409	249.88
559.621	244.88
559.833	264.88
560.046	243.88
560.258	252.88
560.47	251.88
560.683	259.88
560.895	259.88
561.107	254.88
561.32	233.88
561.532	244.88
561.744	248.88
561.956	252.88
562.168	257.88
562.381	259.88
562.593	250.88
562.805	236.88
563.017	249.88
563.229	259.88
563.441	240.88
563.653	255.88
563.865	255.88
564.077	273.88
564.289	275.88
564.501	265.88
564.713	269.88
564.925	267.88
565.137	265.88
565.349	269.88
565.561	264.88
565.773	274.88
565.985	271.88
566.197	290.88
566.408	303.88
566.62	298.88
566.832	298.88
567.044	314.88
567.255	319.88
567.467	315.88
567.679	321.88
567.891	326.88
568.102	314.88
568.314	301.88
568.526	296.88
568.737	293.88
568.949	279.88
569.161	270.88
569.372	289.88
569.584	262.88
569.795	267.88
570.007	255.88
570.218	266.88
570.43	277.88
570.641	255.88
570.853	268.88
571.064	252.88
571.276	242.88
571.487	258.88
571.698	237.88
571.91	240.88
572.121	239.88
572.333	235.88
572.544	241.88
572.755	234.88
572.966	248.88
573.178	228.88
573.389	225.88
573.6	229.88
573.811	241.88
574.023	204.88
574.234	239.88
574.445	233.88
574.656	220.88
574.867	224.88
575.078	231.88
575.289	239.88
575.501	226.88
575.712	218.88
575.923	213.88
576.134	217.88
576.345	216.88
576.556	212.88
576.767	218.88
576.978	219.88
577.188	193.88
577.399	226.88
577.61	219.88
577.821	223.88
578.032	231.88
578.243	237.88
578.454	261.88
578.665	237.88
578.875	215.88
579.086	206.88
579.297	203.88
579.508	220.88
579.718	202.88
579.929	213.88
580.14	200.88
580.35	215.88
580.561	192.88
580.772	202.88
580.982	205.88
581.193	199.88
581.403	192.88
581.614	192.88
581.825	212.88
582.035	200.88
582.246	207.88
582.456	208.88
582.667	201.88
582.877	208.88
583.087	208.88
583.298	195.88
583.508	209.88
583.719	207.88
583.929	209.88
584.139	217.88
584.35	184.88
584.56	199.88
584.77	208.88
584.981	207.88
585.191	203.88
585.401	197.88
585.611	206.88
585.821	199.88
586.032	205.88
586.242	195.88
586.452	216.88
586.662	196.88
586.872	209.88
587.082	211.88
587.292	190.88
587.502	207.88
587.713	203.88
587.923	213.88
588.133	218.88
588.343	195.88
588.553	209.88
588.762	214.88
588.972	213.88
589.182	223.88
589.392	213.88
589.602	200.88
589.812	207.88
590.022	232.88
590.232	205.88
590.441	198.88
590.651	197.88
590.861	184.88
591.071	191.88
591.281	207.88
591.49	200.88
591.7	209.88
591.91	215.88
592.119	202.88
592.329	195.88
592.539	209.88
592.748	216.88
592.958	207.88
593.167	213.88
593.377	195.88
593.587	219.88
593.796	211.88
594.006	202.88
594.215	213.88
594.424	217.88
594.634	208.88
594.843	189.88
595.053	217.88
595.262	198.88
595.472	208.88
595.681	203.88
595.89	188.88
596.1	199.88
596.309	201.88
596.518	185.88
596.727	198.88
596.937	195.88
597.146	175.88
597.355	168.88
597.564	192.88
597.774	173.88
597.983	181.88
598.192	196.88
598.401	197.88
598.61	180.88
598.819	180.88
599.028	178.88
599.237	184.88
599.446	180.88
599.655	189.88
599.864	191.88
600.073	177.88
600.282	187.88
600.491	188.88
600.7	193.88
600.909	197.88
601.118	175.88
601.327	172.88
601.536	186.88
601.745	190.88
601.953	188.88
602.162	197.88
602.371	170.88
602.58	167.88
602.789	181.88
602.997	178.88
603.206	188.88
603.415	191.88
603.623	172.88
603.832	175.88
604.041	177.88
604.249	185.88
604.458	172.88
604.666	172.88
604.875	183.88
605.084	172.88
605.292	188.88
605.501	179.88
605.709	169.88
605.918	154.88
606.126	173.88
606.334	187.88
606.543	178.88
606.751	173.88
606.96	175.88
607.168	163.88
607.376	172.88
607.585	168.88
607.793	191.88
608.001	179.88
608.21	172.88
608.418	172.88
608.626	171.88
608.834	164.88
609.043	162.88
609.251	149.88
609.459	175.88
609.667	177.88
609.875	179.88
610.083	182.88
610.291	172.88
610.499	177.88
610.707	175.88
610.916	175.88
611.124	189.88
611.332	179.88
611.54	185.88
611.748	189.88
611.955	191.88
612.163	180.88
612.371	170.88
612.579	181.88
612.787	172.88
612.995	170.88
613.203	177.88
613.411	169.88
613.618	172.88
613.826	165.88
614.034	169.88
614.242	166.88
614.449	164.88
614.657	188.88
614.865	176.88
615.072	181.88
615.28	168.88
615.488	182.88
615.695	164.88
615.903	172.88
616.111	172.88
616.318	175.88
616.526	176.88
616.733	170.88
616.941	183.88
617.148	177.88
617.356	144.88
617.563	168.88
617.771	173.88
617.978	164.88
618.185	173.88
618.393	185.88
618.6	161.88
618.807	172.88
619.015	178.88
619.222	166.88
619.429	170.88
619.637	161.88
619.844	167.88
620.051	162.88
620.258	159.88
620.466	164.88
620.673	160.88
620.88	172.88
621.087	155.88
621.294	171.88
621.501	185.88
621.708	178.88
621.915	167.88
622.122	167.88
622.329	163.88
622.536	161.88
622.743	156.88
622.95	171.88
623.157	167.88
623.364	167.88
623.571	155.88
623.778	163.88
623.985	156.88
624.192	163.88
624.399	150.88
624.606	162.88
624.812	169.88
625.019	162.88
625.226	160.88
625.433	159.88
625.639	145.88
625.846	141.88
626.053	154.88
626.259	150.88
626.466	145.88
626.673	142.88
626.879	155.88
627.086	157.88
627.293	155.88
627.499	162.88
627.706	154.88
627.912	152.88
628.119	144.88
628.325	147.88
628.532	142.88
628.738	146.88
628.945	148.88
629.151	147.88
629.357	148.88
629.564	139.88
629.77	150.88
629.976	149.88
630.183	141.88
630.389	153.88
630.595	156.88
630.802	147.88
631.008	141.88
631.214	159.88
631.42	164.88
631.627	151.88
631.833	138.88
632.039	133.88
632.245	140.88
632.451	140.88
632.657	150.88
632.863	131.88
633.069	153.88
633.275	135.88
633.481	149.88
633.688	155.88
633.893	141.88
634.099	147.88
634.305	140.88
634.511	145.88
634.717	154.88
634.923	118.88
635.129	153.88
635.335	142.88
635.541	142.88
635.747	142.88
635.952	149.88
636.158	137.88
636.364	150.88
636.57	143.88
636.775	150.88
636.981	155.88
637.187	135.88
637.392	157.88
637.598	147.88
637.804	126.88
638.009	139.88
638.215	150.88
638.421	142.88
638.626	144.88
638.832	152.88
639.037	127.88
639.243	135.88
639.448	134.88
639.654	130.88
639.859	143.88
640.065	127.88
640.27	140.88
640.475	136.88
640.681	139.88
640.886	144.88
641.091	138.88
641.297	139.88
641.502	139.88
641.707	146.88
641.913	136.88
642.118	143.88
642.323	121.88
642.528	136.88
642.733	128.88
642.939	141.88
643.144	131.88
643.349	132.88
643.554	137.88
643.759	141.88
643.964	147.88
644.169	146.88
644.374	144.88
644.579	127.88
644.784	130.88
644.989	129.88
645.194	138.88
645.399	127.88
645.604	131.88
645.809	140.88
646.014	131.88
646.219	127.88
646.423	128.88
646.628	131.88
646.833	135.88
647.038	146.88
647.243	135.88
647.447	138.88
647.652	143.88
647.857	127.88
648.062	139.88
648.266	125.88
648.471	144.88
648.676	139.88
648.88	127.88
649.085	139.88
649.289	126.88
649.494	137.88
649.698	153.88
649.903	140.88
650.107	129.88
650.312	129.88
650.516	126.88
650.721	128.88
650.925	138.88
651.13	135.88
651.334	123.88
651.539	131.88
651.743	127.88
651.947	128.88
652.152	131.88
652.356	117.88
652.56	124.88
652.764	137.88
652.969	127.88
653.173	120.88
653.377	117.88
653.581	136.88
653.785	123.88
653.99	124.88
654.194	139.88
654.398	132.88
654.602	123.88
654.806	129.88
655.01	120.88
655.214	126.88
655.418	129.88
655.622	120.88
655.826	128.88
656.03	127.88
656.234	131.88
656.438	140.88
656.642	124.88
656.846	148.88
657.049	132.88
657.253	144.88
657.457	113.88
657.661	112.88
657.865	110.88
658.068	120.88
658.272	94.88
658.476	95.88
658.68	98.88
658.883	88.88
659.087	100.88
659.291	108.88
659.494	98.88
659.698	110.88
659.901	98.88
660.105	93.88
660.309	99.88
660.512	100.88
660.716	87.88
660.919	88.88
661.123	81.88
661.326	93.88
661.53	99.88
661.733	99.88
661.936	101.88
662.14	102.88
662.343	100.88
662.546	85.88
662.75	84.88
662.953	87.88
663.156	96.88
663.36	107.88
663.563	91.88
663.766	80.88
663.969	97.88
664.173	89.88
664.376	80.88
664.579	84.88
664.782	84.88
664.985	77.88
665.188	82.88
665.391	79.88
665.594	78.88
665.797	84.88
666	86.88
666.203	93.88
666.406	91.88
666.609	84.88
666.812	87.88
667.015	89.88
667.218	97.88
667.421	80.88
667.624	82.88
667.827	89.88
668.03	86.88
668.232	81.88
668.435	87.88
668.638	88.88
668.841	88.88
669.043	75.88
669.246	79.88
669.449	75.88
669.651	81.88
669.854	87.88
670.057	82.88
670.259	83.88
670.462	88.88
670.665	81.88
670.867	84.88
671.07	84.88
671.272	98.88
671.475	93.88
671.677	83.88
671.88	96.88
672.082	81.88
672.284	71.88
672.487	87.88
672.689	99.88
672.892	72.88
