Data from 1961.PennyLincolnUp.Lamp.En5.5.200Scan.071719.P1._HRD10591_13-47-17-057.txt Node
Date: Thu Jul 18 13:47:17 EDT 2019
User: cochatt
Spectrometer: HR+D1059
Trigger mode: 1
Integration Time (sec): 1.000000E-1
Scans to average: 1
Electric dark correction enabled: true
Nonlinearity correction enabled: false
Boxcar width: 0
XAxis mode: Wavelengths
Number of Pixels in Spectrum: 2048
>>>>>Begin Spectral Data<<<<<
223.165	-15.94
223.4	-15.94
223.635	-15.94
223.869	-26.94
224.104	-15.94
224.338	-11.94
224.573	-6.94
224.808	-9.94
225.042	-10.94
225.277	-12.94
225.511	-21.94
225.746	16.06
225.98	1.06
226.215	1.06
226.449	15.06
226.683	35.06
226.918	25.06
227.152	40.06
227.387	37.06
227.621	50.06
227.856	40.06
228.09	52.06
228.324	50.06
228.559	53.06
228.793	55.06
229.027	103.06
229.262	99.06
229.496	116.06
229.73	119.06
229.964	131.06
230.199	116.06
230.433	101.06
230.667	108.06
230.901	108.06
231.136	105.06
231.37	96.06
231.604	86.06
231.838	106.06
232.072	108.06
232.306	95.06
232.541	95.06
232.775	100.06
233.009	102.06
233.243	94.06
233.477	106.06
233.711	126.06
233.945	109.06
234.179	98.06
234.413	108.06
234.647	107.06
234.881	118.06
235.115	105.06
235.349	97.06
235.583	94.06
235.817	111.06
236.051	102.06
236.285	116.06
236.519	112.06
236.753	119.06
236.987	113.06
237.221	150.06
237.455	179.06
237.689	155.06
237.922	150.06
238.156	115.06
238.39	119.06
238.624	119.06
238.858	123.06
239.091	124.06
239.325	105.06
239.559	122.06
239.793	96.06
240.027	128.06
240.26	123.06
240.494	122.06
240.728	129.06
240.961	134.06
241.195	118.06
241.429	116.06
241.662	125.06
241.896	116.06
242.13	115.06
242.363	125.06
242.597	108.06
242.83	108.06
243.064	115.06
243.298	114.06
243.531	102.06
243.765	121.06
243.998	126.06
244.232	111.06
244.465	124.06
244.699	122.06
244.932	112.06
245.166	127.06
245.399	136.06
245.633	131.06
245.866	123.06
246.099	100.06
246.333	125.06
246.566	130.06
246.8	127.06
247.033	142.06
247.266	130.06
247.5	136.06
247.733	149.06
247.966	148.06
248.2	145.06
248.433	137.06
248.666	147.06
248.899	136.06
249.133	165.06
249.366	162.06
249.599	177.06
249.832	133.06
250.066	144.06
250.299	146.06
250.532	155.06
250.765	159.06
250.998	170.06
251.231	178.06
251.465	178.06
251.698	166.06
251.931	166.06
252.164	164.06
252.397	165.06
252.63	161.06
252.863	178.06
253.096	164.06
253.329	188.06
253.562	178.06
253.795	160.06
254.028	171.06
254.261	189.06
254.494	171.06
254.727	194.06
254.96	213.06
255.193	203.06
255.426	201.06
255.659	187.06
255.892	191.06
256.124	195.06
256.357	201.06
256.59	186.06
256.823	164.06
257.056	174.06
257.289	165.06
257.521	180.06
257.754	174.06
257.987	168.06
258.22	173.06
258.452	165.06
258.685	180.06
258.918	167.06
259.151	168.06
259.383	170.06
259.616	174.06
259.849	187.06
260.081	180.06
260.314	208.06
260.547	206.06
260.779	190.06
261.012	186.06
261.244	188.06
261.477	188.06
261.71	175.06
261.942	199.06
262.175	181.06
262.407	185.06
262.64	186.06
262.872	185.06
263.105	184.06
263.337	181.06
263.57	187.06
263.802	177.06
264.035	180.06
264.267	183.06
264.499	162.06
264.732	179.06
264.964	160.06
265.197	174.06
265.429	169.06
265.661	171.06
265.894	167.06
266.126	182.06
266.358	149.06
266.591	161.06
266.823	152.06
267.055	186.06
267.287	186.06
267.52	184.06
267.752	193.06
267.984	180.06
268.216	171.06
268.448	205.06
268.681	179.06
268.913	193.06
269.145	218.06
269.377	205.06
269.609	207.06
269.841	214.06
270.073	216.06
270.306	228.06
270.538	240.06
270.77	250.06
271.002	223.06
271.234	240.06
271.466	235.06
271.698	254.06
271.93	270.06
272.162	245.06
272.394	259.06
272.626	246.06
272.858	223.06
273.09	211.06
273.322	222.06
273.553	224.06
273.785	207.06
274.017	226.06
274.249	208.06
274.481	207.06
274.713	223.06
274.945	212.06
275.176	216.06
275.408	217.06
275.64	204.06
275.872	197.06
276.104	196.06
276.335	211.06
276.567	202.06
276.799	228.06
277.031	230.06
277.262	249.06
277.494	234.06
277.726	240.06
277.957	230.06
278.189	226.06
278.421	227.06
278.652	230.06
278.884	197.06
279.115	203.06
279.347	215.06
279.579	213.06
279.81	224.06
280.042	194.06
280.273	208.06
280.505	208.06
280.736	214.06
280.968	208.06
281.199	202.06
281.431	205.06
281.662	199.06
281.894	206.06
282.125	217.06
282.356	229.06
282.588	263.06
282.819	234.06
283.051	214.06
283.282	212.06
283.513	196.06
283.745	210.06
283.976	214.06
284.207	219.06
284.439	211.06
284.67	240.06
284.901	230.06
285.132	225.06
285.364	210.06
285.595	215.06
285.826	223.06
286.057	207.06
286.288	209.06
286.52	238.06
286.751	212.06
286.982	221.06
287.213	208.06
287.444	231.06
287.675	226.06
287.906	246.06
288.138	234.06
288.369	238.06
288.6	224.06
288.831	214.06
289.062	227.06
289.293	211.06
289.524	218.06
289.755	210.06
289.986	208.06
290.217	225.06
290.448	205.06
290.679	230.06
290.91	229.06
291.141	215.06
291.371	211.06
291.602	214.06
291.833	213.06
292.064	223.06
292.295	227.06
292.526	212.06
292.757	226.06
292.987	222.06
293.218	220.06
293.449	223.06
293.68	232.06
293.91	220.06
294.141	228.06
294.372	232.06
294.603	244.06
294.833	243.06
295.064	244.06
295.295	216.06
295.525	229.06
295.756	228.06
295.987	233.06
296.217	258.06
296.448	272.06
296.679	242.06
296.909	231.06
297.14	238.06
297.37	226.06
297.601	220.06
297.831	247.06
298.062	238.06
298.292	223.06
298.523	226.06
298.753	220.06
298.984	219.06
299.214	215.06
299.445	222.06
299.675	247.06
299.905	246.06
300.136	233.06
300.366	234.06
300.597	235.06
300.827	234.06
301.057	249.06
301.288	258.06
301.518	247.06
301.748	256.06
301.979	256.06
302.209	249.06
302.439	251.06
302.669	246.06
302.9	251.06
303.13	239.06
303.36	247.06
303.59	258.06
303.82	265.06
304.051	276.06
304.281	242.06
304.511	255.06
304.741	256.06
304.971	250.06
305.201	240.06
305.431	233.06
305.661	252.06
305.891	256.06
306.121	246.06
306.352	246.06
306.582	247.06
306.812	264.06
307.042	256.06
307.272	254.06
307.502	267.06
307.731	267.06
307.961	274.06
308.191	263.06
308.421	254.06
308.651	264.06
308.881	263.06
309.111	264.06
309.341	276.06
309.571	267.06
309.8	287.06
310.03	299.06
310.26	285.06
310.49	300.06
310.72	322.06
310.949	319.06
311.179	329.06
311.409	312.06
311.639	290.06
311.868	304.06
312.098	313.06
312.328	297.06
312.557	323.06
312.787	330.06
313.017	311.06
313.246	318.06
313.476	288.06
313.706	303.06
313.935	290.06
314.165	299.06
314.394	320.06
314.624	322.06
314.853	330.06
315.083	303.06
315.312	318.06
315.542	293.06
315.771	295.06
316.001	287.06
316.23	302.06
316.46	281.06
316.689	294.06
316.919	288.06
317.148	318.06
317.377	291.06
317.607	289.06
317.836	293.06
318.065	298.06
318.295	315.06
318.524	288.06
318.753	294.06
318.983	286.06
319.212	290.06
319.441	305.06
319.67	302.06
319.9	297.06
320.129	295.06
320.358	300.06
320.587	298.06
320.816	315.06
321.046	336.06
321.275	311.06
321.504	302.06
321.733	322.06
321.962	334.06
322.191	349.06
322.42	354.06
322.649	380.06
322.878	359.06
323.108	382.06
323.337	405.06
323.566	430.06
323.795	463.06
324.024	497.06
324.253	607.06
324.482	930.06
324.71	1428.06
324.939	1974.06
325.168	1671.06
325.397	881.06
325.626	594.06
325.855	484.06
326.084	436.06
326.313	440.06
326.542	428.06
326.77	467.06
326.999	575.06
327.228	802.06
327.457	1208.06
327.686	1485.06
327.914	995.06
328.143	655.06
328.372	560.06
328.6	520.06
328.829	484.06
329.058	506.06
329.287	490.06
329.515	466.06
329.744	435.06
329.972	422.06
330.201	467.06
330.43	510.06
330.658	502.06
330.887	530.06
331.115	496.06
331.344	439.06
331.572	396.06
331.801	392.06
332.03	411.06
332.258	401.06
332.486	367.06
332.715	356.06
332.943	353.06
333.172	358.06
333.4	352.06
333.629	356.06
333.857	375.06
334.085	402.06
334.314	408.06
334.542	432.06
334.771	443.06
334.999	396.06
335.227	373.06
335.455	371.06
335.684	366.06
335.912	359.06
336.14	356.06
336.369	352.06
336.597	362.06
336.825	363.06
337.053	348.06
337.281	339.06
337.51	348.06
337.738	359.06
337.966	331.06
338.194	354.06
338.422	356.06
338.65	330.06
338.878	330.06
339.106	314.06
339.334	345.06
339.562	335.06
339.79	327.06
340.018	336.06
340.246	335.06
340.474	353.06
340.702	320.06
340.93	338.06
341.158	334.06
341.386	347.06
341.614	337.06
341.842	330.06
342.07	336.06
342.298	315.06
342.526	314.06
342.754	302.06
342.981	311.06
343.209	327.06
343.437	339.06
343.665	338.06
343.893	331.06
344.12	331.06
344.348	329.06
344.576	340.06
344.804	332.06
345.031	350.06
345.259	361.06
345.487	364.06
345.714	323.06
345.942	337.06
346.17	315.06
346.397	342.06
346.625	332.06
346.853	333.06
347.08	330.06
347.308	323.06
347.535	329.06
347.763	336.06
347.99	341.06
348.218	339.06
348.445	366.06
348.673	340.06
348.9	332.06
349.128	338.06
349.355	323.06
349.583	325.06
349.81	306.06
350.037	319.06
350.265	309.06
350.492	313.06
350.72	324.06
350.947	339.06
351.174	312.06
351.402	354.06
351.629	347.06
351.856	361.06
352.083	339.06
352.311	342.06
352.538	374.06
352.765	344.06
352.992	354.06
353.22	332.06
353.447	328.06
353.674	323.06
353.901	314.06
354.128	308.06
354.355	302.06
354.583	294.06
354.81	288.06
355.037	304.06
355.264	291.06
355.491	314.06
355.718	294.06
355.945	318.06
356.172	281.06
356.399	291.06
356.626	303.06
356.853	294.06
357.08	326.06
357.307	311.06
357.534	306.06
357.761	307.06
357.988	316.06
358.215	314.06
358.441	321.06
358.668	297.06
358.895	307.06
359.122	313.06
359.349	322.06
359.576	338.06
359.802	328.06
360.029	375.06
360.256	390.06
360.483	368.06
360.709	343.06
360.936	355.06
361.163	342.06
361.39	320.06
361.616	340.06
361.843	335.06
362.07	313.06
362.296	338.06
362.523	324.06
362.749	329.06
362.976	332.06
363.203	323.06
363.429	307.06
363.656	312.06
363.882	329.06
364.109	320.06
364.335	319.06
364.562	309.06
364.788	304.06
365.015	323.06
365.241	302.06
365.468	321.06
365.694	311.06
365.92	322.06
366.147	318.06
366.373	324.06
366.599	304.06
366.826	304.06
367.052	294.06
367.278	331.06
367.505	312.06
367.731	329.06
367.957	325.06
368.184	307.06
368.41	306.06
368.636	331.06
368.862	330.06
369.089	318.06
369.315	320.06
369.541	297.06
369.767	307.06
369.993	319.06
370.219	328.06
370.445	322.06
370.672	326.06
370.898	292.06
371.124	306.06
371.35	320.06
371.576	315.06
371.802	284.06
372.028	303.06
372.254	321.06
372.48	318.06
372.706	318.06
372.932	315.06
373.158	299.06
373.384	303.06
373.61	313.06
373.835	307.06
374.061	310.06
374.287	326.06
374.513	308.06
374.739	316.06
374.965	298.06
375.191	315.06
375.416	312.06
375.642	304.06
375.868	318.06
376.094	324.06
376.319	315.06
376.545	295.06
376.771	309.06
376.997	286.06
377.222	300.06
377.448	297.06
377.674	321.06
377.899	289.06
378.125	295.06
378.35	311.06
378.576	305.06
378.802	305.06
379.027	307.06
379.253	296.06
379.478	308.06
379.704	282.06
379.929	305.06
380.155	282.06
380.38	318.06
380.606	317.06
380.831	304.06
381.057	309.06
381.282	308.06
381.507	291.06
381.733	307.06
381.958	311.06
382.184	315.06
382.409	323.06
382.634	312.06
382.86	329.06
383.085	315.06
383.31	316.06
383.535	304.06
383.761	318.06
383.986	318.06
384.211	326.06
384.436	331.06
384.662	312.06
384.887	331.06
385.112	321.06
385.337	313.06
385.562	313.06
385.787	317.06
386.013	340.06
386.238	344.06
386.463	336.06
386.688	350.06
386.913	343.06
387.138	341.06
387.363	320.06
387.588	328.06
387.813	338.06
388.038	320.06
388.263	326.06
388.488	346.06
388.713	328.06
388.938	323.06
389.163	338.06
389.387	323.06
389.612	334.06
389.837	333.06
390.062	328.06
390.287	327.06
390.512	322.06
390.736	322.06
390.961	325.06
391.186	338.06
391.411	323.06
391.636	332.06
391.86	350.06
392.085	337.06
392.31	335.06
392.534	346.06
392.759	329.06
392.984	328.06
393.208	335.06
393.433	336.06
393.658	336.06
393.882	336.06
394.107	346.06
394.331	340.06
394.556	310.06
394.78	337.06
395.005	338.06
395.229	325.06
395.454	352.06
395.678	370.06
395.903	370.06
396.127	360.06
396.352	360.06
396.576	338.06
396.801	352.06
397.025	353.06
397.249	354.06
397.474	371.06
397.698	348.06
397.922	368.06
398.147	369.06
398.371	369.06
398.595	374.06
398.82	359.06
399.044	368.06
399.268	373.06
399.492	382.06
399.717	416.06
399.941	423.06
400.165	457.06
400.389	470.06
400.613	438.06
400.837	411.06
401.062	387.06
401.286	403.06
401.51	381.06
401.734	394.06
401.958	385.06
402.182	383.06
402.406	376.06
402.63	379.06
402.854	401.06
403.078	386.06
403.302	383.06
403.526	390.06
403.75	381.06
403.974	391.06
404.198	387.06
404.422	381.06
404.645	400.06
404.869	397.06
405.093	418.06
405.317	461.06
405.541	465.06
405.765	440.06
405.988	417.06
406.212	442.06
406.436	441.06
406.66	464.06
406.883	430.06
407.107	437.06
407.331	475.06
407.555	508.06
407.778	507.06
408.002	466.06
408.226	460.06
408.449	452.06
408.673	423.06
408.896	463.06
409.12	479.06
409.344	459.06
409.567	402.06
409.791	404.06
410.014	394.06
410.238	396.06
410.461	406.06
410.685	402.06
410.908	397.06
411.132	454.06
411.355	456.06
411.578	433.06
411.802	387.06
412.025	406.06
412.249	390.06
412.472	434.06
412.695	432.06
412.919	437.06
413.142	404.06
413.365	396.06
413.589	404.06
413.812	368.06
414.035	357.06
414.258	368.06
414.482	368.06
414.705	374.06
414.928	376.06
415.151	370.06
415.374	384.06
415.597	402.06
415.821	354.06
416.044	369.06
416.267	366.06
416.49	374.06
416.713	367.06
416.936	369.06
417.159	357.06
417.382	378.06
417.605	384.06
417.828	382.06
418.051	411.06
418.274	400.06
418.497	374.06
418.72	403.06
418.943	374.06
419.166	374.06
419.389	416.06
419.611	394.06
419.834	404.06
420.057	402.06
420.28	388.06
420.503	390.06
420.726	397.06
420.948	411.06
421.171	444.06
421.394	440.06
421.617	418.06
421.839	394.06
422.062	391.06
422.285	408.06
422.507	467.06
422.73	518.06
422.953	478.06
423.175	420.06
423.398	408.06
423.621	412.06
423.843	426.06
424.066	410.06
424.288	422.06
424.511	449.06
424.733	470.06
424.956	555.06
425.178	510.06
425.401	531.06
425.623	549.06
425.846	478.06
426.068	422.06
426.291	432.06
426.513	443.06
426.735	456.06
426.958	477.06
427.18	564.06
427.402	638.06
427.625	702.06
427.847	632.06
428.069	548.06
428.292	477.06
428.514	439.06
428.736	434.06
428.958	424.06
429.181	417.06
429.403	416.06
429.625	423.06
429.847	424.06
430.069	478.06
430.292	477.06
430.514	418.06
430.736	404.06
430.958	397.06
431.18	396.06
431.402	386.06
431.624	382.06
431.846	371.06
432.068	374.06
432.29	378.06
432.512	366.06
432.734	394.06
432.956	391.06
433.178	403.06
433.4	381.06
433.622	386.06
433.844	370.06
434.066	360.06
434.287	383.06
434.509	390.06
434.731	382.06
434.953	387.06
435.175	406.06
435.397	432.06
435.618	422.06
435.84	456.06
436.062	550.06
436.284	592.06
436.505	488.06
436.727	449.06
436.949	407.06
437.17	396.06
437.392	426.06
437.614	408.06
437.835	448.06
438.057	542.06
438.278	609.06
438.5	593.06
438.721	630.06
438.943	622.06
439.165	495.06
439.386	474.06
439.608	456.06
439.829	464.06
440.05	477.06
440.272	513.06
440.493	506.06
440.715	450.06
440.936	406.06
441.158	427.06
441.379	393.06
441.6	418.06
441.822	424.06
442.043	482.06
442.264	543.06
442.486	546.06
442.707	486.06
442.928	449.06
443.149	448.06
443.371	470.06
443.592	519.06
443.813	582.06
444.034	622.06
444.255	495.06
444.476	449.06
444.698	429.06
444.919	434.06
445.14	517.06
445.361	479.06
445.582	471.06
445.803	519.06
446.024	610.06
446.245	591.06
446.466	544.06
446.687	461.06
446.908	446.06
447.129	433.06
447.35	425.06
447.571	407.06
447.792	405.06
448.013	419.06
448.234	436.06
448.455	475.06
448.675	579.06
448.896	625.06
449.117	548.06
449.338	507.06
449.559	606.06
449.779	686.06
450	568.06
450.221	460.06
450.442	420.06
450.662	415.06
450.883	405.06
451.104	422.06
451.324	408.06
451.545	394.06
451.766	380.06
451.986	379.06
452.207	358.06
452.428	370.06
452.648	359.06
452.869	372.06
453.089	364.06
453.31	375.06
453.53	382.06
453.751	366.06
453.971	370.06
454.192	385.06
454.412	388.06
454.633	402.06
454.853	351.06
455.073	376.06
455.294	376.06
455.514	444.06
455.734	430.06
455.955	392.06
456.175	366.06
456.395	345.06
456.616	331.06
456.836	361.06
457.056	361.06
457.276	357.06
457.497	341.06
457.717	351.06
457.937	355.06
458.157	372.06
458.377	354.06
458.598	382.06
458.818	438.06
459.038	496.06
459.258	504.06
459.478	429.06
459.698	398.06
459.918	388.06
460.138	375.06
460.358	374.06
460.578	386.06
460.798	372.06
461.018	371.06
461.238	386.06
461.458	368.06
461.678	352.06
461.898	382.06
462.118	382.06
462.338	378.06
462.558	394.06
462.777	390.06
462.997	397.06
463.217	414.06
463.437	396.06
463.657	403.06
463.876	400.06
464.096	403.06
464.316	398.06
464.536	411.06
464.755	419.06
464.975	417.06
465.195	474.06
465.414	562.06
465.634	477.06
465.854	416.06
466.073	392.06
466.293	391.06
466.512	370.06
466.732	378.06
466.951	373.06
467.171	369.06
467.391	376.06
467.61	391.06
467.829	381.06
468.049	399.06
468.268	392.06
468.488	378.06
468.707	349.06
468.927	357.06
469.146	373.06
469.365	362.06
469.585	375.06
469.804	374.06
470.023	390.06
470.243	384.06
470.462	390.06
470.681	404.06
470.901	401.06
471.12	376.06
471.339	402.06
471.558	379.06
471.777	374.06
471.997	391.06
472.216	390.06
472.435	424.06
472.654	419.06
472.873	391.06
473.092	370.06
473.311	359.06
473.53	372.06
473.749	384.06
473.968	421.06
474.187	503.06
474.406	510.06
474.625	430.06
474.844	401.06
475.063	409.06
475.282	379.06
475.501	386.06
475.72	386.06
475.939	379.06
476.158	377.06
476.377	384.06
476.596	398.06
476.814	387.06
477.033	399.06
477.252	384.06
477.471	401.06
477.69	405.06
477.908	402.06
478.127	416.06
478.346	414.06
478.564	430.06
478.783	420.06
479.002	434.06
479.22	438.06
479.439	442.06
479.658	446.06
479.876	464.06
480.095	471.06
480.313	480.06
480.532	447.06
480.751	434.06
480.969	478.06
481.188	551.06
481.406	564.06
481.624	513.06
481.843	446.06
482.061	463.06
482.28	448.06
482.498	465.06
482.717	442.06
482.935	434.06
483.153	443.06
483.372	448.06
483.59	465.06
483.808	439.06
484.027	425.06
484.245	459.06
484.463	455.06
484.681	442.06
484.9	448.06
485.118	439.06
485.336	440.06
485.554	468.06
485.772	466.06
485.99	451.06
486.209	470.06
486.427	464.06
486.645	460.06
486.863	481.06
487.081	481.06
487.299	481.06
487.517	493.06
487.735	487.06
487.953	486.06
488.171	458.06
488.389	482.06
488.607	490.06
488.825	477.06
489.043	494.06
489.261	478.06
489.479	481.06
489.696	507.06
489.914	474.06
490.132	510.06
490.35	507.06
490.568	479.06
490.786	498.06
491.003	518.06
491.221	504.06
491.439	534.06
491.657	544.06
491.874	533.06
492.092	539.06
492.31	539.06
492.527	539.06
492.745	556.06
492.963	543.06
493.18	534.06
493.398	574.06
493.615	559.06
493.833	568.06
494.05	563.06
494.268	556.06
494.485	579.06
494.703	547.06
494.92	542.06
495.138	573.06
495.355	563.06
495.573	557.06
495.79	569.06
496.008	562.06
496.225	574.06
496.442	574.06
496.66	567.06
496.877	555.06
497.094	572.06
497.312	578.06
497.529	576.06
497.746	588.06
497.963	602.06
498.181	598.06
498.398	601.06
498.615	619.06
498.832	652.06
499.049	636.06
499.267	631.06
499.484	650.06
499.701	666.06
499.918	687.06
500.135	691.06
500.352	714.06
500.569	715.06
500.786	715.06
501.003	738.06
501.22	717.06
501.437	702.06
501.654	707.06
501.871	676.06
502.088	702.06
502.305	663.06
502.522	625.06
502.739	630.06
502.956	618.06
503.172	593.06
503.389	588.06
503.606	585.06
503.823	582.06
504.04	595.06
504.256	588.06
504.473	586.06
504.69	575.06
504.907	584.06
505.123	560.06
505.34	535.06
505.557	546.06
505.773	558.06
505.99	547.06
506.207	558.06
506.423	540.06
506.64	549.06
506.856	564.06
507.073	532.06
507.289	538.06
507.506	537.06
507.722	562.06
507.939	586.06
508.155	510.06
508.372	532.06
508.588	525.06
508.805	545.06
509.021	522.06
509.238	548.06
509.454	546.06
509.67	519.06
509.887	514.06
510.103	524.06
510.319	564.06
510.536	644.06
510.752	1100.06
510.968	891.06
511.184	550.06
511.401	538.06
511.617	527.06
511.833	500.06
512.049	509.06
512.265	506.06
512.481	497.06
512.698	500.06
512.914	503.06
513.13	489.06
513.346	511.06
513.562	473.06
513.778	509.06
513.994	502.06
514.21	548.06
514.426	548.06
514.642	591.06
514.858	632.06
515.074	659.06
515.29	806.06
515.506	1180.06
515.721	965.06
515.937	675.06
516.153	603.06
516.369	539.06
516.585	533.06
516.801	536.06
517.016	533.06
517.232	523.06
517.448	528.06
517.664	525.06
517.879	518.06
518.095	496.06
518.311	519.06
518.527	523.06
518.742	497.06
518.958	518.06
519.173	535.06
519.389	500.06
519.605	500.06
519.82	506.06
520.036	533.06
520.251	546.06
520.467	576.06
520.682	578.06
520.898	600.06
521.113	592.06
521.329	651.06
521.544	745.06
521.76	950.06
521.975	1571.06
522.19	1542.06
522.406	863.06
522.621	587.06
522.836	547.06
523.052	529.06
523.267	516.06
523.482	500.06
523.698	498.06
523.913	476.06
524.128	473.06
524.343	472.06
524.559	457.06
524.774	446.06
524.989	437.06
525.204	444.06
525.419	441.06
525.634	442.06
525.849	441.06
526.064	453.06
526.28	425.06
526.495	435.06
526.71	423.06
526.925	419.06
527.14	405.06
527.355	406.06
527.57	430.06
527.785	429.06
527.999	411.06
528.214	443.06
528.429	417.06
528.644	414.06
528.859	420.06
529.074	425.06
529.289	450.06
529.503	529.06
529.718	505.06
529.933	444.06
530.148	440.06
530.363	420.06
530.577	408.06
530.792	412.06
531.007	405.06
531.221	406.06
531.436	403.06
531.651	392.06
531.865	417.06
532.08	400.06
532.295	400.06
532.509	380.06
532.724	385.06
532.938	392.06
533.153	391.06
533.367	392.06
533.582	390.06
533.796	391.06
534.011	397.06
534.225	383.06
534.44	390.06
534.654	389.06
534.868	393.06
535.083	358.06
535.297	374.06
535.511	404.06
535.726	391.06
535.94	407.06
536.154	401.06
536.369	376.06
536.583	396.06
536.797	395.06
537.011	386.06
537.225	369.06
537.44	360.06
537.654	374.06
537.868	380.06
538.082	386.06
538.296	364.06
538.51	388.06
538.724	389.06
538.938	384.06
539.153	393.06
539.367	384.06
539.581	381.06
539.795	382.06
540.009	383.06
540.222	363.06
540.436	372.06
540.65	404.06
540.864	382.06
541.078	377.06
541.292	380.06
541.506	380.06
541.72	373.06
541.934	362.06
542.147	384.06
542.361	363.06
542.575	364.06
542.789	379.06
543.002	376.06
543.216	353.06
543.43	384.06
543.644	382.06
543.857	371.06
544.071	380.06
544.285	379.06
544.498	368.06
544.712	374.06
544.925	367.06
545.139	366.06
545.352	367.06
545.566	358.06
545.779	378.06
545.993	368.06
546.206	370.06
546.42	362.06
546.633	368.06
546.847	361.06
547.06	360.06
547.274	354.06
547.487	359.06
547.7	350.06
547.914	348.06
548.127	363.06
548.34	371.06
548.554	352.06
548.767	357.06
548.98	366.06
549.193	368.06
549.407	348.06
549.62	335.06
549.833	344.06
550.046	340.06
550.259	350.06
550.473	334.06
550.686	344.06
550.899	351.06
551.112	351.06
551.325	338.06
551.538	334.06
551.751	344.06
551.964	341.06
552.177	353.06
552.39	322.06
552.603	358.06
552.816	352.06
553.029	346.06
553.242	354.06
553.455	335.06
553.667	385.06
553.88	378.06
554.093	369.06
554.306	355.06
554.519	371.06
554.732	346.06
554.944	342.06
555.157	346.06
555.37	347.06
555.583	339.06
555.795	341.06
556.008	343.06
556.221	339.06
556.433	336.06
556.646	311.06
556.859	332.06
557.071	328.06
557.284	341.06
557.496	332.06
557.709	339.06
557.921	328.06
558.134	320.06
558.346	318.06
558.559	326.06
558.771	326.06
558.984	313.06
559.196	335.06
559.409	321.06
559.621	325.06
559.833	328.06
560.046	338.06
560.258	327.06
560.47	300.06
560.683	322.06
560.895	334.06
561.107	319.06
561.32	319.06
561.532	314.06
561.744	313.06
561.956	313.06
562.168	326.06
562.381	313.06
562.593	327.06
562.805	327.06
563.017	331.06
563.229	315.06
563.441	328.06
563.653	312.06
563.865	330.06
564.077	310.06
564.289	313.06
564.501	326.06
564.713	331.06
564.925	355.06
565.137	345.06
565.349	333.06
565.561	338.06
565.773	336.06
565.985	338.06
566.197	339.06
566.408	337.06
566.62	346.06
566.832	359.06
567.044	342.06
567.255	351.06
567.467	355.06
567.679	367.06
567.891	386.06
568.102	357.06
568.314	352.06
568.526	343.06
568.737	337.06
568.949	325.06
569.161	328.06
569.372	340.06
569.584	323.06
569.795	320.06
570.007	318.06
570.218	383.06
570.43	348.06
570.641	324.06
570.853	312.06
571.064	307.06
571.276	322.06
571.487	311.06
571.698	290.06
571.91	301.06
572.121	291.06
572.333	306.06
572.544	299.06
572.755	289.06
572.966	286.06
573.178	284.06
573.389	275.06
573.6	278.06
573.811	292.06
574.023	284.06
574.234	288.06
574.445	284.06
574.656	285.06
574.867	274.06
575.078	282.06
575.289	286.06
575.501	287.06
575.712	274.06
575.923	267.06
576.134	286.06
576.345	281.06
576.556	276.06
576.767	278.06
576.978	282.06
577.188	276.06
577.399	281.06
577.61	272.06
577.821	262.06
578.032	275.06
578.243	316.06
578.454	519.06
578.665	378.06
578.875	287.06
579.086	265.06
579.297	265.06
579.508	263.06
579.718	266.06
579.929	263.06
580.14	262.06
580.35	260.06
580.561	265.06
580.772	259.06
580.982	247.06
581.193	253.06
581.403	251.06
581.614	252.06
581.825	246.06
582.035	244.06
582.246	237.06
582.456	245.06
582.667	252.06
582.877	247.06
583.087	247.06
583.298	259.06
583.508	265.06
583.719	250.06
583.929	253.06
584.139	248.06
584.35	253.06
584.56	246.06
584.77	251.06
584.981	264.06
585.191	254.06
585.401	260.06
585.611	263.06
585.821	258.06
586.032	262.06
586.242	242.06
586.452	238.06
586.662	234.06
586.872	252.06
587.082	247.06
587.292	242.06
587.502	249.06
587.713	237.06
587.923	234.06
588.133	237.06
588.343	264.06
588.553	225.06
588.762	252.06
588.972	238.06
589.182	235.06
589.392	244.06
589.602	225.06
589.812	241.06
590.022	249.06
590.232	230.06
590.441	245.06
590.651	252.06
590.861	234.06
591.071	241.06
591.281	253.06
591.49	235.06
591.7	257.06
591.91	252.06
592.119	251.06
592.329	229.06
592.539	249.06
592.748	260.06
592.958	267.06
593.167	254.06
593.377	253.06
593.587	259.06
593.796	248.06
594.006	248.06
594.215	236.06
594.424	240.06
594.634	244.06
594.843	246.06
595.053	261.06
595.262	247.06
595.472	244.06
595.681	234.06
595.89	236.06
596.1	234.06
596.309	238.06
596.518	212.06
596.727	240.06
596.937	228.06
597.146	238.06
597.355	226.06
597.564	219.06
597.774	217.06
597.983	219.06
598.192	221.06
598.401	226.06
598.61	218.06
598.819	241.06
599.028	229.06
599.237	219.06
599.446	204.06
599.655	225.06
599.864	219.06
600.073	216.06
600.282	216.06
600.491	212.06
600.7	214.06
600.909	226.06
601.118	208.06
601.327	216.06
601.536	200.06
601.745	206.06
601.953	208.06
602.162	223.06
602.371	214.06
602.58	205.06
602.789	210.06
602.997	220.06
603.206	236.06
603.415	212.06
603.623	210.06
603.832	199.06
604.041	187.06
604.249	201.06
604.458	215.06
604.666	201.06
604.875	223.06
605.084	216.06
605.292	201.06
605.501	200.06
605.709	204.06
605.918	199.06
606.126	208.06
606.334	196.06
606.543	201.06
606.751	204.06
606.96	216.06
607.168	188.06
607.376	201.06
607.585	218.06
607.793	184.06
608.001	214.06
608.21	188.06
608.418	208.06
608.626	202.06
608.834	216.06
609.043	203.06
609.251	204.06
609.459	192.06
609.667	203.06
609.875	212.06
610.083	215.06
610.291	197.06
610.499	184.06
610.707	205.06
610.916	203.06
611.124	219.06
611.332	193.06
611.54	208.06
611.748	195.06
611.955	203.06
612.163	199.06
612.371	217.06
612.579	200.06
612.787	198.06
612.995	218.06
613.203	206.06
613.411	191.06
613.618	219.06
613.826	184.06
614.034	192.06
614.242	186.06
614.449	172.06
614.657	204.06
614.865	195.06
615.072	212.06
615.28	198.06
615.488	192.06
615.695	183.06
615.903	203.06
616.111	205.06
616.318	192.06
616.526	198.06
616.733	188.06
616.941	199.06
617.148	193.06
617.356	184.06
617.563	188.06
617.771	187.06
617.978	184.06
618.185	189.06
618.393	178.06
618.6	192.06
618.807	200.06
619.015	204.06
619.222	208.06
619.429	195.06
619.637	192.06
619.844	180.06
620.051	195.06
620.258	172.06
620.466	183.06
620.673	202.06
620.88	181.06
621.087	179.06
621.294	195.06
621.501	198.06
621.708	201.06
621.915	194.06
622.122	185.06
622.329	198.06
622.536	183.06
622.743	179.06
622.95	195.06
623.157	182.06
623.364	187.06
623.571	174.06
623.778	187.06
623.985	171.06
624.192	179.06
624.399	170.06
624.606	198.06
624.812	178.06
625.019	178.06
625.226	165.06
625.433	178.06
625.639	186.06
625.846	172.06
626.053	188.06
626.259	178.06
626.466	169.06
626.673	169.06
626.879	180.06
627.086	170.06
627.293	174.06
627.499	170.06
627.706	185.06
627.912	182.06
628.119	164.06
628.325	171.06
628.532	175.06
628.738	171.06
628.945	174.06
629.151	161.06
629.357	163.06
629.564	157.06
629.77	157.06
629.976	163.06
630.183	168.06
630.389	151.06
630.595	163.06
630.802	144.06
631.008	170.06
631.214	170.06
631.42	169.06
631.627	179.06
631.833	178.06
632.039	169.06
632.245	143.06
632.451	165.06
632.657	158.06
632.863	166.06
633.069	162.06
633.275	175.06
633.481	171.06
633.688	171.06
633.893	169.06
634.099	170.06
634.305	164.06
634.511	158.06
634.717	154.06
634.923	154.06
635.129	132.06
635.335	160.06
635.541	159.06
635.747	152.06
635.952	169.06
636.158	162.06
636.364	162.06
636.57	163.06
636.775	151.06
636.981	168.06
637.187	157.06
637.392	148.06
637.598	154.06
637.804	153.06
638.009	148.06
638.215	151.06
638.421	178.06
638.626	156.06
638.832	156.06
639.037	169.06
639.243	148.06
639.448	142.06
639.654	158.06
639.859	147.06
640.065	154.06
640.27	152.06
640.475	153.06
640.681	158.06
640.886	165.06
641.091	154.06
641.297	152.06
641.502	148.06
641.707	153.06
641.913	150.06
642.118	162.06
642.323	140.06
642.528	144.06
642.733	156.06
642.939	134.06
643.144	143.06
643.349	153.06
643.554	137.06
643.759	147.06
643.964	146.06
644.169	149.06
644.374	140.06
644.579	135.06
644.784	157.06
644.989	152.06
645.194	137.06
645.399	133.06
645.604	145.06
645.809	142.06
646.014	151.06
646.219	161.06
646.423	135.06
646.628	124.06
646.833	141.06
647.038	163.06
647.243	143.06
647.447	159.06
647.652	152.06
647.857	146.06
648.062	155.06
648.266	147.06
648.471	145.06
648.676	163.06
648.88	146.06
649.085	144.06
649.289	147.06
649.494	160.06
649.698	178.06
649.903	166.06
650.107	152.06
650.312	140.06
650.516	148.06
650.721	148.06
650.925	146.06
651.13	146.06
651.334	154.06
651.539	117.06
651.743	121.06
651.947	145.06
652.152	140.06
652.356	140.06
652.56	136.06
652.764	120.06
652.969	135.06
653.173	127.06
653.377	140.06
653.581	124.06
653.785	135.06
653.99	151.06
654.194	145.06
654.398	136.06
654.602	130.06
654.806	134.06
655.01	121.06
655.214	139.06
655.418	124.06
655.622	121.06
655.826	118.06
656.03	120.06
656.234	124.06
656.438	121.06
656.642	113.06
656.846	118.06
657.049	115.06
657.253	114.06
657.457	116.06
657.661	115.06
657.865	121.06
658.068	106.06
658.272	101.06
658.476	98.06
658.68	95.06
658.883	91.06
659.087	87.06
659.291	106.06
659.494	80.06
659.698	92.06
659.901	102.06
660.105	82.06
660.309	91.06
660.512	90.06
660.716	93.06
660.919	94.06
661.123	91.06
661.326	97.06
661.53	101.06
661.733	104.06
661.936	85.06
662.14	92.06
662.343	82.06
662.546	96.06
662.75	86.06
662.953	85.06
663.156	86.06
663.36	86.06
663.563	82.06
663.766	80.06
663.969	94.06
664.173	82.06
664.376	77.06
664.579	88.06
664.782	82.06
664.985	74.06
665.188	81.06
665.391	71.06
665.594	63.06
665.797	81.06
666	82.06
666.203	83.06
666.406	83.06
666.609	83.06
666.812	84.06
667.015	85.06
667.218	81.06
667.421	86.06
667.624	96.06
667.827	97.06
668.03	77.06
668.232	74.06
668.435	82.06
668.638	79.06
668.841	76.06
669.043	73.06
669.246	85.06
669.449	98.06
669.651	88.06
669.854	75.06
670.057	84.06
670.259	86.06
670.462	77.06
670.665	87.06
670.867	85.06
671.07	86.06
671.272	86.06
671.475	89.06
671.677	79.06
671.88	76.06
672.082	97.06
672.284	80.06
672.487	76.06
672.689	82.06
672.892	90.06
