Data from 1961.PennyLincolnUp.Lamp.En5.5.200Scan.071719.P1._HRD10591_13-47-58-058.txt Node
Date: Thu Jul 18 13:47:58 EDT 2019
User: cochatt
Spectrometer: HR+D1059
Trigger mode: 1
Integration Time (sec): 1.000000E-1
Scans to average: 1
Electric dark correction enabled: true
Nonlinearity correction enabled: false
Boxcar width: 0
XAxis mode: Wavelengths
Number of Pixels in Spectrum: 2048
>>>>>Begin Spectral Data<<<<<
223.165	-19.31
223.4	-19.31
223.635	-19.31
223.869	-22.31
224.104	-11.31
224.338	-10.31
224.573	-14.31
224.808	-8.31
225.042	-16.31
225.277	-12.31
225.511	1.69
225.746	7.69
225.98	1.69
226.215	3.69
226.449	21.69
226.683	22.69
226.918	21.69
227.152	33.69
227.387	41.69
227.621	38.69
227.856	26.69
228.09	34.69
228.324	58.69
228.559	53.69
228.793	65.69
229.027	93.69
229.262	96.69
229.496	93.69
229.73	107.69
229.964	151.69
230.199	108.69
230.433	104.69
230.667	95.69
230.901	112.69
231.136	99.69
231.37	88.69
231.604	94.69
231.838	107.69
232.072	90.69
232.306	84.69
232.541	104.69
232.775	105.69
233.009	103.69
233.243	98.69
233.477	100.69
233.711	102.69
233.945	113.69
234.179	105.69
234.413	112.69
234.647	109.69
234.881	105.69
235.115	116.69
235.349	111.69
235.583	102.69
235.817	104.69
236.051	118.69
236.285	115.69
236.519	109.69
236.753	112.69
236.987	135.69
237.221	171.69
237.455	193.69
237.689	162.69
237.922	129.69
238.156	108.69
238.39	114.69
238.624	116.69
238.858	111.69
239.091	123.69
239.325	118.69
239.559	113.69
239.793	113.69
240.027	127.69
240.26	130.69
240.494	136.69
240.728	124.69
240.961	138.69
241.195	124.69
241.429	114.69
241.662	116.69
241.896	133.69
242.13	115.69
242.363	120.69
242.597	126.69
242.83	120.69
243.064	114.69
243.298	134.69
243.531	105.69
243.765	125.69
243.998	116.69
244.232	110.69
244.465	147.69
244.699	130.69
244.932	121.69
245.166	130.69
245.399	118.69
245.633	114.69
245.866	123.69
246.099	135.69
246.333	131.69
246.566	156.69
246.8	126.69
247.033	137.69
247.266	135.69
247.5	131.69
247.733	135.69
247.966	160.69
248.2	155.69
248.433	144.69
248.666	154.69
248.899	159.69
249.133	175.69
249.366	175.69
249.599	166.69
249.832	157.69
250.066	161.69
250.299	155.69
250.532	154.69
250.765	185.69
250.998	199.69
251.231	198.69
251.465	191.69
251.698	192.69
251.931	168.69
252.164	185.69
252.397	167.69
252.63	157.69
252.863	164.69
253.096	188.69
253.329	189.69
253.562	197.69
253.795	193.69
254.028	194.69
254.261	187.69
254.494	194.69
254.727	220.69
254.96	218.69
255.193	213.69
255.426	209.69
255.659	198.69
255.892	203.69
256.124	190.69
256.357	194.69
256.59	194.69
256.823	186.69
257.056	187.69
257.289	180.69
257.521	175.69
257.754	189.69
257.987	185.69
258.22	170.69
258.452	182.69
258.685	169.69
258.918	177.69
259.151	175.69
259.383	190.69
259.616	176.69
259.849	198.69
260.081	189.69
260.314	207.69
260.547	207.69
260.779	214.69
261.012	189.69
261.244	205.69
261.477	198.69
261.71	191.69
261.942	215.69
262.175	205.69
262.407	184.69
262.64	178.69
262.872	168.69
263.105	173.69
263.337	180.69
263.57	166.69
263.802	177.69
264.035	175.69
264.267	169.69
264.499	186.69
264.732	177.69
264.964	176.69
265.197	167.69
265.429	195.69
265.661	186.69
265.894	182.69
266.126	177.69
266.358	162.69
266.591	171.69
266.823	180.69
267.055	196.69
267.287	183.69
267.52	191.69
267.752	188.69
267.984	182.69
268.216	186.69
268.448	180.69
268.681	211.69
268.913	205.69
269.145	231.69
269.377	229.69
269.609	239.69
269.841	229.69
270.073	225.69
270.306	247.69
270.538	253.69
270.77	261.69
271.002	235.69
271.234	252.69
271.466	265.69
271.698	249.69
271.93	251.69
272.162	244.69
272.394	268.69
272.626	244.69
272.858	227.69
273.09	228.69
273.322	239.69
273.553	226.69
273.785	218.69
274.017	218.69
274.249	222.69
274.481	199.69
274.713	201.69
274.945	231.69
275.176	215.69
275.408	213.69
275.64	211.69
275.872	211.69
276.104	216.69
276.335	210.69
276.567	235.69
276.799	261.69
277.031	258.69
277.262	261.69
277.494	287.69
277.726	239.69
277.957	238.69
278.189	229.69
278.421	216.69
278.652	237.69
278.884	223.69
279.115	228.69
279.347	215.69
279.579	227.69
279.81	235.69
280.042	224.69
280.273	217.69
280.505	224.69
280.736	217.69
280.968	191.69
281.199	229.69
281.431	214.69
281.662	213.69
281.894	224.69
282.125	205.69
282.356	220.69
282.588	235.69
282.819	264.69
283.051	215.69
283.282	220.69
283.513	235.69
283.745	217.69
283.976	243.69
284.207	223.69
284.439	215.69
284.67	228.69
284.901	214.69
285.132	229.69
285.364	221.69
285.595	227.69
285.826	231.69
286.057	216.69
286.288	204.69
286.52	216.69
286.751	209.69
286.982	229.69
287.213	210.69
287.444	223.69
287.675	225.69
287.906	243.69
288.138	240.69
288.369	243.69
288.6	257.69
288.831	243.69
289.062	237.69
289.293	229.69
289.524	231.69
289.755	230.69
289.986	239.69
290.217	220.69
290.448	232.69
290.679	239.69
290.91	226.69
291.141	238.69
291.371	227.69
291.602	216.69
291.833	212.69
292.064	226.69
292.295	249.69
292.526	230.69
292.757	245.69
292.987	232.69
293.218	231.69
293.449	228.69
293.68	244.69
293.91	224.69
294.141	232.69
294.372	225.69
294.603	232.69
294.833	227.69
295.064	232.69
295.295	237.69
295.525	235.69
295.756	229.69
295.987	242.69
296.217	270.69
296.448	279.69
296.679	243.69
296.909	232.69
297.14	233.69
297.37	223.69
297.601	247.69
297.831	237.69
298.062	224.69
298.292	218.69
298.523	242.69
298.753	242.69
298.984	235.69
299.214	233.69
299.445	255.69
299.675	249.69
299.905	237.69
300.136	266.69
300.366	239.69
300.597	239.69
300.827	239.69
301.057	256.69
301.288	263.69
301.518	275.69
301.748	260.69
301.979	275.69
302.209	255.69
302.439	263.69
302.669	244.69
302.9	264.69
303.13	256.69
303.36	255.69
303.59	272.69
303.82	280.69
304.051	282.69
304.281	281.69
304.511	251.69
304.741	281.69
304.971	253.69
305.201	255.69
305.431	275.69
305.661	272.69
305.891	263.69
306.121	265.69
306.352	257.69
306.582	280.69
306.812	273.69
307.042	286.69
307.272	259.69
307.502	275.69
307.731	256.69
307.961	264.69
308.191	260.69
308.421	252.69
308.651	264.69
308.881	294.69
309.111	273.69
309.341	287.69
309.571	284.69
309.8	316.69
310.03	306.69
310.26	310.69
310.49	310.69
310.72	330.69
310.949	332.69
311.179	331.69
311.409	316.69
311.639	299.69
311.868	309.69
312.098	308.69
312.328	305.69
312.557	329.69
312.787	346.69
313.017	347.69
313.246	334.69
313.476	310.69
313.706	311.69
313.935	313.69
314.165	321.69
314.394	317.69
314.624	340.69
314.853	322.69
315.083	330.69
315.312	313.69
315.542	293.69
315.771	307.69
316.001	289.69
316.23	301.69
316.46	311.69
316.689	305.69
316.919	304.69
317.148	333.69
317.377	326.69
317.607	319.69
317.836	328.69
318.065	311.69
318.295	308.69
318.524	322.69
318.753	327.69
318.983	307.69
319.212	326.69
319.441	327.69
319.67	315.69
319.9	319.69
320.129	321.69
320.358	303.69
320.587	319.69
320.816	335.69
321.046	339.69
321.275	331.69
321.504	349.69
321.733	344.69
321.962	353.69
322.191	384.69
322.42	395.69
322.649	374.69
322.878	411.69
323.108	405.69
323.337	435.69
323.566	447.69
323.795	467.69
324.024	550.69
324.253	683.69
324.482	1015.69
324.71	1632.69
324.939	2163.69
325.168	1873.69
325.397	955.69
325.626	637.69
325.855	509.69
326.084	459.69
326.313	460.69
326.542	461.69
326.77	512.69
326.999	626.69
327.228	883.69
327.457	1343.69
327.686	1603.69
327.914	1058.69
328.143	702.69
328.372	606.69
328.6	577.69
328.829	543.69
329.058	551.69
329.287	543.69
329.515	508.69
329.744	462.69
329.972	440.69
330.201	497.69
330.43	547.69
330.658	560.69
330.887	569.69
331.115	541.69
331.344	468.69
331.572	435.69
331.801	412.69
332.03	418.69
332.258	401.69
332.486	379.69
332.715	390.69
332.943	361.69
333.172	393.69
333.4	381.69
333.629	370.69
333.857	383.69
334.085	413.69
334.314	452.69
334.542	479.69
334.771	474.69
334.999	425.69
335.227	421.69
335.455	375.69
335.684	379.69
335.912	389.69
336.14	369.69
336.369	361.69
336.597	373.69
336.825	371.69
337.053	363.69
337.281	343.69
337.51	365.69
337.738	369.69
337.966	367.69
338.194	390.69
338.422	380.69
338.65	337.69
338.878	349.69
339.106	352.69
339.334	338.69
339.562	363.69
339.79	338.69
340.018	365.69
340.246	361.69
340.474	366.69
340.702	365.69
340.93	357.69
341.158	334.69
341.386	346.69
341.614	343.69
341.842	329.69
342.07	352.69
342.298	352.69
342.526	330.69
342.754	342.69
342.981	333.69
343.209	345.69
343.437	349.69
343.665	336.69
343.893	345.69
344.12	368.69
344.348	341.69
344.576	344.69
344.804	349.69
345.031	355.69
345.259	375.69
345.487	352.69
345.714	344.69
345.942	342.69
346.17	345.69
346.397	355.69
346.625	349.69
346.853	348.69
347.08	334.69
347.308	352.69
347.535	360.69
347.763	371.69
347.99	350.69
348.218	345.69
348.445	344.69
348.673	364.69
348.9	355.69
349.128	337.69
349.355	338.69
349.583	326.69
349.81	331.69
350.037	320.69
350.265	342.69
350.492	335.69
350.72	318.69
350.947	343.69
351.174	343.69
351.402	352.69
351.629	347.69
351.856	355.69
352.083	374.69
352.311	380.69
352.538	346.69
352.765	365.69
352.992	353.69
353.22	365.69
353.447	342.69
353.674	361.69
353.901	335.69
354.128	331.69
354.355	310.69
354.583	299.69
354.81	320.69
355.037	333.69
355.264	301.69
355.491	321.69
355.718	297.69
355.945	321.69
356.172	305.69
356.399	324.69
356.626	311.69
356.853	302.69
357.08	314.69
357.307	321.69
357.534	309.69
357.761	324.69
357.988	332.69
358.215	329.69
358.441	327.69
358.668	304.69
358.895	329.69
359.122	333.69
359.349	314.69
359.576	339.69
359.802	357.69
360.029	391.69
360.256	401.69
360.483	402.69
360.709	371.69
360.936	358.69
361.163	360.69
361.39	354.69
361.616	367.69
361.843	343.69
362.07	350.69
362.296	358.69
362.523	340.69
362.749	355.69
362.976	348.69
363.203	326.69
363.429	336.69
363.656	326.69
363.882	310.69
364.109	312.69
364.335	328.69
364.562	317.69
364.788	324.69
365.015	312.69
365.241	326.69
365.468	333.69
365.694	327.69
365.92	334.69
366.147	327.69
366.373	328.69
366.599	330.69
366.826	329.69
367.052	333.69
367.278	329.69
367.505	316.69
367.731	323.69
367.957	322.69
368.184	313.69
368.41	322.69
368.636	337.69
368.862	346.69
369.089	339.69
369.315	296.69
369.541	333.69
369.767	326.69
369.993	321.69
370.219	327.69
370.445	328.69
370.672	329.69
370.898	335.69
371.124	319.69
371.35	325.69
371.576	318.69
371.802	311.69
372.028	318.69
372.254	302.69
372.48	323.69
372.706	305.69
372.932	305.69
373.158	323.69
373.384	293.69
373.61	335.69
373.835	313.69
374.061	316.69
374.287	312.69
374.513	312.69
374.739	331.69
374.965	323.69
375.191	315.69
375.416	323.69
375.642	324.69
375.868	335.69
376.094	320.69
376.319	321.69
376.545	324.69
376.771	324.69
376.997	306.69
377.222	321.69
377.448	322.69
377.674	320.69
377.899	326.69
378.125	316.69
378.35	328.69
378.576	332.69
378.802	322.69
379.027	323.69
379.253	309.69
379.478	302.69
379.704	315.69
379.929	303.69
380.155	309.69
380.38	317.69
380.606	334.69
380.831	324.69
381.057	311.69
381.282	327.69
381.507	315.69
381.733	325.69
381.958	322.69
382.184	325.69
382.409	330.69
382.634	325.69
382.86	344.69
383.085	311.69
383.31	321.69
383.535	321.69
383.761	298.69
383.986	333.69
384.211	323.69
384.436	339.69
384.662	353.69
384.887	323.69
385.112	339.69
385.337	325.69
385.562	339.69
385.787	329.69
386.013	342.69
386.238	357.69
386.463	337.69
386.688	338.69
386.913	336.69
387.138	333.69
387.363	333.69
387.588	339.69
387.813	341.69
388.038	343.69
388.263	351.69
388.488	336.69
388.713	339.69
388.938	342.69
389.163	333.69
389.387	355.69
389.612	333.69
389.837	326.69
390.062	321.69
390.287	351.69
390.512	323.69
390.736	335.69
390.961	335.69
391.186	347.69
391.411	332.69
391.636	351.69
391.86	348.69
392.085	344.69
392.31	356.69
392.534	337.69
392.759	355.69
392.984	353.69
393.208	350.69
393.433	354.69
393.658	361.69
393.882	343.69
394.107	350.69
394.331	330.69
394.556	331.69
394.78	354.69
395.005	348.69
395.229	365.69
395.454	366.69
395.678	374.69
395.903	369.69
396.127	378.69
396.352	369.69
396.576	377.69
396.801	351.69
397.025	350.69
397.249	375.69
397.474	373.69
397.698	367.69
397.922	391.69
398.147	379.69
398.371	378.69
398.595	360.69
398.82	379.69
399.044	392.69
399.268	401.69
399.492	399.69
399.717	413.69
399.941	448.69
400.165	467.69
400.389	482.69
400.613	440.69
400.837	404.69
401.062	397.69
401.286	399.69
401.51	377.69
401.734	398.69
401.958	382.69
402.182	396.69
402.406	408.69
402.63	407.69
402.854	405.69
403.078	411.69
403.302	403.69
403.526	415.69
403.75	399.69
403.974	398.69
404.198	401.69
404.422	411.69
404.645	403.69
404.869	424.69
405.093	452.69
405.317	484.69
405.541	502.69
405.765	455.69
405.988	431.69
406.212	468.69
406.436	473.69
406.66	465.69
406.883	468.69
407.107	456.69
407.331	491.69
407.555	541.69
407.778	552.69
408.002	495.69
408.226	477.69
408.449	460.69
408.673	439.69
408.896	476.69
409.12	516.69
409.344	485.69
409.567	431.69
409.791	417.69
410.014	427.69
410.238	415.69
410.461	404.69
410.685	405.69
410.908	415.69
411.132	464.69
411.355	511.69
411.578	480.69
411.802	410.69
412.025	398.69
412.249	411.69
412.472	447.69
412.695	472.69
412.919	456.69
413.142	421.69
413.365	397.69
413.589	400.69
413.812	405.69
414.035	392.69
414.258	392.69
414.482	397.69
414.705	377.69
414.928	391.69
415.151	388.69
415.374	386.69
415.597	376.69
415.821	374.69
416.044	378.69
416.267	395.69
416.49	399.69
416.713	376.69
416.936	388.69
417.159	390.69
417.382	408.69
417.605	399.69
417.828	403.69
418.051	384.69
418.274	377.69
418.497	384.69
418.72	392.69
418.943	369.69
419.166	417.69
419.389	412.69
419.611	408.69
419.834	401.69
420.057	431.69
420.28	404.69
420.503	394.69
420.726	406.69
420.948	413.69
421.171	451.69
421.394	474.69
421.617	422.69
421.839	404.69
422.062	404.69
422.285	408.69
422.507	477.69
422.73	541.69
422.953	506.69
423.175	452.69
423.398	424.69
423.621	427.69
423.843	437.69
424.066	434.69
424.288	441.69
424.511	459.69
424.733	496.69
424.956	571.69
425.178	552.69
425.401	533.69
425.623	564.69
425.846	465.69
426.068	430.69
426.291	449.69
426.513	426.69
426.735	456.69
426.958	517.69
427.18	583.69
427.402	679.69
427.625	732.69
427.847	663.69
428.069	569.69
428.292	517.69
428.514	475.69
428.736	471.69
428.958	446.69
429.181	421.69
429.403	437.69
429.625	415.69
429.847	452.69
430.069	519.69
430.292	488.69
430.514	427.69
430.736	420.69
430.958	400.69
431.18	392.69
431.402	407.69
431.624	389.69
431.846	380.69
432.068	386.69
432.29	375.69
432.512	381.69
432.734	393.69
432.956	392.69
433.178	434.69
433.4	424.69
433.622	400.69
433.844	386.69
434.066	377.69
434.287	387.69
434.509	396.69
434.731	392.69
434.953	414.69
435.175	417.69
435.397	442.69
435.618	450.69
435.84	494.69
436.062	574.69
436.284	633.69
436.505	544.69
436.727	452.69
436.949	440.69
437.17	443.69
437.392	420.69
437.614	445.69
437.835	484.69
438.057	568.69
438.278	658.69
438.5	637.69
438.721	687.69
438.943	624.69
439.165	535.69
439.386	464.69
439.608	479.69
439.829	499.69
440.05	492.69
440.272	543.69
440.493	501.69
440.715	451.69
440.936	460.69
441.158	441.69
441.379	407.69
441.6	452.69
441.822	461.69
442.043	495.69
442.264	577.69
442.486	602.69
442.707	519.69
442.928	496.69
443.149	474.69
443.371	494.69
443.592	556.69
443.813	591.69
444.034	647.69
444.255	553.69
444.476	455.69
444.698	460.69
444.919	449.69
445.14	549.69
445.361	524.69
445.582	495.69
445.803	561.69
446.024	648.69
446.245	667.69
446.466	600.69
446.687	510.69
446.908	476.69
447.129	437.69
447.35	427.69
447.571	414.69
447.792	405.69
448.013	437.69
448.234	460.69
448.455	487.69
448.675	597.69
448.896	657.69
449.117	576.69
449.338	545.69
449.559	635.69
449.779	673.69
450	566.69
450.221	467.69
450.442	433.69
450.662	419.69
450.883	411.69
451.104	465.69
451.324	437.69
451.545	420.69
451.766	390.69
451.986	373.69
452.207	387.69
452.428	375.69
452.648	383.69
452.869	402.69
453.089	378.69
453.31	400.69
453.53	386.69
453.751	374.69
453.971	389.69
454.192	403.69
454.412	390.69
454.633	389.69
454.853	356.69
455.073	386.69
455.294	411.69
455.514	481.69
455.734	434.69
455.955	407.69
456.175	360.69
456.395	344.69
456.616	356.69
456.836	378.69
457.056	336.69
457.276	332.69
457.497	360.69
457.717	353.69
457.937	367.69
458.157	370.69
458.377	383.69
458.598	418.69
458.818	473.69
459.038	555.69
459.258	547.69
459.478	471.69
459.698	427.69
459.918	410.69
460.138	398.69
460.358	382.69
460.578	371.69
460.798	405.69
461.018	401.69
461.238	400.69
461.458	391.69
461.678	387.69
461.898	392.69
462.118	391.69
462.338	402.69
462.558	399.69
462.777	408.69
462.997	413.69
463.217	403.69
463.437	413.69
463.657	420.69
463.876	417.69
464.096	399.69
464.316	417.69
464.536	422.69
464.755	428.69
464.975	432.69
465.195	516.69
465.414	547.69
465.634	490.69
465.854	439.69
466.073	406.69
466.293	420.69
466.512	402.69
466.732	382.69
466.951	387.69
467.171	386.69
467.391	407.69
467.61	399.69
467.829	422.69
468.049	417.69
468.268	400.69
468.488	398.69
468.707	382.69
468.927	379.69
469.146	371.69
469.365	374.69
469.585	370.69
469.804	386.69
470.023	416.69
470.243	378.69
470.462	411.69
470.681	415.69
470.901	407.69
471.12	399.69
471.339	390.69
471.558	381.69
471.777	406.69
471.997	371.69
472.216	405.69
472.435	455.69
472.654	429.69
472.873	401.69
473.092	398.69
473.311	416.69
473.53	401.69
473.749	392.69
473.968	443.69
474.187	538.69
474.406	564.69
474.625	455.69
474.844	409.69
475.063	400.69
475.282	397.69
475.501	382.69
475.72	387.69
475.939	389.69
476.158	412.69
476.377	402.69
476.596	398.69
476.814	407.69
477.033	417.69
477.252	424.69
477.471	428.69
477.69	435.69
477.908	419.69
478.127	428.69
478.346	424.69
478.564	408.69
478.783	435.69
479.002	449.69
479.22	432.69
479.439	465.69
479.658	481.69
479.876	473.69
480.095	472.69
480.313	494.69
480.532	474.69
480.751	498.69
480.969	493.69
481.188	560.69
481.406	597.69
481.624	497.69
481.843	496.69
482.061	476.69
482.28	469.69
482.498	483.69
482.717	478.69
482.935	460.69
483.153	484.69
483.372	467.69
483.59	453.69
483.808	467.69
484.027	448.69
484.245	463.69
484.463	455.69
484.681	474.69
484.9	466.69
485.118	458.69
485.336	469.69
485.554	452.69
485.772	463.69
485.99	483.69
486.209	484.69
486.427	469.69
486.645	477.69
486.863	513.69
487.081	486.69
487.299	498.69
487.517	504.69
487.735	496.69
487.953	510.69
488.171	502.69
488.389	481.69
488.607	469.69
488.825	491.69
489.043	501.69
489.261	498.69
489.479	509.69
489.696	503.69
489.914	516.69
490.132	512.69
490.35	523.69
490.568	518.69
490.786	544.69
491.003	531.69
491.221	544.69
491.439	566.69
491.657	551.69
491.874	585.69
492.092	567.69
492.31	570.69
492.527	567.69
492.745	557.69
492.963	583.69
493.18	565.69
493.398	578.69
493.615	575.69
493.833	573.69
494.05	569.69
494.268	587.69
494.485	569.69
494.703	577.69
494.92	579.69
495.138	560.69
495.355	596.69
495.573	594.69
495.79	584.69
496.008	599.69
496.225	617.69
496.442	600.69
496.66	584.69
496.877	610.69
497.094	589.69
497.312	599.69
497.529	628.69
497.746	623.69
497.963	621.69
498.181	643.69
498.398	650.69
498.615	649.69
498.832	664.69
499.049	657.69
499.267	652.69
499.484	700.69
499.701	690.69
499.918	712.69
500.135	740.69
500.352	731.69
500.569	753.69
500.786	754.69
501.003	749.69
501.22	742.69
501.437	731.69
501.654	713.69
501.871	731.69
502.088	732.69
502.305	679.69
502.522	649.69
502.739	653.69
502.956	632.69
503.172	607.69
503.389	605.69
503.606	624.69
503.823	623.69
504.04	617.69
504.256	589.69
504.473	561.69
504.69	583.69
504.907	594.69
505.123	605.69
505.34	575.69
505.557	559.69
505.773	583.69
505.99	583.69
506.207	573.69
506.423	574.69
506.64	589.69
506.856	544.69
507.073	581.69
507.289	553.69
507.506	577.69
507.722	579.69
507.939	589.69
508.155	567.69
508.372	548.69
508.588	555.69
508.805	543.69
509.021	559.69
509.238	549.69
509.454	566.69
509.67	544.69
509.887	557.69
510.103	555.69
510.319	567.69
510.536	668.69
510.752	1190.69
510.968	936.69
511.184	588.69
511.401	548.69
511.617	528.69
511.833	553.69
512.049	545.69
512.265	516.69
512.481	531.69
512.698	515.69
512.914	526.69
513.13	541.69
513.346	520.69
513.562	522.69
513.778	551.69
513.994	551.69
514.21	540.69
514.426	570.69
514.642	598.69
514.858	651.69
515.074	717.69
515.29	851.69
515.506	1313.69
515.721	1053.69
515.937	664.69
516.153	634.69
516.369	592.69
516.585	552.69
516.801	545.69
517.016	563.69
517.232	533.69
517.448	559.69
517.664	571.69
517.879	536.69
518.095	536.69
518.311	541.69
518.527	532.69
518.742	534.69
518.958	527.69
519.173	525.69
519.389	528.69
519.605	547.69
519.82	550.69
520.036	542.69
520.251	589.69
520.467	610.69
520.682	615.69
520.898	619.69
521.113	655.69
521.329	704.69
521.544	773.69
521.76	1040.69
521.975	1752.69
522.19	1695.69
522.406	895.69
522.621	628.69
522.836	607.69
523.052	547.69
523.267	511.69
523.482	513.69
523.698	499.69
523.913	492.69
524.128	486.69
524.343	477.69
524.559	493.69
524.774	461.69
524.989	465.69
525.204	469.69
525.419	467.69
525.634	461.69
525.849	459.69
526.064	461.69
526.28	432.69
526.495	443.69
526.71	439.69
526.925	431.69
527.14	432.69
527.355	421.69
527.57	434.69
527.785	439.69
527.999	437.69
528.214	451.69
528.429	424.69
528.644	425.69
528.859	423.69
529.074	438.69
529.289	467.69
529.503	547.69
529.718	533.69
529.933	468.69
530.148	452.69
530.363	454.69
530.577	434.69
530.792	427.69
531.007	406.69
531.221	426.69
531.436	419.69
531.651	424.69
531.865	395.69
532.08	407.69
532.295	405.69
532.509	404.69
532.724	420.69
532.938	404.69
533.153	413.69
533.367	418.69
533.582	403.69
533.796	400.69
534.011	415.69
534.225	405.69
534.44	379.69
534.654	399.69
534.868	395.69
535.083	403.69
535.297	416.69
535.511	409.69
535.726	402.69
535.94	407.69
536.154	389.69
536.369	391.69
536.583	393.69
536.797	402.69
537.011	399.69
537.225	393.69
537.44	393.69
537.654	410.69
537.868	406.69
538.082	396.69
538.296	402.69
538.51	390.69
538.724	419.69
538.938	402.69
539.153	386.69
539.367	399.69
539.581	391.69
539.795	405.69
540.009	390.69
540.222	387.69
540.436	382.69
540.65	393.69
540.864	403.69
541.078	403.69
541.292	408.69
541.506	385.69
541.72	381.69
541.934	383.69
542.147	387.69
542.361	377.69
542.575	392.69
542.789	391.69
543.002	388.69
543.216	382.69
543.43	385.69
543.644	394.69
543.857	387.69
544.071	383.69
544.285	367.69
544.498	363.69
544.712	386.69
544.925	387.69
545.139	386.69
545.352	381.69
545.566	370.69
545.779	366.69
545.993	365.69
546.206	354.69
546.42	358.69
546.633	375.69
546.847	365.69
547.06	363.69
547.274	360.69
547.487	389.69
547.7	356.69
547.914	361.69
548.127	367.69
548.34	381.69
548.554	365.69
548.767	376.69
548.98	344.69
549.193	377.69
549.407	379.69
549.62	370.69
549.833	368.69
550.046	360.69
550.259	365.69
550.473	359.69
550.686	363.69
550.899	379.69
551.112	357.69
551.325	371.69
551.538	371.69
551.751	393.69
551.964	360.69
552.177	367.69
552.39	358.69
552.603	373.69
552.816	341.69
553.029	351.69
553.242	347.69
553.455	343.69
553.667	370.69
553.88	397.69
554.093	375.69
554.306	375.69
554.519	365.69
554.732	371.69
554.944	355.69
555.157	342.69
555.37	348.69
555.583	344.69
555.795	355.69
556.008	354.69
556.221	324.69
556.433	338.69
556.646	328.69
556.859	345.69
557.071	328.69
557.284	340.69
557.496	343.69
557.709	332.69
557.921	331.69
558.134	331.69
558.346	327.69
558.559	319.69
558.771	310.69
558.984	319.69
559.196	330.69
559.409	329.69
559.621	331.69
559.833	337.69
560.046	346.69
560.258	326.69
560.47	326.69
560.683	330.69
560.895	328.69
561.107	335.69
561.32	292.69
561.532	321.69
561.744	337.69
561.956	311.69
562.168	322.69
562.381	323.69
562.593	342.69
562.805	321.69
563.017	332.69
563.229	336.69
563.441	322.69
563.653	339.69
563.865	335.69
564.077	329.69
564.289	327.69
564.501	333.69
564.713	341.69
564.925	341.69
565.137	344.69
565.349	348.69
565.561	336.69
565.773	349.69
565.985	363.69
566.197	350.69
566.408	353.69
566.62	370.69
566.832	344.69
567.044	371.69
567.255	355.69
567.467	362.69
567.679	337.69
567.891	371.69
568.102	365.69
568.314	359.69
568.526	381.69
568.737	350.69
568.949	350.69
569.161	316.69
569.372	320.69
569.584	342.69
569.795	324.69
570.007	323.69
570.218	387.69
570.43	370.69
570.641	313.69
570.853	317.69
571.064	322.69
571.276	301.69
571.487	307.69
571.698	302.69
571.91	305.69
572.121	292.69
572.333	310.69
572.544	299.69
572.755	295.69
572.966	292.69
573.178	296.69
573.389	281.69
573.6	297.69
573.811	276.69
574.023	293.69
574.234	280.69
574.445	274.69
574.656	280.69
574.867	283.69
575.078	287.69
575.289	292.69
575.501	287.69
575.712	283.69
575.923	272.69
576.134	283.69
576.345	287.69
576.556	272.69
576.767	284.69
576.978	283.69
577.188	283.69
577.399	280.69
577.61	257.69
577.821	257.69
578.032	278.69
578.243	315.69
578.454	537.69
578.665	403.69
578.875	296.69
579.086	281.69
579.297	286.69
579.508	249.69
579.718	254.69
579.929	269.69
580.14	245.69
580.35	264.69
580.561	259.69
580.772	260.69
580.982	258.69
581.193	258.69
581.403	260.69
581.614	254.69
581.825	240.69
582.035	247.69
582.246	255.69
582.456	245.69
582.667	250.69
582.877	245.69
583.087	260.69
583.298	253.69
583.508	263.69
583.719	248.69
583.929	240.69
584.139	237.69
584.35	261.69
584.56	258.69
584.77	255.69
584.981	252.69
585.191	233.69
585.401	249.69
585.611	252.69
585.821	240.69
586.032	264.69
586.242	227.69
586.452	232.69
586.662	252.69
586.872	260.69
587.082	239.69
587.292	245.69
587.502	237.69
587.713	257.69
587.923	260.69
588.133	253.69
588.343	259.69
588.553	227.69
588.762	247.69
588.972	239.69
589.182	248.69
589.392	244.69
589.602	253.69
589.812	238.69
590.022	253.69
590.232	253.69
590.441	221.69
590.651	252.69
590.861	263.69
591.071	235.69
591.281	215.69
591.49	250.69
591.7	251.69
591.91	264.69
592.119	257.69
592.329	223.69
592.539	262.69
592.748	252.69
592.958	237.69
593.167	239.69
593.377	250.69
593.587	255.69
593.796	240.69
594.006	247.69
594.215	254.69
594.424	240.69
594.634	254.69
594.843	250.69
595.053	236.69
595.262	254.69
595.472	250.69
595.681	244.69
595.89	246.69
596.1	235.69
596.309	252.69
596.518	231.69
596.727	231.69
596.937	253.69
597.146	248.69
597.355	232.69
597.564	233.69
597.774	228.69
597.983	239.69
598.192	217.69
598.401	212.69
598.61	224.69
598.819	212.69
599.028	213.69
599.237	220.69
599.446	232.69
599.655	230.69
599.864	219.69
600.073	221.69
600.282	207.69
600.491	216.69
600.7	198.69
600.909	210.69
601.118	232.69
601.327	214.69
601.536	236.69
601.745	230.69
601.953	211.69
602.162	213.69
602.371	201.69
602.58	223.69
602.789	235.69
602.997	198.69
603.206	215.69
603.415	213.69
603.623	223.69
603.832	197.69
604.041	206.69
604.249	214.69
604.458	205.69
604.666	219.69
604.875	210.69
605.084	209.69
605.292	193.69
605.501	215.69
605.709	212.69
605.918	209.69
606.126	215.69
606.334	204.69
606.543	213.69
606.751	191.69
606.96	189.69
607.168	193.69
607.376	190.69
607.585	220.69
607.793	201.69
608.001	196.69
608.21	211.69
608.418	226.69
608.626	213.69
608.834	193.69
609.043	229.69
609.251	197.69
609.459	200.69
609.667	199.69
609.875	207.69
610.083	204.69
610.291	202.69
610.499	192.69
610.707	207.69
610.916	199.69
611.124	214.69
611.332	216.69
611.54	208.69
611.748	210.69
611.955	201.69
612.163	201.69
612.371	213.69
612.579	197.69
612.787	187.69
612.995	202.69
613.203	212.69
613.411	204.69
613.618	197.69
613.826	207.69
614.034	184.69
614.242	196.69
614.449	203.69
614.657	209.69
614.865	207.69
615.072	187.69
615.28	193.69
615.488	181.69
615.695	176.69
615.903	206.69
616.111	188.69
616.318	204.69
616.526	203.69
616.733	187.69
616.941	185.69
617.148	177.69
617.356	202.69
617.563	187.69
617.771	208.69
617.978	197.69
618.185	188.69
618.393	184.69
618.6	191.69
618.807	199.69
619.015	174.69
619.222	198.69
619.429	188.69
619.637	198.69
619.844	196.69
620.051	185.69
620.258	187.69
620.466	184.69
620.673	187.69
620.88	193.69
621.087	176.69
621.294	194.69
621.501	192.69
621.708	179.69
621.915	196.69
622.122	185.69
622.329	188.69
622.536	187.69
622.743	186.69
622.95	184.69
623.157	177.69
623.364	198.69
623.571	189.69
623.778	175.69
623.985	175.69
624.192	184.69
624.399	182.69
624.606	188.69
624.812	179.69
625.019	190.69
625.226	182.69
625.433	177.69
625.639	175.69
625.846	175.69
626.053	187.69
626.259	169.69
626.466	177.69
626.673	186.69
626.879	179.69
627.086	148.69
627.293	167.69
627.499	174.69
627.706	174.69
627.912	173.69
628.119	174.69
628.325	168.69
628.532	175.69
628.738	161.69
628.945	165.69
629.151	176.69
629.357	179.69
629.564	168.69
629.77	175.69
629.976	161.69
630.183	180.69
630.389	157.69
630.595	161.69
630.802	160.69
631.008	158.69
631.214	192.69
631.42	162.69
631.627	177.69
631.833	170.69
632.039	175.69
632.245	168.69
632.451	167.69
632.657	178.69
632.863	151.69
633.069	167.69
633.275	168.69
633.481	156.69
633.688	174.69
633.893	147.69
634.099	167.69
634.305	148.69
634.511	166.69
634.717	157.69
634.923	163.69
635.129	157.69
635.335	142.69
635.541	155.69
635.747	162.69
635.952	161.69
636.158	163.69
636.364	162.69
636.57	166.69
636.775	161.69
636.981	172.69
637.187	148.69
637.392	150.69
637.598	147.69
637.804	154.69
638.009	156.69
638.215	161.69
638.421	161.69
638.626	167.69
638.832	151.69
639.037	157.69
639.243	155.69
639.448	134.69
639.654	163.69
639.859	155.69
640.065	146.69
640.27	151.69
640.475	155.69
640.681	164.69
640.886	161.69
641.091	131.69
641.297	143.69
641.502	156.69
641.707	154.69
641.913	151.69
642.118	146.69
642.323	151.69
642.528	147.69
642.733	143.69
642.939	161.69
643.144	151.69
643.349	156.69
643.554	156.69
643.759	149.69
643.964	145.69
644.169	148.69
644.374	159.69
644.579	150.69
644.784	146.69
644.989	147.69
645.194	149.69
645.399	132.69
645.604	143.69
645.809	152.69
646.014	131.69
646.219	146.69
646.423	125.69
646.628	153.69
646.833	146.69
647.038	153.69
647.243	157.69
647.447	145.69
647.652	135.69
647.857	129.69
648.062	148.69
648.266	155.69
648.471	144.69
648.676	160.69
648.88	141.69
649.085	151.69
649.289	143.69
649.494	148.69
649.698	172.69
649.903	169.69
650.107	134.69
650.312	151.69
650.516	145.69
650.721	150.69
650.925	136.69
651.13	144.69
651.334	141.69
651.539	137.69
651.743	137.69
651.947	131.69
652.152	136.69
652.356	130.69
652.56	143.69
652.764	142.69
652.969	115.69
653.173	128.69
653.377	127.69
653.581	115.69
653.785	121.69
653.99	124.69
654.194	134.69
654.398	135.69
654.602	135.69
654.806	141.69
655.01	131.69
655.214	118.69
655.418	110.69
655.622	125.69
655.826	104.69
656.03	127.69
656.234	116.69
656.438	141.69
656.642	131.69
656.846	119.69
657.049	131.69
657.253	102.69
657.457	117.69
657.661	107.69
657.865	114.69
658.068	95.69
658.272	109.69
658.476	111.69
658.68	97.69
658.883	109.69
659.087	98.69
659.291	107.69
659.494	93.69
659.698	94.69
659.901	89.69
660.105	95.69
660.309	94.69
660.512	93.69
660.716	90.69
660.919	99.69
661.123	88.69
661.326	93.69
661.53	87.69
661.733	84.69
661.936	80.69
662.14	73.69
662.343	79.69
662.546	79.69
662.75	94.69
662.953	83.69
663.156	61.69
663.36	79.69
663.563	72.69
663.766	82.69
663.969	73.69
664.173	89.69
664.376	80.69
664.579	80.69
664.782	76.69
664.985	86.69
665.188	74.69
665.391	74.69
665.594	86.69
665.797	68.69
666	78.69
666.203	85.69
666.406	87.69
666.609	71.69
666.812	67.69
667.015	83.69
667.218	70.69
667.421	83.69
667.624	86.69
667.827	93.69
668.03	88.69
668.232	81.69
668.435	88.69
668.638	78.69
668.841	79.69
669.043	77.69
669.246	83.69
669.449	95.69
669.651	75.69
669.854	92.69
670.057	79.69
670.259	68.69
670.462	78.69
670.665	92.69
670.867	86.69
671.07	79.69
671.272	86.69
671.475	92.69
671.677	68.69
671.88	83.69
672.082	77.69
672.284	79.69
672.487	73.69
672.689	82.69
672.892	72.69
