Data from 1961.PennyLincolnUp.Lamp.En5.5.200Scan.071719.P1._HRD10591_13-49-25-058.txt Node
Date: Thu Jul 18 13:49:25 EDT 2019
User: cochatt
Spectrometer: HR+D1059
Trigger mode: 1
Integration Time (sec): 1.000000E-1
Scans to average: 1
Electric dark correction enabled: true
Nonlinearity correction enabled: false
Boxcar width: 0
XAxis mode: Wavelengths
Number of Pixels in Spectrum: 2048
>>>>>Begin Spectral Data<<<<<
223.165	-12.94
223.4	-12.94
223.635	-12.94
223.869	-12.94
224.104	-18.94
224.338	-21.94
224.573	-12.94
224.808	-4.94
225.042	-12.94
225.277	11.06
225.511	-13.94
225.746	0.06
225.98	19.06
226.215	-3.94
226.449	13.06
226.683	18.06
226.918	19.06
227.152	35.06
227.387	49.06
227.621	46.06
227.856	51.06
228.09	50.06
228.324	55.06
228.559	60.06
228.793	63.06
229.027	94.06
229.262	100.06
229.496	113.06
229.73	141.06
229.964	152.06
230.199	129.06
230.433	102.06
230.667	113.06
230.901	107.06
231.136	104.06
231.37	119.06
231.604	108.06
231.838	115.06
232.072	106.06
232.306	107.06
232.541	113.06
232.775	115.06
233.009	115.06
233.243	116.06
233.477	114.06
233.711	113.06
233.945	96.06
234.179	111.06
234.413	105.06
234.647	121.06
234.881	112.06
235.115	115.06
235.349	115.06
235.583	119.06
235.817	105.06
236.051	112.06
236.285	121.06
236.519	117.06
236.753	107.06
236.987	147.06
237.221	154.06
237.455	230.06
237.689	169.06
237.922	134.06
238.156	142.06
238.39	112.06
238.624	128.06
238.858	131.06
239.091	125.06
239.325	114.06
239.559	127.06
239.793	116.06
240.027	132.06
240.26	149.06
240.494	153.06
240.728	137.06
240.961	141.06
241.195	124.06
241.429	120.06
241.662	123.06
241.896	124.06
242.13	122.06
242.363	120.06
242.597	124.06
242.83	130.06
243.064	127.06
243.298	123.06
243.531	128.06
243.765	133.06
243.998	129.06
244.232	121.06
244.465	125.06
244.699	137.06
244.932	137.06
245.166	140.06
245.399	132.06
245.633	134.06
245.866	124.06
246.099	124.06
246.333	136.06
246.566	139.06
246.8	120.06
247.033	141.06
247.266	139.06
247.5	150.06
247.733	153.06
247.966	157.06
248.2	149.06
248.433	160.06
248.666	155.06
248.899	177.06
249.133	167.06
249.366	183.06
249.599	167.06
249.832	167.06
250.066	157.06
250.299	175.06
250.532	170.06
250.765	187.06
250.998	184.06
251.231	203.06
251.465	208.06
251.698	186.06
251.931	185.06
252.164	182.06
252.397	179.06
252.63	192.06
252.863	172.06
253.096	195.06
253.329	194.06
253.562	214.06
253.795	219.06
254.028	192.06
254.261	177.06
254.494	208.06
254.727	210.06
254.96	255.06
255.193	252.06
255.426	203.06
255.659	212.06
255.892	209.06
256.124	221.06
256.357	195.06
256.59	196.06
256.823	193.06
257.056	221.06
257.289	177.06
257.521	179.06
257.754	196.06
257.987	176.06
258.22	201.06
258.452	192.06
258.685	197.06
258.918	201.06
259.151	181.06
259.383	193.06
259.616	197.06
259.849	197.06
260.081	202.06
260.314	242.06
260.547	243.06
260.779	224.06
261.012	205.06
261.244	202.06
261.477	195.06
261.71	201.06
261.942	208.06
262.175	204.06
262.407	216.06
262.64	202.06
262.872	194.06
263.105	190.06
263.337	202.06
263.57	183.06
263.802	196.06
264.035	199.06
264.267	183.06
264.499	193.06
264.732	205.06
264.964	195.06
265.197	187.06
265.429	196.06
265.661	191.06
265.894	182.06
266.126	198.06
266.358	195.06
266.591	187.06
266.823	202.06
267.055	192.06
267.287	209.06
267.52	205.06
267.752	189.06
267.984	202.06
268.216	212.06
268.448	180.06
268.681	207.06
268.913	228.06
269.145	235.06
269.377	249.06
269.609	250.06
269.841	230.06
270.073	218.06
270.306	262.06
270.538	267.06
270.77	269.06
271.002	277.06
271.234	261.06
271.466	275.06
271.698	283.06
271.93	283.06
272.162	272.06
272.394	273.06
272.626	252.06
272.858	249.06
273.09	240.06
273.322	230.06
273.553	244.06
273.785	249.06
274.017	222.06
274.249	234.06
274.481	246.06
274.713	230.06
274.945	236.06
275.176	235.06
275.408	227.06
275.64	223.06
275.872	214.06
276.104	239.06
276.335	243.06
276.567	233.06
276.799	259.06
277.031	270.06
277.262	271.06
277.494	277.06
277.726	258.06
277.957	233.06
278.189	255.06
278.421	246.06
278.652	248.06
278.884	223.06
279.115	234.06
279.347	230.06
279.579	240.06
279.81	235.06
280.042	225.06
280.273	240.06
280.505	229.06
280.736	221.06
280.968	221.06
281.199	229.06
281.431	224.06
281.662	228.06
281.894	231.06
282.125	233.06
282.356	261.06
282.588	276.06
282.819	270.06
283.051	249.06
283.282	225.06
283.513	226.06
283.745	223.06
283.976	239.06
284.207	232.06
284.439	235.06
284.67	241.06
284.901	253.06
285.132	221.06
285.364	240.06
285.595	244.06
285.826	228.06
286.057	246.06
286.288	233.06
286.52	218.06
286.751	215.06
286.982	242.06
287.213	255.06
287.444	255.06
287.675	249.06
287.906	240.06
288.138	273.06
288.369	253.06
288.6	268.06
288.831	250.06
289.062	247.06
289.293	243.06
289.524	262.06
289.755	233.06
289.986	253.06
290.217	255.06
290.448	238.06
290.679	260.06
290.91	260.06
291.141	240.06
291.371	232.06
291.602	235.06
291.833	228.06
292.064	243.06
292.295	252.06
292.526	251.06
292.757	246.06
292.987	240.06
293.218	232.06
293.449	246.06
293.68	246.06
293.91	229.06
294.141	249.06
294.372	249.06
294.603	229.06
294.833	236.06
295.064	251.06
295.295	256.06
295.525	240.06
295.756	251.06
295.987	268.06
296.217	291.06
296.448	284.06
296.679	276.06
296.909	260.06
297.14	255.06
297.37	246.06
297.601	250.06
297.831	271.06
298.062	244.06
298.292	259.06
298.523	257.06
298.753	275.06
298.984	249.06
299.214	266.06
299.445	267.06
299.675	268.06
299.905	267.06
300.136	278.06
300.366	257.06
300.597	257.06
300.827	273.06
301.057	266.06
301.288	274.06
301.518	274.06
301.748	282.06
301.979	261.06
302.209	266.06
302.439	270.06
302.669	279.06
302.9	298.06
303.13	289.06
303.36	267.06
303.59	292.06
303.82	287.06
304.051	280.06
304.281	284.06
304.511	275.06
304.741	266.06
304.971	283.06
305.201	260.06
305.431	282.06
305.661	287.06
305.891	275.06
306.121	285.06
306.352	290.06
306.582	287.06
306.812	283.06
307.042	290.06
307.272	283.06
307.502	285.06
307.731	294.06
307.961	287.06
308.191	286.06
308.421	293.06
308.651	302.06
308.881	294.06
309.111	300.06
309.341	304.06
309.571	320.06
309.8	317.06
310.03	325.06
310.26	322.06
310.49	344.06
310.72	339.06
310.949	355.06
311.179	353.06
311.409	348.06
311.639	313.06
311.868	338.06
312.098	328.06
312.328	342.06
312.557	363.06
312.787	376.06
313.017	359.06
313.246	351.06
313.476	353.06
313.706	347.06
313.935	324.06
314.165	329.06
314.394	357.06
314.624	356.06
314.853	352.06
315.083	331.06
315.312	324.06
315.542	339.06
315.771	325.06
316.001	311.06
316.23	311.06
316.46	322.06
316.689	329.06
316.919	321.06
317.148	346.06
317.377	339.06
317.607	330.06
317.836	343.06
318.065	316.06
318.295	320.06
318.524	317.06
318.753	323.06
318.983	324.06
319.212	353.06
319.441	344.06
319.67	343.06
319.9	351.06
320.129	330.06
320.358	319.06
320.587	333.06
320.816	350.06
321.046	360.06
321.275	361.06
321.504	376.06
321.733	347.06
321.962	371.06
322.191	377.06
322.42	408.06
322.649	406.06
322.878	421.06
323.108	445.06
323.337	455.06
323.566	470.06
323.795	511.06
324.024	579.06
324.253	714.06
324.482	1096.06
324.71	1700.06
324.939	2419.06
325.168	1991.06
325.397	1023.06
325.626	654.06
325.855	569.06
326.084	507.06
326.313	488.06
326.542	506.06
326.77	564.06
326.999	665.06
327.228	967.06
327.457	1484.06
327.686	1721.06
327.914	1153.06
328.143	726.06
328.372	625.06
328.6	594.06
328.829	539.06
329.058	571.06
329.287	557.06
329.515	546.06
329.744	497.06
329.972	477.06
330.201	509.06
330.43	567.06
330.658	593.06
330.887	602.06
331.115	582.06
331.344	499.06
331.572	458.06
331.801	442.06
332.03	451.06
332.258	437.06
332.486	425.06
332.715	399.06
332.943	394.06
333.172	415.06
333.4	395.06
333.629	427.06
333.857	423.06
334.085	408.06
334.314	454.06
334.542	507.06
334.771	515.06
334.999	436.06
335.227	400.06
335.455	392.06
335.684	396.06
335.912	388.06
336.14	373.06
336.369	369.06
336.597	394.06
336.825	408.06
337.053	384.06
337.281	372.06
337.51	373.06
337.738	387.06
337.966	371.06
338.194	376.06
338.422	396.06
338.65	368.06
338.878	367.06
339.106	376.06
339.334	374.06
339.562	370.06
339.79	384.06
340.018	387.06
340.246	367.06
340.474	377.06
340.702	388.06
340.93	356.06
341.158	357.06
341.386	363.06
341.614	370.06
341.842	351.06
342.07	387.06
342.298	362.06
342.526	346.06
342.754	374.06
342.981	359.06
343.209	340.06
343.437	367.06
343.665	357.06
343.893	349.06
344.12	368.06
344.348	363.06
344.576	381.06
344.804	379.06
345.031	395.06
345.259	409.06
345.487	403.06
345.714	398.06
345.942	359.06
346.17	373.06
346.397	371.06
346.625	358.06
346.853	385.06
347.08	369.06
347.308	368.06
347.535	390.06
347.763	393.06
347.99	368.06
348.218	393.06
348.445	374.06
348.673	369.06
348.9	360.06
349.128	353.06
349.355	356.06
349.583	359.06
349.81	339.06
350.037	356.06
350.265	347.06
350.492	351.06
350.72	357.06
350.947	360.06
351.174	367.06
351.402	391.06
351.629	381.06
351.856	392.06
352.083	384.06
352.311	392.06
352.538	376.06
352.765	378.06
352.992	378.06
353.22	362.06
353.447	387.06
353.674	354.06
353.901	349.06
354.128	364.06
354.355	341.06
354.583	336.06
354.81	332.06
355.037	339.06
355.264	338.06
355.491	320.06
355.718	332.06
355.945	344.06
356.172	344.06
356.399	328.06
356.626	336.06
356.853	337.06
357.08	323.06
357.307	331.06
357.534	331.06
357.761	336.06
357.988	324.06
358.215	336.06
358.441	329.06
358.668	330.06
358.895	316.06
359.122	337.06
359.349	355.06
359.576	375.06
359.802	374.06
360.029	416.06
360.256	429.06
360.483	410.06
360.709	383.06
360.936	367.06
361.163	362.06
361.39	375.06
361.616	366.06
361.843	386.06
362.07	375.06
362.296	383.06
362.523	357.06
362.749	369.06
362.976	361.06
363.203	347.06
363.429	350.06
363.656	359.06
363.882	344.06
364.109	327.06
364.335	327.06
364.562	345.06
364.788	355.06
365.015	330.06
365.241	352.06
365.468	347.06
365.694	363.06
365.92	355.06
366.147	343.06
366.373	328.06
366.599	345.06
366.826	327.06
367.052	339.06
367.278	325.06
367.505	341.06
367.731	344.06
367.957	330.06
368.184	340.06
368.41	351.06
368.636	357.06
368.862	356.06
369.089	348.06
369.315	344.06
369.541	327.06
369.767	356.06
369.993	357.06
370.219	348.06
370.445	344.06
370.672	341.06
370.898	339.06
371.124	336.06
371.35	362.06
371.576	337.06
371.802	338.06
372.028	323.06
372.254	344.06
372.48	345.06
372.706	338.06
372.932	332.06
373.158	333.06
373.384	350.06
373.61	327.06
373.835	334.06
374.061	333.06
374.287	360.06
374.513	339.06
374.739	332.06
374.965	327.06
375.191	339.06
375.416	322.06
375.642	327.06
375.868	343.06
376.094	343.06
376.319	337.06
376.545	333.06
376.771	331.06
376.997	328.06
377.222	314.06
377.448	321.06
377.674	348.06
377.899	344.06
378.125	325.06
378.35	326.06
378.576	323.06
378.802	324.06
379.027	343.06
379.253	339.06
379.478	327.06
379.704	322.06
379.929	320.06
380.155	330.06
380.38	327.06
380.606	364.06
380.831	331.06
381.057	354.06
381.282	346.06
381.507	320.06
381.733	331.06
381.958	334.06
382.184	334.06
382.409	342.06
382.634	328.06
382.86	348.06
383.085	350.06
383.31	338.06
383.535	353.06
383.761	347.06
383.986	339.06
384.211	341.06
384.436	368.06
384.662	352.06
384.887	348.06
385.112	339.06
385.337	352.06
385.562	353.06
385.787	374.06
386.013	355.06
386.238	373.06
386.463	380.06
386.688	346.06
386.913	337.06
387.138	371.06
387.363	349.06
387.588	362.06
387.813	370.06
388.038	357.06
388.263	363.06
388.488	353.06
388.713	358.06
388.938	358.06
389.163	372.06
389.387	356.06
389.612	350.06
389.837	342.06
390.062	338.06
390.287	370.06
390.512	365.06
390.736	355.06
390.961	360.06
391.186	380.06
391.411	348.06
391.636	368.06
391.86	358.06
392.085	364.06
392.31	372.06
392.534	359.06
392.759	372.06
392.984	357.06
393.208	367.06
393.433	363.06
393.658	383.06
393.882	367.06
394.107	374.06
394.331	364.06
394.556	358.06
394.78	369.06
395.005	368.06
395.229	370.06
395.454	358.06
395.678	367.06
395.903	389.06
396.127	395.06
396.352	403.06
396.576	396.06
396.801	382.06
397.025	385.06
397.249	388.06
397.474	387.06
397.698	384.06
397.922	404.06
398.147	411.06
398.371	406.06
398.595	388.06
398.82	416.06
399.044	397.06
399.268	409.06
399.492	430.06
399.717	426.06
399.941	473.06
400.165	490.06
400.389	502.06
400.613	461.06
400.837	431.06
401.062	417.06
401.286	422.06
401.51	411.06
401.734	427.06
401.958	403.06
402.182	412.06
402.406	413.06
402.63	428.06
402.854	408.06
403.078	425.06
403.302	424.06
403.526	417.06
403.75	433.06
403.974	439.06
404.198	399.06
404.422	439.06
404.645	449.06
404.869	460.06
405.093	469.06
405.317	509.06
405.541	530.06
405.765	458.06
405.988	464.06
406.212	464.06
406.436	490.06
406.66	491.06
406.883	460.06
407.107	500.06
407.331	525.06
407.555	571.06
407.778	567.06
408.002	532.06
408.226	476.06
408.449	497.06
408.673	492.06
408.896	500.06
409.12	549.06
409.344	501.06
409.567	463.06
409.791	460.06
410.014	410.06
410.238	434.06
410.461	442.06
410.685	448.06
410.908	454.06
411.132	485.06
411.355	480.06
411.578	493.06
411.802	426.06
412.025	439.06
412.249	427.06
412.472	466.06
412.695	508.06
412.919	490.06
413.142	453.06
413.365	425.06
413.589	415.06
413.812	417.06
414.035	403.06
414.258	410.06
414.482	404.06
414.705	411.06
414.928	411.06
415.151	401.06
415.374	398.06
415.597	418.06
415.821	397.06
416.044	405.06
416.267	398.06
416.49	399.06
416.713	401.06
416.936	411.06
417.159	414.06
417.382	423.06
417.605	418.06
417.828	397.06
418.051	425.06
418.274	421.06
418.497	412.06
418.72	398.06
418.943	415.06
419.166	431.06
419.389	434.06
419.611	431.06
419.834	439.06
420.057	424.06
420.28	428.06
420.503	417.06
420.726	413.06
420.948	435.06
421.171	469.06
421.394	527.06
421.617	469.06
421.839	433.06
422.062	421.06
422.285	450.06
422.507	502.06
422.73	559.06
422.953	565.06
423.175	484.06
423.398	441.06
423.621	449.06
423.843	495.06
424.066	467.06
424.288	482.06
424.511	493.06
424.733	529.06
424.956	627.06
425.178	595.06
425.401	589.06
425.623	607.06
425.846	525.06
426.068	465.06
426.291	474.06
426.513	481.06
426.735	485.06
426.958	518.06
427.18	600.06
427.402	723.06
427.625	780.06
427.847	691.06
428.069	608.06
428.292	534.06
428.514	495.06
428.736	476.06
428.958	459.06
429.181	445.06
429.403	441.06
429.625	444.06
429.847	487.06
430.069	534.06
430.292	530.06
430.514	456.06
430.736	458.06
430.958	437.06
431.18	431.06
431.402	416.06
431.624	425.06
431.846	412.06
432.068	395.06
432.29	398.06
432.512	398.06
432.734	421.06
432.956	416.06
433.178	405.06
433.4	441.06
433.622	424.06
433.844	417.06
434.066	401.06
434.287	401.06
434.509	408.06
434.731	419.06
434.953	439.06
435.175	462.06
435.397	460.06
435.618	460.06
435.84	499.06
436.062	597.06
436.284	651.06
436.505	548.06
436.727	479.06
436.949	461.06
437.17	446.06
437.392	433.06
437.614	436.06
437.835	526.06
438.057	597.06
438.278	683.06
438.5	675.06
438.721	728.06
438.943	681.06
439.165	534.06
439.386	511.06
439.608	485.06
439.829	500.06
440.05	523.06
440.272	565.06
440.493	546.06
440.715	457.06
440.936	453.06
441.158	467.06
441.379	436.06
441.6	474.06
441.822	477.06
442.043	524.06
442.264	600.06
442.486	635.06
442.707	542.06
442.928	516.06
443.149	487.06
443.371	507.06
443.592	552.06
443.813	641.06
444.034	673.06
444.255	561.06
444.476	498.06
444.698	490.06
444.919	475.06
445.14	585.06
445.361	556.06
445.582	529.06
445.803	598.06
446.024	683.06
446.245	727.06
446.466	639.06
446.687	546.06
446.908	489.06
447.129	461.06
447.35	454.06
447.571	472.06
447.792	452.06
448.013	462.06
448.234	467.06
448.455	540.06
448.675	627.06
448.896	707.06
449.117	599.06
449.338	593.06
449.559	668.06
449.779	736.06
450	601.06
450.221	513.06
450.442	463.06
450.662	463.06
450.883	458.06
451.104	467.06
451.324	465.06
451.545	416.06
451.766	414.06
451.986	408.06
452.207	418.06
452.428	397.06
452.648	404.06
452.869	409.06
453.089	422.06
453.31	425.06
453.53	420.06
453.751	406.06
453.971	433.06
454.192	434.06
454.412	417.06
454.633	407.06
454.853	374.06
455.073	409.06
455.294	426.06
455.514	494.06
455.734	473.06
455.955	407.06
456.175	396.06
456.395	377.06
456.616	369.06
456.836	393.06
457.056	395.06
457.276	376.06
457.497	363.06
457.717	383.06
457.937	380.06
458.157	384.06
458.377	396.06
458.598	422.06
458.818	482.06
459.038	565.06
459.258	580.06
459.478	492.06
459.698	434.06
459.918	415.06
460.138	414.06
460.358	410.06
460.578	423.06
460.798	421.06
461.018	431.06
461.238	423.06
461.458	409.06
461.678	405.06
461.898	423.06
462.118	409.06
462.338	420.06
462.558	427.06
462.777	407.06
462.997	434.06
463.217	453.06
463.437	450.06
463.657	437.06
463.876	444.06
464.096	426.06
464.316	418.06
464.536	435.06
464.755	452.06
464.975	447.06
465.195	504.06
465.414	561.06
465.634	504.06
465.854	467.06
466.073	454.06
466.293	421.06
466.512	405.06
466.732	378.06
466.951	387.06
467.171	401.06
467.391	413.06
467.61	424.06
467.829	434.06
468.049	449.06
468.268	444.06
468.488	410.06
468.707	380.06
468.927	404.06
469.146	400.06
469.365	391.06
469.585	379.06
469.804	412.06
470.023	423.06
470.243	418.06
470.462	412.06
470.681	441.06
470.901	439.06
471.12	418.06
471.339	435.06
471.558	423.06
471.777	410.06
471.997	427.06
472.216	434.06
472.435	465.06
472.654	445.06
472.873	429.06
473.092	415.06
473.311	417.06
473.53	422.06
473.749	441.06
473.968	481.06
474.187	565.06
474.406	585.06
474.625	484.06
474.844	445.06
475.063	435.06
475.282	401.06
475.501	419.06
475.72	419.06
475.939	412.06
476.158	438.06
476.377	421.06
476.596	439.06
476.814	446.06
477.033	452.06
477.252	456.06
477.471	441.06
477.69	425.06
477.908	444.06
478.127	466.06
478.346	447.06
478.564	458.06
478.783	447.06
479.002	466.06
479.22	463.06
479.439	462.06
479.658	483.06
479.876	505.06
480.095	523.06
480.313	519.06
480.532	505.06
480.751	495.06
480.969	530.06
481.188	590.06
481.406	633.06
481.624	564.06
481.843	500.06
482.061	491.06
482.28	486.06
482.498	479.06
482.717	456.06
482.935	485.06
483.153	484.06
483.372	483.06
483.59	498.06
483.808	485.06
484.027	479.06
484.245	483.06
484.463	486.06
484.681	499.06
484.9	499.06
485.118	513.06
485.336	477.06
485.554	492.06
485.772	501.06
485.99	507.06
486.209	517.06
486.427	524.06
486.645	524.06
486.863	540.06
487.081	538.06
487.299	537.06
487.517	520.06
487.735	520.06
487.953	509.06
488.171	507.06
488.389	511.06
488.607	538.06
488.825	549.06
489.043	503.06
489.261	520.06
489.479	537.06
489.696	562.06
489.914	543.06
490.132	546.06
490.35	548.06
490.568	538.06
490.786	560.06
491.003	579.06
491.221	569.06
491.439	560.06
491.657	584.06
491.874	594.06
492.092	584.06
492.31	589.06
492.527	596.06
492.745	613.06
492.963	597.06
493.18	581.06
493.398	631.06
493.615	614.06
493.833	633.06
494.05	637.06
494.268	614.06
494.485	645.06
494.703	620.06
494.92	619.06
495.138	623.06
495.355	639.06
495.573	605.06
495.79	614.06
496.008	646.06
496.225	609.06
496.442	629.06
496.66	625.06
496.877	640.06
497.094	616.06
497.312	653.06
497.529	647.06
497.746	648.06
497.963	641.06
498.181	689.06
498.398	669.06
498.615	676.06
498.832	684.06
499.049	678.06
499.267	675.06
499.484	692.06
499.701	732.06
499.918	740.06
500.135	740.06
500.352	784.06
500.569	783.06
500.786	777.06
501.003	793.06
501.22	780.06
501.437	771.06
501.654	763.06
501.871	735.06
502.088	733.06
502.305	693.06
502.522	697.06
502.739	663.06
502.956	653.06
503.172	651.06
503.389	649.06
503.606	629.06
503.823	648.06
504.04	650.06
504.256	631.06
504.473	639.06
504.69	624.06
504.907	617.06
505.123	617.06
505.34	609.06
505.557	595.06
505.773	627.06
505.99	590.06
506.207	603.06
506.423	579.06
506.64	599.06
506.856	582.06
507.073	580.06
507.289	600.06
507.506	575.06
507.722	582.06
507.939	632.06
508.155	607.06
508.372	588.06
508.588	583.06
508.805	583.06
509.021	569.06
509.238	580.06
509.454	597.06
509.67	593.06
509.887	574.06
510.103	580.06
510.319	610.06
510.536	704.06
510.752	1256.06
510.968	1000.06
511.184	631.06
511.401	602.06
511.617	583.06
511.833	573.06
512.049	579.06
512.265	556.06
512.481	560.06
512.698	568.06
512.914	555.06
513.13	557.06
513.346	560.06
513.562	545.06
513.778	560.06
513.994	578.06
514.21	581.06
514.426	630.06
514.642	664.06
514.858	699.06
515.074	745.06
515.29	896.06
515.506	1345.06
515.721	1095.06
515.937	709.06
516.153	637.06
516.369	631.06
516.585	612.06
516.801	603.06
517.016	545.06
517.232	576.06
517.448	572.06
517.664	577.06
517.879	548.06
518.095	551.06
518.311	542.06
518.527	553.06
518.742	552.06
518.958	556.06
519.173	574.06
519.389	557.06
519.605	563.06
519.82	541.06
520.036	575.06
520.251	610.06
520.467	611.06
520.682	625.06
520.898	607.06
521.113	684.06
521.329	727.06
521.544	844.06
521.76	1066.06
521.975	1814.06
522.19	1736.06
522.406	932.06
522.621	677.06
522.836	605.06
523.052	583.06
523.267	556.06
523.482	525.06
523.698	526.06
523.913	523.06
524.128	504.06
524.343	518.06
524.559	502.06
524.774	494.06
524.989	480.06
525.204	503.06
525.419	490.06
525.634	490.06
525.849	477.06
526.064	467.06
526.28	453.06
526.495	474.06
526.71	442.06
526.925	486.06
527.14	457.06
527.355	454.06
527.57	480.06
527.785	470.06
527.999	440.06
528.214	462.06
528.429	454.06
528.644	473.06
528.859	451.06
529.074	450.06
529.289	471.06
529.503	555.06
529.718	538.06
529.933	505.06
530.148	470.06
530.363	449.06
530.577	457.06
530.792	460.06
531.007	447.06
531.221	438.06
531.436	440.06
531.651	449.06
531.865	430.06
532.08	429.06
532.295	433.06
532.509	416.06
532.724	413.06
532.938	420.06
533.153	420.06
533.367	406.06
533.582	410.06
533.796	408.06
534.011	423.06
534.225	423.06
534.44	427.06
534.654	424.06
534.868	409.06
535.083	422.06
535.297	425.06
535.511	407.06
535.726	439.06
535.94	425.06
536.154	420.06
536.369	416.06
536.583	418.06
536.797	416.06
537.011	419.06
537.225	397.06
537.44	424.06
537.654	426.06
537.868	413.06
538.082	400.06
538.296	436.06
538.51	423.06
538.724	409.06
538.938	409.06
539.153	390.06
539.367	425.06
539.581	427.06
539.795	422.06
540.009	402.06
540.222	418.06
540.436	409.06
540.65	419.06
540.864	421.06
541.078	412.06
541.292	420.06
541.506	419.06
541.72	396.06
541.934	381.06
542.147	415.06
542.361	425.06
542.575	392.06
542.789	385.06
543.002	392.06
543.216	407.06
543.43	423.06
543.644	373.06
543.857	415.06
544.071	383.06
544.285	410.06
544.498	384.06
544.712	403.06
544.925	401.06
545.139	395.06
545.352	397.06
545.566	396.06
545.779	381.06
545.993	409.06
546.206	382.06
546.42	384.06
546.633	372.06
546.847	380.06
547.06	387.06
547.274	390.06
547.487	363.06
547.7	377.06
547.914	361.06
548.127	378.06
548.34	378.06
548.554	368.06
548.767	385.06
548.98	365.06
549.193	362.06
549.407	380.06
549.62	376.06
549.833	365.06
550.046	367.06
550.259	375.06
550.473	366.06
550.686	373.06
550.899	379.06
551.112	377.06
551.325	363.06
551.538	359.06
551.751	382.06
551.964	374.06
552.177	363.06
552.39	379.06
552.603	376.06
552.816	363.06
553.029	379.06
553.242	378.06
553.455	360.06
553.667	388.06
553.88	398.06
554.093	381.06
554.306	379.06
554.519	388.06
554.732	376.06
554.944	381.06
555.157	389.06
555.37	364.06
555.583	362.06
555.795	377.06
556.008	364.06
556.221	346.06
556.433	369.06
556.646	373.06
556.859	352.06
557.071	332.06
557.284	348.06
557.496	336.06
557.709	343.06
557.921	374.06
558.134	355.06
558.346	331.06
558.559	314.06
558.771	336.06
558.984	323.06
559.196	347.06
559.409	339.06
559.621	333.06
559.833	335.06
560.046	351.06
560.258	327.06
560.47	323.06
560.683	361.06
560.895	342.06
561.107	325.06
561.32	348.06
561.532	328.06
561.744	331.06
561.956	319.06
562.168	329.06
562.381	325.06
562.593	335.06
562.805	346.06
563.017	348.06
563.229	333.06
563.441	342.06
563.653	340.06
563.865	330.06
564.077	339.06
564.289	362.06
564.501	343.06
564.713	343.06
564.925	317.06
565.137	362.06
565.349	357.06
565.561	336.06
565.773	346.06
565.985	348.06
566.197	370.06
566.408	369.06
566.62	363.06
566.832	401.06
567.044	396.06
567.255	372.06
567.467	377.06
567.679	383.06
567.891	393.06
568.102	384.06
568.314	380.06
568.526	395.06
568.737	371.06
568.949	356.06
569.161	351.06
569.372	356.06
569.584	332.06
569.795	358.06
570.007	348.06
570.218	392.06
570.43	377.06
570.641	328.06
570.853	308.06
571.064	341.06
571.276	332.06
571.487	324.06
571.698	321.06
571.91	325.06
572.121	318.06
572.333	313.06
572.544	294.06
572.755	297.06
572.966	291.06
573.178	299.06
573.389	303.06
573.6	309.06
573.811	299.06
574.023	296.06
574.234	303.06
574.445	281.06
574.656	291.06
574.867	292.06
575.078	287.06
575.289	314.06
575.501	290.06
575.712	290.06
575.923	289.06
576.134	308.06
576.345	290.06
576.556	281.06
576.767	289.06
576.978	289.06
577.188	306.06
577.399	307.06
577.61	300.06
577.821	283.06
578.032	299.06
578.243	316.06
578.454	569.06
578.665	407.06
578.875	300.06
579.086	294.06
579.297	270.06
579.508	271.06
579.718	280.06
579.929	282.06
580.14	303.06
580.35	273.06
580.561	257.06
580.772	273.06
580.982	264.06
581.193	280.06
581.403	275.06
581.614	255.06
581.825	267.06
582.035	267.06
582.246	290.06
582.456	278.06
582.667	263.06
582.877	267.06
583.087	269.06
583.298	260.06
583.508	275.06
583.719	279.06
583.929	260.06
584.139	268.06
584.35	266.06
584.56	271.06
584.77	263.06
584.981	255.06
585.191	275.06
585.401	261.06
585.611	262.06
585.821	266.06
586.032	271.06
586.242	272.06
586.452	268.06
586.662	238.06
586.872	267.06
587.082	245.06
587.292	248.06
587.502	248.06
587.713	246.06
587.923	266.06
588.133	244.06
588.343	244.06
588.553	263.06
588.762	259.06
588.972	275.06
589.182	273.06
589.392	258.06
589.602	250.06
589.812	244.06
590.022	257.06
590.232	268.06
590.441	261.06
590.651	256.06
590.861	256.06
591.071	251.06
591.281	251.06
591.49	273.06
591.7	261.06
591.91	253.06
592.119	267.06
592.329	249.06
592.539	252.06
592.748	263.06
592.958	261.06
593.167	251.06
593.377	266.06
593.587	277.06
593.796	272.06
594.006	260.06
594.215	266.06
594.424	250.06
594.634	260.06
594.843	261.06
595.053	261.06
595.262	263.06
595.472	244.06
595.681	235.06
595.89	242.06
596.1	239.06
596.309	253.06
596.518	229.06
596.727	246.06
596.937	257.06
597.146	238.06
597.355	243.06
597.564	237.06
597.774	235.06
597.983	222.06
598.192	244.06
598.401	226.06
598.61	223.06
598.819	227.06
599.028	223.06
599.237	242.06
599.446	229.06
599.655	233.06
599.864	233.06
600.073	230.06
600.282	232.06
600.491	223.06
600.7	222.06
600.909	223.06
601.118	211.06
601.327	228.06
601.536	229.06
601.745	226.06
601.953	235.06
602.162	226.06
602.371	223.06
602.58	221.06
602.789	222.06
602.997	219.06
603.206	220.06
603.415	236.06
603.623	228.06
603.832	242.06
604.041	228.06
604.249	204.06
604.458	204.06
604.666	192.06
604.875	219.06
605.084	207.06
605.292	212.06
605.501	230.06
605.709	217.06
605.918	222.06
606.126	217.06
606.334	205.06
606.543	223.06
606.751	215.06
606.96	218.06
607.168	233.06
607.376	220.06
607.585	211.06
607.793	212.06
608.001	207.06
608.21	226.06
608.418	205.06
608.626	214.06
608.834	215.06
609.043	209.06
609.251	199.06
609.459	209.06
609.667	212.06
609.875	216.06
610.083	218.06
610.291	209.06
610.499	213.06
610.707	212.06
610.916	217.06
611.124	220.06
611.332	210.06
611.54	233.06
611.748	209.06
611.955	211.06
612.163	210.06
612.371	218.06
612.579	201.06
612.787	218.06
612.995	209.06
613.203	196.06
613.411	207.06
613.618	217.06
613.826	207.06
614.034	204.06
614.242	207.06
614.449	196.06
614.657	199.06
614.865	202.06
615.072	201.06
615.28	211.06
615.488	197.06
615.695	211.06
615.903	209.06
616.111	204.06
616.318	202.06
616.526	213.06
616.733	203.06
616.941	203.06
617.148	220.06
617.356	202.06
617.563	211.06
617.771	203.06
617.978	206.06
618.185	228.06
618.393	215.06
618.6	203.06
618.807	209.06
619.015	200.06
619.222	191.06
619.429	201.06
619.637	187.06
619.844	191.06
620.051	204.06
620.258	205.06
620.466	191.06
620.673	190.06
620.88	186.06
621.087	193.06
621.294	198.06
621.501	208.06
621.708	202.06
621.915	194.06
622.122	209.06
622.329	191.06
622.536	205.06
622.743	206.06
622.95	195.06
623.157	200.06
623.364	197.06
623.571	187.06
623.778	192.06
623.985	185.06
624.192	196.06
624.399	191.06
624.606	179.06
624.812	183.06
625.019	172.06
625.226	183.06
625.433	196.06
625.639	195.06
625.846	185.06
626.053	193.06
626.259	186.06
626.466	181.06
626.673	183.06
626.879	184.06
627.086	183.06
627.293	191.06
627.499	181.06
627.706	192.06
627.912	179.06
628.119	193.06
628.325	171.06
628.532	190.06
628.738	168.06
628.945	172.06
629.151	161.06
629.357	171.06
629.564	181.06
629.77	173.06
629.976	177.06
630.183	168.06
630.389	190.06
630.595	179.06
630.802	171.06
631.008	177.06
631.214	181.06
631.42	163.06
631.627	188.06
631.833	163.06
632.039	163.06
632.245	189.06
632.451	189.06
632.657	178.06
632.863	188.06
633.069	171.06
633.275	170.06
633.481	174.06
633.688	158.06
633.893	168.06
634.099	176.06
634.305	154.06
634.511	169.06
634.717	155.06
634.923	154.06
635.129	162.06
635.335	160.06
635.541	171.06
635.747	166.06
635.952	169.06
636.158	160.06
636.364	177.06
636.57	171.06
636.775	175.06
636.981	168.06
637.187	163.06
637.392	172.06
637.598	164.06
637.804	162.06
638.009	167.06
638.215	155.06
638.421	157.06
638.626	141.06
638.832	166.06
639.037	162.06
639.243	153.06
639.448	160.06
639.654	154.06
639.859	165.06
640.065	173.06
640.27	153.06
640.475	170.06
640.681	155.06
640.886	159.06
641.091	163.06
641.297	165.06
641.502	146.06
641.707	148.06
641.913	175.06
642.118	155.06
642.323	168.06
642.528	155.06
642.733	165.06
642.939	142.06
643.144	151.06
643.349	167.06
643.554	159.06
643.759	142.06
643.964	145.06
644.169	151.06
644.374	147.06
644.579	145.06
644.784	152.06
644.989	139.06
645.194	139.06
645.399	154.06
645.604	132.06
645.809	157.06
646.014	134.06
646.219	156.06
646.423	163.06
646.628	140.06
646.833	155.06
647.038	153.06
647.243	154.06
647.447	151.06
647.652	140.06
647.857	167.06
648.062	157.06
648.266	166.06
648.471	147.06
648.676	159.06
648.88	148.06
649.085	144.06
649.289	164.06
649.494	152.06
649.698	165.06
649.903	190.06
650.107	171.06
650.312	152.06
650.516	149.06
650.721	141.06
650.925	156.06
651.13	153.06
651.334	133.06
651.539	145.06
651.743	133.06
651.947	140.06
652.152	129.06
652.356	124.06
652.56	136.06
652.764	155.06
652.969	140.06
653.173	131.06
653.377	123.06
653.581	147.06
653.785	128.06
653.99	122.06
654.194	124.06
654.398	130.06
654.602	124.06
654.806	140.06
655.01	124.06
655.214	127.06
655.418	112.06
655.622	118.06
655.826	135.06
656.03	136.06
656.234	133.06
656.438	125.06
656.642	124.06
656.846	131.06
657.049	130.06
657.253	125.06
657.457	113.06
657.661	130.06
657.865	109.06
658.068	118.06
658.272	99.06
658.476	104.06
658.68	101.06
658.883	98.06
659.087	103.06
659.291	103.06
659.494	91.06
659.698	99.06
659.901	101.06
660.105	90.06
660.309	95.06
660.512	116.06
660.716	77.06
660.919	88.06
661.123	92.06
661.326	91.06
661.53	92.06
661.733	97.06
661.936	84.06
662.14	90.06
662.343	73.06
662.546	83.06
662.75	96.06
662.953	98.06
663.156	92.06
663.36	85.06
663.563	76.06
663.766	91.06
663.969	89.06
664.173	85.06
664.376	76.06
664.579	87.06
664.782	88.06
664.985	93.06
665.188	74.06
665.391	80.06
665.594	83.06
665.797	76.06
666	88.06
666.203	83.06
666.406	82.06
666.609	77.06
666.812	90.06
667.015	90.06
667.218	82.06
667.421	90.06
667.624	75.06
667.827	77.06
668.03	73.06
668.232	79.06
668.435	81.06
668.638	75.06
668.841	87.06
669.043	88.06
669.246	87.06
669.449	82.06
669.651	83.06
669.854	84.06
670.057	93.06
670.259	80.06
670.462	86.06
670.665	74.06
670.867	68.06
671.07	81.06
671.272	90.06
671.475	91.06
671.677	93.06
671.88	94.06
672.082	83.06
672.284	92.06
672.487	84.06
672.689	92.06
672.892	87.06
