Data from 1961.PennyLincolnUp.Lamp.En5.5.200Scan.071719.P1._HRD10591_13-48-27-059.txt Node
Date: Thu Jul 18 13:48:27 EDT 2019
User: cochatt
Spectrometer: HR+D1059
Trigger mode: 1
Integration Time (sec): 1.000000E-1
Scans to average: 1
Electric dark correction enabled: true
Nonlinearity correction enabled: false
Boxcar width: 0
XAxis mode: Wavelengths
Number of Pixels in Spectrum: 2048
>>>>>Begin Spectral Data<<<<<
223.165	-6.12
223.4	-6.12
223.635	-6.12
223.869	-26.12
224.104	-9.12
224.338	-7.12
224.573	-15.12
224.808	-13.12
225.042	-11.12
225.277	-16.12
225.511	-0.12
225.746	1.88
225.98	3.88
226.215	13.88
226.449	19.88
226.683	15.88
226.918	19.88
227.152	28.88
227.387	37.88
227.621	40.88
227.856	35.88
228.09	40.88
228.324	49.88
228.559	53.88
228.793	61.88
229.027	102.88
229.262	91.88
229.496	98.88
229.73	125.88
229.964	139.88
230.199	122.88
230.433	106.88
230.667	115.88
230.901	109.88
231.136	115.88
231.37	92.88
231.604	100.88
231.838	103.88
232.072	105.88
232.306	100.88
232.541	124.88
232.775	112.88
233.009	107.88
233.243	101.88
233.477	117.88
233.711	109.88
233.945	101.88
234.179	115.88
234.413	93.88
234.647	90.88
234.881	102.88
235.115	101.88
235.349	106.88
235.583	111.88
235.817	114.88
236.051	99.88
236.285	106.88
236.519	106.88
236.753	129.88
236.987	134.88
237.221	148.88
237.455	199.88
237.689	161.88
237.922	145.88
238.156	128.88
238.39	115.88
238.624	106.88
238.858	113.88
239.091	101.88
239.325	105.88
239.559	116.88
239.793	119.88
240.027	122.88
240.26	117.88
240.494	131.88
240.728	135.88
240.961	145.88
241.195	125.88
241.429	136.88
241.662	124.88
241.896	116.88
242.13	112.88
242.363	122.88
242.597	112.88
242.83	127.88
243.064	111.88
243.298	114.88
243.531	117.88
243.765	122.88
243.998	117.88
244.232	103.88
244.465	121.88
244.699	121.88
244.932	122.88
245.166	137.88
245.399	128.88
245.633	118.88
245.866	120.88
246.099	118.88
246.333	136.88
246.566	120.88
246.8	126.88
247.033	134.88
247.266	135.88
247.5	152.88
247.733	149.88
247.966	139.88
248.2	157.88
248.433	129.88
248.666	138.88
248.899	159.88
249.133	180.88
249.366	179.88
249.599	150.88
249.832	153.88
250.066	159.88
250.299	154.88
250.532	162.88
250.765	178.88
250.998	179.88
251.231	169.88
251.465	179.88
251.698	158.88
251.931	170.88
252.164	152.88
252.397	166.88
252.63	172.88
252.863	166.88
253.096	179.88
253.329	195.88
253.562	181.88
253.795	189.88
254.028	198.88
254.261	193.88
254.494	199.88
254.727	213.88
254.96	221.88
255.193	233.88
255.426	211.88
255.659	200.88
255.892	189.88
256.124	197.88
256.357	199.88
256.59	181.88
256.823	173.88
257.056	165.88
257.289	170.88
257.521	175.88
257.754	166.88
257.987	158.88
258.22	169.88
258.452	168.88
258.685	169.88
258.918	164.88
259.151	169.88
259.383	169.88
259.616	184.88
259.849	189.88
260.081	202.88
260.314	197.88
260.547	213.88
260.779	207.88
261.012	207.88
261.244	187.88
261.477	182.88
261.71	175.88
261.942	184.88
262.175	206.88
262.407	220.88
262.64	169.88
262.872	178.88
263.105	168.88
263.337	176.88
263.57	184.88
263.802	160.88
264.035	185.88
264.267	155.88
264.499	183.88
264.732	179.88
264.964	186.88
265.197	195.88
265.429	170.88
265.661	174.88
265.894	166.88
266.126	175.88
266.358	175.88
266.591	186.88
266.823	164.88
267.055	173.88
267.287	193.88
267.52	194.88
267.752	190.88
267.984	187.88
268.216	193.88
268.448	192.88
268.681	201.88
268.913	194.88
269.145	218.88
269.377	219.88
269.609	240.88
269.841	207.88
270.073	219.88
270.306	236.88
270.538	249.88
270.77	227.88
271.002	263.88
271.234	233.88
271.466	244.88
271.698	261.88
271.93	260.88
272.162	249.88
272.394	262.88
272.626	254.88
272.858	237.88
273.09	243.88
273.322	224.88
273.553	227.88
273.785	211.88
274.017	198.88
274.249	217.88
274.481	215.88
274.713	208.88
274.945	218.88
275.176	230.88
275.408	207.88
275.64	210.88
275.872	197.88
276.104	217.88
276.335	211.88
276.567	226.88
276.799	250.88
277.031	242.88
277.262	273.88
277.494	243.88
277.726	241.88
277.957	236.88
278.189	235.88
278.421	220.88
278.652	217.88
278.884	207.88
279.115	207.88
279.347	205.88
279.579	206.88
279.81	215.88
280.042	202.88
280.273	216.88
280.505	207.88
280.736	221.88
280.968	215.88
281.199	203.88
281.431	218.88
281.662	211.88
281.894	204.88
282.125	227.88
282.356	240.88
282.588	274.88
282.819	244.88
283.051	238.88
283.282	211.88
283.513	217.88
283.745	241.88
283.976	212.88
284.207	210.88
284.439	218.88
284.67	214.88
284.901	214.88
285.132	229.88
285.364	218.88
285.595	214.88
285.826	217.88
286.057	221.88
286.288	226.88
286.52	226.88
286.751	224.88
286.982	231.88
287.213	213.88
287.444	235.88
287.675	204.88
287.906	228.88
288.138	240.88
288.369	232.88
288.6	234.88
288.831	222.88
289.062	224.88
289.293	220.88
289.524	218.88
289.755	239.88
289.986	234.88
290.217	227.88
290.448	223.88
290.679	217.88
290.91	235.88
291.141	232.88
291.371	230.88
291.602	216.88
291.833	230.88
292.064	218.88
292.295	227.88
292.526	225.88
292.757	215.88
292.987	227.88
293.218	220.88
293.449	221.88
293.68	229.88
293.91	237.88
294.141	226.88
294.372	239.88
294.603	224.88
294.833	225.88
295.064	241.88
295.295	240.88
295.525	237.88
295.756	228.88
295.987	239.88
296.217	267.88
296.448	267.88
296.679	261.88
296.909	221.88
297.14	205.88
297.37	229.88
297.601	232.88
297.831	232.88
298.062	236.88
298.292	228.88
298.523	242.88
298.753	226.88
298.984	242.88
299.214	266.88
299.445	233.88
299.675	245.88
299.905	241.88
300.136	230.88
300.366	257.88
300.597	237.88
300.827	234.88
301.057	255.88
301.288	264.88
301.518	255.88
301.748	256.88
301.979	249.88
302.209	265.88
302.439	276.88
302.669	265.88
302.9	247.88
303.13	265.88
303.36	247.88
303.59	263.88
303.82	260.88
304.051	276.88
304.281	257.88
304.511	257.88
304.741	253.88
304.971	254.88
305.201	249.88
305.431	259.88
305.661	263.88
305.891	263.88
306.121	259.88
306.352	267.88
306.582	266.88
306.812	261.88
307.042	260.88
307.272	256.88
307.502	270.88
307.731	273.88
307.961	253.88
308.191	283.88
308.421	261.88
308.651	273.88
308.881	266.88
309.111	272.88
309.341	266.88
309.571	282.88
309.8	285.88
310.03	303.88
310.26	316.88
310.49	293.88
310.72	318.88
310.949	329.88
311.179	329.88
311.409	324.88
311.639	317.88
311.868	298.88
312.098	298.88
312.328	329.88
312.557	326.88
312.787	333.88
313.017	341.88
313.246	317.88
313.476	312.88
313.706	295.88
313.935	314.88
314.165	322.88
314.394	326.88
314.624	314.88
314.853	318.88
315.083	317.88
315.312	291.88
315.542	303.88
315.771	299.88
316.001	291.88
316.23	309.88
316.46	302.88
316.689	317.88
316.919	302.88
317.148	317.88
317.377	318.88
317.607	300.88
317.836	301.88
318.065	319.88
318.295	308.88
318.524	310.88
318.753	279.88
318.983	303.88
319.212	299.88
319.441	301.88
319.67	299.88
319.9	297.88
320.129	310.88
320.358	315.88
320.587	300.88
320.816	339.88
321.046	337.88
321.275	322.88
321.504	334.88
321.733	327.88
321.962	357.88
322.191	349.88
322.42	360.88
322.649	362.88
322.878	372.88
323.108	377.88
323.337	426.88
323.566	451.88
323.795	469.88
324.024	541.88
324.253	666.88
324.482	973.88
324.71	1539.88
324.939	2123.88
325.168	1775.88
325.397	957.88
325.626	625.88
325.855	507.88
326.084	470.88
326.313	468.88
326.542	457.88
326.77	487.88
326.999	604.88
327.228	879.88
327.457	1329.88
327.686	1587.88
327.914	1049.88
328.143	669.88
328.372	569.88
328.6	539.88
328.829	518.88
329.058	534.88
329.287	535.88
329.515	509.88
329.744	454.88
329.972	449.88
330.201	463.88
330.43	515.88
330.658	545.88
330.887	563.88
331.115	548.88
331.344	471.88
331.572	415.88
331.801	425.88
332.03	412.88
332.258	380.88
332.486	385.88
332.715	395.88
332.943	371.88
333.172	379.88
333.4	363.88
333.629	394.88
333.857	405.88
334.085	401.88
334.314	451.88
334.542	449.88
334.771	470.88
334.999	421.88
335.227	412.88
335.455	393.88
335.684	356.88
335.912	379.88
336.14	361.88
336.369	367.88
336.597	370.88
336.825	344.88
337.053	358.88
337.281	357.88
337.51	356.88
337.738	349.88
337.966	347.88
338.194	375.88
338.422	354.88
338.65	377.88
338.878	332.88
339.106	338.88
339.334	321.88
339.562	326.88
339.79	353.88
340.018	344.88
340.246	344.88
340.474	349.88
340.702	343.88
340.93	346.88
341.158	350.88
341.386	332.88
341.614	359.88
341.842	340.88
342.07	329.88
342.298	330.88
342.526	331.88
342.754	320.88
342.981	324.88
343.209	312.88
343.437	334.88
343.665	323.88
343.893	342.88
344.12	330.88
344.348	344.88
344.576	339.88
344.804	356.88
345.031	351.88
345.259	375.88
345.487	355.88
345.714	358.88
345.942	336.88
346.17	325.88
346.397	325.88
346.625	318.88
346.853	337.88
347.08	335.88
347.308	342.88
347.535	339.88
347.763	355.88
347.99	347.88
348.218	326.88
348.445	375.88
348.673	352.88
348.9	337.88
349.128	327.88
349.355	313.88
349.583	332.88
349.81	323.88
350.037	303.88
350.265	318.88
350.492	320.88
350.72	318.88
350.947	339.88
351.174	337.88
351.402	341.88
351.629	333.88
351.856	353.88
352.083	362.88
352.311	350.88
352.538	372.88
352.765	366.88
352.992	355.88
353.22	351.88
353.447	329.88
353.674	335.88
353.901	313.88
354.128	311.88
354.355	314.88
354.583	306.88
354.81	308.88
355.037	306.88
355.264	329.88
355.491	307.88
355.718	307.88
355.945	302.88
356.172	296.88
356.399	289.88
356.626	277.88
356.853	294.88
357.08	293.88
357.307	312.88
357.534	307.88
357.761	306.88
357.988	323.88
358.215	310.88
358.441	315.88
358.668	323.88
358.895	328.88
359.122	321.88
359.349	332.88
359.576	355.88
359.802	357.88
360.029	367.88
360.256	407.88
360.483	370.88
360.709	331.88
360.936	326.88
361.163	360.88
361.39	338.88
361.616	352.88
361.843	328.88
362.07	334.88
362.296	336.88
362.523	337.88
362.749	329.88
362.976	343.88
363.203	326.88
363.429	324.88
363.656	326.88
363.882	330.88
364.109	321.88
364.335	329.88
364.562	320.88
364.788	322.88
365.015	302.88
365.241	311.88
365.468	328.88
365.694	334.88
365.92	315.88
366.147	329.88
366.373	307.88
366.599	302.88
366.826	308.88
367.052	307.88
367.278	307.88
367.505	306.88
367.731	305.88
367.957	324.88
368.184	316.88
368.41	330.88
368.636	328.88
368.862	312.88
369.089	326.88
369.315	290.88
369.541	297.88
369.767	300.88
369.993	334.88
370.219	312.88
370.445	311.88
370.672	332.88
370.898	305.88
371.124	299.88
371.35	327.88
371.576	302.88
371.802	311.88
372.028	325.88
372.254	301.88
372.48	301.88
372.706	303.88
372.932	322.88
373.158	314.88
373.384	328.88
373.61	303.88
373.835	297.88
374.061	293.88
374.287	305.88
374.513	312.88
374.739	309.88
374.965	315.88
375.191	303.88
375.416	321.88
375.642	306.88
375.868	317.88
376.094	309.88
376.319	292.88
376.545	315.88
376.771	312.88
376.997	294.88
377.222	315.88
377.448	297.88
377.674	294.88
377.899	302.88
378.125	310.88
378.35	338.88
378.576	318.88
378.802	298.88
379.027	313.88
379.253	304.88
379.478	312.88
379.704	311.88
379.929	315.88
380.155	306.88
380.38	307.88
380.606	297.88
380.831	301.88
381.057	303.88
381.282	296.88
381.507	325.88
381.733	304.88
381.958	307.88
382.184	299.88
382.409	325.88
382.634	334.88
382.86	309.88
383.085	295.88
383.31	292.88
383.535	333.88
383.761	335.88
383.986	315.88
384.211	318.88
384.436	319.88
384.662	318.88
384.887	343.88
385.112	318.88
385.337	317.88
385.562	318.88
385.787	318.88
386.013	344.88
386.238	341.88
386.463	365.88
386.688	308.88
386.913	317.88
387.138	325.88
387.363	330.88
387.588	325.88
387.813	319.88
388.038	333.88
388.263	319.88
388.488	331.88
388.713	331.88
388.938	330.88
389.163	325.88
389.387	330.88
389.612	319.88
389.837	326.88
390.062	330.88
390.287	323.88
390.512	341.88
390.736	335.88
390.961	343.88
391.186	331.88
391.411	328.88
391.636	328.88
391.86	336.88
392.085	325.88
392.31	326.88
392.534	345.88
392.759	328.88
392.984	318.88
393.208	351.88
393.433	349.88
393.658	330.88
393.882	327.88
394.107	345.88
394.331	314.88
394.556	317.88
394.78	327.88
395.005	338.88
395.229	322.88
395.454	335.88
395.678	356.88
395.903	348.88
396.127	370.88
396.352	377.88
396.576	343.88
396.801	349.88
397.025	338.88
397.249	354.88
397.474	356.88
397.698	357.88
397.922	379.88
398.147	374.88
398.371	395.88
398.595	382.88
398.82	381.88
399.044	374.88
399.268	365.88
399.492	407.88
399.717	406.88
399.941	410.88
400.165	429.88
400.389	444.88
400.613	430.88
400.837	402.88
401.062	373.88
401.286	371.88
401.51	400.88
401.734	384.88
401.958	379.88
402.182	383.88
402.406	390.88
402.63	386.88
402.854	402.88
403.078	383.88
403.302	387.88
403.526	387.88
403.75	409.88
403.974	394.88
404.198	387.88
404.422	394.88
404.645	398.88
404.869	406.88
405.093	418.88
405.317	463.88
405.541	469.88
405.765	415.88
405.988	422.88
406.212	436.88
406.436	447.88
406.66	454.88
406.883	433.88
407.107	446.88
407.331	501.88
407.555	527.88
407.778	509.88
408.002	479.88
408.226	457.88
408.449	436.88
408.673	417.88
408.896	471.88
409.12	474.88
409.344	469.88
409.567	422.88
409.791	417.88
410.014	383.88
410.238	393.88
410.461	410.88
410.685	415.88
410.908	411.88
411.132	455.88
411.355	461.88
411.578	449.88
411.802	422.88
412.025	411.88
412.249	400.88
412.472	414.88
412.695	457.88
412.919	461.88
413.142	424.88
413.365	398.88
413.589	375.88
413.812	376.88
414.035	365.88
414.258	387.88
414.482	380.88
414.705	367.88
414.928	385.88
415.151	373.88
415.374	366.88
415.597	358.88
415.821	389.88
416.044	354.88
416.267	375.88
416.49	381.88
416.713	351.88
416.936	354.88
417.159	366.88
417.382	391.88
417.605	383.88
417.828	392.88
418.051	390.88
418.274	380.88
418.497	376.88
418.72	376.88
418.943	387.88
419.166	407.88
419.389	408.88
419.611	402.88
419.834	382.88
420.057	387.88
420.28	402.88
420.503	406.88
420.726	406.88
420.948	418.88
421.171	446.88
421.394	458.88
421.617	422.88
421.839	382.88
422.062	399.88
422.285	419.88
422.507	465.88
422.73	509.88
422.953	485.88
423.175	429.88
423.398	421.88
423.621	408.88
423.843	433.88
424.066	427.88
424.288	433.88
424.511	451.88
424.733	491.88
424.956	558.88
425.178	535.88
425.401	534.88
425.623	537.88
425.846	457.88
426.068	418.88
426.291	433.88
426.513	439.88
426.735	454.88
426.958	496.88
427.18	523.88
427.402	651.88
427.625	729.88
427.847	651.88
428.069	561.88
428.292	503.88
428.514	463.88
428.736	434.88
428.958	407.88
429.181	418.88
429.403	401.88
429.625	406.88
429.847	426.88
430.069	485.88
430.292	482.88
430.514	424.88
430.736	399.88
430.958	398.88
431.18	392.88
431.402	388.88
431.624	369.88
431.846	371.88
432.068	379.88
432.29	379.88
432.512	377.88
432.734	386.88
432.956	405.88
433.178	391.88
433.4	404.88
433.622	375.88
433.844	375.88
434.066	374.88
434.287	376.88
434.509	379.88
434.731	378.88
434.953	375.88
435.175	408.88
435.397	411.88
435.618	440.88
435.84	489.88
436.062	567.88
436.284	595.88
436.505	482.88
436.727	470.88
436.949	425.88
437.17	417.88
437.392	396.88
437.614	430.88
437.835	471.88
438.057	527.88
438.278	628.88
438.5	623.88
438.721	662.88
438.943	628.88
439.165	502.88
439.386	451.88
439.608	455.88
439.829	457.88
440.05	486.88
440.272	521.88
440.493	486.88
440.715	437.88
440.936	416.88
441.158	413.88
441.379	415.88
441.6	425.88
441.822	448.88
442.043	466.88
442.264	559.88
442.486	585.88
442.707	507.88
442.928	447.88
443.149	463.88
443.371	487.88
443.592	517.88
443.813	593.88
444.034	639.88
444.255	523.88
444.476	455.88
444.698	418.88
444.919	433.88
445.14	536.88
445.361	503.88
445.582	478.88
445.803	561.88
446.024	633.88
446.245	636.88
446.466	543.88
446.687	486.88
446.908	457.88
447.129	419.88
447.35	387.88
447.571	406.88
447.792	410.88
448.013	416.88
448.234	463.88
448.455	482.88
448.675	573.88
448.896	643.88
449.117	580.88
449.338	554.88
449.559	611.88
449.779	670.88
450	552.88
450.221	477.88
450.442	399.88
450.662	405.88
450.883	425.88
451.104	419.88
451.324	439.88
451.545	418.88
451.766	383.88
451.986	386.88
452.207	381.88
452.428	396.88
452.648	368.88
452.869	390.88
453.089	377.88
453.31	399.88
453.53	394.88
453.751	388.88
453.971	386.88
454.192	393.88
454.412	377.88
454.633	373.88
454.853	368.88
455.073	384.88
455.294	411.88
455.514	440.88
455.734	442.88
455.955	375.88
456.175	377.88
456.395	336.88
456.616	349.88
456.836	327.88
457.056	346.88
457.276	347.88
457.497	331.88
457.717	349.88
457.937	351.88
458.157	366.88
458.377	361.88
458.598	406.88
458.818	449.88
459.038	513.88
459.258	514.88
459.478	425.88
459.698	417.88
459.918	384.88
460.138	360.88
460.358	389.88
460.578	377.88
460.798	379.88
461.018	400.88
461.238	388.88
461.458	400.88
461.678	373.88
461.898	367.88
462.118	360.88
462.338	383.88
462.558	366.88
462.777	376.88
462.997	403.88
463.217	376.88
463.437	391.88
463.657	399.88
463.876	397.88
464.096	410.88
464.316	410.88
464.536	420.88
464.755	416.88
464.975	417.88
465.195	474.88
465.414	535.88
465.634	477.88
465.854	422.88
466.073	408.88
466.293	386.88
466.512	376.88
466.732	374.88
466.951	368.88
467.171	372.88
467.391	367.88
467.61	385.88
467.829	400.88
468.049	402.88
468.268	384.88
468.488	399.88
468.707	360.88
468.927	359.88
469.146	369.88
469.365	377.88
469.585	354.88
469.804	395.88
470.023	395.88
470.243	390.88
470.462	386.88
470.681	404.88
470.901	381.88
471.12	386.88
471.339	391.88
471.558	394.88
471.777	384.88
471.997	384.88
472.216	412.88
472.435	450.88
472.654	427.88
472.873	373.88
473.092	383.88
473.311	368.88
473.53	377.88
473.749	409.88
473.968	427.88
474.187	513.88
474.406	538.88
474.625	451.88
474.844	392.88
475.063	371.88
475.282	389.88
475.501	379.88
475.72	401.88
475.939	385.88
476.158	395.88
476.377	405.88
476.596	381.88
476.814	395.88
477.033	399.88
477.252	390.88
477.471	381.88
477.69	388.88
477.908	417.88
478.127	436.88
478.346	401.88
478.564	404.88
478.783	430.88
479.002	417.88
479.22	437.88
479.439	455.88
479.658	438.88
479.876	453.88
480.095	467.88
480.313	493.88
480.532	462.88
480.751	468.88
480.969	486.88
481.188	559.88
481.406	599.88
481.624	505.88
481.843	478.88
482.061	458.88
482.28	461.88
482.498	446.88
482.717	453.88
482.935	439.88
483.153	433.88
483.372	436.88
483.59	440.88
483.808	444.88
484.027	427.88
484.245	433.88
484.463	438.88
484.681	458.88
484.9	457.88
485.118	457.88
485.336	457.88
485.554	448.88
485.772	455.88
485.99	451.88
486.209	454.88
486.427	465.88
486.645	476.88
486.863	469.88
487.081	486.88
487.299	495.88
487.517	493.88
487.735	472.88
487.953	471.88
488.171	488.88
488.389	459.88
488.607	471.88
488.825	479.88
489.043	490.88
489.261	499.88
489.479	495.88
489.696	510.88
489.914	481.88
490.132	501.88
490.35	487.88
490.568	483.88
490.786	510.88
491.003	529.88
491.221	527.88
491.439	545.88
491.657	545.88
491.874	537.88
492.092	545.88
492.31	546.88
492.527	559.88
492.745	553.88
492.963	565.88
493.18	571.88
493.398	573.88
493.615	562.88
493.833	566.88
494.05	550.88
494.268	543.88
494.485	571.88
494.703	544.88
494.92	553.88
495.138	562.88
495.355	580.88
495.573	571.88
495.79	594.88
496.008	559.88
496.225	590.88
496.442	583.88
496.66	597.88
496.877	566.88
497.094	581.88
497.312	572.88
497.529	591.88
497.746	570.88
497.963	593.88
498.181	626.88
498.398	606.88
498.615	603.88
498.832	631.88
499.049	639.88
499.267	647.88
499.484	632.88
499.701	641.88
499.918	685.88
500.135	689.88
500.352	691.88
500.569	702.88
500.786	693.88
501.003	695.88
501.22	702.88
501.437	703.88
501.654	697.88
501.871	687.88
502.088	677.88
502.305	649.88
502.522	674.88
502.739	608.88
502.956	591.88
503.172	593.88
503.389	583.88
503.606	604.88
503.823	605.88
504.04	598.88
504.256	566.88
504.473	598.88
504.69	575.88
504.907	599.88
505.123	575.88
505.34	569.88
505.557	551.88
505.773	545.88
505.99	571.88
506.207	542.88
506.423	568.88
506.64	566.88
506.856	544.88
507.073	560.88
507.289	544.88
507.506	563.88
507.722	557.88
507.939	577.88
508.155	574.88
508.372	538.88
508.588	543.88
508.805	545.88
509.021	521.88
509.238	543.88
509.454	534.88
509.67	531.88
509.887	529.88
510.103	536.88
510.319	542.88
510.536	645.88
510.752	1177.88
510.968	924.88
511.184	583.88
511.401	539.88
511.617	514.88
511.833	507.88
512.049	520.88
512.265	523.88
512.481	523.88
512.698	522.88
512.914	515.88
513.13	518.88
513.346	534.88
513.562	512.88
513.778	516.88
513.994	526.88
514.21	521.88
514.426	552.88
514.642	631.88
514.858	651.88
515.074	653.88
515.29	847.88
515.506	1256.88
515.721	1001.88
515.937	660.88
516.153	587.88
516.369	585.88
516.585	554.88
516.801	539.88
517.016	532.88
517.232	533.88
517.448	542.88
517.664	533.88
517.879	523.88
518.095	511.88
518.311	500.88
518.527	521.88
518.742	513.88
518.958	523.88
519.173	534.88
519.389	529.88
519.605	530.88
519.82	529.88
520.036	537.88
520.251	575.88
520.467	607.88
520.682	585.88
520.898	592.88
521.113	632.88
521.329	688.88
521.544	771.88
521.76	1040.88
521.975	1696.88
522.19	1647.88
522.406	901.88
522.621	628.88
522.836	566.88
523.052	559.88
523.267	503.88
523.482	490.88
523.698	474.88
523.913	492.88
524.128	480.88
524.343	479.88
524.559	448.88
524.774	457.88
524.989	461.88
525.204	451.88
525.419	450.88
525.634	447.88
525.849	451.88
526.064	416.88
526.28	420.88
526.495	435.88
526.71	432.88
526.925	426.88
527.14	436.88
527.355	407.88
527.57	413.88
527.785	404.88
527.999	425.88
528.214	420.88
528.429	415.88
528.644	406.88
528.859	403.88
529.074	414.88
529.289	446.88
529.503	530.88
529.718	523.88
529.933	465.88
530.148	423.88
530.363	433.88
530.577	440.88
530.792	401.88
531.007	409.88
531.221	388.88
531.436	389.88
531.651	398.88
531.865	403.88
532.08	388.88
532.295	392.88
532.509	416.88
532.724	398.88
532.938	376.88
533.153	395.88
533.367	394.88
533.582	409.88
533.796	401.88
534.011	389.88
534.225	396.88
534.44	398.88
534.654	360.88
534.868	381.88
535.083	394.88
535.297	396.88
535.511	377.88
535.726	394.88
535.94	390.88
536.154	387.88
536.369	399.88
536.583	398.88
536.797	396.88
537.011	367.88
537.225	371.88
537.44	383.88
537.654	382.88
537.868	374.88
538.082	363.88
538.296	371.88
538.51	389.88
538.724	391.88
538.938	390.88
539.153	391.88
539.367	380.88
539.581	399.88
539.795	373.88
540.009	390.88
540.222	377.88
540.436	378.88
540.65	354.88
540.864	392.88
541.078	367.88
541.292	387.88
541.506	385.88
541.72	368.88
541.934	372.88
542.147	357.88
542.361	373.88
542.575	371.88
542.789	374.88
543.002	371.88
543.216	376.88
543.43	379.88
543.644	376.88
543.857	377.88
544.071	360.88
544.285	393.88
544.498	369.88
544.712	360.88
544.925	350.88
545.139	362.88
545.352	345.88
545.566	372.88
545.779	365.88
545.993	336.88
546.206	377.88
546.42	373.88
546.633	344.88
546.847	343.88
547.06	346.88
547.274	362.88
547.487	348.88
547.7	360.88
547.914	336.88
548.127	359.88
548.34	343.88
548.554	336.88
548.767	352.88
548.98	337.88
549.193	323.88
549.407	361.88
549.62	374.88
549.833	340.88
550.046	353.88
550.259	344.88
550.473	346.88
550.686	362.88
550.899	332.88
551.112	350.88
551.325	350.88
551.538	353.88
551.751	359.88
551.964	352.88
552.177	339.88
552.39	333.88
552.603	340.88
552.816	333.88
553.029	328.88
553.242	351.88
553.455	370.88
553.667	364.88
553.88	382.88
554.093	359.88
554.306	354.88
554.519	354.88
554.732	325.88
554.944	337.88
555.157	329.88
555.37	330.88
555.583	337.88
555.795	346.88
556.008	328.88
556.221	356.88
556.433	324.88
556.646	320.88
556.859	329.88
557.071	322.88
557.284	317.88
557.496	330.88
557.709	315.88
557.921	307.88
558.134	319.88
558.346	299.88
558.559	318.88
558.771	322.88
558.984	332.88
559.196	329.88
559.409	317.88
559.621	298.88
559.833	310.88
560.046	294.88
560.258	309.88
560.47	312.88
560.683	324.88
560.895	297.88
561.107	318.88
561.32	328.88
561.532	315.88
561.744	309.88
561.956	314.88
562.168	326.88
562.381	309.88
562.593	309.88
562.805	311.88
563.017	308.88
563.229	321.88
563.441	326.88
563.653	308.88
563.865	309.88
564.077	309.88
564.289	331.88
564.501	339.88
564.713	321.88
564.925	341.88
565.137	340.88
565.349	328.88
565.561	328.88
565.773	361.88
565.985	345.88
566.197	330.88
566.408	358.88
566.62	347.88
566.832	338.88
567.044	344.88
567.255	346.88
567.467	354.88
567.679	374.88
567.891	370.88
568.102	341.88
568.314	369.88
568.526	352.88
568.737	322.88
568.949	319.88
569.161	326.88
569.372	314.88
569.584	346.88
569.795	324.88
570.007	327.88
570.218	368.88
570.43	360.88
570.641	318.88
570.853	297.88
571.064	306.88
571.276	321.88
571.487	311.88
571.698	295.88
571.91	311.88
572.121	289.88
572.333	293.88
572.544	261.88
572.755	287.88
572.966	293.88
573.178	288.88
573.389	274.88
573.6	285.88
573.811	281.88
574.023	273.88
574.234	274.88
574.445	285.88
574.656	270.88
574.867	265.88
575.078	277.88
575.289	267.88
575.501	272.88
575.712	277.88
575.923	283.88
576.134	257.88
576.345	285.88
576.556	279.88
576.767	271.88
576.978	271.88
577.188	238.88
577.399	246.88
577.61	263.88
577.821	266.88
578.032	285.88
578.243	299.88
578.454	524.88
578.665	402.88
578.875	288.88
579.086	288.88
579.297	260.88
579.508	263.88
579.718	259.88
579.929	255.88
580.14	269.88
580.35	258.88
580.561	265.88
580.772	239.88
580.982	242.88
581.193	233.88
581.403	259.88
581.614	262.88
581.825	246.88
582.035	242.88
582.246	238.88
582.456	236.88
582.667	254.88
582.877	259.88
583.087	261.88
583.298	239.88
583.508	255.88
583.719	242.88
583.929	254.88
584.139	239.88
584.35	245.88
584.56	242.88
584.77	257.88
584.981	259.88
585.191	264.88
585.401	256.88
585.611	239.88
585.821	243.88
586.032	241.88
586.242	226.88
586.452	243.88
586.662	230.88
586.872	235.88
587.082	249.88
587.292	247.88
587.502	233.88
587.713	249.88
587.923	231.88
588.133	243.88
588.343	261.88
588.553	234.88
588.762	238.88
588.972	234.88
589.182	234.88
589.392	229.88
589.602	238.88
589.812	239.88
590.022	233.88
590.232	226.88
590.441	238.88
590.651	226.88
590.861	229.88
591.071	259.88
591.281	247.88
591.49	234.88
591.7	231.88
591.91	244.88
592.119	222.88
592.329	238.88
592.539	245.88
592.748	254.88
592.958	258.88
593.167	242.88
593.377	258.88
593.587	252.88
593.796	248.88
594.006	218.88
594.215	240.88
594.424	234.88
594.634	249.88
594.843	246.88
595.053	251.88
595.262	243.88
595.472	239.88
595.681	238.88
595.89	235.88
596.1	231.88
596.309	235.88
596.518	229.88
596.727	221.88
596.937	225.88
597.146	244.88
597.355	239.88
597.564	229.88
597.774	221.88
597.983	225.88
598.192	211.88
598.401	228.88
598.61	232.88
598.819	212.88
599.028	210.88
599.237	229.88
599.446	209.88
599.655	225.88
599.864	222.88
600.073	221.88
600.282	207.88
600.491	224.88
600.7	207.88
600.909	202.88
601.118	216.88
601.327	202.88
601.536	202.88
601.745	219.88
601.953	205.88
602.162	191.88
602.371	209.88
602.58	218.88
602.789	216.88
602.997	222.88
603.206	210.88
603.415	215.88
603.623	212.88
603.832	216.88
604.041	211.88
604.249	203.88
604.458	221.88
604.666	203.88
604.875	203.88
605.084	205.88
605.292	191.88
605.501	200.88
605.709	205.88
605.918	197.88
606.126	206.88
606.334	198.88
606.543	213.88
606.751	216.88
606.96	207.88
607.168	213.88
607.376	187.88
607.585	193.88
607.793	212.88
608.001	191.88
608.21	201.88
608.418	196.88
608.626	205.88
608.834	189.88
609.043	201.88
609.251	192.88
609.459	208.88
609.667	207.88
609.875	201.88
610.083	207.88
610.291	205.88
610.499	203.88
610.707	193.88
610.916	193.88
611.124	197.88
611.332	204.88
611.54	192.88
611.748	209.88
611.955	202.88
612.163	195.88
612.371	203.88
612.579	195.88
612.787	195.88
612.995	194.88
613.203	201.88
613.411	176.88
613.618	193.88
613.826	207.88
614.034	182.88
614.242	185.88
614.449	195.88
614.657	190.88
614.865	201.88
615.072	180.88
615.28	196.88
615.488	203.88
615.695	179.88
615.903	202.88
616.111	195.88
616.318	203.88
616.526	212.88
616.733	207.88
616.941	188.88
617.148	200.88
617.356	193.88
617.563	182.88
617.771	196.88
617.978	183.88
618.185	179.88
618.393	183.88
618.6	183.88
618.807	175.88
619.015	183.88
619.222	193.88
619.429	175.88
619.637	190.88
619.844	206.88
620.051	205.88
620.258	190.88
620.466	169.88
620.673	185.88
620.88	170.88
621.087	192.88
621.294	199.88
621.501	177.88
621.708	193.88
621.915	182.88
622.122	180.88
622.329	174.88
622.536	191.88
622.743	187.88
622.95	174.88
623.157	176.88
623.364	197.88
623.571	190.88
623.778	183.88
623.985	186.88
624.192	193.88
624.399	181.88
624.606	166.88
624.812	184.88
625.019	176.88
625.226	180.88
625.433	178.88
625.639	177.88
625.846	186.88
626.053	183.88
626.259	170.88
626.466	167.88
626.673	169.88
626.879	185.88
627.086	169.88
627.293	181.88
627.499	190.88
627.706	172.88
627.912	173.88
628.119	175.88
628.325	182.88
628.532	162.88
628.738	167.88
628.945	162.88
629.151	176.88
629.357	179.88
629.564	175.88
629.77	174.88
629.976	174.88
630.183	163.88
630.389	162.88
630.595	180.88
630.802	155.88
631.008	167.88
631.214	166.88
631.42	170.88
631.627	166.88
631.833	151.88
632.039	148.88
632.245	160.88
632.451	173.88
632.657	163.88
632.863	153.88
633.069	158.88
633.275	170.88
633.481	163.88
633.688	162.88
633.893	171.88
634.099	173.88
634.305	167.88
634.511	163.88
634.717	133.88
634.923	142.88
635.129	149.88
635.335	156.88
635.541	148.88
635.747	146.88
635.952	153.88
636.158	156.88
636.364	156.88
636.57	155.88
636.775	155.88
636.981	170.88
637.187	161.88
637.392	159.88
637.598	155.88
637.804	148.88
638.009	150.88
638.215	153.88
638.421	141.88
638.626	142.88
638.832	150.88
639.037	156.88
639.243	154.88
639.448	146.88
639.654	160.88
639.859	166.88
640.065	141.88
640.27	164.88
640.475	157.88
640.681	139.88
640.886	147.88
641.091	129.88
641.297	164.88
641.502	160.88
641.707	152.88
641.913	168.88
642.118	146.88
642.323	157.88
642.528	149.88
642.733	144.88
642.939	139.88
643.144	143.88
643.349	143.88
643.554	151.88
643.759	154.88
643.964	165.88
644.169	157.88
644.374	138.88
644.579	149.88
644.784	145.88
644.989	157.88
645.194	163.88
645.399	134.88
645.604	161.88
645.809	147.88
646.014	144.88
646.219	159.88
646.423	136.88
646.628	149.88
646.833	147.88
647.038	135.88
647.243	141.88
647.447	142.88
647.652	157.88
647.857	156.88
648.062	123.88
648.266	151.88
648.471	144.88
648.676	164.88
648.88	153.88
649.085	148.88
649.289	144.88
649.494	143.88
649.698	174.88
649.903	180.88
650.107	146.88
650.312	141.88
650.516	150.88
650.721	149.88
650.925	125.88
651.13	126.88
651.334	129.88
651.539	138.88
651.743	137.88
651.947	143.88
652.152	127.88
652.356	132.88
652.56	132.88
652.764	120.88
652.969	115.88
653.173	128.88
653.377	136.88
653.581	110.88
653.785	129.88
653.99	137.88
654.194	127.88
654.398	129.88
654.602	123.88
654.806	129.88
655.01	129.88
655.214	137.88
655.418	113.88
655.622	135.88
655.826	137.88
656.03	126.88
656.234	122.88
656.438	129.88
656.642	121.88
656.846	117.88
657.049	101.88
657.253	114.88
657.457	111.88
657.661	126.88
657.865	123.88
658.068	112.88
658.272	88.88
658.476	105.88
658.68	106.88
658.883	100.88
659.087	102.88
659.291	107.88
659.494	89.88
659.698	94.88
659.901	79.88
660.105	102.88
660.309	90.88
660.512	90.88
660.716	89.88
660.919	88.88
661.123	85.88
661.326	101.88
661.53	85.88
661.733	81.88
661.936	89.88
662.14	86.88
662.343	89.88
662.546	82.88
662.75	91.88
662.953	70.88
663.156	71.88
663.36	75.88
663.563	84.88
663.766	82.88
663.969	86.88
664.173	78.88
664.376	81.88
664.579	74.88
664.782	87.88
664.985	80.88
665.188	74.88
665.391	83.88
665.594	84.88
665.797	66.88
666	85.88
666.203	82.88
666.406	72.88
666.609	80.88
666.812	90.88
667.015	76.88
667.218	83.88
667.421	88.88
667.624	81.88
667.827	75.88
668.03	91.88
668.232	87.88
668.435	90.88
668.638	95.88
668.841	83.88
669.043	81.88
669.246	75.88
669.449	87.88
669.651	79.88
669.854	81.88
670.057	60.88
670.259	80.88
670.462	98.88
670.665	80.88
670.867	82.88
671.07	79.88
671.272	101.88
671.475	89.88
671.677	90.88
671.88	90.88
672.082	88.88
672.284	89.88
672.487	78.88
672.689	75.88
672.892	74.88
