Data from 1961.PennyLincolnUp.Lamp.En5.5.200Scan.071719.P1._HRD10591_13-48-46-058.txt Node
Date: Thu Jul 18 13:48:46 EDT 2019
User: cochatt
Spectrometer: HR+D1059
Trigger mode: 1
Integration Time (sec): 1.000000E-1
Scans to average: 1
Electric dark correction enabled: true
Nonlinearity correction enabled: false
Boxcar width: 0
XAxis mode: Wavelengths
Number of Pixels in Spectrum: 2048
>>>>>Begin Spectral Data<<<<<
223.165	-20.62
223.4	-20.62
223.635	-20.62
223.869	-24.62
224.104	-11.62
224.338	-18.62
224.573	-9.62
224.808	-6.62
225.042	4.38
225.277	-3.62
225.511	-8.62
225.746	0.38
225.98	8.38
226.215	12.38
226.449	11.38
226.683	15.38
226.918	25.38
227.152	26.38
227.387	26.38
227.621	32.38
227.856	28.38
228.09	48.38
228.324	44.38
228.559	65.38
228.793	65.38
229.027	78.38
229.262	101.38
229.496	112.38
229.73	142.38
229.964	154.38
230.199	115.38
230.433	127.38
230.667	101.38
230.901	94.38
231.136	114.38
231.37	120.38
231.604	103.38
231.838	110.38
232.072	101.38
232.306	97.38
232.541	101.38
232.775	97.38
233.009	84.38
233.243	102.38
233.477	97.38
233.711	110.38
233.945	111.38
234.179	112.38
234.413	103.38
234.647	102.38
234.881	108.38
235.115	101.38
235.349	119.38
235.583	121.38
235.817	122.38
236.051	120.38
236.285	121.38
236.519	123.38
236.753	117.38
236.987	138.38
237.221	163.38
237.455	224.38
237.689	174.38
237.922	130.38
238.156	119.38
238.39	108.38
238.624	115.38
238.858	111.38
239.091	101.38
239.325	120.38
239.559	110.38
239.793	130.38
240.027	123.38
240.26	121.38
240.494	149.38
240.728	129.38
240.961	139.38
241.195	124.38
241.429	121.38
241.662	118.38
241.896	122.38
242.13	128.38
242.363	113.38
242.597	126.38
242.83	121.38
243.064	134.38
243.298	128.38
243.531	126.38
243.765	111.38
243.998	120.38
244.232	125.38
244.465	127.38
244.699	128.38
244.932	128.38
245.166	129.38
245.399	121.38
245.633	125.38
245.866	114.38
246.099	116.38
246.333	147.38
246.566	130.38
246.8	134.38
247.033	125.38
247.266	133.38
247.5	149.38
247.733	154.38
247.966	160.38
248.2	162.38
248.433	150.38
248.666	145.38
248.899	163.38
249.133	188.38
249.366	189.38
249.599	162.38
249.832	182.38
250.066	158.38
250.299	173.38
250.532	161.38
250.765	177.38
250.998	178.38
251.231	191.38
251.465	188.38
251.698	176.38
251.931	162.38
252.164	157.38
252.397	169.38
252.63	167.38
252.863	178.38
253.096	194.38
253.329	186.38
253.562	194.38
253.795	192.38
254.028	169.38
254.261	189.38
254.494	186.38
254.727	239.38
254.96	264.38
255.193	228.38
255.426	217.38
255.659	208.38
255.892	206.38
256.124	213.38
256.357	216.38
256.59	199.38
256.823	192.38
257.056	200.38
257.289	185.38
257.521	179.38
257.754	199.38
257.987	190.38
258.22	186.38
258.452	182.38
258.685	179.38
258.918	184.38
259.151	194.38
259.383	192.38
259.616	191.38
259.849	200.38
260.081	206.38
260.314	215.38
260.547	223.38
260.779	222.38
261.012	202.38
261.244	202.38
261.477	205.38
261.71	188.38
261.942	189.38
262.175	211.38
262.407	198.38
262.64	198.38
262.872	176.38
263.105	176.38
263.337	188.38
263.57	179.38
263.802	189.38
264.035	175.38
264.267	172.38
264.499	179.38
264.732	181.38
264.964	179.38
265.197	176.38
265.429	185.38
265.661	184.38
265.894	182.38
266.126	178.38
266.358	193.38
266.591	182.38
266.823	174.38
267.055	196.38
267.287	193.38
267.52	182.38
267.752	184.38
267.984	191.38
268.216	192.38
268.448	198.38
268.681	217.38
268.913	200.38
269.145	236.38
269.377	234.38
269.609	232.38
269.841	217.38
270.073	229.38
270.306	225.38
270.538	264.38
270.77	249.38
271.002	256.38
271.234	255.38
271.466	242.38
271.698	258.38
271.93	256.38
272.162	260.38
272.394	282.38
272.626	253.38
272.858	258.38
273.09	247.38
273.322	224.38
273.553	230.38
273.785	215.38
274.017	204.38
274.249	227.38
274.481	204.38
274.713	230.38
274.945	231.38
275.176	218.38
275.408	231.38
275.64	217.38
275.872	234.38
276.104	209.38
276.335	229.38
276.567	222.38
276.799	263.38
277.031	260.38
277.262	265.38
277.494	262.38
277.726	265.38
277.957	256.38
278.189	242.38
278.421	235.38
278.652	230.38
278.884	214.38
279.115	219.38
279.347	229.38
279.579	220.38
279.81	222.38
280.042	230.38
280.273	221.38
280.505	204.38
280.736	207.38
280.968	222.38
281.199	218.38
281.431	207.38
281.662	220.38
281.894	217.38
282.125	241.38
282.356	236.38
282.588	255.38
282.819	261.38
283.051	238.38
283.282	222.38
283.513	241.38
283.745	231.38
283.976	212.38
284.207	233.38
284.439	228.38
284.67	243.38
284.901	244.38
285.132	230.38
285.364	220.38
285.595	225.38
285.826	238.38
286.057	224.38
286.288	228.38
286.52	222.38
286.751	234.38
286.982	223.38
287.213	212.38
287.444	231.38
287.675	246.38
287.906	242.38
288.138	254.38
288.369	260.38
288.6	249.38
288.831	228.38
289.062	228.38
289.293	257.38
289.524	249.38
289.755	237.38
289.986	237.38
290.217	239.38
290.448	236.38
290.679	227.38
290.91	234.38
291.141	227.38
291.371	241.38
291.602	224.38
291.833	240.38
292.064	227.38
292.295	240.38
292.526	233.38
292.757	246.38
292.987	237.38
293.218	234.38
293.449	220.38
293.68	255.38
293.91	239.38
294.141	241.38
294.372	241.38
294.603	246.38
294.833	242.38
295.064	244.38
295.295	228.38
295.525	248.38
295.756	224.38
295.987	262.38
296.217	270.38
296.448	295.38
296.679	264.38
296.909	222.38
297.14	240.38
297.37	242.38
297.601	238.38
297.831	225.38
298.062	230.38
298.292	236.38
298.523	251.38
298.753	236.38
298.984	252.38
299.214	259.38
299.445	255.38
299.675	269.38
299.905	276.38
300.136	266.38
300.366	264.38
300.597	236.38
300.827	244.38
301.057	275.38
301.288	276.38
301.518	269.38
301.748	277.38
301.979	274.38
302.209	261.38
302.439	280.38
302.669	276.38
302.9	269.38
303.13	261.38
303.36	263.38
303.59	266.38
303.82	287.38
304.051	270.38
304.281	269.38
304.511	278.38
304.741	270.38
304.971	275.38
305.201	270.38
305.431	259.38
305.661	276.38
305.891	279.38
306.121	268.38
306.352	282.38
306.582	290.38
306.812	275.38
307.042	281.38
307.272	277.38
307.502	275.38
307.731	288.38
307.961	269.38
308.191	262.38
308.421	280.38
308.651	273.38
308.881	291.38
309.111	274.38
309.341	296.38
309.571	287.38
309.8	296.38
310.03	310.38
310.26	327.38
310.49	320.38
310.72	322.38
310.949	322.38
311.179	359.38
311.409	319.38
311.639	306.38
311.868	338.38
312.098	314.38
312.328	336.38
312.557	346.38
312.787	354.38
313.017	342.38
313.246	324.38
313.476	337.38
313.706	321.38
313.935	337.38
314.165	323.38
314.394	334.38
314.624	360.38
314.853	326.38
315.083	327.38
315.312	332.38
315.542	308.38
315.771	308.38
316.001	307.38
316.23	325.38
316.46	327.38
316.689	325.38
316.919	336.38
317.148	336.38
317.377	335.38
317.607	340.38
317.836	333.38
318.065	321.38
318.295	303.38
318.524	312.38
318.753	330.38
318.983	338.38
319.212	329.38
319.441	329.38
319.67	342.38
319.9	322.38
320.129	328.38
320.358	341.38
320.587	325.38
320.816	339.38
321.046	357.38
321.275	340.38
321.504	358.38
321.733	338.38
321.962	347.38
322.191	398.38
322.42	392.38
322.649	410.38
322.878	415.38
323.108	417.38
323.337	437.38
323.566	464.38
323.795	493.38
324.024	575.38
324.253	724.38
324.482	1094.38
324.71	1662.38
324.939	2312.38
325.168	1916.38
325.397	999.38
325.626	663.38
325.855	536.38
326.084	506.38
326.313	481.38
326.542	460.38
326.77	549.38
326.999	638.38
327.228	971.38
327.457	1445.38
327.686	1697.38
327.914	1102.38
328.143	725.38
328.372	648.38
328.6	563.38
328.829	538.38
329.058	534.38
329.287	568.38
329.515	538.38
329.744	486.38
329.972	479.38
330.201	500.38
330.43	564.38
330.658	568.38
330.887	589.38
331.115	559.38
331.344	495.38
331.572	447.38
331.801	447.38
332.03	446.38
332.258	418.38
332.486	402.38
332.715	414.38
332.943	379.38
333.172	393.38
333.4	390.38
333.629	406.38
333.857	405.38
334.085	426.38
334.314	449.38
334.542	485.38
334.771	500.38
334.999	416.38
335.227	405.38
335.455	377.38
335.684	361.38
335.912	393.38
336.14	386.38
336.369	376.38
336.597	380.38
336.825	390.38
337.053	362.38
337.281	371.38
337.51	373.38
337.738	352.38
337.966	359.38
338.194	360.38
338.422	380.38
338.65	378.38
338.878	356.38
339.106	362.38
339.334	375.38
339.562	361.38
339.79	343.38
340.018	377.38
340.246	350.38
340.474	388.38
340.702	373.38
340.93	362.38
341.158	364.38
341.386	345.38
341.614	359.38
341.842	349.38
342.07	352.38
342.298	359.38
342.526	348.38
342.754	348.38
342.981	338.38
343.209	325.38
343.437	372.38
343.665	350.38
343.893	353.38
344.12	360.38
344.348	354.38
344.576	371.38
344.804	380.38
345.031	376.38
345.259	391.38
345.487	385.38
345.714	371.38
345.942	359.38
346.17	359.38
346.397	339.38
346.625	351.38
346.853	339.38
347.08	343.38
347.308	365.38
347.535	345.38
347.763	376.38
347.99	376.38
348.218	366.38
348.445	360.38
348.673	362.38
348.9	377.38
349.128	354.38
349.355	352.38
349.583	339.38
349.81	337.38
350.037	345.38
350.265	336.38
350.492	346.38
350.72	337.38
350.947	366.38
351.174	358.38
351.402	367.38
351.629	362.38
351.856	352.38
352.083	372.38
352.311	376.38
352.538	376.38
352.765	376.38
352.992	376.38
353.22	347.38
353.447	357.38
353.674	336.38
353.901	354.38
354.128	325.38
354.355	306.38
354.583	320.38
354.81	322.38
355.037	321.38
355.264	307.38
355.491	334.38
355.718	318.38
355.945	320.38
356.172	321.38
356.399	320.38
356.626	310.38
356.853	320.38
357.08	341.38
357.307	331.38
357.534	334.38
357.761	329.38
357.988	320.38
358.215	321.38
358.441	320.38
358.668	326.38
358.895	350.38
359.122	349.38
359.349	328.38
359.576	352.38
359.802	369.38
360.029	412.38
360.256	434.38
360.483	396.38
360.709	366.38
360.936	372.38
361.163	372.38
361.39	377.38
361.616	355.38
361.843	348.38
362.07	361.38
362.296	372.38
362.523	362.38
362.749	362.38
362.976	348.38
363.203	340.38
363.429	338.38
363.656	342.38
363.882	340.38
364.109	315.38
364.335	349.38
364.562	338.38
364.788	335.38
365.015	325.38
365.241	344.38
365.468	358.38
365.694	333.38
365.92	350.38
366.147	337.38
366.373	340.38
366.599	331.38
366.826	328.38
367.052	312.38
367.278	340.38
367.505	314.38
367.731	326.38
367.957	350.38
368.184	321.38
368.41	336.38
368.636	337.38
368.862	351.38
369.089	341.38
369.315	327.38
369.541	340.38
369.767	344.38
369.993	332.38
370.219	341.38
370.445	327.38
370.672	327.38
370.898	327.38
371.124	332.38
371.35	328.38
371.576	333.38
371.802	330.38
372.028	325.38
372.254	330.38
372.48	317.38
372.706	340.38
372.932	318.38
373.158	320.38
373.384	316.38
373.61	337.38
373.835	322.38
374.061	322.38
374.287	339.38
374.513	318.38
374.739	333.38
374.965	339.38
375.191	338.38
375.416	345.38
375.642	318.38
375.868	325.38
376.094	330.38
376.319	305.38
376.545	340.38
376.771	341.38
376.997	322.38
377.222	326.38
377.448	325.38
377.674	333.38
377.899	319.38
378.125	321.38
378.35	309.38
378.576	322.38
378.802	316.38
379.027	324.38
379.253	320.38
379.478	315.38
379.704	308.38
379.929	343.38
380.155	333.38
380.38	333.38
380.606	335.38
380.831	330.38
381.057	323.38
381.282	342.38
381.507	322.38
381.733	354.38
381.958	330.38
382.184	333.38
382.409	329.38
382.634	327.38
382.86	332.38
383.085	329.38
383.31	344.38
383.535	345.38
383.761	325.38
383.986	321.38
384.211	341.38
384.436	347.38
384.662	337.38
384.887	343.38
385.112	334.38
385.337	338.38
385.562	331.38
385.787	345.38
386.013	337.38
386.238	351.38
386.463	334.38
386.688	368.38
386.913	351.38
387.138	334.38
387.363	329.38
387.588	347.38
387.813	340.38
388.038	348.38
388.263	365.38
388.488	353.38
388.713	334.38
388.938	356.38
389.163	349.38
389.387	347.38
389.612	341.38
389.837	349.38
390.062	335.38
390.287	354.38
390.512	351.38
390.736	335.38
390.961	359.38
391.186	337.38
391.411	345.38
391.636	343.38
391.86	346.38
392.085	366.38
392.31	346.38
392.534	360.38
392.759	352.38
392.984	350.38
393.208	368.38
393.433	336.38
393.658	374.38
393.882	345.38
394.107	334.38
394.331	356.38
394.556	354.38
394.78	355.38
395.005	335.38
395.229	366.38
395.454	367.38
395.678	346.38
395.903	378.38
396.127	388.38
396.352	379.38
396.576	359.38
396.801	364.38
397.025	350.38
397.249	364.38
397.474	354.38
397.698	357.38
397.922	385.38
398.147	395.38
398.371	406.38
398.595	384.38
398.82	385.38
399.044	390.38
399.268	404.38
399.492	391.38
399.717	416.38
399.941	445.38
400.165	468.38
400.389	491.38
400.613	432.38
400.837	415.38
401.062	421.38
401.286	420.38
401.51	405.38
401.734	376.38
401.958	392.38
402.182	399.38
402.406	420.38
402.63	417.38
402.854	413.38
403.078	420.38
403.302	416.38
403.526	411.38
403.75	424.38
403.974	412.38
404.198	411.38
404.422	435.38
404.645	416.38
404.869	432.38
405.093	439.38
405.317	487.38
405.541	509.38
405.765	480.38
405.988	437.38
406.212	465.38
406.436	491.38
406.66	482.38
406.883	452.38
407.107	479.38
407.331	509.38
407.555	544.38
407.778	561.38
408.002	512.38
408.226	477.38
408.449	461.38
408.673	460.38
408.896	488.38
409.12	525.38
409.344	471.38
409.567	431.38
409.791	404.38
410.014	414.38
410.238	431.38
410.461	400.38
410.685	418.38
410.908	426.38
411.132	439.38
411.355	486.38
411.578	469.38
411.802	423.38
412.025	416.38
412.249	438.38
412.472	462.38
412.695	485.38
412.919	470.38
413.142	436.38
413.365	439.38
413.589	418.38
413.812	428.38
414.035	403.38
414.258	386.38
414.482	375.38
414.705	388.38
414.928	385.38
415.151	393.38
415.374	392.38
415.597	389.38
415.821	400.38
416.044	381.38
416.267	382.38
416.49	403.38
416.713	400.38
416.936	387.38
417.159	400.38
417.382	389.38
417.605	412.38
417.828	416.38
418.051	404.38
418.274	418.38
418.497	402.38
418.72	399.38
418.943	396.38
419.166	402.38
419.389	416.38
419.611	403.38
419.834	410.38
420.057	419.38
420.28	426.38
420.503	424.38
420.726	413.38
420.948	433.38
421.171	453.38
421.394	508.38
421.617	436.38
421.839	391.38
422.062	428.38
422.285	437.38
422.507	466.38
422.73	550.38
422.953	519.38
423.175	469.38
423.398	407.38
423.621	453.38
423.843	440.38
424.066	440.38
424.288	440.38
424.511	476.38
424.733	511.38
424.956	587.38
425.178	560.38
425.401	575.38
425.623	584.38
425.846	484.38
426.068	450.38
426.291	427.38
426.513	452.38
426.735	481.38
426.958	490.38
427.18	583.38
427.402	653.38
427.625	769.38
427.847	684.38
428.069	599.38
428.292	543.38
428.514	476.38
428.736	452.38
428.958	422.38
429.181	423.38
429.403	418.38
429.625	451.38
429.847	462.38
430.069	530.38
430.292	505.38
430.514	455.38
430.736	433.38
430.958	387.38
431.18	408.38
431.402	405.38
431.624	388.38
431.846	391.38
432.068	401.38
432.29	396.38
432.512	383.38
432.734	405.38
432.956	390.38
433.178	416.38
433.4	416.38
433.622	428.38
433.844	406.38
434.066	387.38
434.287	396.38
434.509	397.38
434.731	383.38
434.953	400.38
435.175	416.38
435.397	442.38
435.618	471.38
435.84	497.38
436.062	601.38
436.284	638.38
436.505	532.38
436.727	487.38
436.949	440.38
437.17	469.38
437.392	445.38
437.614	436.38
437.835	501.38
438.057	570.38
438.278	662.38
438.5	642.38
438.721	711.38
438.943	665.38
439.165	523.38
439.386	502.38
439.608	490.38
439.829	473.38
440.05	523.38
440.272	562.38
440.493	530.38
440.715	485.38
440.936	447.38
441.158	440.38
441.379	429.38
441.6	420.38
441.822	462.38
442.043	505.38
442.264	575.38
442.486	601.38
442.707	520.38
442.928	489.38
443.149	483.38
443.371	516.38
443.592	534.38
443.813	624.38
444.034	654.38
444.255	544.38
444.476	486.38
444.698	467.38
444.919	448.38
445.14	547.38
445.361	502.38
445.582	527.38
445.803	605.38
446.024	654.38
446.245	687.38
446.466	614.38
446.687	544.38
446.908	485.38
447.129	463.38
447.35	455.38
447.571	438.38
447.792	425.38
448.013	428.38
448.234	450.38
448.455	513.38
448.675	602.38
448.896	675.38
449.117	592.38
449.338	559.38
449.559	662.38
449.779	722.38
450	599.38
450.221	499.38
450.442	444.38
450.662	452.38
450.883	429.38
451.104	466.38
451.324	451.38
451.545	410.38
451.766	404.38
451.986	401.38
452.207	394.38
452.428	380.38
452.648	402.38
452.869	400.38
453.089	395.38
453.31	404.38
453.53	403.38
453.751	387.38
453.971	393.38
454.192	437.38
454.412	401.38
454.633	386.38
454.853	384.38
455.073	388.38
455.294	417.38
455.514	488.38
455.734	487.38
455.955	394.38
456.175	371.38
456.395	366.38
456.616	346.38
456.836	361.38
457.056	374.38
457.276	375.38
457.497	353.38
457.717	370.38
457.937	356.38
458.157	372.38
458.377	370.38
458.598	399.38
458.818	463.38
459.038	552.38
459.258	549.38
459.478	458.38
459.698	434.38
459.918	385.38
460.138	388.38
460.358	412.38
460.578	384.38
460.798	395.38
461.018	411.38
461.238	429.38
461.458	413.38
461.678	395.38
461.898	406.38
462.118	401.38
462.338	417.38
462.558	405.38
462.777	401.38
462.997	402.38
463.217	424.38
463.437	421.38
463.657	416.38
463.876	446.38
464.096	421.38
464.316	407.38
464.536	401.38
464.755	424.38
464.975	431.38
465.195	479.38
465.414	580.38
465.634	516.38
465.854	464.38
466.073	442.38
466.293	414.38
466.512	402.38
466.732	389.38
466.951	392.38
467.171	390.38
467.391	409.38
467.61	415.38
467.829	408.38
468.049	404.38
468.268	402.38
468.488	399.38
468.707	399.38
468.927	383.38
469.146	392.38
469.365	401.38
469.585	383.38
469.804	396.38
470.023	398.38
470.243	395.38
470.462	404.38
470.681	437.38
470.901	425.38
471.12	411.38
471.339	414.38
471.558	406.38
471.777	413.38
471.997	393.38
472.216	393.38
472.435	444.38
472.654	456.38
472.873	411.38
473.092	419.38
473.311	408.38
473.53	420.38
473.749	420.38
473.968	477.38
474.187	558.38
474.406	552.38
474.625	454.38
474.844	411.38
475.063	398.38
475.282	401.38
475.501	406.38
475.72	412.38
475.939	430.38
476.158	420.38
476.377	397.38
476.596	389.38
476.814	441.38
477.033	443.38
477.252	408.38
477.471	420.38
477.69	421.38
477.908	445.38
478.127	436.38
478.346	424.38
478.564	435.38
478.783	433.38
479.002	449.38
479.22	448.38
479.439	481.38
479.658	493.38
479.876	510.38
480.095	490.38
480.313	510.38
480.532	501.38
480.751	477.38
480.969	502.38
481.188	575.38
481.406	621.38
481.624	554.38
481.843	515.38
482.061	496.38
482.28	486.38
482.498	494.38
482.717	468.38
482.935	461.38
483.153	479.38
483.372	466.38
483.59	471.38
483.808	482.38
484.027	468.38
484.245	484.38
484.463	478.38
484.681	484.38
484.9	475.38
485.118	474.38
485.336	485.38
485.554	488.38
485.772	481.38
485.99	473.38
486.209	496.38
486.427	474.38
486.645	518.38
486.863	538.38
487.081	513.38
487.299	496.38
487.517	496.38
487.735	516.38
487.953	499.38
488.171	526.38
488.389	493.38
488.607	515.38
488.825	512.38
489.043	526.38
489.261	518.38
489.479	511.38
489.696	528.38
489.914	538.38
490.132	514.38
490.35	522.38
490.568	525.38
490.786	530.38
491.003	570.38
491.221	578.38
491.439	575.38
491.657	580.38
491.874	592.38
492.092	560.38
492.31	590.38
492.527	588.38
492.745	587.38
492.963	600.38
493.18	573.38
493.398	599.38
493.615	619.38
493.833	598.38
494.05	594.38
494.268	612.38
494.485	564.38
494.703	583.38
494.92	592.38
495.138	612.38
495.355	603.38
495.573	608.38
495.79	601.38
496.008	611.38
496.225	593.38
496.442	600.38
496.66	628.38
496.877	622.38
497.094	608.38
497.312	611.38
497.529	622.38
497.746	607.38
497.963	615.38
498.181	632.38
498.398	649.38
498.615	676.38
498.832	664.38
499.049	653.38
499.267	684.38
499.484	696.38
499.701	689.38
499.918	694.38
500.135	726.38
500.352	754.38
500.569	719.38
500.786	771.38
501.003	766.38
501.22	777.38
501.437	718.38
501.654	714.38
501.871	724.38
502.088	708.38
502.305	670.38
502.522	649.38
502.739	647.38
502.956	644.38
503.172	621.38
503.389	630.38
503.606	628.38
503.823	649.38
504.04	590.38
504.256	602.38
504.473	613.38
504.69	617.38
504.907	612.38
505.123	584.38
505.34	598.38
505.557	587.38
505.773	580.38
505.99	588.38
506.207	593.38
506.423	589.38
506.64	593.38
506.856	579.38
507.073	560.38
507.289	580.38
507.506	576.38
507.722	594.38
507.939	591.38
508.155	583.38
508.372	580.38
508.588	563.38
508.805	551.38
509.021	545.38
509.238	581.38
509.454	577.38
509.67	561.38
509.887	571.38
510.103	577.38
510.319	599.38
510.536	693.38
510.752	1239.38
510.968	964.38
511.184	606.38
511.401	545.38
511.617	548.38
511.833	558.38
512.049	552.38
512.265	533.38
512.481	553.38
512.698	544.38
512.914	530.38
513.13	547.38
513.346	548.38
513.562	527.38
513.778	553.38
513.994	543.38
514.21	578.38
514.426	591.38
514.642	643.38
514.858	660.38
515.074	709.38
515.29	893.38
515.506	1327.38
515.721	1073.38
515.937	694.38
516.153	623.38
516.369	598.38
516.585	556.38
516.801	560.38
517.016	543.38
517.232	549.38
517.448	573.38
517.664	560.38
517.879	555.38
518.095	546.38
518.311	556.38
518.527	548.38
518.742	562.38
518.958	526.38
519.173	550.38
519.389	540.38
519.605	542.38
519.82	560.38
520.036	578.38
520.251	613.38
520.467	625.38
520.682	624.38
520.898	643.38
521.113	659.38
521.329	708.38
521.544	823.38
521.76	1066.38
521.975	1782.38
522.19	1743.38
522.406	933.38
522.621	684.38
522.836	600.38
523.052	575.38
523.267	530.38
523.482	535.38
523.698	512.38
523.913	517.38
524.128	529.38
524.343	494.38
524.559	504.38
524.774	487.38
524.989	487.38
525.204	488.38
525.419	487.38
525.634	485.38
525.849	477.38
526.064	458.38
526.28	453.38
526.495	451.38
526.71	446.38
526.925	458.38
527.14	449.38
527.355	432.38
527.57	444.38
527.785	429.38
527.999	439.38
528.214	433.38
528.429	437.38
528.644	448.38
528.859	454.38
529.074	445.38
529.289	465.38
529.503	568.38
529.718	560.38
529.933	480.38
530.148	455.38
530.363	462.38
530.577	441.38
530.792	432.38
531.007	460.38
531.221	416.38
531.436	432.38
531.651	412.38
531.865	415.38
532.08	425.38
532.295	389.38
532.509	421.38
532.724	430.38
532.938	394.38
533.153	424.38
533.367	406.38
533.582	406.38
533.796	416.38
534.011	420.38
534.225	417.38
534.44	408.38
534.654	405.38
534.868	397.38
535.083	403.38
535.297	401.38
535.511	418.38
535.726	429.38
535.94	436.38
536.154	413.38
536.369	422.38
536.583	417.38
536.797	408.38
537.011	389.38
537.225	394.38
537.44	412.38
537.654	394.38
537.868	413.38
538.082	390.38
538.296	394.38
538.51	389.38
538.724	400.38
538.938	401.38
539.153	379.38
539.367	394.38
539.581	410.38
539.795	414.38
540.009	402.38
540.222	381.38
540.436	374.38
540.65	393.38
540.864	401.38
541.078	409.38
541.292	399.38
541.506	391.38
541.72	409.38
541.934	389.38
542.147	390.38
542.361	377.38
542.575	403.38
542.789	385.38
543.002	394.38
543.216	402.38
543.43	385.38
543.644	412.38
543.857	401.38
544.071	402.38
544.285	384.38
544.498	391.38
544.712	386.38
544.925	398.38
545.139	381.38
545.352	378.38
545.566	374.38
545.779	386.38
545.993	406.38
546.206	403.38
546.42	370.38
546.633	351.38
546.847	389.38
547.06	382.38
547.274	375.38
547.487	388.38
547.7	375.38
547.914	367.38
548.127	365.38
548.34	360.38
548.554	354.38
548.767	377.38
548.98	373.38
549.193	367.38
549.407	354.38
549.62	388.38
549.833	376.38
550.046	372.38
550.259	352.38
550.473	369.38
550.686	356.38
550.899	368.38
551.112	381.38
551.325	361.38
551.538	384.38
551.751	354.38
551.964	370.38
552.177	367.38
552.39	373.38
552.603	366.38
552.816	343.38
553.029	359.38
553.242	370.38
553.455	356.38
553.667	376.38
553.88	402.38
554.093	395.38
554.306	387.38
554.519	360.38
554.732	370.38
554.944	365.38
555.157	350.38
555.37	349.38
555.583	340.38
555.795	364.38
556.008	366.38
556.221	366.38
556.433	329.38
556.646	361.38
556.859	345.38
557.071	334.38
557.284	337.38
557.496	322.38
557.709	355.38
557.921	340.38
558.134	325.38
558.346	340.38
558.559	300.38
558.771	330.38
558.984	321.38
559.196	333.38
559.409	329.38
559.621	342.38
559.833	323.38
560.046	316.38
560.258	317.38
560.47	320.38
560.683	321.38
560.895	332.38
561.107	312.38
561.32	327.38
561.532	324.38
561.744	338.38
561.956	326.38
562.168	327.38
562.381	343.38
562.593	337.38
562.805	352.38
563.017	332.38
563.229	326.38
563.441	358.38
563.653	343.38
563.865	336.38
564.077	339.38
564.289	329.38
564.501	331.38
564.713	345.38
564.925	337.38
565.137	348.38
565.349	342.38
565.561	355.38
565.773	356.38
565.985	357.38
566.197	369.38
566.408	368.38
566.62	341.38
566.832	359.38
567.044	365.38
567.255	386.38
567.467	362.38
567.679	372.38
567.891	359.38
568.102	376.38
568.314	372.38
568.526	385.38
568.737	364.38
568.949	342.38
569.161	334.38
569.372	343.38
569.584	336.38
569.795	330.38
570.007	340.38
570.218	394.38
570.43	375.38
570.641	320.38
570.853	321.38
571.064	309.38
571.276	325.38
571.487	315.38
571.698	297.38
571.91	332.38
572.121	310.38
572.333	296.38
572.544	298.38
572.755	296.38
572.966	292.38
573.178	291.38
573.389	300.38
573.6	287.38
573.811	295.38
574.023	292.38
574.234	290.38
574.445	291.38
574.656	281.38
574.867	266.38
575.078	292.38
575.289	312.38
575.501	270.38
575.712	284.38
575.923	260.38
576.134	268.38
576.345	268.38
576.556	282.38
576.767	282.38
576.978	287.38
577.188	282.38
577.399	285.38
577.61	278.38
577.821	267.38
578.032	279.38
578.243	305.38
578.454	551.38
578.665	395.38
578.875	281.38
579.086	273.38
579.297	282.38
579.508	273.38
579.718	273.38
579.929	270.38
580.14	249.38
580.35	269.38
580.561	273.38
580.772	279.38
580.982	260.38
581.193	264.38
581.403	255.38
581.614	260.38
581.825	272.38
582.035	264.38
582.246	282.38
582.456	253.38
582.667	264.38
582.877	283.38
583.087	257.38
583.298	264.38
583.508	273.38
583.719	260.38
583.929	244.38
584.139	254.38
584.35	252.38
584.56	266.38
584.77	265.38
584.981	269.38
585.191	270.38
585.401	275.38
585.611	265.38
585.821	258.38
586.032	256.38
586.242	261.38
586.452	270.38
586.662	262.38
586.872	240.38
587.082	249.38
587.292	245.38
587.502	260.38
587.713	248.38
587.923	264.38
588.133	264.38
588.343	261.38
588.553	240.38
588.762	255.38
588.972	260.38
589.182	260.38
589.392	249.38
589.602	236.38
589.812	248.38
590.022	258.38
590.232	246.38
590.441	242.38
590.651	245.38
590.861	256.38
591.071	264.38
591.281	233.38
591.49	247.38
591.7	244.38
591.91	257.38
592.119	250.38
592.329	253.38
592.539	272.38
592.748	260.38
592.958	264.38
593.167	267.38
593.377	240.38
593.587	263.38
593.796	253.38
594.006	248.38
594.215	250.38
594.424	255.38
594.634	259.38
594.843	242.38
595.053	244.38
595.262	253.38
595.472	246.38
595.681	236.38
595.89	237.38
596.1	226.38
596.309	225.38
596.518	238.38
596.727	231.38
596.937	227.38
597.146	223.38
597.355	230.38
597.564	236.38
597.774	234.38
597.983	228.38
598.192	225.38
598.401	232.38
598.61	241.38
598.819	218.38
599.028	225.38
599.237	231.38
599.446	240.38
599.655	238.38
599.864	220.38
600.073	239.38
600.282	222.38
600.491	217.38
600.7	229.38
600.909	229.38
601.118	238.38
601.327	219.38
601.536	223.38
601.745	212.38
601.953	223.38
602.162	216.38
602.371	212.38
602.58	222.38
602.789	227.38
602.997	207.38
603.206	201.38
603.415	210.38
603.623	211.38
603.832	211.38
604.041	212.38
604.249	206.38
604.458	220.38
604.666	224.38
604.875	199.38
605.084	202.38
605.292	217.38
605.501	206.38
605.709	215.38
605.918	217.38
606.126	213.38
606.334	216.38
606.543	230.38
606.751	208.38
606.96	218.38
607.168	196.38
607.376	201.38
607.585	207.38
607.793	210.38
608.001	205.38
608.21	219.38
608.418	204.38
608.626	202.38
608.834	214.38
609.043	217.38
609.251	202.38
609.459	212.38
609.667	196.38
609.875	190.38
610.083	197.38
610.291	216.38
610.499	216.38
610.707	203.38
610.916	205.38
611.124	202.38
611.332	205.38
611.54	215.38
611.748	222.38
611.955	207.38
612.163	212.38
612.371	222.38
612.579	213.38
612.787	198.38
612.995	214.38
613.203	202.38
613.411	198.38
613.618	193.38
613.826	206.38
614.034	207.38
614.242	213.38
614.449	208.38
614.657	191.38
614.865	202.38
615.072	208.38
615.28	208.38
615.488	195.38
615.695	193.38
615.903	211.38
616.111	202.38
616.318	213.38
616.526	198.38
616.733	205.38
616.941	194.38
617.148	221.38
617.356	202.38
617.563	189.38
617.771	199.38
617.978	198.38
618.185	192.38
618.393	201.38
618.6	207.38
618.807	191.38
619.015	202.38
619.222	193.38
619.429	184.38
619.637	188.38
619.844	185.38
620.051	180.38
620.258	211.38
620.466	172.38
620.673	184.38
620.88	188.38
621.087	205.38
621.294	190.38
621.501	174.38
621.708	192.38
621.915	191.38
622.122	194.38
622.329	203.38
622.536	206.38
622.743	197.38
622.95	186.38
623.157	200.38
623.364	201.38
623.571	188.38
623.778	177.38
623.985	189.38
624.192	188.38
624.399	192.38
624.606	194.38
624.812	188.38
625.019	187.38
625.226	178.38
625.433	197.38
625.639	183.38
625.846	206.38
626.053	175.38
626.259	183.38
626.466	191.38
626.673	178.38
626.879	193.38
627.086	182.38
627.293	170.38
627.499	165.38
627.706	184.38
627.912	176.38
628.119	177.38
628.325	184.38
628.532	192.38
628.738	189.38
628.945	185.38
629.151	178.38
629.357	165.38
629.564	169.38
629.77	179.38
629.976	179.38
630.183	166.38
630.389	172.38
630.595	168.38
630.802	156.38
631.008	167.38
631.214	163.38
631.42	162.38
631.627	172.38
631.833	164.38
632.039	168.38
632.245	159.38
632.451	157.38
632.657	166.38
632.863	170.38
633.069	147.38
633.275	164.38
633.481	152.38
633.688	158.38
633.893	178.38
634.099	167.38
634.305	169.38
634.511	161.38
634.717	169.38
634.923	156.38
635.129	182.38
635.335	175.38
635.541	155.38
635.747	176.38
635.952	160.38
636.158	169.38
636.364	157.38
636.57	173.38
636.775	156.38
636.981	172.38
637.187	157.38
637.392	169.38
637.598	162.38
637.804	162.38
638.009	178.38
638.215	164.38
638.421	155.38
638.626	158.38
638.832	154.38
639.037	156.38
639.243	164.38
639.448	147.38
639.654	160.38
639.859	150.38
640.065	159.38
640.27	150.38
640.475	143.38
640.681	140.38
640.886	150.38
641.091	141.38
641.297	162.38
641.502	149.38
641.707	149.38
641.913	160.38
642.118	161.38
642.323	150.38
642.528	151.38
642.733	139.38
642.939	136.38
643.144	144.38
643.349	146.38
643.554	157.38
643.759	146.38
643.964	162.38
644.169	151.38
644.374	152.38
644.579	144.38
644.784	148.38
644.989	148.38
645.194	138.38
645.399	152.38
645.604	156.38
645.809	152.38
646.014	157.38
646.219	136.38
646.423	162.38
646.628	144.38
646.833	162.38
647.038	158.38
647.243	145.38
647.447	150.38
647.652	150.38
647.857	153.38
648.062	141.38
648.266	160.38
648.471	148.38
648.676	159.38
648.88	148.38
649.085	146.38
649.289	144.38
649.494	139.38
649.698	145.38
649.903	161.38
650.107	155.38
650.312	146.38
650.516	151.38
650.721	143.38
650.925	161.38
651.13	133.38
651.334	141.38
651.539	142.38
651.743	128.38
651.947	120.38
652.152	122.38
652.356	136.38
652.56	133.38
652.764	133.38
652.969	133.38
653.173	154.38
653.377	132.38
653.581	123.38
653.785	120.38
653.99	121.38
654.194	135.38
654.398	125.38
654.602	121.38
654.806	126.38
655.01	132.38
655.214	122.38
655.418	113.38
655.622	129.38
655.826	105.38
656.03	112.38
656.234	127.38
656.438	121.38
656.642	133.38
656.846	126.38
657.049	127.38
657.253	118.38
657.457	101.38
657.661	105.38
657.865	105.38
658.068	114.38
658.272	108.38
658.476	104.38
658.68	121.38
658.883	97.38
659.087	100.38
659.291	96.38
659.494	92.38
659.698	100.38
659.901	72.38
660.105	72.38
660.309	96.38
660.512	85.38
660.716	103.38
660.919	85.38
661.123	91.38
661.326	90.38
661.53	86.38
661.733	100.38
661.936	88.38
662.14	72.38
662.343	82.38
662.546	89.38
662.75	87.38
662.953	89.38
663.156	76.38
663.36	89.38
663.563	85.38
663.766	88.38
663.969	70.38
664.173	69.38
664.376	90.38
664.579	75.38
664.782	73.38
664.985	74.38
665.188	72.38
665.391	82.38
665.594	71.38
665.797	82.38
666	76.38
666.203	84.38
666.406	92.38
666.609	93.38
666.812	90.38
667.015	75.38
667.218	78.38
667.421	76.38
667.624	68.38
667.827	88.38
668.03	76.38
668.232	71.38
668.435	79.38
668.638	84.38
668.841	88.38
669.043	78.38
669.246	82.38
669.449	77.38
669.651	72.38
669.854	88.38
670.057	73.38
670.259	66.38
670.462	94.38
670.665	76.38
670.867	81.38
671.07	78.38
671.272	92.38
671.475	82.38
671.677	83.38
671.88	89.38
672.082	80.38
672.284	79.38
672.487	82.38
672.689	82.38
672.892	82.38
