Data from 1961.PennyLincolnUp.Lamp.En5.5.200Scan.071719.P1._HRD10591_13-47-12-057.txt Node
Date: Thu Jul 18 13:47:12 EDT 2019
User: cochatt
Spectrometer: HR+D1059
Trigger mode: 1
Integration Time (sec): 1.000000E-1
Scans to average: 1
Electric dark correction enabled: true
Nonlinearity correction enabled: false
Boxcar width: 0
XAxis mode: Wavelengths
Number of Pixels in Spectrum: 2048
>>>>>Begin Spectral Data<<<<<
223.165	-5.94
223.4	-5.94
223.635	-5.94
223.869	-24.94
224.104	-23.94
224.338	-10.94
224.573	-5.94
224.808	-1.94
225.042	-6.94
225.277	-1.94
225.511	-0.94
225.746	-1.94
225.98	5.06
226.215	11.06
226.449	18.06
226.683	18.06
226.918	19.06
227.152	14.06
227.387	37.06
227.621	28.06
227.856	31.06
228.09	52.06
228.324	44.06
228.559	42.06
228.793	77.06
229.027	81.06
229.262	86.06
229.496	97.06
229.73	119.06
229.964	130.06
230.199	116.06
230.433	102.06
230.667	99.06
230.901	95.06
231.136	97.06
231.37	88.06
231.604	96.06
231.838	96.06
232.072	87.06
232.306	109.06
232.541	101.06
232.775	103.06
233.009	103.06
233.243	110.06
233.477	106.06
233.711	101.06
233.945	92.06
234.179	109.06
234.413	111.06
234.647	107.06
234.881	108.06
235.115	95.06
235.349	108.06
235.583	106.06
235.817	115.06
236.051	113.06
236.285	99.06
236.519	110.06
236.753	123.06
236.987	116.06
237.221	144.06
237.455	186.06
237.689	140.06
237.922	120.06
238.156	115.06
238.39	100.06
238.624	110.06
238.858	116.06
239.091	109.06
239.325	108.06
239.559	119.06
239.793	123.06
240.027	114.06
240.26	109.06
240.494	128.06
240.728	127.06
240.961	138.06
241.195	113.06
241.429	117.06
241.662	127.06
241.896	120.06
242.13	113.06
242.363	113.06
242.597	125.06
242.83	110.06
243.064	122.06
243.298	123.06
243.531	114.06
243.765	120.06
243.998	114.06
244.232	110.06
244.465	130.06
244.699	127.06
244.932	103.06
245.166	122.06
245.399	116.06
245.633	120.06
245.866	125.06
246.099	99.06
246.333	125.06
246.566	128.06
246.8	126.06
247.033	134.06
247.266	123.06
247.5	138.06
247.733	143.06
247.966	140.06
248.2	140.06
248.433	127.06
248.666	142.06
248.899	147.06
249.133	144.06
249.366	170.06
249.599	162.06
249.832	142.06
250.066	151.06
250.299	148.06
250.532	161.06
250.765	171.06
250.998	165.06
251.231	170.06
251.465	170.06
251.698	157.06
251.931	174.06
252.164	159.06
252.397	162.06
252.63	167.06
252.863	148.06
253.096	157.06
253.329	184.06
253.562	181.06
253.795	163.06
254.028	182.06
254.261	186.06
254.494	191.06
254.727	188.06
254.96	224.06
255.193	209.06
255.426	176.06
255.659	189.06
255.892	197.06
256.124	175.06
256.357	173.06
256.59	167.06
256.823	158.06
257.056	189.06
257.289	178.06
257.521	154.06
257.754	175.06
257.987	180.06
258.22	163.06
258.452	170.06
258.685	166.06
258.918	172.06
259.151	170.06
259.383	173.06
259.616	170.06
259.849	176.06
260.081	190.06
260.314	180.06
260.547	194.06
260.779	183.06
261.012	202.06
261.244	182.06
261.477	179.06
261.71	184.06
261.942	178.06
262.175	179.06
262.407	197.06
262.64	194.06
262.872	163.06
263.105	171.06
263.337	165.06
263.57	152.06
263.802	160.06
264.035	164.06
264.267	173.06
264.499	174.06
264.732	173.06
264.964	167.06
265.197	178.06
265.429	175.06
265.661	178.06
265.894	182.06
266.126	166.06
266.358	169.06
266.591	158.06
266.823	158.06
267.055	170.06
267.287	179.06
267.52	185.06
267.752	200.06
267.984	182.06
268.216	177.06
268.448	184.06
268.681	183.06
268.913	187.06
269.145	191.06
269.377	214.06
269.609	191.06
269.841	206.06
270.073	206.06
270.306	219.06
270.538	241.06
270.77	247.06
271.002	240.06
271.234	235.06
271.466	234.06
271.698	234.06
271.93	233.06
272.162	245.06
272.394	241.06
272.626	241.06
272.858	235.06
273.09	210.06
273.322	203.06
273.553	219.06
273.785	211.06
274.017	200.06
274.249	212.06
274.481	197.06
274.713	196.06
274.945	215.06
275.176	214.06
275.408	204.06
275.64	204.06
275.872	212.06
276.104	215.06
276.335	213.06
276.567	207.06
276.799	236.06
277.031	236.06
277.262	253.06
277.494	244.06
277.726	233.06
277.957	235.06
278.189	218.06
278.421	222.06
278.652	220.06
278.884	221.06
279.115	205.06
279.347	197.06
279.579	191.06
279.81	198.06
280.042	207.06
280.273	209.06
280.505	202.06
280.736	210.06
280.968	188.06
281.199	223.06
281.431	207.06
281.662	212.06
281.894	196.06
282.125	204.06
282.356	211.06
282.588	234.06
282.819	238.06
283.051	208.06
283.282	204.06
283.513	220.06
283.745	211.06
283.976	222.06
284.207	212.06
284.439	221.06
284.67	211.06
284.901	207.06
285.132	214.06
285.364	216.06
285.595	213.06
285.826	211.06
286.057	206.06
286.288	208.06
286.52	206.06
286.751	203.06
286.982	215.06
287.213	212.06
287.444	222.06
287.675	209.06
287.906	239.06
288.138	226.06
288.369	212.06
288.6	227.06
288.831	230.06
289.062	215.06
289.293	234.06
289.524	240.06
289.755	216.06
289.986	216.06
290.217	213.06
290.448	205.06
290.679	219.06
290.91	215.06
291.141	221.06
291.371	217.06
291.602	226.06
291.833	218.06
292.064	228.06
292.295	225.06
292.526	202.06
292.757	222.06
292.987	222.06
293.218	213.06
293.449	228.06
293.68	214.06
293.91	204.06
294.141	231.06
294.372	234.06
294.603	219.06
294.833	222.06
295.064	223.06
295.295	223.06
295.525	219.06
295.756	236.06
295.987	238.06
296.217	263.06
296.448	268.06
296.679	246.06
296.909	230.06
297.14	239.06
297.37	230.06
297.601	235.06
297.831	214.06
298.062	217.06
298.292	232.06
298.523	248.06
298.753	218.06
298.984	230.06
299.214	230.06
299.445	231.06
299.675	236.06
299.905	252.06
300.136	251.06
300.366	238.06
300.597	244.06
300.827	236.06
301.057	239.06
301.288	237.06
301.518	253.06
301.748	255.06
301.979	235.06
302.209	259.06
302.439	264.06
302.669	262.06
302.9	244.06
303.13	259.06
303.36	256.06
303.59	257.06
303.82	261.06
304.051	275.06
304.281	235.06
304.511	247.06
304.741	241.06
304.971	251.06
305.201	256.06
305.431	250.06
305.661	252.06
305.891	255.06
306.121	251.06
306.352	270.06
306.582	267.06
306.812	236.06
307.042	244.06
307.272	254.06
307.502	250.06
307.731	255.06
307.961	258.06
308.191	260.06
308.421	266.06
308.651	268.06
308.881	260.06
309.111	260.06
309.341	267.06
309.571	264.06
309.8	294.06
310.03	278.06
310.26	284.06
310.49	292.06
310.72	314.06
310.949	309.06
311.179	311.06
311.409	275.06
311.639	288.06
311.868	309.06
312.098	301.06
312.328	311.06
312.557	319.06
312.787	324.06
313.017	328.06
313.246	295.06
313.476	298.06
313.706	291.06
313.935	283.06
314.165	312.06
314.394	318.06
314.624	317.06
314.853	300.06
315.083	300.06
315.312	278.06
315.542	277.06
315.771	287.06
316.001	278.06
316.23	303.06
316.46	295.06
316.689	276.06
316.919	292.06
317.148	309.06
317.377	304.06
317.607	316.06
317.836	308.06
318.065	293.06
318.295	288.06
318.524	290.06
318.753	283.06
318.983	298.06
319.212	271.06
319.441	309.06
319.67	294.06
319.9	283.06
320.129	293.06
320.358	305.06
320.587	303.06
320.816	308.06
321.046	320.06
321.275	314.06
321.504	311.06
321.733	322.06
321.962	316.06
322.191	313.06
322.42	328.06
322.649	363.06
322.878	358.06
323.108	366.06
323.337	386.06
323.566	402.06
323.795	446.06
324.024	482.06
324.253	596.06
324.482	878.06
324.71	1339.06
324.939	1850.06
325.168	1592.06
325.397	829.06
325.626	560.06
325.855	464.06
326.084	440.06
326.313	422.06
326.542	419.06
326.77	466.06
326.999	554.06
327.228	787.06
327.457	1183.06
327.686	1394.06
327.914	936.06
328.143	602.06
328.372	548.06
328.6	511.06
328.829	476.06
329.058	494.06
329.287	490.06
329.515	454.06
329.744	426.06
329.972	416.06
330.201	437.06
330.43	498.06
330.658	495.06
330.887	504.06
331.115	497.06
331.344	418.06
331.572	412.06
331.801	396.06
332.03	390.06
332.258	375.06
332.486	353.06
332.715	344.06
332.943	342.06
333.172	357.06
333.4	370.06
333.629	338.06
333.857	353.06
334.085	368.06
334.314	388.06
334.542	453.06
334.771	467.06
334.999	419.06
335.227	409.06
335.455	358.06
335.684	350.06
335.912	339.06
336.14	330.06
336.369	331.06
336.597	364.06
336.825	348.06
337.053	352.06
337.281	338.06
337.51	335.06
337.738	346.06
337.966	352.06
338.194	345.06
338.422	339.06
338.65	333.06
338.878	336.06
339.106	316.06
339.334	315.06
339.562	317.06
339.79	324.06
340.018	339.06
340.246	328.06
340.474	343.06
340.702	342.06
340.93	343.06
341.158	331.06
341.386	321.06
341.614	349.06
341.842	334.06
342.07	323.06
342.298	318.06
342.526	325.06
342.754	321.06
342.981	312.06
343.209	327.06
343.437	333.06
343.665	322.06
343.893	328.06
344.12	319.06
344.348	314.06
344.576	333.06
344.804	340.06
345.031	349.06
345.259	368.06
345.487	340.06
345.714	338.06
345.942	338.06
346.17	314.06
346.397	320.06
346.625	342.06
346.853	320.06
347.08	306.06
347.308	324.06
347.535	329.06
347.763	351.06
347.99	349.06
348.218	315.06
348.445	334.06
348.673	352.06
348.9	340.06
349.128	317.06
349.355	327.06
349.583	318.06
349.81	327.06
350.037	305.06
350.265	328.06
350.492	313.06
350.72	314.06
350.947	320.06
351.174	317.06
351.402	331.06
351.629	337.06
351.856	337.06
352.083	331.06
352.311	349.06
352.538	347.06
352.765	336.06
352.992	337.06
353.22	332.06
353.447	328.06
353.674	339.06
353.901	315.06
354.128	321.06
354.355	335.06
354.583	314.06
354.81	309.06
355.037	315.06
355.264	307.06
355.491	301.06
355.718	304.06
355.945	293.06
356.172	291.06
356.399	304.06
356.626	304.06
356.853	291.06
357.08	304.06
357.307	300.06
357.534	287.06
357.761	302.06
357.988	301.06
358.215	298.06
358.441	299.06
358.668	299.06
358.895	309.06
359.122	315.06
359.349	325.06
359.576	339.06
359.802	339.06
360.029	369.06
360.256	377.06
360.483	344.06
360.709	341.06
360.936	322.06
361.163	314.06
361.39	328.06
361.616	327.06
361.843	319.06
362.07	330.06
362.296	327.06
362.523	316.06
362.749	325.06
362.976	325.06
363.203	323.06
363.429	312.06
363.656	329.06
363.882	314.06
364.109	314.06
364.335	299.06
364.562	299.06
364.788	320.06
365.015	303.06
365.241	319.06
365.468	315.06
365.694	333.06
365.92	308.06
366.147	304.06
366.373	318.06
366.599	296.06
366.826	300.06
367.052	308.06
367.278	319.06
367.505	302.06
367.731	295.06
367.957	300.06
368.184	307.06
368.41	331.06
368.636	340.06
368.862	322.06
369.089	322.06
369.315	313.06
369.541	316.06
369.767	305.06
369.993	296.06
370.219	307.06
370.445	308.06
370.672	326.06
370.898	313.06
371.124	304.06
371.35	302.06
371.576	293.06
371.802	304.06
372.028	310.06
372.254	284.06
372.48	304.06
372.706	289.06
372.932	293.06
373.158	298.06
373.384	317.06
373.61	325.06
373.835	308.06
374.061	324.06
374.287	300.06
374.513	320.06
374.739	304.06
374.965	311.06
375.191	320.06
375.416	308.06
375.642	318.06
375.868	293.06
376.094	307.06
376.319	315.06
376.545	306.06
376.771	287.06
376.997	308.06
377.222	302.06
377.448	300.06
377.674	308.06
377.899	302.06
378.125	303.06
378.35	295.06
378.576	295.06
378.802	282.06
379.027	303.06
379.253	298.06
379.478	314.06
379.704	304.06
379.929	302.06
380.155	324.06
380.38	302.06
380.606	323.06
380.831	293.06
381.057	337.06
381.282	317.06
381.507	298.06
381.733	314.06
381.958	304.06
382.184	320.06
382.409	295.06
382.634	314.06
382.86	321.06
383.085	318.06
383.31	311.06
383.535	314.06
383.761	323.06
383.986	336.06
384.211	339.06
384.436	328.06
384.662	323.06
384.887	326.06
385.112	323.06
385.337	324.06
385.562	312.06
385.787	339.06
386.013	314.06
386.238	333.06
386.463	307.06
386.688	317.06
386.913	335.06
387.138	319.06
387.363	318.06
387.588	314.06
387.813	339.06
388.038	338.06
388.263	322.06
388.488	346.06
388.713	333.06
388.938	332.06
389.163	336.06
389.387	329.06
389.612	343.06
389.837	320.06
390.062	341.06
390.287	323.06
390.512	328.06
390.736	340.06
390.961	329.06
391.186	327.06
391.411	316.06
391.636	329.06
391.86	331.06
392.085	341.06
392.31	319.06
392.534	328.06
392.759	329.06
392.984	338.06
393.208	341.06
393.433	358.06
393.658	349.06
393.882	356.06
394.107	333.06
394.331	321.06
394.556	343.06
394.78	337.06
395.005	340.06
395.229	332.06
395.454	339.06
395.678	371.06
395.903	342.06
396.127	360.06
396.352	372.06
396.576	363.06
396.801	358.06
397.025	327.06
397.249	359.06
397.474	355.06
397.698	354.06
397.922	375.06
398.147	382.06
398.371	381.06
398.595	372.06
398.82	360.06
399.044	368.06
399.268	382.06
399.492	400.06
399.717	405.06
399.941	429.06
400.165	442.06
400.389	442.06
400.613	397.06
400.837	399.06
401.062	392.06
401.286	381.06
401.51	379.06
401.734	378.06
401.958	390.06
402.182	391.06
402.406	387.06
402.63	379.06
402.854	381.06
403.078	377.06
403.302	374.06
403.526	400.06
403.75	387.06
403.974	392.06
404.198	379.06
404.422	399.06
404.645	409.06
404.869	408.06
405.093	416.06
405.317	461.06
405.541	486.06
405.765	433.06
405.988	410.06
406.212	414.06
406.436	448.06
406.66	462.06
406.883	428.06
407.107	446.06
407.331	455.06
407.555	518.06
407.778	511.06
408.002	459.06
408.226	447.06
408.449	426.06
408.673	446.06
408.896	451.06
409.12	479.06
409.344	429.06
409.567	424.06
409.791	408.06
410.014	402.06
410.238	388.06
410.461	398.06
410.685	419.06
410.908	405.06
411.132	448.06
411.355	470.06
411.578	438.06
411.802	414.06
412.025	386.06
412.249	392.06
412.472	420.06
412.695	464.06
412.919	464.06
413.142	410.06
413.365	394.06
413.589	370.06
413.812	383.06
414.035	372.06
414.258	377.06
414.482	376.06
414.705	367.06
414.928	369.06
415.151	367.06
415.374	362.06
415.597	361.06
415.821	371.06
416.044	377.06
416.267	385.06
416.49	370.06
416.713	376.06
416.936	364.06
417.159	376.06
417.382	366.06
417.605	384.06
417.828	389.06
418.051	415.06
418.274	388.06
418.497	380.06
418.72	372.06
418.943	369.06
419.166	380.06
419.389	384.06
419.611	387.06
419.834	380.06
420.057	386.06
420.28	390.06
420.503	395.06
420.726	403.06
420.948	413.06
421.171	446.06
421.394	448.06
421.617	399.06
421.839	411.06
422.062	371.06
422.285	415.06
422.507	460.06
422.73	527.06
422.953	473.06
423.175	424.06
423.398	424.06
423.621	401.06
423.843	413.06
424.066	413.06
424.288	442.06
424.511	428.06
424.733	478.06
424.956	536.06
425.178	498.06
425.401	495.06
425.623	536.06
425.846	460.06
426.068	452.06
426.291	437.06
426.513	426.06
426.735	427.06
426.958	467.06
427.18	504.06
427.402	612.06
427.625	682.06
427.847	607.06
428.069	551.06
428.292	481.06
428.514	442.06
428.736	400.06
428.958	403.06
429.181	395.06
429.403	381.06
429.625	389.06
429.847	431.06
430.069	482.06
430.292	476.06
430.514	428.06
430.736	391.06
430.958	391.06
431.18	375.06
431.402	380.06
431.624	366.06
431.846	373.06
432.068	385.06
432.29	379.06
432.512	372.06
432.734	388.06
432.956	369.06
433.178	374.06
433.4	401.06
433.622	396.06
433.844	380.06
434.066	370.06
434.287	364.06
434.509	390.06
434.731	388.06
434.953	386.06
435.175	389.06
435.397	403.06
435.618	432.06
435.84	462.06
436.062	538.06
436.284	567.06
436.505	493.06
436.727	442.06
436.949	435.06
437.17	409.06
437.392	413.06
437.614	415.06
437.835	455.06
438.057	524.06
438.278	601.06
438.5	604.06
438.721	632.06
438.943	627.06
439.165	484.06
439.386	467.06
439.608	445.06
439.829	454.06
440.05	459.06
440.272	510.06
440.493	474.06
440.715	432.06
440.936	431.06
441.158	399.06
441.379	405.06
441.6	416.06
441.822	414.06
442.043	480.06
442.264	535.06
442.486	558.06
442.707	469.06
442.928	436.06
443.149	442.06
443.371	465.06
443.592	499.06
443.813	565.06
444.034	586.06
444.255	493.06
444.476	450.06
444.698	420.06
444.919	442.06
445.14	514.06
445.361	464.06
445.582	495.06
445.803	507.06
446.024	596.06
446.245	597.06
446.466	561.06
446.687	480.06
446.908	429.06
447.129	398.06
447.35	389.06
447.571	402.06
447.792	398.06
448.013	404.06
448.234	411.06
448.455	467.06
448.675	549.06
448.896	650.06
449.117	568.06
449.338	504.06
449.559	589.06
449.779	658.06
450	532.06
450.221	424.06
450.442	422.06
450.662	405.06
450.883	416.06
451.104	407.06
451.324	405.06
451.545	398.06
451.766	376.06
451.986	371.06
452.207	349.06
452.428	342.06
452.648	370.06
452.869	369.06
453.089	371.06
453.31	371.06
453.53	359.06
453.751	359.06
453.971	370.06
454.192	414.06
454.412	386.06
454.633	347.06
454.853	366.06
455.073	356.06
455.294	392.06
455.514	435.06
455.734	424.06
455.955	369.06
456.175	355.06
456.395	344.06
456.616	337.06
456.836	350.06
457.056	346.06
457.276	343.06
457.497	349.06
457.717	342.06
457.937	340.06
458.157	351.06
458.377	342.06
458.598	374.06
458.818	432.06
459.038	501.06
459.258	512.06
459.478	422.06
459.698	382.06
459.918	381.06
460.138	371.06
460.358	399.06
460.578	376.06
460.798	397.06
461.018	384.06
461.238	374.06
461.458	382.06
461.678	360.06
461.898	372.06
462.118	379.06
462.338	383.06
462.558	390.06
462.777	388.06
462.997	384.06
463.217	420.06
463.437	407.06
463.657	404.06
463.876	395.06
464.096	394.06
464.316	429.06
464.536	428.06
464.755	404.06
464.975	402.06
465.195	438.06
465.414	518.06
465.634	448.06
465.854	438.06
466.073	401.06
466.293	379.06
466.512	371.06
466.732	367.06
466.951	365.06
467.171	364.06
467.391	379.06
467.61	383.06
467.829	379.06
468.049	401.06
468.268	381.06
468.488	362.06
468.707	368.06
468.927	357.06
469.146	353.06
469.365	362.06
469.585	373.06
469.804	376.06
470.023	379.06
470.243	372.06
470.462	387.06
470.681	402.06
470.901	380.06
471.12	382.06
471.339	382.06
471.558	392.06
471.777	383.06
471.997	373.06
472.216	388.06
472.435	424.06
472.654	401.06
472.873	373.06
473.092	380.06
473.311	399.06
473.53	380.06
473.749	403.06
473.968	423.06
474.187	493.06
474.406	506.06
474.625	452.06
474.844	400.06
475.063	397.06
475.282	405.06
475.501	379.06
475.72	385.06
475.939	396.06
476.158	387.06
476.377	384.06
476.596	386.06
476.814	395.06
477.033	396.06
477.252	404.06
477.471	399.06
477.69	412.06
477.908	430.06
478.127	399.06
478.346	417.06
478.564	432.06
478.783	443.06
479.002	413.06
479.22	407.06
479.439	429.06
479.658	440.06
479.876	447.06
480.095	467.06
480.313	491.06
480.532	458.06
480.751	466.06
480.969	470.06
481.188	514.06
481.406	608.06
481.624	496.06
481.843	482.06
482.061	451.06
482.28	451.06
482.498	443.06
482.717	470.06
482.935	454.06
483.153	452.06
483.372	452.06
483.59	461.06
483.808	439.06
484.027	464.06
484.245	422.06
484.463	434.06
484.681	475.06
484.9	444.06
485.118	462.06
485.336	439.06
485.554	443.06
485.772	446.06
485.99	482.06
486.209	452.06
486.427	451.06
486.645	476.06
486.863	491.06
487.081	499.06
487.299	480.06
487.517	468.06
487.735	455.06
487.953	479.06
488.171	481.06
488.389	478.06
488.607	476.06
488.825	480.06
489.043	459.06
489.261	482.06
489.479	479.06
489.696	498.06
489.914	489.06
490.132	483.06
490.35	490.06
490.568	525.06
490.786	504.06
491.003	488.06
491.221	484.06
491.439	520.06
491.657	530.06
491.874	522.06
492.092	543.06
492.31	538.06
492.527	540.06
492.745	570.06
492.963	543.06
493.18	524.06
493.398	550.06
493.615	552.06
493.833	540.06
494.05	560.06
494.268	549.06
494.485	549.06
494.703	549.06
494.92	547.06
495.138	539.06
495.355	530.06
495.573	566.06
495.79	566.06
496.008	556.06
496.225	544.06
496.442	568.06
496.66	570.06
496.877	579.06
497.094	577.06
497.312	576.06
497.529	580.06
497.746	591.06
497.963	574.06
498.181	581.06
498.398	592.06
498.615	596.06
498.832	621.06
499.049	619.06
499.267	618.06
499.484	629.06
499.701	672.06
499.918	658.06
500.135	712.06
500.352	712.06
500.569	714.06
500.786	720.06
501.003	724.06
501.22	723.06
501.437	716.06
501.654	703.06
501.871	704.06
502.088	706.06
502.305	654.06
502.522	658.06
502.739	629.06
502.956	591.06
503.172	620.06
503.389	568.06
503.606	595.06
503.823	595.06
504.04	579.06
504.256	580.06
504.473	559.06
504.69	568.06
504.907	570.06
505.123	570.06
505.34	538.06
505.557	562.06
505.773	546.06
505.99	538.06
506.207	557.06
506.423	546.06
506.64	540.06
506.856	530.06
507.073	527.06
507.289	535.06
507.506	527.06
507.722	546.06
507.939	560.06
508.155	547.06
508.372	517.06
508.588	517.06
508.805	536.06
509.021	510.06
509.238	524.06
509.454	534.06
509.67	547.06
509.887	529.06
510.103	511.06
510.319	524.06
510.536	638.06
510.752	1078.06
510.968	888.06
511.184	570.06
511.401	530.06
511.617	531.06
511.833	518.06
512.049	512.06
512.265	479.06
512.481	508.06
512.698	496.06
512.914	508.06
513.13	506.06
513.346	478.06
513.562	485.06
513.778	498.06
513.994	520.06
514.21	521.06
514.426	540.06
514.642	576.06
514.858	594.06
515.074	630.06
515.29	748.06
515.506	1141.06
515.721	934.06
515.937	630.06
516.153	578.06
516.369	541.06
516.585	546.06
516.801	520.06
517.016	520.06
517.232	526.06
517.448	518.06
517.664	506.06
517.879	486.06
518.095	483.06
518.311	499.06
518.527	514.06
518.742	521.06
518.958	508.06
519.173	492.06
519.389	502.06
519.605	519.06
519.82	512.06
520.036	512.06
520.251	541.06
520.467	565.06
520.682	567.06
520.898	563.06
521.113	565.06
521.329	624.06
521.544	713.06
521.76	888.06
521.975	1504.06
522.19	1462.06
522.406	812.06
522.621	579.06
522.836	567.06
523.052	490.06
523.267	483.06
523.482	504.06
523.698	477.06
523.913	479.06
524.128	465.06
524.343	444.06
524.559	438.06
524.774	441.06
524.989	440.06
525.204	444.06
525.419	467.06
525.634	431.06
525.849	413.06
526.064	425.06
526.28	428.06
526.495	422.06
526.71	415.06
526.925	424.06
527.14	429.06
527.355	408.06
527.57	419.06
527.785	420.06
527.999	417.06
528.214	408.06
528.429	411.06
528.644	404.06
528.859	394.06
529.074	411.06
529.289	431.06
529.503	501.06
529.718	491.06
529.933	429.06
530.148	424.06
530.363	420.06
530.577	409.06
530.792	408.06
531.007	414.06
531.221	417.06
531.436	383.06
531.651	384.06
531.865	393.06
532.08	384.06
532.295	415.06
532.509	388.06
532.724	379.06
532.938	391.06
533.153	414.06
533.367	391.06
533.582	393.06
533.796	408.06
534.011	395.06
534.225	376.06
534.44	376.06
534.654	381.06
534.868	380.06
535.083	378.06
535.297	404.06
535.511	402.06
535.726	381.06
535.94	417.06
536.154	389.06
536.369	370.06
536.583	388.06
536.797	387.06
537.011	379.06
537.225	355.06
537.44	358.06
537.654	376.06
537.868	401.06
538.082	362.06
538.296	381.06
538.51	394.06
538.724	375.06
538.938	366.06
539.153	371.06
539.367	413.06
539.581	381.06
539.795	381.06
540.009	386.06
540.222	382.06
540.436	387.06
540.65	374.06
540.864	384.06
541.078	379.06
541.292	388.06
541.506	379.06
541.72	365.06
541.934	367.06
542.147	388.06
542.361	394.06
542.575	373.06
542.789	373.06
543.002	366.06
543.216	375.06
543.43	370.06
543.644	356.06
543.857	348.06
544.071	372.06
544.285	381.06
544.498	375.06
544.712	353.06
544.925	362.06
545.139	359.06
545.352	362.06
545.566	370.06
545.779	366.06
545.993	347.06
546.206	349.06
546.42	362.06
546.633	352.06
546.847	362.06
547.06	351.06
547.274	362.06
547.487	342.06
547.7	355.06
547.914	354.06
548.127	355.06
548.34	342.06
548.554	332.06
548.767	344.06
548.98	344.06
549.193	346.06
549.407	353.06
549.62	369.06
549.833	354.06
550.046	349.06
550.259	358.06
550.473	347.06
550.686	343.06
550.899	337.06
551.112	341.06
551.325	348.06
551.538	342.06
551.751	346.06
551.964	356.06
552.177	367.06
552.39	359.06
552.603	348.06
552.816	382.06
553.029	342.06
553.242	346.06
553.455	371.06
553.667	372.06
553.88	376.06
554.093	342.06
554.306	348.06
554.519	362.06
554.732	338.06
554.944	351.06
555.157	342.06
555.37	347.06
555.583	322.06
555.795	352.06
556.008	338.06
556.221	318.06
556.433	323.06
556.646	353.06
556.859	321.06
557.071	332.06
557.284	333.06
557.496	336.06
557.709	327.06
557.921	324.06
558.134	309.06
558.346	332.06
558.559	320.06
558.771	336.06
558.984	310.06
559.196	312.06
559.409	312.06
559.621	315.06
559.833	334.06
560.046	323.06
560.258	312.06
560.47	324.06
560.683	319.06
560.895	320.06
561.107	298.06
561.32	309.06
561.532	315.06
561.744	323.06
561.956	317.06
562.168	304.06
562.381	320.06
562.593	328.06
562.805	321.06
563.017	322.06
563.229	305.06
563.441	293.06
563.653	320.06
563.865	303.06
564.077	309.06
564.289	302.06
564.501	331.06
564.713	336.06
564.925	336.06
565.137	344.06
565.349	352.06
565.561	351.06
565.773	351.06
565.985	341.06
566.197	328.06
566.408	357.06
566.62	342.06
566.832	360.06
567.044	340.06
567.255	357.06
567.467	368.06
567.679	360.06
567.891	372.06
568.102	365.06
568.314	354.06
568.526	362.06
568.737	332.06
568.949	326.06
569.161	325.06
569.372	322.06
569.584	325.06
569.795	312.06
570.007	317.06
570.218	373.06
570.43	357.06
570.641	308.06
570.853	291.06
571.064	321.06
571.276	294.06
571.487	280.06
571.698	296.06
571.91	295.06
572.121	290.06
572.333	322.06
572.544	290.06
572.755	282.06
572.966	276.06
573.178	262.06
573.389	270.06
573.6	275.06
573.811	294.06
574.023	290.06
574.234	291.06
574.445	270.06
574.656	275.06
574.867	282.06
575.078	286.06
575.289	278.06
575.501	264.06
575.712	259.06
575.923	257.06
576.134	271.06
576.345	276.06
576.556	247.06
576.767	268.06
576.978	278.06
577.188	287.06
577.399	265.06
577.61	270.06
577.821	277.06
578.032	282.06
578.243	307.06
578.454	495.06
578.665	372.06
578.875	278.06
579.086	264.06
579.297	271.06
579.508	261.06
579.718	275.06
579.929	267.06
580.14	268.06
580.35	259.06
580.561	258.06
580.772	254.06
580.982	261.06
581.193	252.06
581.403	273.06
581.614	259.06
581.825	259.06
582.035	258.06
582.246	254.06
582.456	254.06
582.667	246.06
582.877	252.06
583.087	254.06
583.298	260.06
583.508	260.06
583.719	264.06
583.929	249.06
584.139	253.06
584.35	240.06
584.56	254.06
584.77	246.06
584.981	253.06
585.191	248.06
585.401	252.06
585.611	236.06
585.821	242.06
586.032	248.06
586.242	235.06
586.452	237.06
586.662	238.06
586.872	247.06
587.082	237.06
587.292	247.06
587.502	239.06
587.713	223.06
587.923	246.06
588.133	245.06
588.343	249.06
588.553	231.06
588.762	258.06
588.972	244.06
589.182	239.06
589.392	250.06
589.602	261.06
589.812	252.06
590.022	238.06
590.232	240.06
590.441	246.06
590.651	248.06
590.861	232.06
591.071	240.06
591.281	216.06
591.49	237.06
591.7	229.06
591.91	235.06
592.119	224.06
592.329	231.06
592.539	231.06
592.748	222.06
592.958	242.06
593.167	252.06
593.377	254.06
593.587	251.06
593.796	253.06
594.006	258.06
594.215	252.06
594.424	236.06
594.634	243.06
594.843	259.06
595.053	234.06
595.262	230.06
595.472	241.06
595.681	234.06
595.89	225.06
596.1	220.06
596.309	224.06
596.518	218.06
596.727	227.06
596.937	229.06
597.146	217.06
597.355	219.06
597.564	214.06
597.774	213.06
597.983	220.06
598.192	210.06
598.401	229.06
598.61	217.06
598.819	230.06
599.028	216.06
599.237	216.06
599.446	217.06
599.655	199.06
599.864	208.06
600.073	223.06
600.282	205.06
600.491	224.06
600.7	223.06
600.909	211.06
601.118	215.06
601.327	216.06
601.536	207.06
601.745	213.06
601.953	216.06
602.162	203.06
602.371	204.06
602.58	215.06
602.789	219.06
602.997	213.06
603.206	210.06
603.415	198.06
603.623	207.06
603.832	211.06
604.041	200.06
604.249	213.06
604.458	204.06
604.666	215.06
604.875	208.06
605.084	213.06
605.292	199.06
605.501	208.06
605.709	196.06
605.918	193.06
606.126	199.06
606.334	205.06
606.543	198.06
606.751	211.06
606.96	202.06
607.168	206.06
607.376	216.06
607.585	200.06
607.793	208.06
608.001	189.06
608.21	209.06
608.418	205.06
608.626	213.06
608.834	194.06
609.043	178.06
609.251	199.06
609.459	202.06
609.667	192.06
609.875	204.06
610.083	197.06
610.291	176.06
610.499	194.06
610.707	206.06
610.916	199.06
611.124	204.06
611.332	199.06
611.54	188.06
611.748	198.06
611.955	186.06
612.163	184.06
612.371	180.06
612.579	207.06
612.787	184.06
612.995	204.06
613.203	204.06
613.411	202.06
613.618	199.06
613.826	194.06
614.034	215.06
614.242	196.06
614.449	174.06
614.657	196.06
614.865	197.06
615.072	207.06
615.28	181.06
615.488	193.06
615.695	184.06
615.903	194.06
616.111	185.06
616.318	199.06
616.526	193.06
616.733	206.06
616.941	193.06
617.148	206.06
617.356	190.06
617.563	196.06
617.771	193.06
617.978	209.06
618.185	193.06
618.393	199.06
618.6	196.06
618.807	181.06
619.015	190.06
619.222	191.06
619.429	200.06
619.637	194.06
619.844	180.06
620.051	177.06
620.258	190.06
620.466	182.06
620.673	184.06
620.88	187.06
621.087	175.06
621.294	171.06
621.501	183.06
621.708	171.06
621.915	182.06
622.122	177.06
622.329	175.06
622.536	176.06
622.743	197.06
622.95	182.06
623.157	191.06
623.364	188.06
623.571	191.06
623.778	179.06
623.985	187.06
624.192	188.06
624.399	165.06
624.606	192.06
624.812	160.06
625.019	184.06
625.226	173.06
625.433	173.06
625.639	168.06
625.846	172.06
626.053	198.06
626.259	182.06
626.466	192.06
626.673	185.06
626.879	180.06
627.086	184.06
627.293	174.06
627.499	158.06
627.706	172.06
627.912	163.06
628.119	160.06
628.325	171.06
628.532	182.06
628.738	162.06
628.945	171.06
629.151	177.06
629.357	186.06
629.564	164.06
629.77	157.06
629.976	157.06
630.183	184.06
630.389	160.06
630.595	173.06
630.802	177.06
631.008	176.06
631.214	159.06
631.42	171.06
631.627	165.06
631.833	175.06
632.039	175.06
632.245	149.06
632.451	151.06
632.657	178.06
632.863	180.06
633.069	164.06
633.275	141.06
633.481	162.06
633.688	151.06
633.893	172.06
634.099	157.06
634.305	132.06
634.511	161.06
634.717	159.06
634.923	172.06
635.129	166.06
635.335	159.06
635.541	139.06
635.747	159.06
635.952	156.06
636.158	151.06
636.364	156.06
636.57	151.06
636.775	166.06
636.981	166.06
637.187	155.06
637.392	153.06
637.598	165.06
637.804	152.06
638.009	157.06
638.215	156.06
638.421	150.06
638.626	148.06
638.832	155.06
639.037	148.06
639.243	139.06
639.448	137.06
639.654	150.06
639.859	139.06
640.065	134.06
640.27	154.06
640.475	154.06
640.681	158.06
640.886	147.06
641.091	162.06
641.297	163.06
641.502	161.06
641.707	146.06
641.913	159.06
642.118	142.06
642.323	143.06
642.528	133.06
642.733	151.06
642.939	139.06
643.144	133.06
643.349	151.06
643.554	141.06
643.759	153.06
643.964	144.06
644.169	148.06
644.374	144.06
644.579	134.06
644.784	135.06
644.989	160.06
645.194	139.06
645.399	144.06
645.604	132.06
645.809	145.06
646.014	149.06
646.219	128.06
646.423	146.06
646.628	134.06
646.833	132.06
647.038	146.06
647.243	151.06
647.447	142.06
647.652	149.06
647.857	147.06
648.062	151.06
648.266	150.06
648.471	132.06
648.676	155.06
648.88	137.06
649.085	144.06
649.289	136.06
649.494	149.06
649.698	144.06
649.903	170.06
650.107	147.06
650.312	136.06
650.516	140.06
650.721	147.06
650.925	138.06
651.13	132.06
651.334	144.06
651.539	137.06
651.743	136.06
651.947	134.06
652.152	120.06
652.356	134.06
652.56	126.06
652.764	131.06
652.969	125.06
653.173	116.06
653.377	113.06
653.581	126.06
653.785	125.06
653.99	116.06
654.194	139.06
654.398	116.06
654.602	126.06
654.806	128.06
655.01	115.06
655.214	126.06
655.418	122.06
655.622	124.06
655.826	129.06
656.03	119.06
656.234	111.06
656.438	108.06
656.642	118.06
656.846	113.06
657.049	118.06
657.253	114.06
657.457	109.06
657.661	120.06
657.865	111.06
658.068	112.06
658.272	115.06
658.476	100.06
658.68	101.06
658.883	112.06
659.087	91.06
659.291	103.06
659.494	88.06
659.698	82.06
659.901	97.06
660.105	105.06
660.309	90.06
660.512	99.06
660.716	86.06
660.919	77.06
661.123	87.06
661.326	85.06
661.53	92.06
661.733	94.06
661.936	86.06
662.14	88.06
662.343	87.06
662.546	71.06
662.75	84.06
662.953	95.06
663.156	78.06
663.36	88.06
663.563	78.06
663.766	81.06
663.969	77.06
664.173	68.06
664.376	90.06
664.579	80.06
664.782	73.06
664.985	80.06
665.188	88.06
665.391	77.06
665.594	74.06
665.797	66.06
666	74.06
666.203	74.06
666.406	78.06
666.609	67.06
666.812	82.06
667.015	62.06
667.218	77.06
667.421	79.06
667.624	92.06
667.827	98.06
668.03	83.06
668.232	83.06
668.435	75.06
668.638	68.06
668.841	69.06
669.043	81.06
669.246	85.06
669.449	81.06
669.651	80.06
669.854	66.06
670.057	85.06
670.259	80.06
670.462	85.06
670.665	80.06
670.867	77.06
671.07	82.06
671.272	76.06
671.475	84.06
671.677	91.06
671.88	89.06
672.082	87.06
672.284	83.06
672.487	79.06
672.689	83.06
672.892	79.06
