Data from 1961.PennyLincolnUp.Lamp.En5.5.200Scan.071719.P1._HRD10591_13-49-15-058.txt Node
Date: Thu Jul 18 13:49:15 EDT 2019
User: cochatt
Spectrometer: HR+D1059
Trigger mode: 1
Integration Time (sec): 1.000000E-1
Scans to average: 1
Electric dark correction enabled: true
Nonlinearity correction enabled: false
Boxcar width: 0
XAxis mode: Wavelengths
Number of Pixels in Spectrum: 2048
>>>>>Begin Spectral Data<<<<<
223.165	-15.25
223.4	-15.25
223.635	-15.25
223.869	-21.25
224.104	-20.25
224.338	-20.25
224.573	-17.25
224.808	-8.25
225.042	-7.25
225.277	-4.25
225.511	3.75
225.746	9.75
225.98	10.75
226.215	15.75
226.449	12.75
226.683	25.75
226.918	10.75
227.152	24.75
227.387	35.75
227.621	34.75
227.856	46.75
228.09	36.75
228.324	43.75
228.559	47.75
228.793	77.75
229.027	83.75
229.262	103.75
229.496	110.75
229.73	129.75
229.964	130.75
230.199	124.75
230.433	116.75
230.667	112.75
230.901	117.75
231.136	102.75
231.37	101.75
231.604	104.75
231.838	119.75
232.072	100.75
232.306	95.75
232.541	104.75
232.775	103.75
233.009	100.75
233.243	101.75
233.477	116.75
233.711	107.75
233.945	104.75
234.179	114.75
234.413	106.75
234.647	112.75
234.881	96.75
235.115	96.75
235.349	120.75
235.583	105.75
235.817	103.75
236.051	123.75
236.285	106.75
236.519	111.75
236.753	133.75
236.987	133.75
237.221	164.75
237.455	207.75
237.689	179.75
237.922	127.75
238.156	135.75
238.39	130.75
238.624	121.75
238.858	122.75
239.091	125.75
239.325	129.75
239.559	122.75
239.793	113.75
240.027	145.75
240.26	130.75
240.494	145.75
240.728	135.75
240.961	134.75
241.195	132.75
241.429	120.75
241.662	115.75
241.896	126.75
242.13	117.75
242.363	124.75
242.597	120.75
242.83	124.75
243.064	109.75
243.298	110.75
243.531	117.75
243.765	131.75
243.998	134.75
244.232	140.75
244.465	124.75
244.699	127.75
244.932	125.75
245.166	121.75
245.399	134.75
245.633	122.75
245.866	131.75
246.099	131.75
246.333	123.75
246.566	136.75
246.8	120.75
247.033	130.75
247.266	147.75
247.5	143.75
247.733	138.75
247.966	142.75
248.2	164.75
248.433	127.75
248.666	143.75
248.899	167.75
249.133	171.75
249.366	179.75
249.599	178.75
249.832	165.75
250.066	166.75
250.299	154.75
250.532	167.75
250.765	175.75
250.998	188.75
251.231	198.75
251.465	185.75
251.698	190.75
251.931	180.75
252.164	169.75
252.397	171.75
252.63	164.75
252.863	169.75
253.096	194.75
253.329	191.75
253.562	190.75
253.795	192.75
254.028	182.75
254.261	182.75
254.494	214.75
254.727	229.75
254.96	262.75
255.193	238.75
255.426	220.75
255.659	220.75
255.892	214.75
256.124	227.75
256.357	216.75
256.59	196.75
256.823	190.75
257.056	187.75
257.289	190.75
257.521	186.75
257.754	178.75
257.987	184.75
258.22	192.75
258.452	196.75
258.685	185.75
258.918	192.75
259.151	167.75
259.383	175.75
259.616	197.75
259.849	185.75
260.081	206.75
260.314	220.75
260.547	215.75
260.779	207.75
261.012	200.75
261.244	192.75
261.477	193.75
261.71	186.75
261.942	200.75
262.175	203.75
262.407	205.75
262.64	199.75
262.872	191.75
263.105	177.75
263.337	177.75
263.57	169.75
263.802	172.75
264.035	192.75
264.267	185.75
264.499	178.75
264.732	185.75
264.964	189.75
265.197	166.75
265.429	193.75
265.661	192.75
265.894	176.75
266.126	176.75
266.358	202.75
266.591	184.75
266.823	191.75
267.055	193.75
267.287	181.75
267.52	193.75
267.752	191.75
267.984	211.75
268.216	202.75
268.448	186.75
268.681	204.75
268.913	203.75
269.145	222.75
269.377	238.75
269.609	234.75
269.841	231.75
270.073	233.75
270.306	255.75
270.538	265.75
270.77	259.75
271.002	252.75
271.234	227.75
271.466	246.75
271.698	262.75
271.93	268.75
272.162	268.75
272.394	260.75
272.626	261.75
272.858	263.75
273.09	235.75
273.322	235.75
273.553	243.75
273.785	236.75
274.017	210.75
274.249	215.75
274.481	228.75
274.713	236.75
274.945	233.75
275.176	211.75
275.408	235.75
275.64	235.75
275.872	233.75
276.104	226.75
276.335	232.75
276.567	224.75
276.799	244.75
277.031	264.75
277.262	263.75
277.494	279.75
277.726	278.75
277.957	243.75
278.189	244.75
278.421	245.75
278.652	238.75
278.884	224.75
279.115	238.75
279.347	205.75
279.579	239.75
279.81	222.75
280.042	232.75
280.273	227.75
280.505	219.75
280.736	223.75
280.968	238.75
281.199	225.75
281.431	213.75
281.662	211.75
281.894	217.75
282.125	226.75
282.356	229.75
282.588	251.75
282.819	268.75
283.051	242.75
283.282	210.75
283.513	227.75
283.745	218.75
283.976	219.75
284.207	241.75
284.439	232.75
284.67	234.75
284.901	225.75
285.132	218.75
285.364	231.75
285.595	234.75
285.826	233.75
286.057	235.75
286.288	239.75
286.52	231.75
286.751	225.75
286.982	225.75
287.213	227.75
287.444	233.75
287.675	238.75
287.906	231.75
288.138	248.75
288.369	262.75
288.6	250.75
288.831	241.75
289.062	244.75
289.293	235.75
289.524	240.75
289.755	236.75
289.986	230.75
290.217	249.75
290.448	226.75
290.679	234.75
290.91	253.75
291.141	225.75
291.371	217.75
291.602	231.75
291.833	228.75
292.064	246.75
292.295	229.75
292.526	243.75
292.757	235.75
292.987	232.75
293.218	224.75
293.449	259.75
293.68	246.75
293.91	230.75
294.141	233.75
294.372	241.75
294.603	227.75
294.833	240.75
295.064	235.75
295.295	235.75
295.525	242.75
295.756	238.75
295.987	258.75
296.217	266.75
296.448	272.75
296.679	254.75
296.909	242.75
297.14	241.75
297.37	253.75
297.601	255.75
297.831	250.75
298.062	250.75
298.292	257.75
298.523	240.75
298.753	241.75
298.984	267.75
299.214	263.75
299.445	232.75
299.675	238.75
299.905	268.75
300.136	278.75
300.366	254.75
300.597	244.75
300.827	256.75
301.057	271.75
301.288	274.75
301.518	278.75
301.748	243.75
301.979	276.75
302.209	268.75
302.439	262.75
302.669	279.75
302.9	258.75
303.13	254.75
303.36	286.75
303.59	285.75
303.82	267.75
304.051	282.75
304.281	267.75
304.511	267.75
304.741	267.75
304.971	267.75
305.201	278.75
305.431	271.75
305.661	257.75
305.891	272.75
306.121	286.75
306.352	273.75
306.582	277.75
306.812	263.75
307.042	281.75
307.272	286.75
307.502	271.75
307.731	258.75
307.961	278.75
308.191	277.75
308.421	276.75
308.651	274.75
308.881	286.75
309.111	288.75
309.341	269.75
309.571	304.75
309.8	289.75
310.03	322.75
310.26	317.75
310.49	326.75
310.72	336.75
310.949	349.75
311.179	343.75
311.409	332.75
311.639	314.75
311.868	307.75
312.098	316.75
312.328	316.75
312.557	369.75
312.787	354.75
313.017	372.75
313.246	350.75
313.476	325.75
313.706	316.75
313.935	325.75
314.165	343.75
314.394	318.75
314.624	338.75
314.853	332.75
315.083	324.75
315.312	349.75
315.542	308.75
315.771	294.75
316.001	302.75
316.23	302.75
316.46	312.75
316.689	327.75
316.919	329.75
317.148	335.75
317.377	350.75
317.607	312.75
317.836	337.75
318.065	320.75
318.295	315.75
318.524	322.75
318.753	302.75
318.983	330.75
319.212	318.75
319.441	321.75
319.67	338.75
319.9	318.75
320.129	318.75
320.358	326.75
320.587	324.75
320.816	354.75
321.046	374.75
321.275	345.75
321.504	343.75
321.733	339.75
321.962	351.75
322.191	364.75
322.42	382.75
322.649	372.75
322.878	420.75
323.108	428.75
323.337	455.75
323.566	479.75
323.795	516.75
324.024	560.75
324.253	721.75
324.482	1098.75
324.71	1687.75
324.939	2310.75
325.168	1956.75
325.397	1003.75
325.626	666.75
325.855	544.75
326.084	481.75
326.313	476.75
326.542	490.75
326.77	550.75
326.999	646.75
327.228	942.75
327.457	1451.75
327.686	1664.75
327.914	1086.75
328.143	718.75
328.372	632.75
328.6	571.75
328.829	558.75
329.058	547.75
329.287	545.75
329.515	523.75
329.744	475.75
329.972	503.75
330.201	504.75
330.43	552.75
330.658	581.75
330.887	589.75
331.115	551.75
331.344	471.75
331.572	444.75
331.801	431.75
332.03	417.75
332.258	400.75
332.486	393.75
332.715	388.75
332.943	397.75
333.172	386.75
333.4	390.75
333.629	396.75
333.857	419.75
334.085	417.75
334.314	448.75
334.542	489.75
334.771	491.75
334.999	435.75
335.227	406.75
335.455	402.75
335.684	393.75
335.912	368.75
336.14	375.75
336.369	381.75
336.597	383.75
336.825	392.75
337.053	381.75
337.281	394.75
337.51	378.75
337.738	374.75
337.966	373.75
338.194	387.75
338.422	375.75
338.65	362.75
338.878	350.75
339.106	343.75
339.334	356.75
339.562	350.75
339.79	355.75
340.018	367.75
340.246	351.75
340.474	374.75
340.702	374.75
340.93	361.75
341.158	362.75
341.386	357.75
341.614	360.75
341.842	361.75
342.07	347.75
342.298	356.75
342.526	346.75
342.754	345.75
342.981	331.75
343.209	347.75
343.437	353.75
343.665	352.75
343.893	352.75
344.12	367.75
344.348	353.75
344.576	362.75
344.804	379.75
345.031	375.75
345.259	389.75
345.487	362.75
345.714	382.75
345.942	353.75
346.17	351.75
346.397	359.75
346.625	351.75
346.853	343.75
347.08	353.75
347.308	361.75
347.535	351.75
347.763	368.75
347.99	367.75
348.218	363.75
348.445	381.75
348.673	386.75
348.9	358.75
349.128	352.75
349.355	353.75
349.583	329.75
349.81	359.75
350.037	326.75
350.265	337.75
350.492	337.75
350.72	341.75
350.947	350.75
351.174	359.75
351.402	362.75
351.629	366.75
351.856	345.75
352.083	356.75
352.311	384.75
352.538	382.75
352.765	388.75
352.992	374.75
353.22	360.75
353.447	355.75
353.674	358.75
353.901	318.75
354.128	345.75
354.355	318.75
354.583	338.75
354.81	333.75
355.037	341.75
355.264	336.75
355.491	330.75
355.718	329.75
355.945	326.75
356.172	319.75
356.399	319.75
356.626	322.75
356.853	334.75
357.08	305.75
357.307	311.75
357.534	316.75
357.761	325.75
357.988	324.75
358.215	322.75
358.441	318.75
358.668	334.75
358.895	312.75
359.122	337.75
359.349	343.75
359.576	361.75
359.802	379.75
360.029	403.75
360.256	427.75
360.483	406.75
360.709	352.75
360.936	348.75
361.163	354.75
361.39	361.75
361.616	363.75
361.843	355.75
362.07	352.75
362.296	348.75
362.523	335.75
362.749	350.75
362.976	363.75
363.203	325.75
363.429	333.75
363.656	343.75
363.882	329.75
364.109	352.75
364.335	321.75
364.562	322.75
364.788	332.75
365.015	324.75
365.241	346.75
365.468	341.75
365.694	345.75
365.92	323.75
366.147	334.75
366.373	334.75
366.599	330.75
366.826	325.75
367.052	319.75
367.278	315.75
367.505	311.75
367.731	324.75
367.957	325.75
368.184	348.75
368.41	315.75
368.636	342.75
368.862	329.75
369.089	347.75
369.315	331.75
369.541	340.75
369.767	320.75
369.993	318.75
370.219	340.75
370.445	316.75
370.672	332.75
370.898	331.75
371.124	318.75
371.35	322.75
371.576	306.75
371.802	323.75
372.028	328.75
372.254	314.75
372.48	291.75
372.706	325.75
372.932	331.75
373.158	323.75
373.384	329.75
373.61	342.75
373.835	330.75
374.061	325.75
374.287	326.75
374.513	342.75
374.739	314.75
374.965	331.75
375.191	328.75
375.416	343.75
375.642	342.75
375.868	324.75
376.094	320.75
376.319	324.75
376.545	327.75
376.771	332.75
376.997	322.75
377.222	330.75
377.448	314.75
377.674	312.75
377.899	324.75
378.125	324.75
378.35	326.75
378.576	297.75
378.802	317.75
379.027	305.75
379.253	314.75
379.478	324.75
379.704	332.75
379.929	318.75
380.155	336.75
380.38	337.75
380.606	329.75
380.831	336.75
381.057	330.75
381.282	316.75
381.507	331.75
381.733	331.75
381.958	322.75
382.184	340.75
382.409	332.75
382.634	351.75
382.86	331.75
383.085	348.75
383.31	331.75
383.535	318.75
383.761	347.75
383.986	314.75
384.211	332.75
384.436	331.75
384.662	345.75
384.887	328.75
385.112	342.75
385.337	313.75
385.562	328.75
385.787	348.75
386.013	336.75
386.238	335.75
386.463	338.75
386.688	361.75
386.913	330.75
387.138	347.75
387.363	361.75
387.588	356.75
387.813	354.75
388.038	341.75
388.263	361.75
388.488	356.75
388.713	351.75
388.938	344.75
389.163	358.75
389.387	353.75
389.612	348.75
389.837	340.75
390.062	346.75
390.287	361.75
390.512	328.75
390.736	345.75
390.961	332.75
391.186	344.75
391.411	319.75
391.636	355.75
391.86	340.75
392.085	376.75
392.31	352.75
392.534	339.75
392.759	354.75
392.984	346.75
393.208	349.75
393.433	337.75
393.658	341.75
393.882	331.75
394.107	347.75
394.331	350.75
394.556	346.75
394.78	370.75
395.005	356.75
395.229	372.75
395.454	366.75
395.678	357.75
395.903	378.75
396.127	379.75
396.352	381.75
396.576	377.75
396.801	362.75
397.025	362.75
397.249	373.75
397.474	362.75
397.698	379.75
397.922	376.75
398.147	384.75
398.371	396.75
398.595	382.75
398.82	389.75
399.044	395.75
399.268	395.75
399.492	422.75
399.717	419.75
399.941	438.75
400.165	481.75
400.389	478.75
400.613	454.75
400.837	424.75
401.062	404.75
401.286	407.75
401.51	394.75
401.734	382.75
401.958	407.75
402.182	418.75
402.406	402.75
402.63	414.75
402.854	414.75
403.078	395.75
403.302	411.75
403.526	406.75
403.75	418.75
403.974	426.75
404.198	398.75
404.422	428.75
404.645	436.75
404.869	426.75
405.093	470.75
405.317	485.75
405.541	497.75
405.765	452.75
405.988	449.75
406.212	448.75
406.436	469.75
406.66	464.75
406.883	462.75
407.107	468.75
407.331	532.75
407.555	576.75
407.778	545.75
408.002	518.75
408.226	472.75
408.449	466.75
408.673	466.75
408.896	493.75
409.12	500.75
409.344	486.75
409.567	438.75
409.791	417.75
410.014	410.75
410.238	412.75
410.461	419.75
410.685	428.75
410.908	422.75
411.132	459.75
411.355	492.75
411.578	474.75
411.802	443.75
412.025	402.75
412.249	439.75
412.472	462.75
412.695	467.75
412.919	494.75
413.142	427.75
413.365	414.75
413.589	416.75
413.812	419.75
414.035	408.75
414.258	392.75
414.482	397.75
414.705	392.75
414.928	370.75
415.151	398.75
415.374	385.75
415.597	390.75
415.821	388.75
416.044	391.75
416.267	375.75
416.49	379.75
416.713	403.75
416.936	404.75
417.159	386.75
417.382	407.75
417.605	412.75
417.828	388.75
418.051	439.75
418.274	404.75
418.497	392.75
418.72	377.75
418.943	374.75
419.166	390.75
419.389	418.75
419.611	394.75
419.834	420.75
420.057	408.75
420.28	406.75
420.503	425.75
420.726	402.75
420.948	443.75
421.171	482.75
421.394	475.75
421.617	424.75
421.839	430.75
422.062	406.75
422.285	424.75
422.507	494.75
422.73	537.75
422.953	520.75
423.175	471.75
423.398	446.75
423.621	425.75
423.843	457.75
424.066	457.75
424.288	466.75
424.511	489.75
424.733	541.75
424.956	586.75
425.178	589.75
425.401	558.75
425.623	581.75
425.846	505.75
426.068	458.75
426.291	448.75
426.513	452.75
426.735	459.75
426.958	491.75
427.18	583.75
427.402	698.75
427.625	771.75
427.847	666.75
428.069	594.75
428.292	539.75
428.514	490.75
428.736	444.75
428.958	437.75
429.181	432.75
429.403	450.75
429.625	436.75
429.847	481.75
430.069	525.75
430.292	516.75
430.514	432.75
430.736	426.75
430.958	434.75
431.18	424.75
431.402	405.75
431.624	402.75
431.846	389.75
432.068	409.75
432.29	394.75
432.512	411.75
432.734	403.75
432.956	411.75
433.178	413.75
433.4	427.75
433.622	397.75
433.844	406.75
434.066	389.75
434.287	395.75
434.509	402.75
434.731	386.75
434.953	406.75
435.175	423.75
435.397	462.75
435.618	468.75
435.84	506.75
436.062	581.75
436.284	638.75
436.505	547.75
436.727	499.75
436.949	467.75
437.17	450.75
437.392	434.75
437.614	450.75
437.835	491.75
438.057	555.75
438.278	687.75
438.5	640.75
438.721	708.75
438.943	669.75
439.165	547.75
439.386	508.75
439.608	487.75
439.829	500.75
440.05	528.75
440.272	572.75
440.493	512.75
440.715	440.75
440.936	455.75
441.158	450.75
441.379	454.75
441.6	455.75
441.822	471.75
442.043	499.75
442.264	581.75
442.486	614.75
442.707	535.75
442.928	478.75
443.149	498.75
443.371	516.75
443.592	546.75
443.813	620.75
444.034	667.75
444.255	542.75
444.476	472.75
444.698	454.75
444.919	456.75
445.14	536.75
445.361	520.75
445.582	530.75
445.803	588.75
446.024	654.75
446.245	680.75
446.466	632.75
446.687	521.75
446.908	488.75
447.129	446.75
447.35	434.75
447.571	426.75
447.792	426.75
448.013	430.75
448.234	453.75
448.455	501.75
448.675	606.75
448.896	686.75
449.117	596.75
449.338	558.75
449.559	659.75
449.779	724.75
450	600.75
450.221	497.75
450.442	424.75
450.662	411.75
450.883	442.75
451.104	457.75
451.324	439.75
451.545	431.75
451.766	403.75
451.986	375.75
452.207	379.75
452.428	383.75
452.648	381.75
452.869	410.75
453.089	413.75
453.31	422.75
453.53	398.75
453.751	398.75
453.971	414.75
454.192	426.75
454.412	403.75
454.633	392.75
454.853	395.75
455.073	411.75
455.294	424.75
455.514	475.75
455.734	460.75
455.955	398.75
456.175	366.75
456.395	377.75
456.616	355.75
456.836	376.75
457.056	341.75
457.276	362.75
457.497	375.75
457.717	378.75
457.937	353.75
458.157	372.75
458.377	378.75
458.598	395.75
458.818	469.75
459.038	563.75
459.258	555.75
459.478	475.75
459.698	412.75
459.918	406.75
460.138	414.75
460.358	389.75
460.578	385.75
460.798	387.75
461.018	399.75
461.238	406.75
461.458	385.75
461.678	406.75
461.898	393.75
462.118	390.75
462.338	410.75
462.558	407.75
462.777	408.75
462.997	414.75
463.217	411.75
463.437	425.75
463.657	418.75
463.876	422.75
464.096	411.75
464.316	422.75
464.536	417.75
464.755	412.75
464.975	428.75
465.195	514.75
465.414	560.75
465.634	519.75
465.854	432.75
466.073	405.75
466.293	404.75
466.512	398.75
466.732	386.75
466.951	382.75
467.171	393.75
467.391	426.75
467.61	408.75
467.829	443.75
468.049	432.75
468.268	404.75
468.488	392.75
468.707	374.75
468.927	375.75
469.146	371.75
469.365	386.75
469.585	385.75
469.804	370.75
470.023	418.75
470.243	402.75
470.462	419.75
470.681	419.75
470.901	408.75
471.12	390.75
471.339	396.75
471.558	400.75
471.777	382.75
471.997	402.75
472.216	418.75
472.435	453.75
472.654	449.75
472.873	419.75
473.092	419.75
473.311	415.75
473.53	396.75
473.749	417.75
473.968	462.75
474.187	549.75
474.406	578.75
474.625	477.75
474.844	436.75
475.063	408.75
475.282	415.75
475.501	396.75
475.72	401.75
475.939	414.75
476.158	426.75
476.377	402.75
476.596	404.75
476.814	434.75
477.033	427.75
477.252	427.75
477.471	425.75
477.69	422.75
477.908	426.75
478.127	430.75
478.346	421.75
478.564	446.75
478.783	429.75
479.002	464.75
479.22	453.75
479.439	458.75
479.658	509.75
479.876	457.75
480.095	485.75
480.313	528.75
480.532	494.75
480.751	486.75
480.969	511.75
481.188	582.75
481.406	610.75
481.624	538.75
481.843	511.75
482.061	485.75
482.28	471.75
482.498	483.75
482.717	450.75
482.935	483.75
483.153	478.75
483.372	474.75
483.59	468.75
483.808	464.75
484.027	479.75
484.245	496.75
484.463	486.75
484.681	485.75
484.9	477.75
485.118	487.75
485.336	478.75
485.554	504.75
485.772	479.75
485.99	498.75
486.209	473.75
486.427	479.75
486.645	498.75
486.863	518.75
487.081	543.75
487.299	518.75
487.517	510.75
487.735	510.75
487.953	498.75
488.171	513.75
488.389	515.75
488.607	490.75
488.825	491.75
489.043	524.75
489.261	524.75
489.479	533.75
489.696	505.75
489.914	534.75
490.132	527.75
490.35	523.75
490.568	533.75
490.786	514.75
491.003	537.75
491.221	565.75
491.439	567.75
491.657	553.75
491.874	574.75
492.092	555.75
492.31	560.75
492.527	592.75
492.745	591.75
492.963	585.75
493.18	566.75
493.398	574.75
493.615	601.75
493.833	600.75
494.05	607.75
494.268	589.75
494.485	583.75
494.703	606.75
494.92	589.75
495.138	618.75
495.355	602.75
495.573	619.75
495.79	591.75
496.008	600.75
496.225	601.75
496.442	615.75
496.66	609.75
496.877	608.75
497.094	604.75
497.312	603.75
497.529	598.75
497.746	608.75
497.963	629.75
498.181	642.75
498.398	635.75
498.615	662.75
498.832	636.75
499.049	647.75
499.267	678.75
499.484	691.75
499.701	684.75
499.918	743.75
500.135	743.75
500.352	743.75
500.569	753.75
500.786	747.75
501.003	763.75
501.22	736.75
501.437	696.75
501.654	702.75
501.871	752.75
502.088	732.75
502.305	698.75
502.522	674.75
502.739	633.75
502.956	628.75
503.172	618.75
503.389	632.75
503.606	632.75
503.823	630.75
504.04	609.75
504.256	605.75
504.473	586.75
504.69	587.75
504.907	608.75
505.123	566.75
505.34	581.75
505.557	592.75
505.773	585.75
505.99	594.75
506.207	586.75
506.423	582.75
506.64	555.75
506.856	566.75
507.073	581.75
507.289	576.75
507.506	558.75
507.722	582.75
507.939	611.75
508.155	589.75
508.372	571.75
508.588	556.75
508.805	552.75
509.021	536.75
509.238	543.75
509.454	582.75
509.67	579.75
509.887	564.75
510.103	571.75
510.319	560.75
510.536	680.75
510.752	1233.75
510.968	967.75
511.184	610.75
511.401	573.75
511.617	582.75
511.833	540.75
512.049	543.75
512.265	546.75
512.481	532.75
512.698	514.75
512.914	516.75
513.13	525.75
513.346	534.75
513.562	540.75
513.778	551.75
513.994	552.75
514.21	555.75
514.426	606.75
514.642	659.75
514.858	682.75
515.074	712.75
515.29	863.75
515.506	1304.75
515.721	1036.75
515.937	691.75
516.153	625.75
516.369	606.75
516.585	562.75
516.801	569.75
517.016	554.75
517.232	553.75
517.448	562.75
517.664	578.75
517.879	567.75
518.095	549.75
518.311	548.75
518.527	539.75
518.742	536.75
518.958	549.75
519.173	536.75
519.389	535.75
519.605	559.75
519.82	530.75
520.036	577.75
520.251	576.75
520.467	652.75
520.682	599.75
520.898	620.75
521.113	654.75
521.329	693.75
521.544	816.75
521.76	1051.75
521.975	1754.75
522.19	1689.75
522.406	930.75
522.621	686.75
522.836	610.75
523.052	572.75
523.267	535.75
523.482	516.75
523.698	468.75
523.913	512.75
524.128	501.75
524.343	470.75
524.559	469.75
524.774	463.75
524.989	481.75
525.204	501.75
525.419	487.75
525.634	478.75
525.849	464.75
526.064	467.75
526.28	462.75
526.495	456.75
526.71	459.75
526.925	448.75
527.14	430.75
527.355	426.75
527.57	432.75
527.785	448.75
527.999	430.75
528.214	425.75
528.429	430.75
528.644	424.75
528.859	443.75
529.074	459.75
529.289	464.75
529.503	549.75
529.718	546.75
529.933	480.75
530.148	475.75
530.363	450.75
530.577	420.75
530.792	413.75
531.007	428.75
531.221	424.75
531.436	420.75
531.651	423.75
531.865	413.75
532.08	427.75
532.295	425.75
532.509	397.75
532.724	412.75
532.938	404.75
533.153	404.75
533.367	415.75
533.582	406.75
533.796	417.75
534.011	426.75
534.225	418.75
534.44	399.75
534.654	404.75
534.868	406.75
535.083	403.75
535.297	420.75
535.511	413.75
535.726	419.75
535.94	426.75
536.154	423.75
536.369	394.75
536.583	386.75
536.797	403.75
537.011	382.75
537.225	400.75
537.44	405.75
537.654	413.75
537.868	392.75
538.082	375.75
538.296	396.75
538.51	383.75
538.724	400.75
538.938	398.75
539.153	395.75
539.367	421.75
539.581	400.75
539.795	408.75
540.009	394.75
540.222	382.75
540.436	394.75
540.65	399.75
540.864	400.75
541.078	396.75
541.292	390.75
541.506	389.75
541.72	392.75
541.934	395.75
542.147	425.75
542.361	396.75
542.575	372.75
542.789	391.75
543.002	382.75
543.216	394.75
543.43	384.75
543.644	392.75
543.857	378.75
544.071	407.75
544.285	413.75
544.498	381.75
544.712	402.75
544.925	400.75
545.139	368.75
545.352	387.75
545.566	390.75
545.779	367.75
545.993	361.75
546.206	368.75
546.42	387.75
546.633	396.75
546.847	377.75
547.06	365.75
547.274	367.75
547.487	370.75
547.7	376.75
547.914	362.75
548.127	380.75
548.34	380.75
548.554	366.75
548.767	366.75
548.98	361.75
549.193	362.75
549.407	360.75
549.62	375.75
549.833	355.75
550.046	340.75
550.259	366.75
550.473	374.75
550.686	363.75
550.899	369.75
551.112	370.75
551.325	351.75
551.538	352.75
551.751	362.75
551.964	353.75
552.177	363.75
552.39	360.75
552.603	375.75
552.816	382.75
553.029	351.75
553.242	337.75
553.455	384.75
553.667	376.75
553.88	400.75
554.093	362.75
554.306	355.75
554.519	358.75
554.732	380.75
554.944	355.75
555.157	372.75
555.37	364.75
555.583	354.75
555.795	349.75
556.008	350.75
556.221	339.75
556.433	336.75
556.646	360.75
556.859	332.75
557.071	329.75
557.284	331.75
557.496	366.75
557.709	340.75
557.921	327.75
558.134	334.75
558.346	326.75
558.559	352.75
558.771	341.75
558.984	312.75
559.196	332.75
559.409	322.75
559.621	322.75
559.833	337.75
560.046	331.75
560.258	335.75
560.47	344.75
560.683	341.75
560.895	319.75
561.107	322.75
561.32	340.75
561.532	329.75
561.744	347.75
561.956	330.75
562.168	330.75
562.381	337.75
562.593	323.75
562.805	304.75
563.017	335.75
563.229	330.75
563.441	332.75
563.653	349.75
563.865	318.75
564.077	349.75
564.289	341.75
564.501	340.75
564.713	353.75
564.925	332.75
565.137	348.75
565.349	354.75
565.561	343.75
565.773	337.75
565.985	349.75
566.197	359.75
566.408	352.75
566.62	362.75
566.832	361.75
567.044	358.75
567.255	373.75
567.467	363.75
567.679	357.75
567.891	379.75
568.102	366.75
568.314	350.75
568.526	349.75
568.737	340.75
568.949	350.75
569.161	328.75
569.372	321.75
569.584	337.75
569.795	341.75
570.007	341.75
570.218	376.75
570.43	361.75
570.641	326.75
570.853	302.75
571.064	318.75
571.276	304.75
571.487	311.75
571.698	306.75
571.91	313.75
572.121	319.75
572.333	296.75
572.544	308.75
572.755	313.75
572.966	320.75
573.178	282.75
573.389	278.75
573.6	276.75
573.811	302.75
574.023	303.75
574.234	288.75
574.445	283.75
574.656	299.75
574.867	263.75
575.078	284.75
575.289	278.75
575.501	277.75
575.712	282.75
575.923	290.75
576.134	276.75
576.345	278.75
576.556	284.75
576.767	269.75
576.978	276.75
577.188	289.75
577.399	271.75
577.61	277.75
577.821	289.75
578.032	302.75
578.243	302.75
578.454	575.75
578.665	426.75
578.875	306.75
579.086	285.75
579.297	262.75
579.508	274.75
579.718	266.75
579.929	268.75
580.14	268.75
580.35	265.75
580.561	260.75
580.772	287.75
580.982	256.75
581.193	260.75
581.403	245.75
581.614	265.75
581.825	258.75
582.035	267.75
582.246	262.75
582.456	244.75
582.667	266.75
582.877	259.75
583.087	264.75
583.298	249.75
583.508	240.75
583.719	242.75
583.929	254.75
584.139	266.75
584.35	247.75
584.56	260.75
584.77	256.75
584.981	265.75
585.191	250.75
585.401	255.75
585.611	275.75
585.821	248.75
586.032	258.75
586.242	262.75
586.452	249.75
586.662	266.75
586.872	258.75
587.082	266.75
587.292	248.75
587.502	227.75
587.713	250.75
587.923	252.75
588.133	260.75
588.343	270.75
588.553	252.75
588.762	242.75
588.972	256.75
589.182	253.75
589.392	252.75
589.602	248.75
589.812	259.75
590.022	245.75
590.232	236.75
590.441	265.75
590.651	245.75
590.861	230.75
591.071	254.75
591.281	251.75
591.49	234.75
591.7	232.75
591.91	234.75
592.119	242.75
592.329	256.75
592.539	257.75
592.748	247.75
592.958	258.75
593.167	257.75
593.377	272.75
593.587	252.75
593.796	244.75
594.006	265.75
594.215	270.75
594.424	245.75
594.634	233.75
594.843	260.75
595.053	262.75
595.262	228.75
595.472	231.75
595.681	240.75
595.89	231.75
596.1	222.75
596.309	225.75
596.518	216.75
596.727	236.75
596.937	231.75
597.146	236.75
597.355	244.75
597.564	234.75
597.774	239.75
597.983	217.75
598.192	222.75
598.401	222.75
598.61	221.75
598.819	236.75
599.028	226.75
599.237	208.75
599.446	235.75
599.655	222.75
599.864	208.75
600.073	226.75
600.282	225.75
600.491	222.75
600.7	215.75
600.909	230.75
601.118	214.75
601.327	242.75
601.536	214.75
601.745	200.75
601.953	218.75
602.162	220.75
602.371	225.75
602.58	219.75
602.789	226.75
602.997	225.75
603.206	223.75
603.415	200.75
603.623	220.75
603.832	213.75
604.041	205.75
604.249	194.75
604.458	206.75
604.666	211.75
604.875	230.75
605.084	200.75
605.292	208.75
605.501	210.75
605.709	204.75
605.918	217.75
606.126	220.75
606.334	190.75
606.543	201.75
606.751	208.75
606.96	208.75
607.168	210.75
607.376	213.75
607.585	217.75
607.793	210.75
608.001	203.75
608.21	195.75
608.418	203.75
608.626	204.75
608.834	218.75
609.043	232.75
609.251	213.75
609.459	201.75
609.667	222.75
609.875	206.75
610.083	202.75
610.291	224.75
610.499	212.75
610.707	210.75
610.916	212.75
611.124	211.75
611.332	191.75
611.54	213.75
611.748	220.75
611.955	211.75
612.163	208.75
612.371	195.75
612.579	212.75
612.787	204.75
612.995	200.75
613.203	202.75
613.411	202.75
613.618	203.75
613.826	198.75
614.034	199.75
614.242	201.75
614.449	190.75
614.657	181.75
614.865	209.75
615.072	189.75
615.28	209.75
615.488	194.75
615.695	205.75
615.903	204.75
616.111	181.75
616.318	208.75
616.526	198.75
616.733	206.75
616.941	185.75
617.148	191.75
617.356	202.75
617.563	190.75
617.771	202.75
617.978	198.75
618.185	185.75
618.393	191.75
618.6	204.75
618.807	176.75
619.015	192.75
619.222	204.75
619.429	207.75
619.637	195.75
619.844	187.75
620.051	198.75
620.258	180.75
620.466	182.75
620.673	161.75
620.88	190.75
621.087	184.75
621.294	202.75
621.501	183.75
621.708	196.75
621.915	182.75
622.122	186.75
622.329	208.75
622.536	199.75
622.743	192.75
622.95	181.75
623.157	205.75
623.364	190.75
623.571	202.75
623.778	180.75
623.985	182.75
624.192	183.75
624.399	185.75
624.606	186.75
624.812	163.75
625.019	186.75
625.226	183.75
625.433	197.75
625.639	179.75
625.846	194.75
626.053	191.75
626.259	174.75
626.466	179.75
626.673	187.75
626.879	177.75
627.086	179.75
627.293	184.75
627.499	183.75
627.706	175.75
627.912	166.75
628.119	176.75
628.325	165.75
628.532	184.75
628.738	180.75
628.945	177.75
629.151	185.75
629.357	164.75
629.564	172.75
629.77	193.75
629.976	178.75
630.183	174.75
630.389	185.75
630.595	170.75
630.802	174.75
631.008	170.75
631.214	168.75
631.42	186.75
631.627	180.75
631.833	160.75
632.039	175.75
632.245	184.75
632.451	164.75
632.657	153.75
632.863	174.75
633.069	164.75
633.275	174.75
633.481	175.75
633.688	157.75
633.893	164.75
634.099	172.75
634.305	181.75
634.511	170.75
634.717	164.75
634.923	156.75
635.129	146.75
635.335	163.75
635.541	150.75
635.747	162.75
635.952	164.75
636.158	174.75
636.364	179.75
636.57	157.75
636.775	167.75
636.981	158.75
637.187	164.75
637.392	156.75
637.598	172.75
637.804	160.75
638.009	167.75
638.215	146.75
638.421	154.75
638.626	154.75
638.832	148.75
639.037	159.75
639.243	149.75
639.448	171.75
639.654	157.75
639.859	158.75
640.065	155.75
640.27	158.75
640.475	142.75
640.681	151.75
640.886	147.75
641.091	137.75
641.297	158.75
641.502	165.75
641.707	163.75
641.913	162.75
642.118	162.75
642.323	147.75
642.528	148.75
642.733	130.75
642.939	151.75
643.144	155.75
643.349	165.75
643.554	145.75
643.759	148.75
643.964	146.75
644.169	158.75
644.374	141.75
644.579	148.75
644.784	164.75
644.989	151.75
645.194	146.75
645.399	152.75
645.604	140.75
645.809	158.75
646.014	146.75
646.219	149.75
646.423	151.75
646.628	142.75
646.833	134.75
647.038	149.75
647.243	157.75
647.447	150.75
647.652	163.75
647.857	158.75
648.062	149.75
648.266	145.75
648.471	135.75
648.676	162.75
648.88	147.75
649.085	142.75
649.289	147.75
649.494	162.75
649.698	179.75
649.903	163.75
650.107	169.75
650.312	139.75
650.516	142.75
650.721	122.75
650.925	139.75
651.13	138.75
651.334	135.75
651.539	139.75
651.743	147.75
651.947	143.75
652.152	129.75
652.356	129.75
652.56	131.75
652.764	140.75
652.969	134.75
653.173	129.75
653.377	134.75
653.581	126.75
653.785	121.75
653.99	123.75
654.194	120.75
654.398	120.75
654.602	123.75
654.806	127.75
655.01	138.75
655.214	122.75
655.418	129.75
655.622	132.75
655.826	128.75
656.03	128.75
656.234	123.75
656.438	118.75
656.642	138.75
656.846	131.75
657.049	130.75
657.253	111.75
657.457	115.75
657.661	111.75
657.865	119.75
658.068	113.75
658.272	104.75
658.476	110.75
658.68	94.75
658.883	117.75
659.087	88.75
659.291	96.75
659.494	95.75
659.698	100.75
659.901	101.75
660.105	100.75
660.309	86.75
660.512	101.75
660.716	86.75
660.919	99.75
661.123	94.75
661.326	90.75
661.53	80.75
661.733	103.75
661.936	90.75
662.14	102.75
662.343	93.75
662.546	95.75
662.75	82.75
662.953	90.75
663.156	92.75
663.36	91.75
663.563	83.75
663.766	86.75
663.969	101.75
664.173	80.75
664.376	76.75
664.579	98.75
664.782	80.75
664.985	88.75
665.188	81.75
665.391	83.75
665.594	78.75
665.797	72.75
666	79.75
666.203	86.75
666.406	82.75
666.609	88.75
666.812	82.75
667.015	65.75
667.218	67.75
667.421	88.75
667.624	76.75
667.827	83.75
668.03	89.75
668.232	92.75
668.435	86.75
668.638	93.75
668.841	87.75
669.043	70.75
669.246	83.75
669.449	82.75
669.651	81.75
669.854	80.75
670.057	99.75
670.259	70.75
670.462	86.75
670.665	90.75
670.867	88.75
671.07	76.75
671.272	88.75
671.475	81.75
671.677	80.75
671.88	89.75
672.082	70.75
672.284	92.75
672.487	90.75
672.689	87.75
672.892	87.75
