Data from 1961.PennyLincolnUp.Lamp.En5.5.200Scan.071719.P1._HRD10591_13-48-13-057.txt Node
Date: Thu Jul 18 13:48:13 EDT 2019
User: cochatt
Spectrometer: HR+D1059
Trigger mode: 1
Integration Time (sec): 1.000000E-1
Scans to average: 1
Electric dark correction enabled: true
Nonlinearity correction enabled: false
Boxcar width: 0
XAxis mode: Wavelengths
Number of Pixels in Spectrum: 2048
>>>>>Begin Spectral Data<<<<<
223.165	-15.94
223.4	-15.94
223.635	-15.94
223.869	-7.94
224.104	-15.94
224.338	-6.94
224.573	-14.94
224.808	-11.94
225.042	-4.94
225.277	-5.94
225.511	-6.94
225.746	0.06
225.98	-1.94
226.215	9.06
226.449	8.06
226.683	15.06
226.918	19.06
227.152	42.06
227.387	32.06
227.621	38.06
227.856	38.06
228.09	35.06
228.324	44.06
228.559	53.06
228.793	65.06
229.027	101.06
229.262	101.06
229.496	108.06
229.73	130.06
229.964	141.06
230.199	117.06
230.433	121.06
230.667	107.06
230.901	97.06
231.136	111.06
231.37	121.06
231.604	112.06
231.838	108.06
232.072	111.06
232.306	103.06
232.541	103.06
232.775	108.06
233.009	108.06
233.243	111.06
233.477	108.06
233.711	92.06
233.945	100.06
234.179	117.06
234.413	117.06
234.647	107.06
234.881	92.06
235.115	114.06
235.349	87.06
235.583	110.06
235.817	83.06
236.051	123.06
236.285	115.06
236.519	112.06
236.753	114.06
236.987	147.06
237.221	175.06
237.455	191.06
237.689	165.06
237.922	142.06
238.156	130.06
238.39	119.06
238.624	104.06
238.858	118.06
239.091	116.06
239.325	128.06
239.559	116.06
239.793	124.06
240.027	119.06
240.26	151.06
240.494	140.06
240.728	140.06
240.961	141.06
241.195	122.06
241.429	121.06
241.662	132.06
241.896	117.06
242.13	115.06
242.363	121.06
242.597	114.06
242.83	125.06
243.064	139.06
243.298	127.06
243.531	137.06
243.765	136.06
243.998	129.06
244.232	126.06
244.465	122.06
244.699	127.06
244.932	147.06
245.166	132.06
245.399	150.06
245.633	145.06
245.866	123.06
246.099	129.06
246.333	121.06
246.566	146.06
246.8	131.06
247.033	131.06
247.266	146.06
247.5	149.06
247.733	132.06
247.966	147.06
248.2	137.06
248.433	139.06
248.666	160.06
248.899	168.06
249.133	186.06
249.366	183.06
249.599	161.06
249.832	164.06
250.066	167.06
250.299	156.06
250.532	155.06
250.765	172.06
250.998	191.06
251.231	193.06
251.465	193.06
251.698	177.06
251.931	167.06
252.164	167.06
252.397	159.06
252.63	172.06
252.863	183.06
253.096	172.06
253.329	195.06
253.562	182.06
253.795	173.06
254.028	179.06
254.261	184.06
254.494	211.06
254.727	209.06
254.96	247.06
255.193	227.06
255.426	203.06
255.659	188.06
255.892	219.06
256.124	196.06
256.357	223.06
256.59	198.06
256.823	196.06
257.056	187.06
257.289	184.06
257.521	165.06
257.754	187.06
257.987	171.06
258.22	169.06
258.452	186.06
258.685	163.06
258.918	169.06
259.151	184.06
259.383	166.06
259.616	171.06
259.849	191.06
260.081	188.06
260.314	210.06
260.547	212.06
260.779	195.06
261.012	190.06
261.244	214.06
261.477	191.06
261.71	185.06
261.942	203.06
262.175	204.06
262.407	211.06
262.64	192.06
262.872	157.06
263.105	169.06
263.337	189.06
263.57	165.06
263.802	177.06
264.035	174.06
264.267	187.06
264.499	177.06
264.732	194.06
264.964	169.06
265.197	169.06
265.429	172.06
265.661	187.06
265.894	189.06
266.126	186.06
266.358	183.06
266.591	165.06
266.823	183.06
267.055	187.06
267.287	189.06
267.52	190.06
267.752	188.06
267.984	196.06
268.216	188.06
268.448	187.06
268.681	194.06
268.913	193.06
269.145	208.06
269.377	226.06
269.609	226.06
269.841	209.06
270.073	223.06
270.306	258.06
270.538	267.06
270.77	268.06
271.002	260.06
271.234	249.06
271.466	235.06
271.698	275.06
271.93	264.06
272.162	277.06
272.394	264.06
272.626	263.06
272.858	243.06
273.09	234.06
273.322	225.06
273.553	231.06
273.785	225.06
274.017	220.06
274.249	204.06
274.481	209.06
274.713	222.06
274.945	230.06
275.176	219.06
275.408	218.06
275.64	220.06
275.872	213.06
276.104	223.06
276.335	223.06
276.567	219.06
276.799	227.06
277.031	261.06
277.262	286.06
277.494	257.06
277.726	256.06
277.957	255.06
278.189	240.06
278.421	220.06
278.652	241.06
278.884	238.06
279.115	219.06
279.347	203.06
279.579	230.06
279.81	218.06
280.042	210.06
280.273	224.06
280.505	220.06
280.736	221.06
280.968	215.06
281.199	219.06
281.431	216.06
281.662	208.06
281.894	211.06
282.125	214.06
282.356	227.06
282.588	260.06
282.819	254.06
283.051	232.06
283.282	213.06
283.513	217.06
283.745	226.06
283.976	223.06
284.207	224.06
284.439	226.06
284.67	228.06
284.901	212.06
285.132	219.06
285.364	222.06
285.595	227.06
285.826	227.06
286.057	226.06
286.288	217.06
286.52	219.06
286.751	236.06
286.982	219.06
287.213	215.06
287.444	228.06
287.675	232.06
287.906	241.06
288.138	236.06
288.369	241.06
288.6	241.06
288.831	231.06
289.062	249.06
289.293	237.06
289.524	231.06
289.755	232.06
289.986	220.06
290.217	233.06
290.448	246.06
290.679	242.06
290.91	239.06
291.141	232.06
291.371	230.06
291.602	227.06
291.833	245.06
292.064	240.06
292.295	225.06
292.526	231.06
292.757	228.06
292.987	240.06
293.218	235.06
293.449	231.06
293.68	239.06
293.91	248.06
294.141	233.06
294.372	238.06
294.603	217.06
294.833	251.06
295.064	223.06
295.295	255.06
295.525	235.06
295.756	225.06
295.987	237.06
296.217	274.06
296.448	291.06
296.679	244.06
296.909	245.06
297.14	256.06
297.37	243.06
297.601	244.06
297.831	232.06
298.062	235.06
298.292	234.06
298.523	240.06
298.753	239.06
298.984	244.06
299.214	231.06
299.445	239.06
299.675	231.06
299.905	232.06
300.136	249.06
300.366	252.06
300.597	237.06
300.827	234.06
301.057	239.06
301.288	265.06
301.518	266.06
301.748	275.06
301.979	266.06
302.209	253.06
302.439	271.06
302.669	264.06
302.9	271.06
303.13	255.06
303.36	264.06
303.59	283.06
303.82	291.06
304.051	262.06
304.281	264.06
304.511	262.06
304.741	272.06
304.971	256.06
305.201	291.06
305.431	267.06
305.661	243.06
305.891	267.06
306.121	286.06
306.352	258.06
306.582	275.06
306.812	257.06
307.042	261.06
307.272	256.06
307.502	251.06
307.731	268.06
307.961	280.06
308.191	265.06
308.421	268.06
308.651	277.06
308.881	268.06
309.111	272.06
309.341	279.06
309.571	279.06
309.8	294.06
310.03	300.06
310.26	309.06
310.49	311.06
310.72	344.06
310.949	337.06
311.179	317.06
311.409	319.06
311.639	342.06
311.868	323.06
312.098	324.06
312.328	332.06
312.557	344.06
312.787	362.06
313.017	337.06
313.246	316.06
313.476	321.06
313.706	329.06
313.935	311.06
314.165	312.06
314.394	335.06
314.624	332.06
314.853	321.06
315.083	304.06
315.312	304.06
315.542	316.06
315.771	292.06
316.001	303.06
316.23	293.06
316.46	310.06
316.689	300.06
316.919	328.06
317.148	315.06
317.377	328.06
317.607	319.06
317.836	324.06
318.065	313.06
318.295	309.06
318.524	320.06
318.753	300.06
318.983	320.06
319.212	308.06
319.441	327.06
319.67	338.06
319.9	332.06
320.129	321.06
320.358	345.06
320.587	307.06
320.816	338.06
321.046	339.06
321.275	330.06
321.504	364.06
321.733	360.06
321.962	352.06
322.191	362.06
322.42	379.06
322.649	399.06
322.878	391.06
323.108	411.06
323.337	456.06
323.566	464.06
323.795	499.06
324.024	529.06
324.253	690.06
324.482	984.06
324.71	1588.06
324.939	2237.06
325.168	1822.06
325.397	982.06
325.626	653.06
325.855	511.06
326.084	479.06
326.313	460.06
326.542	465.06
326.77	506.06
326.999	615.06
327.228	891.06
327.457	1349.06
327.686	1640.06
327.914	1065.06
328.143	685.06
328.372	602.06
328.6	527.06
328.829	513.06
329.058	560.06
329.287	546.06
329.515	481.06
329.744	471.06
329.972	466.06
330.201	479.06
330.43	530.06
330.658	541.06
330.887	564.06
331.115	534.06
331.344	458.06
331.572	444.06
331.801	414.06
332.03	435.06
332.258	419.06
332.486	395.06
332.715	368.06
332.943	364.06
333.172	385.06
333.4	381.06
333.629	381.06
333.857	385.06
334.085	409.06
334.314	443.06
334.542	451.06
334.771	477.06
334.999	439.06
335.227	416.06
335.455	368.06
335.684	376.06
335.912	353.06
336.14	371.06
336.369	349.06
336.597	379.06
336.825	382.06
337.053	357.06
337.281	358.06
337.51	359.06
337.738	361.06
337.966	377.06
338.194	369.06
338.422	369.06
338.65	353.06
338.878	348.06
339.106	335.06
339.334	348.06
339.562	344.06
339.79	336.06
340.018	364.06
340.246	348.06
340.474	369.06
340.702	348.06
340.93	349.06
341.158	341.06
341.386	353.06
341.614	353.06
341.842	348.06
342.07	357.06
342.298	362.06
342.526	329.06
342.754	324.06
342.981	336.06
343.209	317.06
343.437	344.06
343.665	343.06
343.893	341.06
344.12	345.06
344.348	315.06
344.576	355.06
344.804	356.06
345.031	373.06
345.259	363.06
345.487	359.06
345.714	355.06
345.942	343.06
346.17	343.06
346.397	347.06
346.625	340.06
346.853	345.06
347.08	355.06
347.308	343.06
347.535	364.06
347.763	359.06
347.99	363.06
348.218	372.06
348.445	351.06
348.673	359.06
348.9	349.06
349.128	347.06
349.355	344.06
349.583	337.06
349.81	322.06
350.037	343.06
350.265	334.06
350.492	323.06
350.72	313.06
350.947	342.06
351.174	346.06
351.402	348.06
351.629	351.06
351.856	360.06
352.083	367.06
352.311	376.06
352.538	361.06
352.765	376.06
352.992	377.06
353.22	361.06
353.447	337.06
353.674	330.06
353.901	325.06
354.128	312.06
354.355	319.06
354.583	317.06
354.81	323.06
355.037	326.06
355.264	307.06
355.491	295.06
355.718	308.06
355.945	305.06
356.172	316.06
356.399	323.06
356.626	292.06
356.853	315.06
357.08	326.06
357.307	300.06
357.534	323.06
357.761	326.06
357.988	329.06
358.215	314.06
358.441	296.06
358.668	328.06
358.895	339.06
359.122	334.06
359.349	330.06
359.576	353.06
359.802	365.06
360.029	387.06
360.256	411.06
360.483	401.06
360.709	385.06
360.936	367.06
361.163	368.06
361.39	362.06
361.616	349.06
361.843	347.06
362.07	346.06
362.296	345.06
362.523	328.06
362.749	359.06
362.976	337.06
363.203	343.06
363.429	331.06
363.656	334.06
363.882	312.06
364.109	322.06
364.335	317.06
364.562	321.06
364.788	323.06
365.015	322.06
365.241	328.06
365.468	337.06
365.694	327.06
365.92	347.06
366.147	339.06
366.373	324.06
366.599	321.06
366.826	325.06
367.052	338.06
367.278	314.06
367.505	320.06
367.731	320.06
367.957	332.06
368.184	333.06
368.41	343.06
368.636	342.06
368.862	338.06
369.089	332.06
369.315	326.06
369.541	324.06
369.767	325.06
369.993	319.06
370.219	328.06
370.445	313.06
370.672	316.06
370.898	320.06
371.124	329.06
371.35	316.06
371.576	327.06
371.802	327.06
372.028	333.06
372.254	323.06
372.48	322.06
372.706	320.06
372.932	299.06
373.158	313.06
373.384	309.06
373.61	331.06
373.835	319.06
374.061	326.06
374.287	327.06
374.513	321.06
374.739	322.06
374.965	322.06
375.191	316.06
375.416	324.06
375.642	317.06
375.868	322.06
376.094	315.06
376.319	316.06
376.545	311.06
376.771	328.06
376.997	317.06
377.222	319.06
377.448	331.06
377.674	301.06
377.899	303.06
378.125	315.06
378.35	322.06
378.576	312.06
378.802	318.06
379.027	312.06
379.253	315.06
379.478	313.06
379.704	301.06
379.929	332.06
380.155	325.06
380.38	320.06
380.606	325.06
380.831	307.06
381.057	303.06
381.282	330.06
381.507	317.06
381.733	320.06
381.958	331.06
382.184	321.06
382.409	331.06
382.634	313.06
382.86	315.06
383.085	337.06
383.31	325.06
383.535	305.06
383.761	309.06
383.986	323.06
384.211	306.06
384.436	307.06
384.662	331.06
384.887	340.06
385.112	335.06
385.337	336.06
385.562	353.06
385.787	355.06
386.013	355.06
386.238	337.06
386.463	337.06
386.688	328.06
386.913	319.06
387.138	342.06
387.363	324.06
387.588	329.06
387.813	322.06
388.038	331.06
388.263	335.06
388.488	342.06
388.713	350.06
388.938	343.06
389.163	351.06
389.387	339.06
389.612	338.06
389.837	344.06
390.062	352.06
390.287	344.06
390.512	346.06
390.736	352.06
390.961	349.06
391.186	367.06
391.411	337.06
391.636	339.06
391.86	342.06
392.085	345.06
392.31	352.06
392.534	354.06
392.759	345.06
392.984	344.06
393.208	336.06
393.433	345.06
393.658	326.06
393.882	339.06
394.107	339.06
394.331	346.06
394.556	333.06
394.78	353.06
395.005	351.06
395.229	347.06
395.454	340.06
395.678	358.06
395.903	353.06
396.127	354.06
396.352	395.06
396.576	353.06
396.801	358.06
397.025	365.06
397.249	351.06
397.474	365.06
397.698	364.06
397.922	383.06
398.147	389.06
398.371	381.06
398.595	377.06
398.82	405.06
399.044	392.06
399.268	411.06
399.492	403.06
399.717	426.06
399.941	424.06
400.165	474.06
400.389	467.06
400.613	438.06
400.837	417.06
401.062	383.06
401.286	429.06
401.51	413.06
401.734	404.06
401.958	390.06
402.182	376.06
402.406	405.06
402.63	415.06
402.854	395.06
403.078	394.06
403.302	402.06
403.526	425.06
403.75	413.06
403.974	409.06
404.198	398.06
404.422	403.06
404.645	418.06
404.869	436.06
405.093	437.06
405.317	483.06
405.541	509.06
405.765	432.06
405.988	439.06
406.212	443.06
406.436	479.06
406.66	453.06
406.883	433.06
407.107	449.06
407.331	488.06
407.555	555.06
407.778	533.06
408.002	493.06
408.226	457.06
408.449	444.06
408.673	448.06
408.896	481.06
409.12	498.06
409.344	465.06
409.567	428.06
409.791	430.06
410.014	411.06
410.238	410.06
410.461	409.06
410.685	412.06
410.908	424.06
411.132	454.06
411.355	488.06
411.578	449.06
411.802	423.06
412.025	431.06
412.249	412.06
412.472	435.06
412.695	478.06
412.919	465.06
413.142	427.06
413.365	402.06
413.589	388.06
413.812	391.06
414.035	411.06
414.258	393.06
414.482	397.06
414.705	365.06
414.928	380.06
415.151	377.06
415.374	369.06
415.597	381.06
415.821	400.06
416.044	381.06
416.267	394.06
416.49	394.06
416.713	405.06
416.936	407.06
417.159	389.06
417.382	407.06
417.605	401.06
417.828	388.06
418.051	411.06
418.274	406.06
418.497	395.06
418.72	395.06
418.943	380.06
419.166	384.06
419.389	407.06
419.611	406.06
419.834	395.06
420.057	422.06
420.28	396.06
420.503	427.06
420.726	408.06
420.948	423.06
421.171	452.06
421.394	460.06
421.617	436.06
421.839	388.06
422.062	385.06
422.285	428.06
422.507	486.06
422.73	504.06
422.953	504.06
423.175	445.06
423.398	431.06
423.621	400.06
423.843	428.06
424.066	420.06
424.288	443.06
424.511	463.06
424.733	502.06
424.956	561.06
425.178	531.06
425.401	559.06
425.623	568.06
425.846	495.06
426.068	446.06
426.291	454.06
426.513	446.06
426.735	459.06
426.958	486.06
427.18	577.06
427.402	673.06
427.625	729.06
427.847	678.06
428.069	575.06
428.292	502.06
428.514	443.06
428.736	438.06
428.958	431.06
429.181	426.06
429.403	417.06
429.625	426.06
429.847	454.06
430.069	516.06
430.292	488.06
430.514	419.06
430.736	421.06
430.958	421.06
431.18	383.06
431.402	377.06
431.624	369.06
431.846	401.06
432.068	380.06
432.29	401.06
432.512	397.06
432.734	377.06
432.956	378.06
433.178	399.06
433.4	407.06
433.622	395.06
433.844	383.06
434.066	385.06
434.287	378.06
434.509	405.06
434.731	406.06
434.953	429.06
435.175	418.06
435.397	431.06
435.618	441.06
435.84	500.06
436.062	569.06
436.284	601.06
436.505	492.06
436.727	446.06
436.949	425.06
437.17	413.06
437.392	441.06
437.614	435.06
437.835	466.06
438.057	541.06
438.278	629.06
438.5	626.06
438.721	663.06
438.943	656.06
439.165	509.06
439.386	454.06
439.608	481.06
439.829	452.06
440.05	479.06
440.272	519.06
440.493	501.06
440.715	459.06
440.936	441.06
441.158	409.06
441.379	431.06
441.6	423.06
441.822	447.06
442.043	490.06
442.264	563.06
442.486	599.06
442.707	496.06
442.928	500.06
443.149	470.06
443.371	513.06
443.592	539.06
443.813	586.06
444.034	670.06
444.255	529.06
444.476	461.06
444.698	436.06
444.919	450.06
445.14	547.06
445.361	511.06
445.582	493.06
445.803	557.06
446.024	648.06
446.245	637.06
446.466	588.06
446.687	493.06
446.908	465.06
447.129	440.06
447.35	426.06
447.571	426.06
447.792	413.06
448.013	427.06
448.234	440.06
448.455	505.06
448.675	603.06
448.896	657.06
449.117	565.06
449.338	560.06
449.559	631.06
449.779	695.06
450	585.06
450.221	491.06
450.442	419.06
450.662	431.06
450.883	441.06
451.104	428.06
451.324	419.06
451.545	393.06
451.766	395.06
451.986	409.06
452.207	356.06
452.428	384.06
452.648	367.06
452.869	363.06
453.089	395.06
453.31	382.06
453.53	391.06
453.751	355.06
453.971	397.06
454.192	407.06
454.412	417.06
454.633	380.06
454.853	377.06
455.073	374.06
455.294	411.06
455.514	464.06
455.734	444.06
455.955	394.06
456.175	375.06
456.395	350.06
456.616	366.06
456.836	361.06
457.056	364.06
457.276	349.06
457.497	367.06
457.717	369.06
457.937	377.06
458.157	379.06
458.377	376.06
458.598	424.06
458.818	454.06
459.038	546.06
459.258	527.06
459.478	447.06
459.698	407.06
459.918	410.06
460.138	389.06
460.358	389.06
460.578	408.06
460.798	380.06
461.018	398.06
461.238	376.06
461.458	383.06
461.678	391.06
461.898	411.06
462.118	384.06
462.338	399.06
462.558	411.06
462.777	407.06
462.997	413.06
463.217	406.06
463.437	407.06
463.657	416.06
463.876	401.06
464.096	410.06
464.316	427.06
464.536	411.06
464.755	436.06
464.975	429.06
465.195	484.06
465.414	592.06
465.634	479.06
465.854	438.06
466.073	405.06
466.293	386.06
466.512	388.06
466.732	393.06
466.951	385.06
467.171	382.06
467.391	396.06
467.61	403.06
467.829	409.06
468.049	411.06
468.268	405.06
468.488	393.06
468.707	383.06
468.927	377.06
469.146	378.06
469.365	379.06
469.585	380.06
469.804	377.06
470.023	408.06
470.243	419.06
470.462	417.06
470.681	431.06
470.901	409.06
471.12	419.06
471.339	389.06
471.558	409.06
471.777	387.06
471.997	393.06
472.216	411.06
472.435	435.06
472.654	444.06
472.873	405.06
473.092	412.06
473.311	400.06
473.53	397.06
473.749	417.06
473.968	455.06
474.187	535.06
474.406	518.06
474.625	451.06
474.844	435.06
475.063	390.06
475.282	404.06
475.501	410.06
475.72	415.06
475.939	395.06
476.158	408.06
476.377	415.06
476.596	425.06
476.814	410.06
477.033	413.06
477.252	403.06
477.471	427.06
477.69	420.06
477.908	456.06
478.127	419.06
478.346	424.06
478.564	412.06
478.783	450.06
479.002	445.06
479.22	443.06
479.439	465.06
479.658	477.06
479.876	475.06
480.095	484.06
480.313	509.06
480.532	485.06
480.751	484.06
480.969	498.06
481.188	572.06
481.406	615.06
481.624	526.06
481.843	521.06
482.061	480.06
482.28	473.06
482.498	471.06
482.717	473.06
482.935	458.06
483.153	468.06
483.372	452.06
483.59	463.06
483.808	449.06
484.027	472.06
484.245	468.06
484.463	471.06
484.681	460.06
484.9	459.06
485.118	472.06
485.336	468.06
485.554	451.06
485.772	476.06
485.99	492.06
486.209	480.06
486.427	498.06
486.645	483.06
486.863	511.06
487.081	501.06
487.299	498.06
487.517	496.06
487.735	504.06
487.953	488.06
488.171	509.06
488.389	474.06
488.607	503.06
488.825	497.06
489.043	487.06
489.261	505.06
489.479	481.06
489.696	492.06
489.914	507.06
490.132	512.06
490.35	501.06
490.568	526.06
490.786	545.06
491.003	525.06
491.221	520.06
491.439	565.06
491.657	545.06
491.874	573.06
492.092	572.06
492.31	581.06
492.527	589.06
492.745	583.06
492.963	575.06
493.18	570.06
493.398	580.06
493.615	586.06
493.833	566.06
494.05	573.06
494.268	600.06
494.485	577.06
494.703	564.06
494.92	565.06
495.138	588.06
495.355	576.06
495.573	617.06
495.79	583.06
496.008	588.06
496.225	585.06
496.442	590.06
496.66	572.06
496.877	590.06
497.094	599.06
497.312	577.06
497.529	619.06
497.746	613.06
497.963	609.06
498.181	638.06
498.398	636.06
498.615	632.06
498.832	676.06
499.049	648.06
499.267	639.06
499.484	679.06
499.701	675.06
499.918	695.06
500.135	708.06
500.352	725.06
500.569	726.06
500.786	743.06
501.003	740.06
501.22	731.06
501.437	716.06
501.654	717.06
501.871	724.06
502.088	708.06
502.305	681.06
502.522	659.06
502.739	663.06
502.956	631.06
503.172	629.06
503.389	623.06
503.606	637.06
503.823	603.06
504.04	609.06
504.256	590.06
504.473	601.06
504.69	588.06
504.907	571.06
505.123	608.06
505.34	581.06
505.557	584.06
505.773	584.06
505.99	556.06
506.207	590.06
506.423	577.06
506.64	565.06
506.856	554.06
507.073	569.06
507.289	565.06
507.506	566.06
507.722	579.06
507.939	595.06
508.155	574.06
508.372	555.06
508.588	534.06
508.805	541.06
509.021	540.06
509.238	575.06
509.454	556.06
509.67	543.06
509.887	553.06
510.103	548.06
510.319	583.06
510.536	675.06
510.752	1209.06
510.968	978.06
511.184	599.06
511.401	556.06
511.617	548.06
511.833	536.06
512.049	543.06
512.265	503.06
512.481	532.06
512.698	523.06
512.914	536.06
513.13	516.06
513.346	533.06
513.562	516.06
513.778	540.06
513.994	545.06
514.21	542.06
514.426	575.06
514.642	631.06
514.858	661.06
515.074	676.06
515.29	851.06
515.506	1252.06
515.721	1030.06
515.937	666.06
516.153	623.06
516.369	576.06
516.585	552.06
516.801	562.06
517.016	517.06
517.232	533.06
517.448	548.06
517.664	553.06
517.879	539.06
518.095	523.06
518.311	547.06
518.527	553.06
518.742	524.06
518.958	535.06
519.173	531.06
519.389	535.06
519.605	539.06
519.82	548.06
520.036	570.06
520.251	602.06
520.467	616.06
520.682	622.06
520.898	611.06
521.113	641.06
521.329	677.06
521.544	801.06
521.76	1048.06
521.975	1759.06
522.19	1673.06
522.406	870.06
522.621	637.06
522.836	578.06
523.052	555.06
523.267	533.06
523.482	498.06
523.698	497.06
523.913	492.06
524.128	504.06
524.343	486.06
524.559	469.06
524.774	464.06
524.989	460.06
525.204	450.06
525.419	474.06
525.634	451.06
525.849	449.06
526.064	453.06
526.28	446.06
526.495	433.06
526.71	451.06
526.925	449.06
527.14	445.06
527.355	425.06
527.57	445.06
527.785	443.06
527.999	432.06
528.214	426.06
528.429	439.06
528.644	447.06
528.859	435.06
529.074	441.06
529.289	451.06
529.503	543.06
529.718	505.06
529.933	487.06
530.148	438.06
530.363	424.06
530.577	436.06
530.792	421.06
531.007	419.06
531.221	416.06
531.436	424.06
531.651	399.06
531.865	385.06
532.08	423.06
532.295	403.06
532.509	385.06
532.724	384.06
532.938	402.06
533.153	413.06
533.367	421.06
533.582	415.06
533.796	413.06
534.011	406.06
534.225	400.06
534.44	421.06
534.654	403.06
534.868	379.06
535.083	380.06
535.297	386.06
535.511	395.06
535.726	390.06
535.94	437.06
536.154	413.06
536.369	384.06
536.583	395.06
536.797	403.06
537.011	389.06
537.225	387.06
537.44	395.06
537.654	398.06
537.868	384.06
538.082	417.06
538.296	400.06
538.51	377.06
538.724	384.06
538.938	394.06
539.153	399.06
539.367	409.06
539.581	409.06
539.795	394.06
540.009	384.06
540.222	374.06
540.436	377.06
540.65	379.06
540.864	365.06
541.078	411.06
541.292	397.06
541.506	396.06
541.72	391.06
541.934	399.06
542.147	392.06
542.361	385.06
542.575	390.06
542.789	379.06
543.002	394.06
543.216	380.06
543.43	400.06
543.644	389.06
543.857	403.06
544.071	383.06
544.285	393.06
544.498	371.06
544.712	373.06
544.925	382.06
545.139	375.06
545.352	367.06
545.566	383.06
545.779	364.06
545.993	391.06
546.206	367.06
546.42	375.06
546.633	375.06
546.847	372.06
547.06	391.06
547.274	364.06
547.487	373.06
547.7	357.06
547.914	356.06
548.127	350.06
548.34	358.06
548.554	355.06
548.767	355.06
548.98	375.06
549.193	373.06
549.407	362.06
549.62	359.06
549.833	352.06
550.046	350.06
550.259	351.06
550.473	372.06
550.686	343.06
550.899	353.06
551.112	371.06
551.325	358.06
551.538	375.06
551.751	352.06
551.964	365.06
552.177	363.06
552.39	334.06
552.603	350.06
552.816	365.06
553.029	365.06
553.242	370.06
553.455	371.06
553.667	373.06
553.88	389.06
554.093	383.06
554.306	382.06
554.519	360.06
554.732	359.06
554.944	347.06
555.157	346.06
555.37	338.06
555.583	345.06
555.795	356.06
556.008	330.06
556.221	341.06
556.433	333.06
556.646	326.06
556.859	329.06
557.071	363.06
557.284	334.06
557.496	329.06
557.709	329.06
557.921	322.06
558.134	337.06
558.346	316.06
558.559	339.06
558.771	321.06
558.984	333.06
559.196	327.06
559.409	314.06
559.621	340.06
559.833	330.06
560.046	324.06
560.258	299.06
560.47	291.06
560.683	343.06
560.895	332.06
561.107	321.06
561.32	323.06
561.532	323.06
561.744	321.06
561.956	326.06
562.168	311.06
562.381	330.06
562.593	333.06
562.805	311.06
563.017	351.06
563.229	335.06
563.441	333.06
563.653	327.06
563.865	327.06
564.077	336.06
564.289	329.06
564.501	313.06
564.713	323.06
564.925	328.06
565.137	348.06
565.349	377.06
565.561	361.06
565.773	360.06
565.985	348.06
566.197	356.06
566.408	354.06
566.62	345.06
566.832	344.06
567.044	361.06
567.255	374.06
567.467	370.06
567.679	355.06
567.891	371.06
568.102	345.06
568.314	363.06
568.526	369.06
568.737	360.06
568.949	340.06
569.161	325.06
569.372	323.06
569.584	323.06
569.795	316.06
570.007	317.06
570.218	370.06
570.43	369.06
570.641	330.06
570.853	311.06
571.064	315.06
571.276	310.06
571.487	289.06
571.698	313.06
571.91	285.06
572.121	296.06
572.333	299.06
572.544	290.06
572.755	283.06
572.966	286.06
573.178	307.06
573.389	269.06
573.6	280.06
573.811	292.06
574.023	271.06
574.234	288.06
574.445	297.06
574.656	264.06
574.867	269.06
575.078	290.06
575.289	276.06
575.501	280.06
575.712	292.06
575.923	274.06
576.134	296.06
576.345	304.06
576.556	290.06
576.767	277.06
576.978	281.06
577.188	269.06
577.399	269.06
577.61	260.06
577.821	265.06
578.032	275.06
578.243	322.06
578.454	554.06
578.665	390.06
578.875	293.06
579.086	274.06
579.297	266.06
579.508	255.06
579.718	251.06
579.929	248.06
580.14	256.06
580.35	249.06
580.561	246.06
580.772	261.06
580.982	248.06
581.193	257.06
581.403	247.06
581.614	256.06
581.825	257.06
582.035	267.06
582.246	263.06
582.456	243.06
582.667	243.06
582.877	248.06
583.087	264.06
583.298	258.06
583.508	250.06
583.719	266.06
583.929	249.06
584.139	246.06
584.35	251.06
584.56	255.06
584.77	255.06
584.981	267.06
585.191	256.06
585.401	248.06
585.611	250.06
585.821	270.06
586.032	258.06
586.242	249.06
586.452	251.06
586.662	235.06
586.872	244.06
587.082	243.06
587.292	241.06
587.502	251.06
587.713	244.06
587.923	241.06
588.133	242.06
588.343	247.06
588.553	230.06
588.762	253.06
588.972	259.06
589.182	231.06
589.392	231.06
589.602	245.06
589.812	235.06
590.022	239.06
590.232	257.06
590.441	246.06
590.651	255.06
590.861	241.06
591.071	239.06
591.281	256.06
591.49	243.06
591.7	255.06
591.91	258.06
592.119	252.06
592.329	256.06
592.539	255.06
592.748	261.06
592.958	242.06
593.167	250.06
593.377	257.06
593.587	245.06
593.796	252.06
594.006	259.06
594.215	258.06
594.424	228.06
594.634	253.06
594.843	242.06
595.053	247.06
595.262	262.06
595.472	256.06
595.681	242.06
595.89	249.06
596.1	243.06
596.309	212.06
596.518	230.06
596.727	239.06
596.937	219.06
597.146	217.06
597.355	236.06
597.564	226.06
597.774	237.06
597.983	233.06
598.192	241.06
598.401	242.06
598.61	218.06
598.819	214.06
599.028	220.06
599.237	233.06
599.446	229.06
599.655	241.06
599.864	228.06
600.073	232.06
600.282	226.06
600.491	243.06
600.7	222.06
600.909	208.06
601.118	219.06
601.327	200.06
601.536	220.06
601.745	211.06
601.953	204.06
602.162	228.06
602.371	220.06
602.58	222.06
602.789	197.06
602.997	208.06
603.206	235.06
603.415	206.06
603.623	195.06
603.832	209.06
604.041	199.06
604.249	211.06
604.458	209.06
604.666	209.06
604.875	218.06
605.084	196.06
605.292	217.06
605.501	211.06
605.709	214.06
605.918	214.06
606.126	202.06
606.334	209.06
606.543	205.06
606.751	227.06
606.96	213.06
607.168	210.06
607.376	211.06
607.585	213.06
607.793	195.06
608.001	210.06
608.21	226.06
608.418	210.06
608.626	217.06
608.834	200.06
609.043	195.06
609.251	206.06
609.459	202.06
609.667	199.06
609.875	185.06
610.083	200.06
610.291	205.06
610.499	205.06
610.707	199.06
610.916	210.06
611.124	183.06
611.332	213.06
611.54	203.06
611.748	209.06
611.955	200.06
612.163	211.06
612.371	211.06
612.579	210.06
612.787	208.06
612.995	204.06
613.203	185.06
613.411	213.06
613.618	206.06
613.826	192.06
614.034	208.06
614.242	199.06
614.449	200.06
614.657	194.06
614.865	187.06
615.072	199.06
615.28	201.06
615.488	193.06
615.695	207.06
615.903	207.06
616.111	203.06
616.318	191.06
616.526	202.06
616.733	198.06
616.941	199.06
617.148	209.06
617.356	196.06
617.563	203.06
617.771	211.06
617.978	190.06
618.185	176.06
618.393	188.06
618.6	203.06
618.807	200.06
619.015	188.06
619.222	196.06
619.429	193.06
619.637	191.06
619.844	194.06
620.051	185.06
620.258	183.06
620.466	196.06
620.673	193.06
620.88	201.06
621.087	186.06
621.294	197.06
621.501	183.06
621.708	202.06
621.915	193.06
622.122	192.06
622.329	184.06
622.536	193.06
622.743	192.06
622.95	188.06
623.157	173.06
623.364	179.06
623.571	177.06
623.778	175.06
623.985	193.06
624.192	164.06
624.399	181.06
624.606	184.06
624.812	178.06
625.019	178.06
625.226	181.06
625.433	167.06
625.639	177.06
625.846	187.06
626.053	178.06
626.259	185.06
626.466	176.06
626.673	161.06
626.879	171.06
627.086	179.06
627.293	171.06
627.499	185.06
627.706	183.06
627.912	185.06
628.119	188.06
628.325	180.06
628.532	165.06
628.738	186.06
628.945	152.06
629.151	171.06
629.357	172.06
629.564	185.06
629.77	178.06
629.976	167.06
630.183	160.06
630.389	153.06
630.595	159.06
630.802	177.06
631.008	159.06
631.214	165.06
631.42	174.06
631.627	176.06
631.833	155.06
632.039	163.06
632.245	155.06
632.451	192.06
632.657	175.06
632.863	159.06
633.069	151.06
633.275	164.06
633.481	160.06
633.688	134.06
633.893	153.06
634.099	161.06
634.305	186.06
634.511	163.06
634.717	156.06
634.923	153.06
635.129	172.06
635.335	155.06
635.541	147.06
635.747	147.06
635.952	155.06
636.158	169.06
636.364	170.06
636.57	172.06
636.775	178.06
636.981	156.06
637.187	148.06
637.392	162.06
637.598	162.06
637.804	161.06
638.009	171.06
638.215	157.06
638.421	137.06
638.626	162.06
638.832	167.06
639.037	163.06
639.243	158.06
639.448	160.06
639.654	136.06
639.859	147.06
640.065	149.06
640.27	168.06
640.475	146.06
640.681	166.06
640.886	170.06
641.091	153.06
641.297	161.06
641.502	154.06
641.707	149.06
641.913	148.06
642.118	163.06
642.323	145.06
642.528	138.06
642.733	149.06
642.939	141.06
643.144	137.06
643.349	132.06
643.554	155.06
643.759	137.06
643.964	148.06
644.169	158.06
644.374	152.06
644.579	145.06
644.784	149.06
644.989	141.06
645.194	146.06
645.399	139.06
645.604	133.06
645.809	141.06
646.014	140.06
646.219	133.06
646.423	138.06
646.628	162.06
646.833	151.06
647.038	159.06
647.243	149.06
647.447	142.06
647.652	163.06
647.857	149.06
648.062	150.06
648.266	144.06
648.471	156.06
648.676	147.06
648.88	149.06
649.085	139.06
649.289	149.06
649.494	154.06
649.698	165.06
649.903	169.06
650.107	152.06
650.312	152.06
650.516	142.06
650.721	140.06
650.925	136.06
651.13	146.06
651.334	133.06
651.539	151.06
651.743	138.06
651.947	138.06
652.152	140.06
652.356	122.06
652.56	135.06
652.764	124.06
652.969	130.06
653.173	126.06
653.377	123.06
653.581	131.06
653.785	120.06
653.99	135.06
654.194	121.06
654.398	128.06
654.602	135.06
654.806	135.06
655.01	130.06
655.214	155.06
655.418	129.06
655.622	129.06
655.826	119.06
656.03	135.06
656.234	127.06
656.438	114.06
656.642	120.06
656.846	123.06
657.049	126.06
657.253	118.06
657.457	116.06
657.661	118.06
657.865	109.06
658.068	121.06
658.272	97.06
658.476	91.06
658.68	93.06
658.883	109.06
659.087	103.06
659.291	99.06
659.494	108.06
659.698	86.06
659.901	100.06
660.105	93.06
660.309	94.06
660.512	97.06
660.716	107.06
660.919	92.06
661.123	106.06
661.326	96.06
661.53	100.06
661.733	102.06
661.936	92.06
662.14	97.06
662.343	89.06
662.546	87.06
662.75	97.06
662.953	85.06
663.156	88.06
663.36	84.06
663.563	77.06
663.766	75.06
663.969	84.06
664.173	91.06
664.376	97.06
664.579	68.06
664.782	79.06
664.985	93.06
665.188	93.06
665.391	81.06
665.594	80.06
665.797	76.06
666	72.06
666.203	80.06
666.406	61.06
666.609	76.06
666.812	86.06
667.015	82.06
667.218	84.06
667.421	71.06
667.624	72.06
667.827	97.06
668.03	81.06
668.232	97.06
668.435	89.06
668.638	89.06
668.841	82.06
669.043	93.06
669.246	87.06
669.449	88.06
669.651	90.06
669.854	85.06
670.057	80.06
670.259	90.06
670.462	98.06
670.665	95.06
670.867	88.06
671.07	77.06
671.272	74.06
671.475	90.06
671.677	92.06
671.88	98.06
672.082	94.06
672.284	89.06
672.487	98.06
672.689	75.06
672.892	86.06
