Data from 1961.PennyLincolnUp.Lamp.En5.5.200Scan.071719.P1._HRD10591_13-47-53-057.txt Node
Date: Thu Jul 18 13:47:53 EDT 2019
User: cochatt
Spectrometer: HR+D1059
Trigger mode: 1
Integration Time (sec): 1.000000E-1
Scans to average: 1
Electric dark correction enabled: true
Nonlinearity correction enabled: false
Boxcar width: 0
XAxis mode: Wavelengths
Number of Pixels in Spectrum: 2048
>>>>>Begin Spectral Data<<<<<
223.165	-23.94
223.4	-23.94
223.635	-23.94
223.869	-24.94
224.104	-21.94
224.338	-9.94
224.573	-7.94
224.808	-8.94
225.042	-7.94
225.277	-2.94
225.511	-3.94
225.746	1.06
225.98	1.06
226.215	12.06
226.449	18.06
226.683	22.06
226.918	18.06
227.152	40.06
227.387	30.06
227.621	35.06
227.856	35.06
228.09	42.06
228.324	56.06
228.559	57.06
228.793	69.06
229.027	93.06
229.262	96.06
229.496	106.06
229.73	123.06
229.964	156.06
230.199	131.06
230.433	94.06
230.667	108.06
230.901	106.06
231.136	82.06
231.37	105.06
231.604	104.06
231.838	95.06
232.072	99.06
232.306	94.06
232.541	130.06
232.775	105.06
233.009	106.06
233.243	93.06
233.477	115.06
233.711	105.06
233.945	95.06
234.179	106.06
234.413	109.06
234.647	104.06
234.881	112.06
235.115	115.06
235.349	116.06
235.583	116.06
235.817	106.06
236.051	108.06
236.285	124.06
236.519	122.06
236.753	121.06
236.987	143.06
237.221	175.06
237.455	191.06
237.689	154.06
237.922	132.06
238.156	122.06
238.39	112.06
238.624	126.06
238.858	121.06
239.091	119.06
239.325	120.06
239.559	119.06
239.793	108.06
240.027	117.06
240.26	125.06
240.494	139.06
240.728	139.06
240.961	130.06
241.195	126.06
241.429	120.06
241.662	126.06
241.896	130.06
242.13	103.06
242.363	123.06
242.597	125.06
242.83	116.06
243.064	119.06
243.298	122.06
243.531	126.06
243.765	133.06
243.998	130.06
244.232	108.06
244.465	132.06
244.699	118.06
244.932	137.06
245.166	128.06
245.399	130.06
245.633	138.06
245.866	134.06
246.099	140.06
246.333	143.06
246.566	146.06
246.8	128.06
247.033	133.06
247.266	129.06
247.5	131.06
247.733	130.06
247.966	141.06
248.2	135.06
248.433	140.06
248.666	150.06
248.899	139.06
249.133	165.06
249.366	169.06
249.599	178.06
249.832	159.06
250.066	152.06
250.299	178.06
250.532	172.06
250.765	166.06
250.998	191.06
251.231	179.06
251.465	183.06
251.698	164.06
251.931	162.06
252.164	172.06
252.397	149.06
252.63	156.06
252.863	160.06
253.096	188.06
253.329	188.06
253.562	196.06
253.795	179.06
254.028	179.06
254.261	173.06
254.494	214.06
254.727	194.06
254.96	241.06
255.193	232.06
255.426	208.06
255.659	196.06
255.892	193.06
256.124	220.06
256.357	202.06
256.59	202.06
256.823	180.06
257.056	195.06
257.289	200.06
257.521	191.06
257.754	176.06
257.987	162.06
258.22	179.06
258.452	188.06
258.685	169.06
258.918	172.06
259.151	185.06
259.383	189.06
259.616	188.06
259.849	190.06
260.081	214.06
260.314	200.06
260.547	218.06
260.779	188.06
261.012	196.06
261.244	183.06
261.477	182.06
261.71	183.06
261.942	189.06
262.175	209.06
262.407	198.06
262.64	196.06
262.872	180.06
263.105	173.06
263.337	178.06
263.57	180.06
263.802	182.06
264.035	177.06
264.267	170.06
264.499	179.06
264.732	174.06
264.964	170.06
265.197	176.06
265.429	168.06
265.661	169.06
265.894	182.06
266.126	184.06
266.358	186.06
266.591	200.06
266.823	194.06
267.055	187.06
267.287	203.06
267.52	190.06
267.752	181.06
267.984	193.06
268.216	198.06
268.448	197.06
268.681	184.06
268.913	201.06
269.145	204.06
269.377	245.06
269.609	219.06
269.841	232.06
270.073	213.06
270.306	241.06
270.538	254.06
270.77	246.06
271.002	251.06
271.234	242.06
271.466	260.06
271.698	260.06
271.93	272.06
272.162	264.06
272.394	265.06
272.626	245.06
272.858	228.06
273.09	247.06
273.322	225.06
273.553	214.06
273.785	236.06
274.017	207.06
274.249	202.06
274.481	221.06
274.713	221.06
274.945	205.06
275.176	224.06
275.408	204.06
275.64	206.06
275.872	213.06
276.104	214.06
276.335	215.06
276.567	218.06
276.799	250.06
277.031	245.06
277.262	266.06
277.494	269.06
277.726	240.06
277.957	249.06
278.189	225.06
278.421	237.06
278.652	225.06
278.884	210.06
279.115	215.06
279.347	216.06
279.579	217.06
279.81	223.06
280.042	206.06
280.273	209.06
280.505	212.06
280.736	225.06
280.968	218.06
281.199	193.06
281.431	203.06
281.662	216.06
281.894	213.06
282.125	205.06
282.356	246.06
282.588	249.06
282.819	261.06
283.051	234.06
283.282	225.06
283.513	213.06
283.745	230.06
283.976	224.06
284.207	227.06
284.439	229.06
284.67	241.06
284.901	224.06
285.132	226.06
285.364	214.06
285.595	213.06
285.826	230.06
286.057	212.06
286.288	229.06
286.52	216.06
286.751	213.06
286.982	227.06
287.213	205.06
287.444	235.06
287.675	227.06
287.906	222.06
288.138	237.06
288.369	237.06
288.6	235.06
288.831	241.06
289.062	245.06
289.293	241.06
289.524	225.06
289.755	225.06
289.986	235.06
290.217	242.06
290.448	216.06
290.679	234.06
290.91	222.06
291.141	212.06
291.371	225.06
291.602	239.06
291.833	229.06
292.064	254.06
292.295	216.06
292.526	228.06
292.757	229.06
292.987	226.06
293.218	231.06
293.449	243.06
293.68	230.06
293.91	234.06
294.141	223.06
294.372	226.06
294.603	233.06
294.833	238.06
295.064	217.06
295.295	227.06
295.525	257.06
295.756	244.06
295.987	241.06
296.217	272.06
296.448	277.06
296.679	247.06
296.909	240.06
297.14	227.06
297.37	243.06
297.601	218.06
297.831	222.06
298.062	226.06
298.292	245.06
298.523	251.06
298.753	233.06
298.984	225.06
299.214	241.06
299.445	248.06
299.675	235.06
299.905	259.06
300.136	233.06
300.366	248.06
300.597	254.06
300.827	256.06
301.057	264.06
301.288	262.06
301.518	257.06
301.748	259.06
301.979	246.06
302.209	261.06
302.439	253.06
302.669	256.06
302.9	268.06
303.13	250.06
303.36	260.06
303.59	262.06
303.82	282.06
304.051	264.06
304.281	258.06
304.511	269.06
304.741	279.06
304.971	258.06
305.201	262.06
305.431	265.06
305.661	265.06
305.891	270.06
306.121	243.06
306.352	265.06
306.582	266.06
306.812	274.06
307.042	262.06
307.272	249.06
307.502	260.06
307.731	283.06
307.961	274.06
308.191	259.06
308.421	262.06
308.651	258.06
308.881	257.06
309.111	276.06
309.341	288.06
309.571	292.06
309.8	307.06
310.03	296.06
310.26	318.06
310.49	316.06
310.72	303.06
310.949	326.06
311.179	359.06
311.409	340.06
311.639	316.06
311.868	311.06
312.098	313.06
312.328	324.06
312.557	322.06
312.787	326.06
313.017	337.06
313.246	309.06
313.476	308.06
313.706	334.06
313.935	324.06
314.165	326.06
314.394	325.06
314.624	336.06
314.853	317.06
315.083	321.06
315.312	312.06
315.542	304.06
315.771	309.06
316.001	289.06
316.23	302.06
316.46	307.06
316.689	315.06
316.919	340.06
317.148	317.06
317.377	305.06
317.607	322.06
317.836	312.06
318.065	308.06
318.295	317.06
318.524	316.06
318.753	316.06
318.983	312.06
319.212	322.06
319.441	311.06
319.67	331.06
319.9	308.06
320.129	312.06
320.358	299.06
320.587	311.06
320.816	325.06
321.046	335.06
321.275	334.06
321.504	327.06
321.733	336.06
321.962	336.06
322.191	348.06
322.42	343.06
322.649	370.06
322.878	386.06
323.108	405.06
323.337	420.06
323.566	448.06
323.795	472.06
324.024	537.06
324.253	655.06
324.482	970.06
324.71	1472.06
324.939	2112.06
325.168	1778.06
325.397	916.06
325.626	626.06
325.855	498.06
326.084	458.06
326.313	457.06
326.542	460.06
326.77	500.06
326.999	600.06
327.228	844.06
327.457	1339.06
327.686	1561.06
327.914	1036.06
328.143	678.06
328.372	566.06
328.6	532.06
328.829	509.06
329.058	517.06
329.287	533.06
329.515	486.06
329.744	461.06
329.972	442.06
330.201	464.06
330.43	516.06
330.658	547.06
330.887	567.06
331.115	518.06
331.344	449.06
331.572	423.06
331.801	416.06
332.03	412.06
332.258	418.06
332.486	382.06
332.715	383.06
332.943	398.06
333.172	388.06
333.4	376.06
333.629	363.06
333.857	392.06
334.085	394.06
334.314	420.06
334.542	462.06
334.771	472.06
334.999	426.06
335.227	395.06
335.455	368.06
335.684	371.06
335.912	359.06
336.14	343.06
336.369	370.06
336.597	382.06
336.825	363.06
337.053	345.06
337.281	352.06
337.51	343.06
337.738	339.06
337.966	346.06
338.194	368.06
338.422	371.06
338.65	348.06
338.878	352.06
339.106	359.06
339.334	333.06
339.562	329.06
339.79	339.06
340.018	341.06
340.246	339.06
340.474	345.06
340.702	355.06
340.93	367.06
341.158	347.06
341.386	342.06
341.614	350.06
341.842	368.06
342.07	357.06
342.298	332.06
342.526	316.06
342.754	322.06
342.981	309.06
343.209	316.06
343.437	306.06
343.665	328.06
343.893	333.06
344.12	337.06
344.348	345.06
344.576	351.06
344.804	350.06
345.031	344.06
345.259	366.06
345.487	346.06
345.714	352.06
345.942	346.06
346.17	344.06
346.397	338.06
346.625	351.06
346.853	314.06
347.08	328.06
347.308	354.06
347.535	348.06
347.763	339.06
347.99	353.06
348.218	355.06
348.445	345.06
348.673	337.06
348.9	334.06
349.128	343.06
349.355	328.06
349.583	304.06
349.81	329.06
350.037	323.06
350.265	328.06
350.492	326.06
350.72	337.06
350.947	332.06
351.174	330.06
351.402	363.06
351.629	352.06
351.856	327.06
352.083	349.06
352.311	352.06
352.538	336.06
352.765	376.06
352.992	361.06
353.22	344.06
353.447	335.06
353.674	324.06
353.901	331.06
354.128	329.06
354.355	309.06
354.583	319.06
354.81	313.06
355.037	314.06
355.264	332.06
355.491	297.06
355.718	315.06
355.945	303.06
356.172	309.06
356.399	320.06
356.626	320.06
356.853	312.06
357.08	305.06
357.307	313.06
357.534	309.06
357.761	298.06
357.988	318.06
358.215	314.06
358.441	296.06
358.668	318.06
358.895	307.06
359.122	338.06
359.349	335.06
359.576	353.06
359.802	372.06
360.029	384.06
360.256	396.06
360.483	383.06
360.709	347.06
360.936	362.06
361.163	356.06
361.39	329.06
361.616	344.06
361.843	321.06
362.07	343.06
362.296	357.06
362.523	325.06
362.749	345.06
362.976	340.06
363.203	322.06
363.429	351.06
363.656	328.06
363.882	317.06
364.109	322.06
364.335	310.06
364.562	305.06
364.788	319.06
365.015	293.06
365.241	322.06
365.468	330.06
365.694	328.06
365.92	331.06
366.147	320.06
366.373	346.06
366.599	314.06
366.826	302.06
367.052	298.06
367.278	332.06
367.505	313.06
367.731	339.06
367.957	319.06
368.184	327.06
368.41	325.06
368.636	326.06
368.862	339.06
369.089	338.06
369.315	326.06
369.541	319.06
369.767	327.06
369.993	325.06
370.219	319.06
370.445	321.06
370.672	320.06
370.898	319.06
371.124	308.06
371.35	326.06
371.576	332.06
371.802	313.06
372.028	308.06
372.254	306.06
372.48	311.06
372.706	323.06
372.932	328.06
373.158	325.06
373.384	324.06
373.61	330.06
373.835	310.06
374.061	304.06
374.287	325.06
374.513	329.06
374.739	320.06
374.965	300.06
375.191	333.06
375.416	315.06
375.642	315.06
375.868	323.06
376.094	305.06
376.319	308.06
376.545	320.06
376.771	317.06
376.997	315.06
377.222	314.06
377.448	309.06
377.674	303.06
377.899	309.06
378.125	316.06
378.35	305.06
378.576	310.06
378.802	313.06
379.027	320.06
379.253	320.06
379.478	312.06
379.704	328.06
379.929	313.06
380.155	332.06
380.38	323.06
380.606	309.06
380.831	318.06
381.057	334.06
381.282	316.06
381.507	325.06
381.733	323.06
381.958	312.06
382.184	300.06
382.409	321.06
382.634	302.06
382.86	323.06
383.085	306.06
383.31	330.06
383.535	323.06
383.761	321.06
383.986	321.06
384.211	321.06
384.436	327.06
384.662	318.06
384.887	334.06
385.112	329.06
385.337	338.06
385.562	338.06
385.787	327.06
386.013	338.06
386.238	358.06
386.463	355.06
386.688	331.06
386.913	340.06
387.138	334.06
387.363	341.06
387.588	334.06
387.813	330.06
388.038	319.06
388.263	339.06
388.488	352.06
388.713	331.06
388.938	339.06
389.163	350.06
389.387	340.06
389.612	313.06
389.837	349.06
390.062	349.06
390.287	332.06
390.512	338.06
390.736	326.06
390.961	355.06
391.186	315.06
391.411	347.06
391.636	344.06
391.86	341.06
392.085	323.06
392.31	336.06
392.534	349.06
392.759	365.06
392.984	351.06
393.208	334.06
393.433	336.06
393.658	345.06
393.882	331.06
394.107	328.06
394.331	338.06
394.556	350.06
394.78	366.06
395.005	345.06
395.229	342.06
395.454	360.06
395.678	372.06
395.903	346.06
396.127	362.06
396.352	368.06
396.576	343.06
396.801	334.06
397.025	352.06
397.249	351.06
397.474	353.06
397.698	349.06
397.922	356.06
398.147	362.06
398.371	384.06
398.595	358.06
398.82	382.06
399.044	368.06
399.268	394.06
399.492	420.06
399.717	427.06
399.941	419.06
400.165	453.06
400.389	454.06
400.613	436.06
400.837	372.06
401.062	395.06
401.286	403.06
401.51	400.06
401.734	402.06
401.958	401.06
402.182	391.06
402.406	419.06
402.63	394.06
402.854	403.06
403.078	390.06
403.302	402.06
403.526	391.06
403.75	404.06
403.974	395.06
404.198	396.06
404.422	383.06
404.645	406.06
404.869	418.06
405.093	446.06
405.317	470.06
405.541	509.06
405.765	462.06
405.988	437.06
406.212	438.06
406.436	473.06
406.66	461.06
406.883	460.06
407.107	461.06
407.331	498.06
407.555	537.06
407.778	546.06
408.002	492.06
408.226	449.06
408.449	457.06
408.673	452.06
408.896	472.06
409.12	499.06
409.344	473.06
409.567	425.06
409.791	410.06
410.014	422.06
410.238	400.06
410.461	402.06
410.685	426.06
410.908	448.06
411.132	446.06
411.355	484.06
411.578	443.06
411.802	414.06
412.025	422.06
412.249	408.06
412.472	439.06
412.695	472.06
412.919	437.06
413.142	422.06
413.365	407.06
413.589	394.06
413.812	394.06
414.035	397.06
414.258	390.06
414.482	372.06
414.705	382.06
414.928	370.06
415.151	387.06
415.374	392.06
415.597	382.06
415.821	378.06
416.044	377.06
416.267	381.06
416.49	364.06
416.713	369.06
416.936	361.06
417.159	372.06
417.382	379.06
417.605	387.06
417.828	388.06
418.051	384.06
418.274	384.06
418.497	380.06
418.72	385.06
418.943	380.06
419.166	395.06
419.389	407.06
419.611	411.06
419.834	426.06
420.057	394.06
420.28	396.06
420.503	417.06
420.726	422.06
420.948	409.06
421.171	436.06
421.394	474.06
421.617	420.06
421.839	399.06
422.062	397.06
422.285	418.06
422.507	502.06
422.73	533.06
422.953	507.06
423.175	458.06
423.398	435.06
423.621	411.06
423.843	420.06
424.066	414.06
424.288	435.06
424.511	443.06
424.733	493.06
424.956	555.06
425.178	534.06
425.401	540.06
425.623	536.06
425.846	486.06
426.068	450.06
426.291	451.06
426.513	437.06
426.735	454.06
426.958	458.06
427.18	557.06
427.402	667.06
427.625	720.06
427.847	663.06
428.069	579.06
428.292	508.06
428.514	449.06
428.736	446.06
428.958	435.06
429.181	412.06
429.403	397.06
429.625	424.06
429.847	470.06
430.069	500.06
430.292	496.06
430.514	428.06
430.736	427.06
430.958	394.06
431.18	394.06
431.402	388.06
431.624	361.06
431.846	386.06
432.068	374.06
432.29	390.06
432.512	371.06
432.734	378.06
432.956	377.06
433.178	398.06
433.4	383.06
433.622	393.06
433.844	387.06
434.066	377.06
434.287	373.06
434.509	414.06
434.731	405.06
434.953	399.06
435.175	414.06
435.397	448.06
435.618	442.06
435.84	481.06
436.062	564.06
436.284	611.06
436.505	510.06
436.727	466.06
436.949	446.06
437.17	410.06
437.392	434.06
437.614	439.06
437.835	471.06
438.057	544.06
438.278	641.06
438.5	626.06
438.721	653.06
438.943	640.06
439.165	522.06
439.386	466.06
439.608	441.06
439.829	459.06
440.05	510.06
440.272	544.06
440.493	506.06
440.715	440.06
440.936	436.06
441.158	446.06
441.379	418.06
441.6	432.06
441.822	450.06
442.043	461.06
442.264	542.06
442.486	596.06
442.707	496.06
442.928	436.06
443.149	452.06
443.371	480.06
443.592	520.06
443.813	568.06
444.034	612.06
444.255	536.06
444.476	482.06
444.698	446.06
444.919	447.06
445.14	546.06
445.361	497.06
445.582	486.06
445.803	566.06
446.024	648.06
446.245	635.06
446.466	590.06
446.687	502.06
446.908	446.06
447.129	435.06
447.35	428.06
447.571	443.06
447.792	425.06
448.013	415.06
448.234	444.06
448.455	489.06
448.675	567.06
448.896	660.06
449.117	558.06
449.338	543.06
449.559	633.06
449.779	694.06
450	554.06
450.221	450.06
450.442	408.06
450.662	421.06
450.883	430.06
451.104	426.06
451.324	438.06
451.545	411.06
451.766	398.06
451.986	373.06
452.207	378.06
452.428	380.06
452.648	393.06
452.869	380.06
453.089	396.06
453.31	395.06
453.53	383.06
453.751	396.06
453.971	391.06
454.192	397.06
454.412	388.06
454.633	382.06
454.853	369.06
455.073	370.06
455.294	395.06
455.514	458.06
455.734	421.06
455.955	406.06
456.175	374.06
456.395	357.06
456.616	356.06
456.836	360.06
457.056	345.06
457.276	352.06
457.497	352.06
457.717	367.06
457.937	374.06
458.157	377.06
458.377	362.06
458.598	404.06
458.818	472.06
459.038	548.06
459.258	524.06
459.478	443.06
459.698	397.06
459.918	377.06
460.138	408.06
460.358	388.06
460.578	370.06
460.798	389.06
461.018	406.06
461.238	388.06
461.458	409.06
461.678	392.06
461.898	369.06
462.118	378.06
462.338	402.06
462.558	394.06
462.777	406.06
462.997	402.06
463.217	379.06
463.437	386.06
463.657	395.06
463.876	394.06
464.096	425.06
464.316	374.06
464.536	429.06
464.755	416.06
464.975	424.06
465.195	470.06
465.414	558.06
465.634	490.06
465.854	458.06
466.073	420.06
466.293	416.06
466.512	396.06
466.732	366.06
466.951	388.06
467.171	384.06
467.391	383.06
467.61	396.06
467.829	398.06
468.049	393.06
468.268	401.06
468.488	394.06
468.707	387.06
468.927	386.06
469.146	381.06
469.365	370.06
469.585	378.06
469.804	373.06
470.023	394.06
470.243	384.06
470.462	410.06
470.681	412.06
470.901	414.06
471.12	405.06
471.339	379.06
471.558	382.06
471.777	413.06
471.997	400.06
472.216	394.06
472.435	437.06
472.654	419.06
472.873	391.06
473.092	397.06
473.311	394.06
473.53	373.06
473.749	402.06
473.968	442.06
474.187	517.06
474.406	540.06
474.625	459.06
474.844	392.06
475.063	398.06
475.282	409.06
475.501	404.06
475.72	398.06
475.939	381.06
476.158	389.06
476.377	402.06
476.596	391.06
476.814	414.06
477.033	417.06
477.252	420.06
477.471	402.06
477.69	421.06
477.908	443.06
478.127	408.06
478.346	414.06
478.564	441.06
478.783	445.06
479.002	432.06
479.22	434.06
479.439	446.06
479.658	454.06
479.876	455.06
480.095	470.06
480.313	480.06
480.532	491.06
480.751	482.06
480.969	471.06
481.188	546.06
481.406	585.06
481.624	534.06
481.843	483.06
482.061	460.06
482.28	479.06
482.498	462.06
482.717	441.06
482.935	439.06
483.153	458.06
483.372	459.06
483.59	472.06
483.808	435.06
484.027	441.06
484.245	444.06
484.463	450.06
484.681	473.06
484.9	459.06
485.118	476.06
485.336	460.06
485.554	460.06
485.772	485.06
485.99	456.06
486.209	478.06
486.427	491.06
486.645	489.06
486.863	490.06
487.081	515.06
487.299	508.06
487.517	490.06
487.735	472.06
487.953	494.06
488.171	475.06
488.389	473.06
488.607	486.06
488.825	498.06
489.043	475.06
489.261	493.06
489.479	498.06
489.696	476.06
489.914	480.06
490.132	498.06
490.35	516.06
490.568	497.06
490.786	518.06
491.003	513.06
491.221	544.06
491.439	537.06
491.657	518.06
491.874	539.06
492.092	554.06
492.31	532.06
492.527	569.06
492.745	546.06
492.963	550.06
493.18	561.06
493.398	574.06
493.615	581.06
493.833	551.06
494.05	588.06
494.268	583.06
494.485	592.06
494.703	578.06
494.92	561.06
495.138	563.06
495.355	573.06
495.573	576.06
495.79	595.06
496.008	570.06
496.225	594.06
496.442	571.06
496.66	604.06
496.877	589.06
497.094	589.06
497.312	573.06
497.529	598.06
497.746	605.06
497.963	602.06
498.181	617.06
498.398	608.06
498.615	622.06
498.832	625.06
499.049	608.06
499.267	636.06
499.484	649.06
499.701	665.06
499.918	677.06
500.135	684.06
500.352	713.06
500.569	716.06
500.786	733.06
501.003	723.06
501.22	701.06
501.437	709.06
501.654	711.06
501.871	699.06
502.088	686.06
502.305	644.06
502.522	655.06
502.739	650.06
502.956	608.06
503.172	604.06
503.389	618.06
503.606	605.06
503.823	598.06
504.04	624.06
504.256	590.06
504.473	589.06
504.69	598.06
504.907	592.06
505.123	580.06
505.34	570.06
505.557	570.06
505.773	584.06
505.99	570.06
506.207	582.06
506.423	567.06
506.64	560.06
506.856	553.06
507.073	545.06
507.289	534.06
507.506	542.06
507.722	574.06
507.939	594.06
508.155	556.06
508.372	582.06
508.588	547.06
508.805	564.06
509.021	542.06
509.238	546.06
509.454	552.06
509.67	552.06
509.887	518.06
510.103	548.06
510.319	548.06
510.536	670.06
510.752	1152.06
510.968	881.06
511.184	590.06
511.401	546.06
511.617	546.06
511.833	561.06
512.049	520.06
512.265	525.06
512.481	526.06
512.698	521.06
512.914	525.06
513.13	511.06
513.346	508.06
513.562	544.06
513.778	526.06
513.994	538.06
514.21	566.06
514.426	561.06
514.642	611.06
514.858	658.06
515.074	668.06
515.29	819.06
515.506	1246.06
515.721	996.06
515.937	666.06
516.153	583.06
516.369	572.06
516.585	554.06
516.801	561.06
517.016	548.06
517.232	534.06
517.448	514.06
517.664	527.06
517.879	530.06
518.095	523.06
518.311	537.06
518.527	519.06
518.742	514.06
518.958	514.06
519.173	542.06
519.389	522.06
519.605	519.06
519.82	532.06
520.036	569.06
520.251	591.06
520.467	595.06
520.682	582.06
520.898	593.06
521.113	640.06
521.329	672.06
521.544	769.06
521.76	1004.06
521.975	1686.06
522.19	1621.06
522.406	854.06
522.621	627.06
522.836	572.06
523.052	546.06
523.267	533.06
523.482	522.06
523.698	478.06
523.913	487.06
524.128	468.06
524.343	468.06
524.559	449.06
524.774	446.06
524.989	455.06
525.204	474.06
525.419	456.06
525.634	447.06
525.849	466.06
526.064	445.06
526.28	453.06
526.495	424.06
526.71	422.06
526.925	426.06
527.14	419.06
527.355	434.06
527.57	437.06
527.785	425.06
527.999	437.06
528.214	413.06
528.429	412.06
528.644	408.06
528.859	429.06
529.074	437.06
529.289	452.06
529.503	560.06
529.718	513.06
529.933	448.06
530.148	450.06
530.363	447.06
530.577	418.06
530.792	423.06
531.007	427.06
531.221	406.06
531.436	412.06
531.651	426.06
531.865	401.06
532.08	388.06
532.295	393.06
532.509	410.06
532.724	410.06
532.938	419.06
533.153	402.06
533.367	397.06
533.582	404.06
533.796	418.06
534.011	411.06
534.225	382.06
534.44	398.06
534.654	423.06
534.868	384.06
535.083	376.06
535.297	392.06
535.511	421.06
535.726	420.06
535.94	395.06
536.154	385.06
536.369	401.06
536.583	414.06
536.797	380.06
537.011	380.06
537.225	388.06
537.44	399.06
537.654	366.06
537.868	372.06
538.082	392.06
538.296	388.06
538.51	391.06
538.724	388.06
538.938	379.06
539.153	386.06
539.367	413.06
539.581	403.06
539.795	386.06
540.009	382.06
540.222	385.06
540.436	395.06
540.65	373.06
540.864	393.06
541.078	390.06
541.292	399.06
541.506	403.06
541.72	372.06
541.934	375.06
542.147	390.06
542.361	388.06
542.575	375.06
542.789	369.06
543.002	387.06
543.216	407.06
543.43	415.06
543.644	393.06
543.857	388.06
544.071	378.06
544.285	379.06
544.498	369.06
544.712	393.06
544.925	392.06
545.139	371.06
545.352	365.06
545.566	365.06
545.779	362.06
545.993	360.06
546.206	378.06
546.42	386.06
546.633	347.06
546.847	361.06
547.06	348.06
547.274	355.06
547.487	374.06
547.7	359.06
547.914	352.06
548.127	369.06
548.34	357.06
548.554	359.06
548.767	376.06
548.98	354.06
549.193	358.06
549.407	361.06
549.62	351.06
549.833	378.06
550.046	358.06
550.259	357.06
550.473	372.06
550.686	362.06
550.899	370.06
551.112	355.06
551.325	349.06
551.538	354.06
551.751	348.06
551.964	360.06
552.177	336.06
552.39	361.06
552.603	362.06
552.816	353.06
553.029	374.06
553.242	368.06
553.455	357.06
553.667	378.06
553.88	376.06
554.093	368.06
554.306	354.06
554.519	377.06
554.732	364.06
554.944	342.06
555.157	372.06
555.37	325.06
555.583	335.06
555.795	338.06
556.008	325.06
556.221	332.06
556.433	337.06
556.646	345.06
556.859	345.06
557.071	332.06
557.284	330.06
557.496	315.06
557.709	348.06
557.921	360.06
558.134	325.06
558.346	329.06
558.559	329.06
558.771	318.06
558.984	320.06
559.196	321.06
559.409	330.06
559.621	331.06
559.833	322.06
560.046	320.06
560.258	324.06
560.47	309.06
560.683	311.06
560.895	322.06
561.107	316.06
561.32	312.06
561.532	323.06
561.744	320.06
561.956	318.06
562.168	315.06
562.381	334.06
562.593	322.06
562.805	312.06
563.017	333.06
563.229	328.06
563.441	316.06
563.653	326.06
563.865	314.06
564.077	308.06
564.289	336.06
564.501	338.06
564.713	330.06
564.925	360.06
565.137	348.06
565.349	337.06
565.561	338.06
565.773	348.06
565.985	341.06
566.197	359.06
566.408	338.06
566.62	360.06
566.832	377.06
567.044	362.06
567.255	367.06
567.467	350.06
567.679	363.06
567.891	383.06
568.102	360.06
568.314	364.06
568.526	361.06
568.737	353.06
568.949	341.06
569.161	330.06
569.372	322.06
569.584	315.06
569.795	329.06
570.007	325.06
570.218	358.06
570.43	357.06
570.641	316.06
570.853	318.06
571.064	310.06
571.276	313.06
571.487	288.06
571.698	299.06
571.91	295.06
572.121	307.06
572.333	284.06
572.544	287.06
572.755	262.06
572.966	297.06
573.178	295.06
573.389	296.06
573.6	297.06
573.811	282.06
574.023	289.06
574.234	289.06
574.445	292.06
574.656	310.06
574.867	293.06
575.078	276.06
575.289	285.06
575.501	275.06
575.712	275.06
575.923	281.06
576.134	272.06
576.345	256.06
576.556	279.06
576.767	268.06
576.978	263.06
577.188	287.06
577.399	291.06
577.61	290.06
577.821	274.06
578.032	266.06
578.243	318.06
578.454	532.06
578.665	370.06
578.875	276.06
579.086	281.06
579.297	283.06
579.508	271.06
579.718	269.06
579.929	237.06
580.14	251.06
580.35	261.06
580.561	271.06
580.772	258.06
580.982	248.06
581.193	244.06
581.403	257.06
581.614	273.06
581.825	249.06
582.035	249.06
582.246	256.06
582.456	248.06
582.667	258.06
582.877	276.06
583.087	271.06
583.298	260.06
583.508	260.06
583.719	265.06
583.929	265.06
584.139	271.06
584.35	244.06
584.56	240.06
584.77	249.06
584.981	256.06
585.191	236.06
585.401	260.06
585.611	235.06
585.821	229.06
586.032	253.06
586.242	269.06
586.452	242.06
586.662	256.06
586.872	267.06
587.082	249.06
587.292	260.06
587.502	238.06
587.713	249.06
587.923	264.06
588.133	248.06
588.343	247.06
588.553	250.06
588.762	255.06
588.972	254.06
589.182	263.06
589.392	247.06
589.602	254.06
589.812	252.06
590.022	224.06
590.232	249.06
590.441	237.06
590.651	234.06
590.861	233.06
591.071	260.06
591.281	260.06
591.49	228.06
591.7	237.06
591.91	251.06
592.119	259.06
592.329	244.06
592.539	254.06
592.748	255.06
592.958	250.06
593.167	253.06
593.377	252.06
593.587	264.06
593.796	230.06
594.006	252.06
594.215	242.06
594.424	247.06
594.634	247.06
594.843	258.06
595.053	247.06
595.262	258.06
595.472	232.06
595.681	242.06
595.89	245.06
596.1	229.06
596.309	242.06
596.518	244.06
596.727	255.06
596.937	228.06
597.146	220.06
597.355	246.06
597.564	233.06
597.774	222.06
597.983	206.06
598.192	215.06
598.401	225.06
598.61	222.06
598.819	235.06
599.028	220.06
599.237	214.06
599.446	219.06
599.655	224.06
599.864	227.06
600.073	225.06
600.282	220.06
600.491	219.06
600.7	220.06
600.909	221.06
601.118	217.06
601.327	218.06
601.536	201.06
601.745	205.06
601.953	227.06
602.162	221.06
602.371	211.06
602.58	205.06
602.789	220.06
602.997	202.06
603.206	212.06
603.415	222.06
603.623	208.06
603.832	204.06
604.041	210.06
604.249	226.06
604.458	200.06
604.666	205.06
604.875	218.06
605.084	188.06
605.292	196.06
605.501	206.06
605.709	195.06
605.918	199.06
606.126	216.06
606.334	206.06
606.543	217.06
606.751	204.06
606.96	210.06
607.168	211.06
607.376	213.06
607.585	213.06
607.793	218.06
608.001	220.06
608.21	231.06
608.418	214.06
608.626	218.06
608.834	204.06
609.043	220.06
609.251	195.06
609.459	195.06
609.667	206.06
609.875	213.06
610.083	214.06
610.291	197.06
610.499	210.06
610.707	196.06
610.916	208.06
611.124	202.06
611.332	218.06
611.54	222.06
611.748	197.06
611.955	225.06
612.163	192.06
612.371	214.06
612.579	181.06
612.787	189.06
612.995	211.06
613.203	208.06
613.411	201.06
613.618	208.06
613.826	210.06
614.034	214.06
614.242	189.06
614.449	192.06
614.657	185.06
614.865	176.06
615.072	213.06
615.28	212.06
615.488	188.06
615.695	195.06
615.903	193.06
616.111	182.06
616.318	215.06
616.526	202.06
616.733	221.06
616.941	178.06
617.148	189.06
617.356	188.06
617.563	193.06
617.771	200.06
617.978	191.06
618.185	201.06
618.393	185.06
618.6	189.06
618.807	197.06
619.015	199.06
619.222	196.06
619.429	180.06
619.637	185.06
619.844	193.06
620.051	186.06
620.258	180.06
620.466	177.06
620.673	201.06
620.88	172.06
621.087	204.06
621.294	183.06
621.501	180.06
621.708	192.06
621.915	203.06
622.122	197.06
622.329	189.06
622.536	185.06
622.743	197.06
622.95	189.06
623.157	177.06
623.364	185.06
623.571	191.06
623.778	193.06
623.985	197.06
624.192	180.06
624.399	185.06
624.606	194.06
624.812	194.06
625.019	189.06
625.226	179.06
625.433	181.06
625.639	181.06
625.846	182.06
626.053	170.06
626.259	169.06
626.466	180.06
626.673	193.06
626.879	194.06
627.086	179.06
627.293	171.06
627.499	178.06
627.706	164.06
627.912	185.06
628.119	182.06
628.325	179.06
628.532	185.06
628.738	176.06
628.945	158.06
629.151	183.06
629.357	186.06
629.564	154.06
629.77	181.06
629.976	160.06
630.183	183.06
630.389	179.06
630.595	164.06
630.802	171.06
631.008	174.06
631.214	168.06
631.42	182.06
631.627	184.06
631.833	162.06
632.039	169.06
632.245	170.06
632.451	157.06
632.657	188.06
632.863	178.06
633.069	165.06
633.275	173.06
633.481	165.06
633.688	176.06
633.893	166.06
634.099	157.06
634.305	159.06
634.511	176.06
634.717	168.06
634.923	154.06
635.129	152.06
635.335	145.06
635.541	166.06
635.747	167.06
635.952	156.06
636.158	164.06
636.364	166.06
636.57	155.06
636.775	163.06
636.981	152.06
637.187	168.06
637.392	165.06
637.598	160.06
637.804	155.06
638.009	154.06
638.215	169.06
638.421	150.06
638.626	166.06
638.832	173.06
639.037	166.06
639.243	161.06
639.448	162.06
639.654	155.06
639.859	138.06
640.065	142.06
640.27	172.06
640.475	161.06
640.681	149.06
640.886	162.06
641.091	153.06
641.297	156.06
641.502	162.06
641.707	154.06
641.913	158.06
642.118	162.06
642.323	144.06
642.528	152.06
642.733	135.06
642.939	144.06
643.144	160.06
643.349	146.06
643.554	149.06
643.759	150.06
643.964	152.06
644.169	151.06
644.374	150.06
644.579	165.06
644.784	153.06
644.989	161.06
645.194	150.06
645.399	156.06
645.604	156.06
645.809	132.06
646.014	139.06
646.219	142.06
646.423	148.06
646.628	152.06
646.833	156.06
647.038	154.06
647.243	144.06
647.447	150.06
647.652	162.06
647.857	138.06
648.062	141.06
648.266	160.06
648.471	161.06
648.676	166.06
648.88	149.06
649.085	149.06
649.289	152.06
649.494	169.06
649.698	157.06
649.903	167.06
650.107	152.06
650.312	150.06
650.516	138.06
650.721	160.06
650.925	155.06
651.13	138.06
651.334	124.06
651.539	132.06
651.743	133.06
651.947	128.06
652.152	150.06
652.356	136.06
652.56	146.06
652.764	164.06
652.969	123.06
653.173	130.06
653.377	122.06
653.581	130.06
653.785	141.06
653.99	124.06
654.194	132.06
654.398	132.06
654.602	125.06
654.806	106.06
655.01	125.06
655.214	132.06
655.418	132.06
655.622	130.06
655.826	136.06
656.03	112.06
656.234	127.06
656.438	118.06
656.642	135.06
656.846	121.06
657.049	110.06
657.253	112.06
657.457	128.06
657.661	117.06
657.865	106.06
658.068	103.06
658.272	115.06
658.476	110.06
658.68	106.06
658.883	94.06
659.087	108.06
659.291	92.06
659.494	98.06
659.698	92.06
659.901	96.06
660.105	90.06
660.309	85.06
660.512	97.06
660.716	87.06
660.919	89.06
661.123	98.06
661.326	75.06
661.53	84.06
661.733	77.06
661.936	78.06
662.14	95.06
662.343	79.06
662.546	93.06
662.75	88.06
662.953	74.06
663.156	100.06
663.36	104.06
663.563	85.06
663.766	92.06
663.969	92.06
664.173	88.06
664.376	81.06
664.579	86.06
664.782	69.06
664.985	93.06
665.188	84.06
665.391	93.06
665.594	83.06
665.797	61.06
666	74.06
666.203	86.06
666.406	72.06
666.609	89.06
666.812	96.06
667.015	84.06
667.218	103.06
667.421	101.06
667.624	90.06
667.827	80.06
668.03	85.06
668.232	83.06
668.435	72.06
668.638	80.06
668.841	81.06
669.043	85.06
669.246	89.06
669.449	84.06
669.651	91.06
669.854	95.06
670.057	73.06
670.259	94.06
670.462	82.06
670.665	87.06
670.867	79.06
671.07	86.06
671.272	78.06
671.475	97.06
671.677	90.06
671.88	86.06
672.082	87.06
672.284	85.06
672.487	80.06
672.689	84.06
672.892	98.06
