Data from 1961.PennyLincolnUp.Lamp.En5.5.200Scan.071719.P1._HRD10591_13-46-26-057.txt Node
Date: Thu Jul 18 13:46:26 EDT 2019
User: cochatt
Spectrometer: HR+D1059
Trigger mode: 1
Integration Time (sec): 1.000000E-1
Scans to average: 1
Electric dark correction enabled: true
Nonlinearity correction enabled: false
Boxcar width: 0
XAxis mode: Wavelengths
Number of Pixels in Spectrum: 2048
>>>>>Begin Spectral Data<<<<<
223.165	-14.94
223.4	-14.94
223.635	-14.94
223.869	-19.94
224.104	-4.94
224.338	-15.94
224.573	-23.94
224.808	0.06
225.042	-14.94
225.277	3.06
225.511	-5.94
225.746	0.06
225.98	2.06
226.215	-1.94
226.449	15.06
226.683	16.06
226.918	37.06
227.152	29.06
227.387	13.06
227.621	52.06
227.856	36.06
228.09	41.06
228.324	56.06
228.559	49.06
228.793	47.06
229.027	96.06
229.262	86.06
229.496	93.06
229.73	116.06
229.964	124.06
230.199	104.06
230.433	94.06
230.667	113.06
230.901	108.06
231.136	106.06
231.37	91.06
231.604	94.06
231.838	91.06
232.072	89.06
232.306	113.06
232.541	104.06
232.775	90.06
233.009	117.06
233.243	99.06
233.477	94.06
233.711	99.06
233.945	113.06
234.179	90.06
234.413	96.06
234.647	105.06
234.881	106.06
235.115	109.06
235.349	101.06
235.583	94.06
235.817	110.06
236.051	94.06
236.285	104.06
236.519	114.06
236.753	110.06
236.987	118.06
237.221	135.06
237.455	180.06
237.689	149.06
237.922	117.06
238.156	115.06
238.39	108.06
238.624	95.06
238.858	100.06
239.091	107.06
239.325	92.06
239.559	101.06
239.793	104.06
240.027	92.06
240.26	120.06
240.494	123.06
240.728	110.06
240.961	117.06
241.195	128.06
241.429	119.06
241.662	104.06
241.896	113.06
242.13	114.06
242.363	89.06
242.597	94.06
242.83	112.06
243.064	116.06
243.298	99.06
243.531	102.06
243.765	109.06
243.998	124.06
244.232	109.06
244.465	114.06
244.699	127.06
244.932	121.06
245.166	140.06
245.399	132.06
245.633	108.06
245.866	120.06
246.099	113.06
246.333	120.06
246.566	121.06
246.8	112.06
247.033	102.06
247.266	122.06
247.5	121.06
247.733	127.06
247.966	138.06
248.2	137.06
248.433	122.06
248.666	132.06
248.899	136.06
249.133	149.06
249.366	136.06
249.599	151.06
249.832	151.06
250.066	143.06
250.299	127.06
250.532	135.06
250.765	153.06
250.998	152.06
251.231	146.06
251.465	154.06
251.698	159.06
251.931	138.06
252.164	151.06
252.397	158.06
252.63	158.06
252.863	146.06
253.096	144.06
253.329	161.06
253.562	159.06
253.795	146.06
254.028	158.06
254.261	160.06
254.494	164.06
254.727	180.06
254.96	181.06
255.193	184.06
255.426	181.06
255.659	168.06
255.892	170.06
256.124	166.06
256.357	167.06
256.59	154.06
256.823	160.06
257.056	174.06
257.289	159.06
257.521	166.06
257.754	165.06
257.987	160.06
258.22	155.06
258.452	158.06
258.685	154.06
258.918	158.06
259.151	156.06
259.383	169.06
259.616	168.06
259.849	165.06
260.081	174.06
260.314	181.06
260.547	180.06
260.779	162.06
261.012	171.06
261.244	181.06
261.477	163.06
261.71	168.06
261.942	170.06
262.175	162.06
262.407	169.06
262.64	167.06
262.872	159.06
263.105	152.06
263.337	162.06
263.57	163.06
263.802	149.06
264.035	159.06
264.267	145.06
264.499	148.06
264.732	149.06
264.964	149.06
265.197	172.06
265.429	167.06
265.661	144.06
265.894	157.06
266.126	179.06
266.358	143.06
266.591	145.06
266.823	161.06
267.055	168.06
267.287	165.06
267.52	173.06
267.752	145.06
267.984	169.06
268.216	165.06
268.448	159.06
268.681	180.06
268.913	174.06
269.145	174.06
269.377	198.06
269.609	186.06
269.841	179.06
270.073	184.06
270.306	201.06
270.538	203.06
270.77	227.06
271.002	200.06
271.234	202.06
271.466	214.06
271.698	213.06
271.93	201.06
272.162	205.06
272.394	211.06
272.626	197.06
272.858	202.06
273.09	189.06
273.322	204.06
273.553	198.06
273.785	180.06
274.017	196.06
274.249	184.06
274.481	201.06
274.713	164.06
274.945	197.06
275.176	190.06
275.408	205.06
275.64	192.06
275.872	160.06
276.104	173.06
276.335	191.06
276.567	184.06
276.799	196.06
277.031	206.06
277.262	205.06
277.494	203.06
277.726	215.06
277.957	191.06
278.189	201.06
278.421	188.06
278.652	182.06
278.884	179.06
279.115	200.06
279.347	192.06
279.579	180.06
279.81	211.06
280.042	197.06
280.273	189.06
280.505	177.06
280.736	194.06
280.968	180.06
281.199	190.06
281.431	182.06
281.662	185.06
281.894	197.06
282.125	187.06
282.356	188.06
282.588	209.06
282.819	215.06
283.051	202.06
283.282	183.06
283.513	183.06
283.745	201.06
283.976	195.06
284.207	180.06
284.439	202.06
284.67	170.06
284.901	191.06
285.132	201.06
285.364	191.06
285.595	194.06
285.826	194.06
286.057	203.06
286.288	190.06
286.52	194.06
286.751	185.06
286.982	195.06
287.213	202.06
287.444	197.06
287.675	198.06
287.906	193.06
288.138	197.06
288.369	196.06
288.6	208.06
288.831	193.06
289.062	212.06
289.293	196.06
289.524	201.06
289.755	216.06
289.986	197.06
290.217	197.06
290.448	206.06
290.679	207.06
290.91	198.06
291.141	202.06
291.371	201.06
291.602	215.06
291.833	206.06
292.064	215.06
292.295	195.06
292.526	193.06
292.757	192.06
292.987	212.06
293.218	200.06
293.449	204.06
293.68	192.06
293.91	188.06
294.141	207.06
294.372	201.06
294.603	190.06
294.833	211.06
295.064	184.06
295.295	198.06
295.525	196.06
295.756	205.06
295.987	199.06
296.217	237.06
296.448	228.06
296.679	203.06
296.909	199.06
297.14	201.06
297.37	212.06
297.601	192.06
297.831	213.06
298.062	201.06
298.292	207.06
298.523	241.06
298.753	182.06
298.984	210.06
299.214	220.06
299.445	215.06
299.675	216.06
299.905	217.06
300.136	217.06
300.366	219.06
300.597	213.06
300.827	226.06
301.057	220.06
301.288	213.06
301.518	231.06
301.748	224.06
301.979	215.06
302.209	220.06
302.439	211.06
302.669	228.06
302.9	237.06
303.13	225.06
303.36	223.06
303.59	231.06
303.82	223.06
304.051	237.06
304.281	228.06
304.511	230.06
304.741	199.06
304.971	233.06
305.201	226.06
305.431	206.06
305.661	231.06
305.891	221.06
306.121	249.06
306.352	234.06
306.582	224.06
306.812	229.06
307.042	214.06
307.272	229.06
307.502	232.06
307.731	248.06
307.961	243.06
308.191	242.06
308.421	244.06
308.651	238.06
308.881	252.06
309.111	220.06
309.341	257.06
309.571	244.06
309.8	245.06
310.03	236.06
310.26	254.06
310.49	258.06
310.72	244.06
310.949	271.06
311.179	257.06
311.409	259.06
311.639	253.06
311.868	271.06
312.098	252.06
312.328	268.06
312.557	256.06
312.787	262.06
313.017	252.06
313.246	273.06
313.476	268.06
313.706	270.06
313.935	269.06
314.165	276.06
314.394	281.06
314.624	263.06
314.853	281.06
315.083	266.06
315.312	256.06
315.542	265.06
315.771	260.06
316.001	263.06
316.23	255.06
316.46	254.06
316.689	264.06
316.919	250.06
317.148	247.06
317.377	258.06
317.607	270.06
317.836	258.06
318.065	271.06
318.295	258.06
318.524	266.06
318.753	263.06
318.983	253.06
319.212	256.06
319.441	264.06
319.67	258.06
319.9	254.06
320.129	276.06
320.358	273.06
320.587	252.06
320.816	276.06
321.046	266.06
321.275	288.06
321.504	276.06
321.733	279.06
321.962	273.06
322.191	284.06
322.42	300.06
322.649	310.06
322.878	310.06
323.108	321.06
323.337	331.06
323.566	341.06
323.795	357.06
324.024	376.06
324.253	440.06
324.482	644.06
324.71	976.06
324.939	1344.06
325.168	1098.06
325.397	591.06
325.626	430.06
325.855	374.06
326.084	342.06
326.313	321.06
326.542	358.06
326.77	367.06
326.999	442.06
327.228	595.06
327.457	852.06
327.686	994.06
327.914	666.06
328.143	463.06
328.372	398.06
328.6	378.06
328.829	366.06
329.058	369.06
329.287	372.06
329.515	369.06
329.744	343.06
329.972	332.06
330.201	366.06
330.43	362.06
330.658	386.06
330.887	401.06
331.115	394.06
331.344	342.06
331.572	329.06
331.801	331.06
332.03	335.06
332.258	333.06
332.486	308.06
332.715	289.06
332.943	306.06
333.172	315.06
333.4	296.06
333.629	312.06
333.857	313.06
334.085	329.06
334.314	333.06
334.542	350.06
334.771	357.06
334.999	352.06
335.227	311.06
335.455	310.06
335.684	309.06
335.912	301.06
336.14	313.06
336.369	305.06
336.597	304.06
336.825	311.06
337.053	284.06
337.281	295.06
337.51	289.06
337.738	306.06
337.966	301.06
338.194	314.06
338.422	311.06
338.65	300.06
338.878	284.06
339.106	287.06
339.334	306.06
339.562	310.06
339.79	312.06
340.018	304.06
340.246	301.06
340.474	285.06
340.702	295.06
340.93	292.06
341.158	286.06
341.386	301.06
341.614	293.06
341.842	296.06
342.07	294.06
342.298	291.06
342.526	296.06
342.754	305.06
342.981	282.06
343.209	285.06
343.437	297.06
343.665	280.06
343.893	304.06
344.12	322.06
344.348	294.06
344.576	300.06
344.804	288.06
345.031	310.06
345.259	314.06
345.487	316.06
345.714	293.06
345.942	295.06
346.17	297.06
346.397	290.06
346.625	284.06
346.853	269.06
347.08	291.06
347.308	290.06
347.535	321.06
347.763	318.06
347.99	303.06
348.218	281.06
348.445	297.06
348.673	289.06
348.9	283.06
349.128	269.06
349.355	260.06
349.583	292.06
349.81	285.06
350.037	281.06
350.265	287.06
350.492	279.06
350.72	281.06
350.947	273.06
351.174	281.06
351.402	305.06
351.629	292.06
351.856	278.06
352.083	301.06
352.311	296.06
352.538	309.06
352.765	295.06
352.992	294.06
353.22	294.06
353.447	278.06
353.674	287.06
353.901	272.06
354.128	285.06
354.355	280.06
354.583	285.06
354.81	269.06
355.037	266.06
355.264	256.06
355.491	274.06
355.718	276.06
355.945	287.06
356.172	265.06
356.399	283.06
356.626	282.06
356.853	274.06
357.08	288.06
357.307	255.06
357.534	266.06
357.761	287.06
357.988	280.06
358.215	292.06
358.441	282.06
358.668	265.06
358.895	300.06
359.122	281.06
359.349	284.06
359.576	275.06
359.802	309.06
360.029	309.06
360.256	298.06
360.483	315.06
360.709	296.06
360.936	325.06
361.163	306.06
361.39	285.06
361.616	294.06
361.843	296.06
362.07	295.06
362.296	314.06
362.523	300.06
362.749	286.06
362.976	281.06
363.203	276.06
363.429	278.06
363.656	281.06
363.882	267.06
364.109	280.06
364.335	302.06
364.562	273.06
364.788	295.06
365.015	291.06
365.241	286.06
365.468	294.06
365.694	286.06
365.92	300.06
366.147	286.06
366.373	285.06
366.599	279.06
366.826	288.06
367.052	278.06
367.278	286.06
367.505	294.06
367.731	278.06
367.957	277.06
368.184	294.06
368.41	303.06
368.636	279.06
368.862	282.06
369.089	288.06
369.315	272.06
369.541	289.06
369.767	278.06
369.993	289.06
370.219	265.06
370.445	287.06
370.672	265.06
370.898	281.06
371.124	288.06
371.35	289.06
371.576	272.06
371.802	287.06
372.028	304.06
372.254	289.06
372.48	279.06
372.706	260.06
372.932	295.06
373.158	274.06
373.384	271.06
373.61	313.06
373.835	295.06
374.061	297.06
374.287	302.06
374.513	291.06
374.739	289.06
374.965	276.06
375.191	287.06
375.416	297.06
375.642	283.06
375.868	306.06
376.094	296.06
376.319	280.06
376.545	274.06
376.771	286.06
376.997	291.06
377.222	282.06
377.448	290.06
377.674	287.06
377.899	277.06
378.125	306.06
378.35	287.06
378.576	271.06
378.802	277.06
379.027	278.06
379.253	277.06
379.478	262.06
379.704	265.06
379.929	268.06
380.155	288.06
380.38	274.06
380.606	279.06
380.831	278.06
381.057	306.06
381.282	296.06
381.507	288.06
381.733	292.06
381.958	278.06
382.184	287.06
382.409	295.06
382.634	289.06
382.86	291.06
383.085	301.06
383.31	290.06
383.535	290.06
383.761	293.06
383.986	297.06
384.211	312.06
384.436	310.06
384.662	296.06
384.887	300.06
385.112	319.06
385.337	290.06
385.562	317.06
385.787	329.06
386.013	331.06
386.238	324.06
386.463	338.06
386.688	309.06
386.913	320.06
387.138	296.06
387.363	301.06
387.588	289.06
387.813	309.06
388.038	304.06
388.263	321.06
388.488	311.06
388.713	284.06
388.938	311.06
389.163	326.06
389.387	326.06
389.612	324.06
389.837	317.06
390.062	287.06
390.287	316.06
390.512	309.06
390.736	297.06
390.961	314.06
391.186	303.06
391.411	303.06
391.636	304.06
391.86	313.06
392.085	306.06
392.31	297.06
392.534	309.06
392.759	314.06
392.984	325.06
393.208	290.06
393.433	344.06
393.658	329.06
393.882	328.06
394.107	299.06
394.331	316.06
394.556	302.06
394.78	314.06
395.005	327.06
395.229	322.06
395.454	310.06
395.678	330.06
395.903	321.06
396.127	335.06
396.352	345.06
396.576	324.06
396.801	318.06
397.025	350.06
397.249	325.06
397.474	328.06
397.698	348.06
397.922	348.06
398.147	355.06
398.371	356.06
398.595	356.06
398.82	340.06
399.044	357.06
399.268	348.06
399.492	378.06
399.717	367.06
399.941	396.06
400.165	415.06
400.389	446.06
400.613	405.06
400.837	378.06
401.062	364.06
401.286	373.06
401.51	357.06
401.734	349.06
401.958	351.06
402.182	364.06
402.406	358.06
402.63	372.06
402.854	358.06
403.078	365.06
403.302	352.06
403.526	364.06
403.75	356.06
403.974	354.06
404.198	357.06
404.422	377.06
404.645	370.06
404.869	375.06
405.093	387.06
405.317	414.06
405.541	448.06
405.765	404.06
405.988	372.06
406.212	387.06
406.436	388.06
406.66	393.06
406.883	404.06
407.107	403.06
407.331	419.06
407.555	454.06
407.778	452.06
408.002	437.06
408.226	407.06
408.449	407.06
408.673	380.06
408.896	422.06
409.12	446.06
409.344	424.06
409.567	388.06
409.791	392.06
410.014	381.06
410.238	360.06
410.461	376.06
410.685	370.06
410.908	386.06
411.132	416.06
411.355	433.06
411.578	381.06
411.802	377.06
412.025	357.06
412.249	378.06
412.472	378.06
412.695	396.06
412.919	413.06
413.142	393.06
413.365	345.06
413.589	349.06
413.812	351.06
414.035	350.06
414.258	364.06
414.482	359.06
414.705	356.06
414.928	357.06
415.151	334.06
415.374	328.06
415.597	349.06
415.821	351.06
416.044	335.06
416.267	362.06
416.49	341.06
416.713	352.06
416.936	336.06
417.159	344.06
417.382	351.06
417.605	349.06
417.828	352.06
418.051	352.06
418.274	355.06
418.497	340.06
418.72	358.06
418.943	354.06
419.166	340.06
419.389	360.06
419.611	352.06
419.834	369.06
420.057	387.06
420.28	364.06
420.503	368.06
420.726	360.06
420.948	373.06
421.171	405.06
421.394	401.06
421.617	363.06
421.839	376.06
422.062	362.06
422.285	380.06
422.507	396.06
422.73	437.06
422.953	415.06
423.175	376.06
423.398	394.06
423.621	359.06
423.843	392.06
424.066	363.06
424.288	386.06
424.511	389.06
424.733	423.06
424.956	494.06
425.178	477.06
425.401	468.06
425.623	461.06
425.846	432.06
426.068	407.06
426.291	376.06
426.513	374.06
426.735	392.06
426.958	435.06
427.18	469.06
427.402	549.06
427.625	595.06
427.847	522.06
428.069	473.06
428.292	417.06
428.514	398.06
428.736	382.06
428.958	378.06
429.181	358.06
429.403	379.06
429.625	384.06
429.847	390.06
430.069	440.06
430.292	423.06
430.514	374.06
430.736	358.06
430.958	366.06
431.18	352.06
431.402	364.06
431.624	362.06
431.846	357.06
432.068	345.06
432.29	318.06
432.512	346.06
432.734	347.06
432.956	352.06
433.178	348.06
433.4	372.06
433.622	352.06
433.844	360.06
434.066	342.06
434.287	340.06
434.509	355.06
434.731	374.06
434.953	350.06
435.175	371.06
435.397	396.06
435.618	383.06
435.84	414.06
436.062	473.06
436.284	512.06
436.505	447.06
436.727	394.06
436.949	375.06
437.17	371.06
437.392	371.06
437.614	398.06
437.835	392.06
438.057	467.06
438.278	539.06
438.5	532.06
438.721	574.06
438.943	535.06
439.165	450.06
439.386	423.06
439.608	380.06
439.829	391.06
440.05	405.06
440.272	427.06
440.493	424.06
440.715	398.06
440.936	379.06
441.158	361.06
441.379	374.06
441.6	380.06
441.822	374.06
442.043	412.06
442.264	471.06
442.486	471.06
442.707	414.06
442.928	402.06
443.149	412.06
443.371	429.06
443.592	433.06
443.813	507.06
444.034	542.06
444.255	457.06
444.476	405.06
444.698	388.06
444.919	399.06
445.14	504.06
445.361	447.06
445.582	418.06
445.803	463.06
446.024	523.06
446.245	539.06
446.466	466.06
446.687	416.06
446.908	389.06
447.129	386.06
447.35	372.06
447.571	350.06
447.792	358.06
448.013	382.06
448.234	385.06
448.455	413.06
448.675	468.06
448.896	560.06
449.117	464.06
449.338	441.06
449.559	542.06
449.779	596.06
450	470.06
450.221	404.06
450.442	350.06
450.662	360.06
450.883	372.06
451.104	366.06
451.324	371.06
451.545	355.06
451.766	340.06
451.986	331.06
452.207	332.06
452.428	348.06
452.648	330.06
452.869	339.06
453.089	330.06
453.31	361.06
453.53	335.06
453.751	338.06
453.971	328.06
454.192	349.06
454.412	326.06
454.633	313.06
454.853	327.06
455.073	318.06
455.294	328.06
455.514	380.06
455.734	377.06
455.955	343.06
456.175	317.06
456.395	310.06
456.616	312.06
456.836	327.06
457.056	336.06
457.276	297.06
457.497	321.06
457.717	322.06
457.937	311.06
458.157	341.06
458.377	325.06
458.598	326.06
458.818	359.06
459.038	402.06
459.258	428.06
459.478	367.06
459.698	353.06
459.918	351.06
460.138	343.06
460.358	340.06
460.578	345.06
460.798	340.06
461.018	357.06
461.238	338.06
461.458	376.06
461.678	338.06
461.898	352.06
462.118	367.06
462.338	365.06
462.558	384.06
462.777	372.06
462.997	364.06
463.217	371.06
463.437	391.06
463.657	381.06
463.876	374.06
464.096	382.06
464.316	378.06
464.536	364.06
464.755	393.06
464.975	376.06
465.195	387.06
465.414	431.06
465.634	400.06
465.854	368.06
466.073	360.06
466.293	359.06
466.512	357.06
466.732	355.06
466.951	356.06
467.171	364.06
467.391	328.06
467.61	333.06
467.829	370.06
468.049	347.06
468.268	344.06
468.488	349.06
468.707	361.06
468.927	344.06
469.146	327.06
469.365	348.06
469.585	321.06
469.804	358.06
470.023	348.06
470.243	330.06
470.462	348.06
470.681	367.06
470.901	354.06
471.12	343.06
471.339	334.06
471.558	354.06
471.777	332.06
471.997	345.06
472.216	348.06
472.435	376.06
472.654	357.06
472.873	353.06
473.092	333.06
473.311	352.06
473.53	339.06
473.749	343.06
473.968	399.06
474.187	422.06
474.406	446.06
474.625	388.06
474.844	371.06
475.063	356.06
475.282	361.06
475.501	339.06
475.72	366.06
475.939	366.06
476.158	354.06
476.377	351.06
476.596	348.06
476.814	369.06
477.033	359.06
477.252	386.06
477.471	365.06
477.69	375.06
477.908	371.06
478.127	381.06
478.346	385.06
478.564	390.06
478.783	399.06
479.002	394.06
479.22	373.06
479.439	393.06
479.658	412.06
479.876	409.06
480.095	414.06
480.313	418.06
480.532	439.06
480.751	420.06
480.969	436.06
481.188	461.06
481.406	483.06
481.624	453.06
481.843	435.06
482.061	404.06
482.28	406.06
482.498	411.06
482.717	413.06
482.935	408.06
483.153	409.06
483.372	406.06
483.59	406.06
483.808	392.06
484.027	402.06
484.245	417.06
484.463	405.06
484.681	417.06
484.9	391.06
485.118	417.06
485.336	425.06
485.554	410.06
485.772	432.06
485.99	421.06
486.209	434.06
486.427	414.06
486.645	418.06
486.863	434.06
487.081	428.06
487.299	422.06
487.517	438.06
487.735	453.06
487.953	441.06
488.171	440.06
488.389	447.06
488.607	452.06
488.825	433.06
489.043	442.06
489.261	434.06
489.479	435.06
489.696	440.06
489.914	437.06
490.132	445.06
490.35	450.06
490.568	449.06
490.786	430.06
491.003	451.06
491.221	453.06
491.439	478.06
491.657	474.06
491.874	458.06
492.092	477.06
492.31	483.06
492.527	496.06
492.745	494.06
492.963	491.06
493.18	499.06
493.398	511.06
493.615	471.06
493.833	498.06
494.05	497.06
494.268	496.06
494.485	514.06
494.703	503.06
494.92	504.06
495.138	501.06
495.355	509.06
495.573	510.06
495.79	504.06
496.008	509.06
496.225	523.06
496.442	492.06
496.66	524.06
496.877	510.06
497.094	526.06
497.312	532.06
497.529	516.06
497.746	552.06
497.963	552.06
498.181	558.06
498.398	564.06
498.615	561.06
498.832	580.06
499.049	586.06
499.267	593.06
499.484	597.06
499.701	604.06
499.918	633.06
500.135	636.06
500.352	647.06
500.569	654.06
500.786	654.06
501.003	679.06
501.22	633.06
501.437	631.06
501.654	621.06
501.871	624.06
502.088	610.06
502.305	582.06
502.522	591.06
502.739	582.06
502.956	544.06
503.172	540.06
503.389	500.06
503.606	523.06
503.823	519.06
504.04	527.06
504.256	521.06
504.473	518.06
504.69	521.06
504.907	522.06
505.123	514.06
505.34	487.06
505.557	488.06
505.773	504.06
505.99	509.06
506.207	492.06
506.423	478.06
506.64	468.06
506.856	487.06
507.073	471.06
507.289	456.06
507.506	458.06
507.722	480.06
507.939	492.06
508.155	464.06
508.372	483.06
508.588	457.06
508.805	464.06
509.021	462.06
509.238	447.06
509.454	473.06
509.67	476.06
509.887	459.06
510.103	478.06
510.319	483.06
510.536	532.06
510.752	778.06
510.968	638.06
511.184	482.06
511.401	463.06
511.617	444.06
511.833	445.06
512.049	425.06
512.265	438.06
512.481	432.06
512.698	434.06
512.914	438.06
513.13	438.06
513.346	446.06
513.562	456.06
513.778	436.06
513.994	436.06
514.21	438.06
514.426	432.06
514.642	494.06
514.858	498.06
515.074	529.06
515.29	597.06
515.506	812.06
515.721	700.06
515.937	524.06
516.153	497.06
516.369	479.06
516.585	467.06
516.801	452.06
517.016	442.06
517.232	455.06
517.448	468.06
517.664	457.06
517.879	454.06
518.095	451.06
518.311	457.06
518.527	473.06
518.742	453.06
518.958	457.06
519.173	440.06
519.389	455.06
519.605	433.06
519.82	433.06
520.036	463.06
520.251	476.06
520.467	462.06
520.682	471.06
520.898	484.06
521.113	473.06
521.329	510.06
521.544	530.06
521.76	677.06
521.975	1009.06
522.19	968.06
522.406	599.06
522.621	485.06
522.836	462.06
523.052	428.06
523.267	424.06
523.482	408.06
523.698	424.06
523.913	420.06
524.128	395.06
524.343	400.06
524.559	408.06
524.774	397.06
524.989	418.06
525.204	391.06
525.419	416.06
525.634	380.06
525.849	388.06
526.064	391.06
526.28	404.06
526.495	361.06
526.71	365.06
526.925	370.06
527.14	393.06
527.355	381.06
527.57	378.06
527.785	380.06
527.999	390.06
528.214	383.06
528.429	397.06
528.644	374.06
528.859	378.06
529.074	370.06
529.289	391.06
529.503	414.06
529.718	420.06
529.933	387.06
530.148	400.06
530.363	369.06
530.577	385.06
530.792	377.06
531.007	342.06
531.221	349.06
531.436	346.06
531.651	385.06
531.865	355.06
532.08	367.06
532.295	353.06
532.509	369.06
532.724	361.06
532.938	368.06
533.153	354.06
533.367	349.06
533.582	351.06
533.796	357.06
534.011	355.06
534.225	349.06
534.44	370.06
534.654	350.06
534.868	351.06
535.083	350.06
535.297	344.06
535.511	375.06
535.726	375.06
535.94	349.06
536.154	374.06
536.369	356.06
536.583	368.06
536.797	366.06
537.011	357.06
537.225	359.06
537.44	361.06
537.654	354.06
537.868	361.06
538.082	351.06
538.296	362.06
538.51	335.06
538.724	359.06
538.938	346.06
539.153	342.06
539.367	347.06
539.581	352.06
539.795	342.06
540.009	360.06
540.222	345.06
540.436	329.06
540.65	335.06
540.864	356.06
541.078	368.06
541.292	359.06
541.506	352.06
541.72	349.06
541.934	334.06
542.147	348.06
542.361	341.06
542.575	348.06
542.789	312.06
543.002	364.06
543.216	368.06
543.43	353.06
543.644	351.06
543.857	332.06
544.071	348.06
544.285	335.06
544.498	343.06
544.712	349.06
544.925	356.06
545.139	342.06
545.352	339.06
545.566	325.06
545.779	338.06
545.993	336.06
546.206	351.06
546.42	327.06
546.633	341.06
546.847	337.06
547.06	332.06
547.274	336.06
547.487	343.06
547.7	350.06
547.914	336.06
548.127	339.06
548.34	340.06
548.554	340.06
548.767	341.06
548.98	351.06
549.193	318.06
549.407	316.06
549.62	313.06
549.833	338.06
550.046	340.06
550.259	336.06
550.473	319.06
550.686	320.06
550.899	327.06
551.112	334.06
551.325	318.06
551.538	322.06
551.751	327.06
551.964	334.06
552.177	319.06
552.39	323.06
552.603	326.06
552.816	330.06
553.029	311.06
553.242	330.06
553.455	338.06
553.667	336.06
553.88	330.06
554.093	324.06
554.306	323.06
554.519	340.06
554.732	320.06
554.944	330.06
555.157	319.06
555.37	325.06
555.583	321.06
555.795	337.06
556.008	307.06
556.221	317.06
556.433	295.06
556.646	306.06
556.859	306.06
557.071	293.06
557.284	317.06
557.496	289.06
557.709	310.06
557.921	319.06
558.134	303.06
558.346	297.06
558.559	303.06
558.771	311.06
558.984	314.06
559.196	310.06
559.409	294.06
559.621	303.06
559.833	297.06
560.046	291.06
560.258	303.06
560.47	300.06
560.683	301.06
560.895	293.06
561.107	305.06
561.32	284.06
561.532	301.06
561.744	309.06
561.956	309.06
562.168	312.06
562.381	294.06
562.593	298.06
562.805	298.06
563.017	303.06
563.229	300.06
563.441	297.06
563.653	310.06
563.865	316.06
564.077	308.06
564.289	323.06
564.501	322.06
564.713	294.06
564.925	303.06
565.137	303.06
565.349	312.06
565.561	320.06
565.773	314.06
565.985	336.06
566.197	315.06
566.408	327.06
566.62	353.06
566.832	344.06
567.044	365.06
567.255	365.06
567.467	377.06
567.679	356.06
567.891	346.06
568.102	354.06
568.314	337.06
568.526	344.06
568.737	348.06
568.949	321.06
569.161	313.06
569.372	326.06
569.584	330.06
569.795	311.06
570.007	305.06
570.218	323.06
570.43	322.06
570.641	312.06
570.853	286.06
571.064	295.06
571.276	309.06
571.487	294.06
571.698	288.06
571.91	283.06
572.121	292.06
572.333	284.06
572.544	263.06
572.755	286.06
572.966	293.06
573.178	279.06
573.389	287.06
573.6	275.06
573.811	277.06
574.023	284.06
574.234	274.06
574.445	279.06
574.656	265.06
574.867	265.06
575.078	270.06
575.289	268.06
575.501	285.06
575.712	261.06
575.923	255.06
576.134	259.06
576.345	270.06
576.556	265.06
576.767	244.06
576.978	255.06
577.188	259.06
577.399	268.06
577.61	237.06
577.821	249.06
578.032	269.06
578.243	286.06
578.454	389.06
578.665	314.06
578.875	270.06
579.086	245.06
579.297	229.06
579.508	241.06
579.718	250.06
579.929	229.06
580.14	252.06
580.35	244.06
580.561	248.06
580.772	255.06
580.982	239.06
581.193	250.06
581.403	254.06
581.614	241.06
581.825	251.06
582.035	237.06
582.246	244.06
582.456	248.06
582.667	224.06
582.877	238.06
583.087	252.06
583.298	240.06
583.508	228.06
583.719	242.06
583.929	268.06
584.139	250.06
584.35	254.06
584.56	225.06
584.77	226.06
584.981	241.06
585.191	231.06
585.401	216.06
585.611	232.06
585.821	241.06
586.032	239.06
586.242	231.06
586.452	251.06
586.662	236.06
586.872	225.06
587.082	248.06
587.292	228.06
587.502	206.06
587.713	239.06
587.923	228.06
588.133	227.06
588.343	225.06
588.553	233.06
588.762	238.06
588.972	237.06
589.182	243.06
589.392	254.06
589.602	236.06
589.812	245.06
590.022	225.06
590.232	226.06
590.441	229.06
590.651	233.06
590.861	237.06
591.071	229.06
591.281	231.06
591.49	233.06
591.7	237.06
591.91	255.06
592.119	238.06
592.329	229.06
592.539	242.06
592.748	234.06
592.958	226.06
593.167	239.06
593.377	248.06
593.587	254.06
593.796	233.06
594.006	245.06
594.215	248.06
594.424	254.06
594.634	231.06
594.843	242.06
595.053	240.06
595.262	257.06
595.472	231.06
595.681	218.06
595.89	214.06
596.1	221.06
596.309	210.06
596.518	236.06
596.727	219.06
596.937	220.06
597.146	236.06
597.355	228.06
597.564	211.06
597.774	215.06
597.983	229.06
598.192	209.06
598.401	214.06
598.61	204.06
598.819	208.06
599.028	223.06
599.237	197.06
599.446	239.06
599.655	228.06
599.864	219.06
600.073	210.06
600.282	216.06
600.491	195.06
600.7	222.06
600.909	219.06
601.118	209.06
601.327	207.06
601.536	200.06
601.745	201.06
601.953	197.06
602.162	207.06
602.371	199.06
602.58	211.06
602.789	194.06
602.997	202.06
603.206	212.06
603.415	200.06
603.623	193.06
603.832	200.06
604.041	195.06
604.249	191.06
604.458	209.06
604.666	213.06
604.875	211.06
605.084	207.06
605.292	197.06
605.501	189.06
605.709	202.06
605.918	195.06
606.126	220.06
606.334	197.06
606.543	183.06
606.751	208.06
606.96	197.06
607.168	193.06
607.376	187.06
607.585	189.06
607.793	202.06
608.001	201.06
608.21	197.06
608.418	200.06
608.626	196.06
608.834	205.06
609.043	193.06
609.251	181.06
609.459	183.06
609.667	202.06
609.875	185.06
610.083	202.06
610.291	202.06
610.499	198.06
610.707	195.06
610.916	209.06
611.124	203.06
611.332	194.06
611.54	215.06
611.748	216.06
611.955	200.06
612.163	192.06
612.371	199.06
612.579	208.06
612.787	206.06
612.995	197.06
613.203	211.06
613.411	186.06
613.618	190.06
613.826	181.06
614.034	199.06
614.242	185.06
614.449	186.06
614.657	190.06
614.865	184.06
615.072	194.06
615.28	196.06
615.488	200.06
615.695	198.06
615.903	185.06
616.111	185.06
616.318	192.06
616.526	201.06
616.733	192.06
616.941	183.06
617.148	194.06
617.356	192.06
617.563	197.06
617.771	189.06
617.978	184.06
618.185	189.06
618.393	195.06
618.6	197.06
618.807	185.06
619.015	174.06
619.222	183.06
619.429	177.06
619.637	206.06
619.844	202.06
620.051	178.06
620.258	177.06
620.466	186.06
620.673	188.06
620.88	167.06
621.087	178.06
621.294	190.06
621.501	175.06
621.708	167.06
621.915	174.06
622.122	180.06
622.329	184.06
622.536	184.06
622.743	173.06
622.95	182.06
623.157	154.06
623.364	178.06
623.571	187.06
623.778	180.06
623.985	182.06
624.192	174.06
624.399	170.06
624.606	176.06
624.812	160.06
625.019	162.06
625.226	186.06
625.433	188.06
625.639	168.06
625.846	185.06
626.053	162.06
626.259	172.06
626.466	176.06
626.673	159.06
626.879	176.06
627.086	175.06
627.293	177.06
627.499	175.06
627.706	185.06
627.912	164.06
628.119	168.06
628.325	179.06
628.532	174.06
628.738	155.06
628.945	176.06
629.151	177.06
629.357	167.06
629.564	165.06
629.77	152.06
629.976	166.06
630.183	169.06
630.389	184.06
630.595	166.06
630.802	148.06
631.008	165.06
631.214	166.06
631.42	154.06
631.627	173.06
631.833	173.06
632.039	147.06
632.245	160.06
632.451	172.06
632.657	153.06
632.863	156.06
633.069	153.06
633.275	174.06
633.481	162.06
633.688	160.06
633.893	149.06
634.099	152.06
634.305	158.06
634.511	161.06
634.717	145.06
634.923	149.06
635.129	159.06
635.335	159.06
635.541	145.06
635.747	156.06
635.952	152.06
636.158	156.06
636.364	159.06
636.57	152.06
636.775	162.06
636.981	156.06
637.187	148.06
637.392	135.06
637.598	149.06
637.804	154.06
638.009	160.06
638.215	139.06
638.421	158.06
638.626	150.06
638.832	143.06
639.037	144.06
639.243	148.06
639.448	151.06
639.654	152.06
639.859	134.06
640.065	137.06
640.27	150.06
640.475	142.06
640.681	149.06
640.886	149.06
641.091	139.06
641.297	144.06
641.502	135.06
641.707	149.06
641.913	158.06
642.118	154.06
642.323	147.06
642.528	144.06
642.733	146.06
642.939	137.06
643.144	141.06
643.349	134.06
643.554	139.06
643.759	157.06
643.964	141.06
644.169	142.06
644.374	145.06
644.579	156.06
644.784	149.06
644.989	147.06
645.194	131.06
645.399	154.06
645.604	157.06
645.809	137.06
646.014	136.06
646.219	156.06
646.423	133.06
646.628	143.06
646.833	145.06
647.038	144.06
647.243	145.06
647.447	137.06
647.652	153.06
647.857	139.06
648.062	137.06
648.266	153.06
648.471	142.06
648.676	146.06
648.88	130.06
649.085	159.06
649.289	146.06
649.494	153.06
649.698	167.06
649.903	156.06
650.107	148.06
650.312	155.06
650.516	140.06
650.721	152.06
650.925	153.06
651.13	131.06
651.334	131.06
651.539	122.06
651.743	134.06
651.947	144.06
652.152	139.06
652.356	126.06
652.56	135.06
652.764	138.06
652.969	135.06
653.173	127.06
653.377	113.06
653.581	105.06
653.785	118.06
653.99	122.06
654.194	134.06
654.398	120.06
654.602	117.06
654.806	116.06
655.01	118.06
655.214	128.06
655.418	123.06
655.622	135.06
655.826	134.06
656.03	120.06
656.234	125.06
656.438	124.06
656.642	145.06
656.846	120.06
657.049	122.06
657.253	117.06
657.457	122.06
657.661	112.06
657.865	121.06
658.068	102.06
658.272	110.06
658.476	97.06
658.68	89.06
658.883	100.06
659.087	99.06
659.291	94.06
659.494	110.06
659.698	93.06
659.901	81.06
660.105	94.06
660.309	88.06
660.512	91.06
660.716	101.06
660.919	89.06
661.123	101.06
661.326	93.06
661.53	91.06
661.733	100.06
661.936	92.06
662.14	94.06
662.343	86.06
662.546	98.06
662.75	75.06
662.953	95.06
663.156	80.06
663.36	74.06
663.563	87.06
663.766	75.06
663.969	101.06
664.173	73.06
664.376	94.06
664.579	94.06
664.782	71.06
664.985	79.06
665.188	74.06
665.391	82.06
665.594	86.06
665.797	86.06
666	93.06
666.203	76.06
666.406	90.06
666.609	97.06
666.812	75.06
667.015	71.06
667.218	82.06
667.421	79.06
667.624	75.06
667.827	72.06
668.03	75.06
668.232	92.06
668.435	82.06
668.638	80.06
668.841	87.06
669.043	88.06
669.246	89.06
669.449	76.06
669.651	89.06
669.854	82.06
670.057	86.06
670.259	76.06
670.462	78.06
670.665	89.06
670.867	72.06
671.07	74.06
671.272	92.06
671.475	84.06
671.677	77.06
671.88	82.06
672.082	79.06
672.284	82.06
672.487	75.06
672.689	87.06
672.892	94.06
