Data from 1961.PennyLincolnUp.Lamp.En5.5.200Scan.071719.P1._HRD10591_13-48-40-058.txt Node
Date: Thu Jul 18 13:48:40 EDT 2019
User: cochatt
Spectrometer: HR+D1059
Trigger mode: 1
Integration Time (sec): 1.000000E-1
Scans to average: 1
Electric dark correction enabled: true
Nonlinearity correction enabled: false
Boxcar width: 0
XAxis mode: Wavelengths
Number of Pixels in Spectrum: 2048
>>>>>Begin Spectral Data<<<<<
223.165	-13.31
223.4	-13.31
223.635	-13.31
223.869	-10.31
224.104	-14.31
224.338	-18.31
224.573	-28.31
224.808	-18.31
225.042	-4.31
225.277	-15.31
225.511	-5.31
225.746	23.69
225.98	5.69
226.215	16.69
226.449	20.69
226.683	27.69
226.918	8.69
227.152	24.69
227.387	30.69
227.621	29.69
227.856	52.69
228.09	40.69
228.324	40.69
228.559	47.69
228.793	71.69
229.027	97.69
229.262	99.69
229.496	107.69
229.73	133.69
229.964	159.69
230.199	132.69
230.433	89.69
230.667	109.69
230.901	100.69
231.136	93.69
231.37	94.69
231.604	115.69
231.838	109.69
232.072	105.69
232.306	96.69
232.541	99.69
232.775	102.69
233.009	109.69
233.243	95.69
233.477	117.69
233.711	102.69
233.945	107.69
234.179	121.69
234.413	99.69
234.647	98.69
234.881	113.69
235.115	105.69
235.349	107.69
235.583	116.69
235.817	110.69
236.051	124.69
236.285	114.69
236.519	114.69
236.753	101.69
236.987	132.69
237.221	177.69
237.455	199.69
237.689	165.69
237.922	117.69
238.156	107.69
238.39	119.69
238.624	110.69
238.858	109.69
239.091	119.69
239.325	115.69
239.559	108.69
239.793	117.69
240.027	117.69
240.26	135.69
240.494	146.69
240.728	135.69
240.961	134.69
241.195	128.69
241.429	135.69
241.662	112.69
241.896	129.69
242.13	118.69
242.363	125.69
242.597	129.69
242.83	125.69
243.064	126.69
243.298	113.69
243.531	102.69
243.765	131.69
243.998	125.69
244.232	112.69
244.465	129.69
244.699	123.69
244.932	116.69
245.166	129.69
245.399	120.69
245.633	137.69
245.866	139.69
246.099	104.69
246.333	131.69
246.566	123.69
246.8	129.69
247.033	147.69
247.266	116.69
247.5	131.69
247.733	155.69
247.966	139.69
248.2	135.69
248.433	144.69
248.666	145.69
248.899	161.69
249.133	169.69
249.366	201.69
249.599	188.69
249.832	173.69
250.066	163.69
250.299	158.69
250.532	164.69
250.765	178.69
250.998	198.69
251.231	194.69
251.465	185.69
251.698	165.69
251.931	180.69
252.164	172.69
252.397	159.69
252.63	164.69
252.863	179.69
253.096	201.69
253.329	189.69
253.562	195.69
253.795	180.69
254.028	171.69
254.261	182.69
254.494	199.69
254.727	200.69
254.96	231.69
255.193	230.69
255.426	214.69
255.659	191.69
255.892	209.69
256.124	205.69
256.357	198.69
256.59	195.69
256.823	189.69
257.056	192.69
257.289	198.69
257.521	193.69
257.754	185.69
257.987	188.69
258.22	177.69
258.452	179.69
258.685	176.69
258.918	181.69
259.151	185.69
259.383	184.69
259.616	199.69
259.849	202.69
260.081	199.69
260.314	190.69
260.547	222.69
260.779	212.69
261.012	207.69
261.244	190.69
261.477	190.69
261.71	190.69
261.942	199.69
262.175	199.69
262.407	183.69
262.64	189.69
262.872	185.69
263.105	170.69
263.337	186.69
263.57	168.69
263.802	174.69
264.035	182.69
264.267	191.69
264.499	166.69
264.732	162.69
264.964	183.69
265.197	190.69
265.429	177.69
265.661	193.69
265.894	182.69
266.126	176.69
266.358	180.69
266.591	188.69
266.823	194.69
267.055	198.69
267.287	188.69
267.52	191.69
267.752	177.69
267.984	188.69
268.216	189.69
268.448	192.69
268.681	206.69
268.913	212.69
269.145	222.69
269.377	238.69
269.609	216.69
269.841	211.69
270.073	243.69
270.306	231.69
270.538	262.69
270.77	252.69
271.002	246.69
271.234	240.69
271.466	247.69
271.698	259.69
271.93	259.69
272.162	272.69
272.394	285.69
272.626	258.69
272.858	235.69
273.09	256.69
273.322	229.69
273.553	223.69
273.785	232.69
274.017	222.69
274.249	215.69
274.481	207.69
274.713	231.69
274.945	215.69
275.176	215.69
275.408	216.69
275.64	225.69
275.872	199.69
276.104	225.69
276.335	224.69
276.567	224.69
276.799	249.69
277.031	265.69
277.262	260.69
277.494	255.69
277.726	255.69
277.957	244.69
278.189	240.69
278.421	218.69
278.652	218.69
278.884	223.69
279.115	214.69
279.347	203.69
279.579	207.69
279.81	218.69
280.042	211.69
280.273	216.69
280.505	208.69
280.736	225.69
280.968	217.69
281.199	212.69
281.431	222.69
281.662	217.69
281.894	228.69
282.125	219.69
282.356	245.69
282.588	271.69
282.819	271.69
283.051	230.69
283.282	212.69
283.513	223.69
283.745	226.69
283.976	233.69
284.207	225.69
284.439	217.69
284.67	214.69
284.901	236.69
285.132	227.69
285.364	219.69
285.595	241.69
285.826	226.69
286.057	228.69
286.288	215.69
286.52	228.69
286.751	221.69
286.982	226.69
287.213	220.69
287.444	236.69
287.675	239.69
287.906	230.69
288.138	248.69
288.369	241.69
288.6	236.69
288.831	248.69
289.062	228.69
289.293	231.69
289.524	253.69
289.755	231.69
289.986	229.69
290.217	245.69
290.448	233.69
290.679	235.69
290.91	243.69
291.141	226.69
291.371	224.69
291.602	228.69
291.833	221.69
292.064	231.69
292.295	222.69
292.526	209.69
292.757	235.69
292.987	225.69
293.218	219.69
293.449	238.69
293.68	237.69
293.91	235.69
294.141	237.69
294.372	242.69
294.603	231.69
294.833	241.69
295.064	215.69
295.295	241.69
295.525	222.69
295.756	247.69
295.987	260.69
296.217	273.69
296.448	268.69
296.679	253.69
296.909	237.69
297.14	224.69
297.37	229.69
297.601	230.69
297.831	249.69
298.062	237.69
298.292	244.69
298.523	268.69
298.753	241.69
298.984	265.69
299.214	249.69
299.445	242.69
299.675	250.69
299.905	263.69
300.136	246.69
300.366	261.69
300.597	241.69
300.827	260.69
301.057	243.69
301.288	265.69
301.518	259.69
301.748	261.69
301.979	262.69
302.209	262.69
302.439	274.69
302.669	251.69
302.9	266.69
303.13	253.69
303.36	273.69
303.59	273.69
303.82	260.69
304.051	271.69
304.281	276.69
304.511	243.69
304.741	263.69
304.971	240.69
305.201	271.69
305.431	253.69
305.661	268.69
305.891	274.69
306.121	283.69
306.352	266.69
306.582	267.69
306.812	260.69
307.042	277.69
307.272	258.69
307.502	275.69
307.731	281.69
307.961	256.69
308.191	263.69
308.421	265.69
308.651	284.69
308.881	259.69
309.111	281.69
309.341	285.69
309.571	285.69
309.8	299.69
310.03	300.69
310.26	324.69
310.49	311.69
310.72	337.69
310.949	354.69
311.179	351.69
311.409	315.69
311.639	315.69
311.868	317.69
312.098	320.69
312.328	320.69
312.557	338.69
312.787	353.69
313.017	319.69
313.246	320.69
313.476	314.69
313.706	319.69
313.935	320.69
314.165	318.69
314.394	349.69
314.624	327.69
314.853	324.69
315.083	321.69
315.312	318.69
315.542	311.69
315.771	305.69
316.001	307.69
316.23	299.69
316.46	310.69
316.689	305.69
316.919	329.69
317.148	320.69
317.377	326.69
317.607	328.69
317.836	340.69
318.065	318.69
318.295	325.69
318.524	307.69
318.753	297.69
318.983	318.69
319.212	312.69
319.441	310.69
319.67	316.69
319.9	324.69
320.129	329.69
320.358	304.69
320.587	333.69
320.816	326.69
321.046	330.69
321.275	353.69
321.504	323.69
321.733	347.69
321.962	356.69
322.191	339.69
322.42	375.69
322.649	392.69
322.878	414.69
323.108	419.69
323.337	438.69
323.566	457.69
323.795	489.69
324.024	542.69
324.253	693.69
324.482	1031.69
324.71	1641.69
324.939	2229.69
325.168	1863.69
325.397	969.69
325.626	653.69
325.855	529.69
326.084	485.69
326.313	465.69
326.542	466.69
326.77	513.69
326.999	637.69
327.228	906.69
327.457	1431.69
327.686	1656.69
327.914	1083.69
328.143	732.69
328.372	622.69
328.6	563.69
328.829	545.69
329.058	552.69
329.287	547.69
329.515	487.69
329.744	467.69
329.972	477.69
330.201	485.69
330.43	543.69
330.658	549.69
330.887	575.69
331.115	553.69
331.344	486.69
331.572	445.69
331.801	447.69
332.03	433.69
332.258	416.69
332.486	391.69
332.715	391.69
332.943	365.69
333.172	399.69
333.4	367.69
333.629	385.69
333.857	403.69
334.085	417.69
334.314	429.69
334.542	459.69
334.771	472.69
334.999	409.69
335.227	404.69
335.455	364.69
335.684	378.69
335.912	381.69
336.14	357.69
336.369	366.69
336.597	405.69
336.825	375.69
337.053	365.69
337.281	378.69
337.51	352.69
337.738	352.69
337.966	369.69
338.194	379.69
338.422	356.69
338.65	375.69
338.878	371.69
339.106	341.69
339.334	339.69
339.562	356.69
339.79	339.69
340.018	338.69
340.246	371.69
340.474	358.69
340.702	365.69
340.93	354.69
341.158	354.69
341.386	338.69
341.614	351.69
341.842	359.69
342.07	345.69
342.298	354.69
342.526	336.69
342.754	339.69
342.981	335.69
343.209	328.69
343.437	327.69
343.665	350.69
343.893	357.69
344.12	353.69
344.348	346.69
344.576	351.69
344.804	365.69
345.031	367.69
345.259	385.69
345.487	375.69
345.714	360.69
345.942	347.69
346.17	348.69
346.397	342.69
346.625	343.69
346.853	325.69
347.08	336.69
347.308	361.69
347.535	343.69
347.763	380.69
347.99	381.69
348.218	365.69
348.445	368.69
348.673	354.69
348.9	358.69
349.128	353.69
349.355	342.69
349.583	337.69
349.81	338.69
350.037	329.69
350.265	353.69
350.492	343.69
350.72	326.69
350.947	340.69
351.174	349.69
351.402	376.69
351.629	358.69
351.856	356.69
352.083	360.69
352.311	363.69
352.538	377.69
352.765	361.69
352.992	351.69
353.22	358.69
353.447	345.69
353.674	333.69
353.901	325.69
354.128	329.69
354.355	328.69
354.583	317.69
354.81	336.69
355.037	325.69
355.264	319.69
355.491	319.69
355.718	292.69
355.945	318.69
356.172	307.69
356.399	311.69
356.626	331.69
356.853	314.69
357.08	328.69
357.307	310.69
357.534	319.69
357.761	309.69
357.988	323.69
358.215	311.69
358.441	317.69
358.668	310.69
358.895	315.69
359.122	305.69
359.349	348.69
359.576	352.69
359.802	359.69
360.029	399.69
360.256	417.69
360.483	383.69
360.709	364.69
360.936	342.69
361.163	347.69
361.39	350.69
361.616	356.69
361.843	341.69
362.07	358.69
362.296	359.69
362.523	337.69
362.749	352.69
362.976	353.69
363.203	327.69
363.429	325.69
363.656	335.69
363.882	327.69
364.109	342.69
364.335	342.69
364.562	327.69
364.788	313.69
365.015	336.69
365.241	333.69
365.468	343.69
365.694	354.69
365.92	336.69
366.147	317.69
366.373	323.69
366.599	324.69
366.826	328.69
367.052	330.69
367.278	332.69
367.505	317.69
367.731	318.69
367.957	310.69
368.184	315.69
368.41	334.69
368.636	350.69
368.862	333.69
369.089	335.69
369.315	337.69
369.541	333.69
369.767	326.69
369.993	325.69
370.219	336.69
370.445	332.69
370.672	328.69
370.898	327.69
371.124	295.69
371.35	311.69
371.576	313.69
371.802	312.69
372.028	312.69
372.254	319.69
372.48	327.69
372.706	304.69
372.932	316.69
373.158	312.69
373.384	342.69
373.61	336.69
373.835	329.69
374.061	321.69
374.287	337.69
374.513	333.69
374.739	331.69
374.965	332.69
375.191	307.69
375.416	316.69
375.642	303.69
375.868	326.69
376.094	321.69
376.319	323.69
376.545	334.69
376.771	320.69
376.997	342.69
377.222	323.69
377.448	340.69
377.674	312.69
377.899	296.69
378.125	314.69
378.35	325.69
378.576	310.69
378.802	318.69
379.027	327.69
379.253	309.69
379.478	313.69
379.704	312.69
379.929	331.69
380.155	316.69
380.38	334.69
380.606	319.69
380.831	306.69
381.057	330.69
381.282	338.69
381.507	316.69
381.733	319.69
381.958	303.69
382.184	325.69
382.409	326.69
382.634	326.69
382.86	326.69
383.085	333.69
383.31	319.69
383.535	336.69
383.761	322.69
383.986	327.69
384.211	321.69
384.436	329.69
384.662	335.69
384.887	354.69
385.112	327.69
385.337	325.69
385.562	330.69
385.787	350.69
386.013	358.69
386.238	356.69
386.463	335.69
386.688	352.69
386.913	343.69
387.138	342.69
387.363	321.69
387.588	318.69
387.813	334.69
388.038	347.69
388.263	312.69
388.488	339.69
388.713	349.69
388.938	339.69
389.163	339.69
389.387	349.69
389.612	347.69
389.837	328.69
390.062	349.69
390.287	360.69
390.512	353.69
390.736	333.69
390.961	339.69
391.186	342.69
391.411	340.69
391.636	351.69
391.86	354.69
392.085	355.69
392.31	343.69
392.534	352.69
392.759	347.69
392.984	371.69
393.208	341.69
393.433	331.69
393.658	336.69
393.882	350.69
394.107	345.69
394.331	341.69
394.556	330.69
394.78	338.69
395.005	344.69
395.229	353.69
395.454	360.69
395.678	373.69
395.903	372.69
396.127	376.69
396.352	375.69
396.576	367.69
396.801	356.69
397.025	365.69
397.249	360.69
397.474	367.69
397.698	371.69
397.922	390.69
398.147	376.69
398.371	388.69
398.595	369.69
398.82	388.69
399.044	394.69
399.268	379.69
399.492	400.69
399.717	404.69
399.941	443.69
400.165	467.69
400.389	472.69
400.613	445.69
400.837	416.69
401.062	421.69
401.286	399.69
401.51	395.69
401.734	388.69
401.958	389.69
402.182	374.69
402.406	401.69
402.63	387.69
402.854	390.69
403.078	394.69
403.302	369.69
403.526	399.69
403.75	429.69
403.974	396.69
404.198	386.69
404.422	411.69
404.645	432.69
404.869	427.69
405.093	447.69
405.317	477.69
405.541	499.69
405.765	452.69
405.988	445.69
406.212	441.69
406.436	457.69
406.66	464.69
406.883	444.69
407.107	457.69
407.331	489.69
407.555	564.69
407.778	519.69
408.002	507.69
408.226	461.69
408.449	456.69
408.673	457.69
408.896	468.69
409.12	511.69
409.344	457.69
409.567	441.69
409.791	417.69
410.014	408.69
410.238	404.69
410.461	414.69
410.685	432.69
410.908	417.69
411.132	463.69
411.355	472.69
411.578	467.69
411.802	428.69
412.025	438.69
412.249	441.69
412.472	435.69
412.695	455.69
412.919	469.69
413.142	429.69
413.365	422.69
413.589	397.69
413.812	393.69
414.035	387.69
414.258	380.69
414.482	398.69
414.705	383.69
414.928	389.69
415.151	391.69
415.374	373.69
415.597	404.69
415.821	390.69
416.044	390.69
416.267	391.69
416.49	386.69
416.713	379.69
416.936	385.69
417.159	373.69
417.382	401.69
417.605	372.69
417.828	390.69
418.051	413.69
418.274	376.69
418.497	363.69
418.72	392.69
418.943	385.69
419.166	413.69
419.389	413.69
419.611	408.69
419.834	413.69
420.057	405.69
420.28	427.69
420.503	422.69
420.726	438.69
420.948	420.69
421.171	472.69
421.394	481.69
421.617	436.69
421.839	423.69
422.062	406.69
422.285	423.69
422.507	470.69
422.73	532.69
422.953	509.69
423.175	448.69
423.398	440.69
423.621	409.69
423.843	433.69
424.066	447.69
424.288	435.69
424.511	463.69
424.733	499.69
424.956	585.69
425.178	561.69
425.401	555.69
425.623	563.69
425.846	488.69
426.068	482.69
426.291	459.69
426.513	444.69
426.735	465.69
426.958	513.69
427.18	565.69
427.402	676.69
427.625	781.69
427.847	681.69
428.069	585.69
428.292	534.69
428.514	477.69
428.736	451.69
428.958	431.69
429.181	436.69
429.403	423.69
429.625	441.69
429.847	486.69
430.069	522.69
430.292	507.69
430.514	435.69
430.736	405.69
430.958	409.69
431.18	384.69
431.402	401.69
431.624	363.69
431.846	393.69
432.068	382.69
432.29	411.69
432.512	397.69
432.734	393.69
432.956	399.69
433.178	397.69
433.4	405.69
433.622	421.69
433.844	394.69
434.066	388.69
434.287	387.69
434.509	405.69
434.731	396.69
434.953	395.69
435.175	420.69
435.397	461.69
435.618	454.69
435.84	489.69
436.062	581.69
436.284	606.69
436.505	524.69
436.727	484.69
436.949	432.69
437.17	433.69
437.392	420.69
437.614	433.69
437.835	484.69
438.057	555.69
438.278	646.69
438.5	637.69
438.721	706.69
438.943	647.69
439.165	522.69
439.386	470.69
439.608	461.69
439.829	483.69
440.05	517.69
440.272	538.69
440.493	521.69
440.715	451.69
440.936	440.69
441.158	419.69
441.379	424.69
441.6	429.69
441.822	463.69
442.043	487.69
442.264	571.69
442.486	577.69
442.707	524.69
442.928	470.69
443.149	472.69
443.371	511.69
443.592	533.69
443.813	609.69
444.034	640.69
444.255	522.69
444.476	470.69
444.698	453.69
444.919	477.69
445.14	552.69
445.361	506.69
445.582	509.69
445.803	559.69
446.024	645.69
446.245	648.69
446.466	609.69
446.687	517.69
446.908	464.69
447.129	437.69
447.35	447.69
447.571	442.69
447.792	432.69
448.013	436.69
448.234	454.69
448.455	495.69
448.675	587.69
448.896	700.69
449.117	587.69
449.338	576.69
449.559	638.69
449.779	727.69
450	583.69
450.221	475.69
450.442	446.69
450.662	438.69
450.883	447.69
451.104	444.69
451.324	428.69
451.545	415.69
451.766	382.69
451.986	385.69
452.207	395.69
452.428	376.69
452.648	388.69
452.869	407.69
453.089	392.69
453.31	395.69
453.53	391.69
453.751	372.69
453.971	396.69
454.192	424.69
454.412	412.69
454.633	401.69
454.853	383.69
455.073	380.69
455.294	404.69
455.514	468.69
455.734	461.69
455.955	395.69
456.175	346.69
456.395	366.69
456.616	359.69
456.836	359.69
457.056	364.69
457.276	344.69
457.497	373.69
457.717	357.69
457.937	371.69
458.157	344.69
458.377	371.69
458.598	383.69
458.818	449.69
459.038	534.69
459.258	518.69
459.478	441.69
459.698	401.69
459.918	379.69
460.138	393.69
460.358	395.69
460.578	389.69
460.798	417.69
461.018	399.69
461.238	385.69
461.458	369.69
461.678	397.69
461.898	382.69
462.118	391.69
462.338	407.69
462.558	398.69
462.777	395.69
462.997	400.69
463.217	398.69
463.437	413.69
463.657	416.69
463.876	423.69
464.096	435.69
464.316	423.69
464.536	428.69
464.755	420.69
464.975	428.69
465.195	495.69
465.414	573.69
465.634	473.69
465.854	443.69
466.073	422.69
466.293	399.69
466.512	394.69
466.732	402.69
466.951	375.69
467.171	392.69
467.391	401.69
467.61	389.69
467.829	419.69
468.049	402.69
468.268	391.69
468.488	383.69
468.707	399.69
468.927	387.69
469.146	379.69
469.365	383.69
469.585	371.69
469.804	394.69
470.023	380.69
470.243	406.69
470.462	403.69
470.681	416.69
470.901	426.69
471.12	411.69
471.339	400.69
471.558	409.69
471.777	408.69
471.997	399.69
472.216	413.69
472.435	449.69
472.654	422.69
472.873	434.69
473.092	403.69
473.311	395.69
473.53	428.69
473.749	397.69
473.968	429.69
474.187	544.69
474.406	561.69
474.625	443.69
474.844	415.69
475.063	412.69
475.282	401.69
475.501	386.69
475.72	411.69
475.939	413.69
476.158	418.69
476.377	404.69
476.596	397.69
476.814	393.69
477.033	407.69
477.252	430.69
477.471	420.69
477.69	425.69
477.908	428.69
478.127	432.69
478.346	408.69
478.564	403.69
478.783	426.69
479.002	433.69
479.22	435.69
479.439	438.69
479.658	476.69
479.876	486.69
480.095	495.69
480.313	496.69
480.532	495.69
480.751	482.69
480.969	515.69
481.188	563.69
481.406	603.69
481.624	527.69
481.843	497.69
482.061	475.69
482.28	492.69
482.498	461.69
482.717	482.69
482.935	462.69
483.153	453.69
483.372	463.69
483.59	453.69
483.808	455.69
484.027	466.69
484.245	460.69
484.463	464.69
484.681	478.69
484.9	463.69
485.118	465.69
485.336	468.69
485.554	482.69
485.772	480.69
485.99	480.69
486.209	486.69
486.427	476.69
486.645	486.69
486.863	520.69
487.081	497.69
487.299	502.69
487.517	497.69
487.735	484.69
487.953	495.69
488.171	511.69
488.389	473.69
488.607	491.69
488.825	488.69
489.043	515.69
489.261	530.69
489.479	496.69
489.696	494.69
489.914	517.69
490.132	484.69
490.35	530.69
490.568	539.69
490.786	536.69
491.003	522.69
491.221	534.69
491.439	556.69
491.657	563.69
491.874	563.69
492.092	572.69
492.31	569.69
492.527	576.69
492.745	565.69
492.963	572.69
493.18	569.69
493.398	599.69
493.615	613.69
493.833	596.69
494.05	573.69
494.268	587.69
494.485	560.69
494.703	579.69
494.92	597.69
495.138	586.69
495.355	583.69
495.573	585.69
495.79	611.69
496.008	599.69
496.225	610.69
496.442	598.69
496.66	582.69
496.877	611.69
497.094	605.69
497.312	615.69
497.529	616.69
497.746	596.69
497.963	629.69
498.181	632.69
498.398	640.69
498.615	643.69
498.832	646.69
499.049	660.69
499.267	659.69
499.484	666.69
499.701	678.69
499.918	696.69
500.135	666.69
500.352	743.69
500.569	742.69
500.786	757.69
501.003	743.69
501.22	711.69
501.437	727.69
501.654	724.69
501.871	724.69
502.088	698.69
502.305	659.69
502.522	655.69
502.739	647.69
502.956	627.69
503.172	607.69
503.389	616.69
503.606	640.69
503.823	597.69
504.04	607.69
504.256	596.69
504.473	606.69
504.69	578.69
504.907	587.69
505.123	582.69
505.34	579.69
505.557	577.69
505.773	594.69
505.99	563.69
506.207	580.69
506.423	586.69
506.64	568.69
506.856	577.69
507.073	560.69
507.289	551.69
507.506	563.69
507.722	569.69
507.939	585.69
508.155	557.69
508.372	557.69
508.588	556.69
508.805	532.69
509.021	574.69
509.238	565.69
509.454	569.69
509.67	580.69
509.887	541.69
510.103	533.69
510.319	585.69
510.536	688.69
510.752	1203.69
510.968	949.69
511.184	617.69
511.401	591.69
511.617	563.69
511.833	531.69
512.049	522.69
512.265	532.69
512.481	517.69
512.698	511.69
512.914	539.69
513.13	530.69
513.346	541.69
513.562	521.69
513.778	537.69
513.994	559.69
514.21	581.69
514.426	578.69
514.642	623.69
514.858	691.69
515.074	695.69
515.29	845.69
515.506	1295.69
515.721	1053.69
515.937	695.69
516.153	612.69
516.369	613.69
516.585	584.69
516.801	529.69
517.016	567.69
517.232	539.69
517.448	539.69
517.664	539.69
517.879	553.69
518.095	520.69
518.311	525.69
518.527	534.69
518.742	548.69
518.958	501.69
519.173	541.69
519.389	547.69
519.605	540.69
519.82	532.69
520.036	569.69
520.251	574.69
520.467	606.69
520.682	581.69
520.898	617.69
521.113	653.69
521.329	685.69
521.544	796.69
521.76	1051.69
521.975	1766.69
522.19	1699.69
522.406	900.69
522.621	649.69
522.836	596.69
523.052	559.69
523.267	547.69
523.482	521.69
523.698	508.69
523.913	500.69
524.128	503.69
524.343	478.69
524.559	467.69
524.774	482.69
524.989	460.69
525.204	480.69
525.419	467.69
525.634	458.69
525.849	472.69
526.064	442.69
526.28	437.69
526.495	453.69
526.71	436.69
526.925	429.69
527.14	438.69
527.355	456.69
527.57	430.69
527.785	435.69
527.999	429.69
528.214	423.69
528.429	432.69
528.644	435.69
528.859	420.69
529.074	436.69
529.289	457.69
529.503	546.69
529.718	540.69
529.933	464.69
530.148	437.69
530.363	447.69
530.577	447.69
530.792	440.69
531.007	425.69
531.221	420.69
531.436	411.69
531.651	416.69
531.865	418.69
532.08	391.69
532.295	400.69
532.509	397.69
532.724	417.69
532.938	420.69
533.153	419.69
533.367	407.69
533.582	398.69
533.796	393.69
534.011	415.69
534.225	409.69
534.44	398.69
534.654	416.69
534.868	393.69
535.083	407.69
535.297	406.69
535.511	406.69
535.726	414.69
535.94	423.69
536.154	400.69
536.369	392.69
536.583	403.69
536.797	398.69
537.011	399.69
537.225	410.69
537.44	399.69
537.654	386.69
537.868	385.69
538.082	396.69
538.296	378.69
538.51	384.69
538.724	386.69
538.938	384.69
539.153	368.69
539.367	392.69
539.581	420.69
539.795	407.69
540.009	396.69
540.222	390.69
540.436	378.69
540.65	405.69
540.864	392.69
541.078	400.69
541.292	402.69
541.506	379.69
541.72	383.69
541.934	395.69
542.147	408.69
542.361	378.69
542.575	384.69
542.789	379.69
543.002	405.69
543.216	397.69
543.43	400.69
543.644	398.69
543.857	392.69
544.071	369.69
544.285	403.69
544.498	383.69
544.712	371.69
544.925	401.69
545.139	373.69
545.352	390.69
545.566	370.69
545.779	370.69
545.993	359.69
546.206	390.69
546.42	376.69
546.633	357.69
546.847	344.69
547.06	377.69
547.274	377.69
547.487	374.69
547.7	355.69
547.914	368.69
548.127	357.69
548.34	367.69
548.554	341.69
548.767	371.69
548.98	381.69
549.193	371.69
549.407	359.69
549.62	363.69
549.833	356.69
550.046	362.69
550.259	358.69
550.473	359.69
550.686	354.69
550.899	348.69
551.112	353.69
551.325	369.69
551.538	358.69
551.751	353.69
551.964	366.69
552.177	356.69
552.39	348.69
552.603	366.69
552.816	344.69
553.029	335.69
553.242	358.69
553.455	366.69
553.667	386.69
553.88	364.69
554.093	381.69
554.306	376.69
554.519	364.69
554.732	366.69
554.944	363.69
555.157	343.69
555.37	347.69
555.583	337.69
555.795	336.69
556.008	335.69
556.221	353.69
556.433	340.69
556.646	328.69
556.859	336.69
557.071	339.69
557.284	326.69
557.496	339.69
557.709	336.69
557.921	337.69
558.134	333.69
558.346	329.69
558.559	335.69
558.771	315.69
558.984	315.69
559.196	300.69
559.409	332.69
559.621	336.69
559.833	325.69
560.046	322.69
560.258	342.69
560.47	317.69
560.683	328.69
560.895	314.69
561.107	336.69
561.32	322.69
561.532	318.69
561.744	289.69
561.956	317.69
562.168	335.69
562.381	304.69
562.593	312.69
562.805	322.69
563.017	338.69
563.229	316.69
563.441	308.69
563.653	323.69
563.865	324.69
564.077	318.69
564.289	322.69
564.501	339.69
564.713	339.69
564.925	333.69
565.137	346.69
565.349	355.69
565.561	313.69
565.773	331.69
565.985	333.69
566.197	350.69
566.408	335.69
566.62	359.69
566.832	352.69
567.044	354.69
567.255	364.69
567.467	369.69
567.679	359.69
567.891	379.69
568.102	371.69
568.314	372.69
568.526	360.69
568.737	366.69
568.949	340.69
569.161	332.69
569.372	333.69
569.584	328.69
569.795	318.69
570.007	333.69
570.218	365.69
570.43	360.69
570.641	318.69
570.853	315.69
571.064	296.69
571.276	312.69
571.487	310.69
571.698	303.69
571.91	311.69
572.121	319.69
572.333	309.69
572.544	276.69
572.755	289.69
572.966	294.69
573.178	292.69
573.389	280.69
573.6	279.69
573.811	279.69
574.023	269.69
574.234	281.69
574.445	288.69
574.656	271.69
574.867	273.69
575.078	287.69
575.289	276.69
575.501	283.69
575.712	273.69
575.923	282.69
576.134	288.69
576.345	279.69
576.556	258.69
576.767	279.69
576.978	277.69
577.188	301.69
577.399	257.69
577.61	289.69
577.821	295.69
578.032	287.69
578.243	328.69
578.454	564.69
578.665	405.69
578.875	295.69
579.086	277.69
579.297	272.69
579.508	271.69
579.718	271.69
579.929	261.69
580.14	240.69
580.35	263.69
580.561	257.69
580.772	271.69
580.982	253.69
581.193	255.69
581.403	254.69
581.614	275.69
581.825	251.69
582.035	255.69
582.246	262.69
582.456	253.69
582.667	240.69
582.877	253.69
583.087	240.69
583.298	245.69
583.508	240.69
583.719	261.69
583.929	255.69
584.139	247.69
584.35	244.69
584.56	255.69
584.77	247.69
584.981	244.69
585.191	248.69
585.401	268.69
585.611	255.69
585.821	252.69
586.032	228.69
586.242	255.69
586.452	261.69
586.662	247.69
586.872	246.69
587.082	242.69
587.292	249.69
587.502	228.69
587.713	249.69
587.923	262.69
588.133	242.69
588.343	225.69
588.553	236.69
588.762	241.69
588.972	247.69
589.182	253.69
589.392	263.69
589.602	232.69
589.812	245.69
590.022	240.69
590.232	242.69
590.441	235.69
590.651	254.69
590.861	241.69
591.071	240.69
591.281	242.69
591.49	257.69
591.7	231.69
591.91	257.69
592.119	254.69
592.329	249.69
592.539	261.69
592.748	255.69
592.958	249.69
593.167	253.69
593.377	250.69
593.587	263.69
593.796	257.69
594.006	253.69
594.215	260.69
594.424	242.69
594.634	239.69
594.843	232.69
595.053	229.69
595.262	256.69
595.472	261.69
595.681	256.69
595.89	218.69
596.1	232.69
596.309	236.69
596.518	237.69
596.727	234.69
596.937	228.69
597.146	233.69
597.355	226.69
597.564	220.69
597.774	239.69
597.983	228.69
598.192	220.69
598.401	219.69
598.61	227.69
598.819	233.69
599.028	226.69
599.237	219.69
599.446	227.69
599.655	212.69
599.864	229.69
600.073	218.69
600.282	211.69
600.491	221.69
600.7	218.69
600.909	214.69
601.118	213.69
601.327	218.69
601.536	217.69
601.745	201.69
601.953	201.69
602.162	201.69
602.371	205.69
602.58	217.69
602.789	212.69
602.997	224.69
603.206	226.69
603.415	231.69
603.623	212.69
603.832	209.69
604.041	196.69
604.249	202.69
604.458	218.69
604.666	204.69
604.875	220.69
605.084	213.69
605.292	202.69
605.501	205.69
605.709	215.69
605.918	200.69
606.126	219.69
606.334	211.69
606.543	217.69
606.751	223.69
606.96	194.69
607.168	201.69
607.376	216.69
607.585	202.69
607.793	206.69
608.001	204.69
608.21	182.69
608.418	193.69
608.626	208.69
608.834	194.69
609.043	199.69
609.251	211.69
609.459	203.69
609.667	190.69
609.875	207.69
610.083	199.69
610.291	200.69
610.499	230.69
610.707	201.69
610.916	207.69
611.124	197.69
611.332	204.69
611.54	195.69
611.748	203.69
611.955	183.69
612.163	207.69
612.371	199.69
612.579	193.69
612.787	194.69
612.995	189.69
613.203	209.69
613.411	210.69
613.618	214.69
613.826	202.69
614.034	196.69
614.242	188.69
614.449	188.69
614.657	220.69
614.865	201.69
615.072	200.69
615.28	200.69
615.488	201.69
615.695	196.69
615.903	193.69
616.111	182.69
616.318	196.69
616.526	212.69
616.733	192.69
616.941	182.69
617.148	189.69
617.356	184.69
617.563	187.69
617.771	191.69
617.978	188.69
618.185	190.69
618.393	204.69
618.6	185.69
618.807	197.69
619.015	197.69
619.222	175.69
619.429	199.69
619.637	193.69
619.844	191.69
620.051	199.69
620.258	191.69
620.466	198.69
620.673	189.69
620.88	192.69
621.087	185.69
621.294	189.69
621.501	189.69
621.708	196.69
621.915	196.69
622.122	181.69
622.329	192.69
622.536	184.69
622.743	179.69
622.95	182.69
623.157	179.69
623.364	184.69
623.571	190.69
623.778	188.69
623.985	192.69
624.192	206.69
624.399	189.69
624.606	155.69
624.812	190.69
625.019	181.69
625.226	181.69
625.433	185.69
625.639	192.69
625.846	189.69
626.053	201.69
626.259	173.69
626.466	192.69
626.673	183.69
626.879	180.69
627.086	184.69
627.293	184.69
627.499	181.69
627.706	166.69
627.912	173.69
628.119	154.69
628.325	185.69
628.532	176.69
628.738	182.69
628.945	177.69
629.151	175.69
629.357	170.69
629.564	154.69
629.77	174.69
629.976	181.69
630.183	179.69
630.389	168.69
630.595	158.69
630.802	161.69
631.008	167.69
631.214	153.69
631.42	176.69
631.627	164.69
631.833	164.69
632.039	167.69
632.245	175.69
632.451	175.69
632.657	171.69
632.863	159.69
633.069	159.69
633.275	157.69
633.481	150.69
633.688	158.69
633.893	155.69
634.099	159.69
634.305	164.69
634.511	168.69
634.717	160.69
634.923	174.69
635.129	160.69
635.335	152.69
635.541	163.69
635.747	158.69
635.952	172.69
636.158	169.69
636.364	169.69
636.57	165.69
636.775	172.69
636.981	155.69
637.187	168.69
637.392	159.69
637.598	168.69
637.804	159.69
638.009	153.69
638.215	155.69
638.421	133.69
638.626	155.69
638.832	150.69
639.037	152.69
639.243	142.69
639.448	145.69
639.654	154.69
639.859	166.69
640.065	160.69
640.27	143.69
640.475	140.69
640.681	153.69
640.886	153.69
641.091	155.69
641.297	144.69
641.502	157.69
641.707	147.69
641.913	141.69
642.118	156.69
642.323	148.69
642.528	147.69
642.733	144.69
642.939	140.69
643.144	151.69
643.349	154.69
643.554	131.69
643.759	141.69
643.964	155.69
644.169	143.69
644.374	144.69
644.579	143.69
644.784	140.69
644.989	150.69
645.194	147.69
645.399	157.69
645.604	159.69
645.809	143.69
646.014	146.69
646.219	145.69
646.423	161.69
646.628	171.69
646.833	150.69
647.038	146.69
647.243	142.69
647.447	146.69
647.652	137.69
647.857	145.69
648.062	157.69
648.266	156.69
648.471	152.69
648.676	155.69
648.88	143.69
649.085	137.69
649.289	135.69
649.494	163.69
649.698	191.69
649.903	166.69
650.107	152.69
650.312	158.69
650.516	152.69
650.721	144.69
650.925	142.69
651.13	137.69
651.334	141.69
651.539	152.69
651.743	127.69
651.947	141.69
652.152	131.69
652.356	137.69
652.56	124.69
652.764	120.69
652.969	133.69
653.173	134.69
653.377	140.69
653.581	114.69
653.785	125.69
653.99	131.69
654.194	121.69
654.398	132.69
654.602	137.69
654.806	123.69
655.01	129.69
655.214	136.69
655.418	121.69
655.622	122.69
655.826	123.69
656.03	117.69
656.234	115.69
656.438	126.69
656.642	122.69
656.846	106.69
657.049	113.69
657.253	112.69
657.457	111.69
657.661	93.69
657.865	122.69
658.068	109.69
658.272	105.69
658.476	98.69
658.68	111.69
658.883	94.69
659.087	87.69
659.291	92.69
659.494	100.69
659.698	104.69
659.901	92.69
660.105	90.69
660.309	95.69
660.512	102.69
660.716	87.69
660.919	89.69
661.123	84.69
661.326	89.69
661.53	90.69
661.733	77.69
661.936	83.69
662.14	87.69
662.343	81.69
662.546	95.69
662.75	77.69
662.953	90.69
663.156	85.69
663.36	70.69
663.563	89.69
663.766	73.69
663.969	91.69
664.173	85.69
664.376	82.69
664.579	81.69
664.782	84.69
664.985	92.69
665.188	72.69
665.391	91.69
665.594	84.69
665.797	89.69
666	76.69
666.203	76.69
666.406	84.69
666.609	91.69
666.812	97.69
667.015	62.69
667.218	85.69
667.421	72.69
667.624	100.69
667.827	89.69
668.03	79.69
668.232	61.69
668.435	85.69
668.638	90.69
668.841	90.69
669.043	71.69
669.246	67.69
669.449	85.69
669.651	89.69
669.854	86.69
670.057	85.69
670.259	86.69
670.462	89.69
670.665	78.69
670.867	79.69
671.07	78.69
671.272	76.69
671.475	72.69
671.677	80.69
671.88	73.69
672.082	70.69
672.284	70.69
672.487	87.69
672.689	77.69
672.892	79.69
