Data from 1961.PennyLincolnUp.Lamp.En5.5.200Scan.071719.P1._HRD10591_13-48-37-059.txt Node
Date: Thu Jul 18 13:48:37 EDT 2019
User: cochatt
Spectrometer: HR+D1059
Trigger mode: 1
Integration Time (sec): 1.000000E-1
Scans to average: 1
Electric dark correction enabled: true
Nonlinearity correction enabled: false
Boxcar width: 0
XAxis mode: Wavelengths
Number of Pixels in Spectrum: 2048
>>>>>Begin Spectral Data<<<<<
223.165	-26.25
223.4	-26.25
223.635	-26.25
223.869	-26.25
224.104	-12.25
224.338	-5.25
224.573	-5.25
224.808	-11.25
225.042	-1.25
225.277	-13.25
225.511	3.75
225.746	-16.25
225.98	11.75
226.215	8.75
226.449	24.75
226.683	15.75
226.918	33.75
227.152	18.75
227.387	32.75
227.621	46.75
227.856	47.75
228.09	49.75
228.324	55.75
228.559	65.75
228.793	61.75
229.027	105.75
229.262	100.75
229.496	108.75
229.73	130.75
229.964	137.75
230.199	130.75
230.433	122.75
230.667	98.75
230.901	109.75
231.136	123.75
231.37	122.75
231.604	106.75
231.838	99.75
232.072	111.75
232.306	101.75
232.541	110.75
232.775	104.75
233.009	101.75
233.243	121.75
233.477	116.75
233.711	109.75
233.945	109.75
234.179	100.75
234.413	100.75
234.647	116.75
234.881	105.75
235.115	108.75
235.349	114.75
235.583	125.75
235.817	125.75
236.051	121.75
236.285	122.75
236.519	118.75
236.753	111.75
236.987	136.75
237.221	167.75
237.455	214.75
237.689	166.75
237.922	140.75
238.156	133.75
238.39	126.75
238.624	126.75
238.858	120.75
239.091	125.75
239.325	118.75
239.559	128.75
239.793	127.75
240.027	122.75
240.26	138.75
240.494	157.75
240.728	136.75
240.961	127.75
241.195	153.75
241.429	138.75
241.662	127.75
241.896	124.75
242.13	119.75
242.363	139.75
242.597	141.75
242.83	129.75
243.064	129.75
243.298	137.75
243.531	130.75
243.765	126.75
243.998	127.75
244.232	133.75
244.465	129.75
244.699	137.75
244.932	134.75
245.166	121.75
245.399	138.75
245.633	125.75
245.866	131.75
246.099	136.75
246.333	150.75
246.566	128.75
246.8	133.75
247.033	141.75
247.266	143.75
247.5	163.75
247.733	154.75
247.966	144.75
248.2	140.75
248.433	134.75
248.666	155.75
248.899	153.75
249.133	174.75
249.366	186.75
249.599	172.75
249.832	161.75
250.066	167.75
250.299	171.75
250.532	181.75
250.765	188.75
250.998	204.75
251.231	178.75
251.465	205.75
251.698	190.75
251.931	190.75
252.164	170.75
252.397	149.75
252.63	172.75
252.863	189.75
253.096	194.75
253.329	196.75
253.562	187.75
253.795	199.75
254.028	174.75
254.261	195.75
254.494	202.75
254.727	231.75
254.96	229.75
255.193	241.75
255.426	215.75
255.659	203.75
255.892	193.75
256.124	204.75
256.357	214.75
256.59	201.75
256.823	192.75
257.056	182.75
257.289	188.75
257.521	181.75
257.754	182.75
257.987	187.75
258.22	178.75
258.452	173.75
258.685	200.75
258.918	166.75
259.151	205.75
259.383	199.75
259.616	204.75
259.849	195.75
260.081	185.75
260.314	217.75
260.547	230.75
260.779	203.75
261.012	211.75
261.244	200.75
261.477	193.75
261.71	202.75
261.942	209.75
262.175	232.75
262.407	204.75
262.64	187.75
262.872	178.75
263.105	194.75
263.337	188.75
263.57	187.75
263.802	191.75
264.035	195.75
264.267	174.75
264.499	191.75
264.732	177.75
264.964	191.75
265.197	177.75
265.429	195.75
265.661	185.75
265.894	186.75
266.126	174.75
266.358	173.75
266.591	178.75
266.823	205.75
267.055	183.75
267.287	186.75
267.52	191.75
267.752	178.75
267.984	199.75
268.216	191.75
268.448	189.75
268.681	203.75
268.913	228.75
269.145	224.75
269.377	249.75
269.609	216.75
269.841	231.75
270.073	223.75
270.306	243.75
270.538	268.75
270.77	279.75
271.002	245.75
271.234	258.75
271.466	257.75
271.698	274.75
271.93	280.75
272.162	278.75
272.394	281.75
272.626	255.75
272.858	229.75
273.09	255.75
273.322	245.75
273.553	218.75
273.785	226.75
274.017	218.75
274.249	231.75
274.481	207.75
274.713	220.75
274.945	225.75
275.176	231.75
275.408	228.75
275.64	214.75
275.872	218.75
276.104	225.75
276.335	220.75
276.567	238.75
276.799	260.75
277.031	248.75
277.262	260.75
277.494	270.75
277.726	253.75
277.957	257.75
278.189	255.75
278.421	226.75
278.652	242.75
278.884	219.75
279.115	210.75
279.347	229.75
279.579	219.75
279.81	225.75
280.042	219.75
280.273	229.75
280.505	224.75
280.736	227.75
280.968	223.75
281.199	227.75
281.431	239.75
281.662	233.75
281.894	230.75
282.125	238.75
282.356	241.75
282.588	269.75
282.819	282.75
283.051	243.75
283.282	229.75
283.513	241.75
283.745	229.75
283.976	225.75
284.207	243.75
284.439	253.75
284.67	234.75
284.901	241.75
285.132	230.75
285.364	235.75
285.595	218.75
285.826	221.75
286.057	227.75
286.288	235.75
286.52	250.75
286.751	238.75
286.982	239.75
287.213	224.75
287.444	262.75
287.675	249.75
287.906	242.75
288.138	245.75
288.369	243.75
288.6	262.75
288.831	250.75
289.062	255.75
289.293	258.75
289.524	236.75
289.755	238.75
289.986	228.75
290.217	230.75
290.448	228.75
290.679	245.75
290.91	238.75
291.141	243.75
291.371	225.75
291.602	228.75
291.833	249.75
292.064	229.75
292.295	247.75
292.526	242.75
292.757	238.75
292.987	239.75
293.218	234.75
293.449	249.75
293.68	238.75
293.91	235.75
294.141	243.75
294.372	247.75
294.603	265.75
294.833	235.75
295.064	251.75
295.295	243.75
295.525	257.75
295.756	252.75
295.987	251.75
296.217	272.75
296.448	277.75
296.679	259.75
296.909	239.75
297.14	258.75
297.37	237.75
297.601	254.75
297.831	243.75
298.062	250.75
298.292	255.75
298.523	254.75
298.753	238.75
298.984	260.75
299.214	257.75
299.445	271.75
299.675	261.75
299.905	237.75
300.136	252.75
300.366	248.75
300.597	261.75
300.827	252.75
301.057	276.75
301.288	278.75
301.518	263.75
301.748	292.75
301.979	267.75
302.209	292.75
302.439	281.75
302.669	293.75
302.9	276.75
303.13	269.75
303.36	251.75
303.59	293.75
303.82	283.75
304.051	284.75
304.281	259.75
304.511	275.75
304.741	266.75
304.971	274.75
305.201	273.75
305.431	278.75
305.661	271.75
305.891	264.75
306.121	265.75
306.352	279.75
306.582	297.75
306.812	273.75
307.042	269.75
307.272	274.75
307.502	280.75
307.731	279.75
307.961	289.75
308.191	275.75
308.421	265.75
308.651	277.75
308.881	284.75
309.111	300.75
309.341	295.75
309.571	293.75
309.8	298.75
310.03	322.75
310.26	325.75
310.49	326.75
310.72	323.75
310.949	342.75
311.179	353.75
311.409	327.75
311.639	331.75
311.868	310.75
312.098	346.75
312.328	344.75
312.557	346.75
312.787	363.75
313.017	347.75
313.246	338.75
313.476	329.75
313.706	318.75
313.935	336.75
314.165	345.75
314.394	340.75
314.624	341.75
314.853	335.75
315.083	321.75
315.312	301.75
315.542	313.75
315.771	318.75
316.001	309.75
316.23	315.75
316.46	308.75
316.689	319.75
316.919	318.75
317.148	326.75
317.377	330.75
317.607	316.75
317.836	326.75
318.065	319.75
318.295	301.75
318.524	313.75
318.753	317.75
318.983	321.75
319.212	328.75
319.441	335.75
319.67	328.75
319.9	329.75
320.129	317.75
320.358	322.75
320.587	332.75
320.816	332.75
321.046	343.75
321.275	340.75
321.504	360.75
321.733	356.75
321.962	358.75
322.191	374.75
322.42	392.75
322.649	383.75
322.878	394.75
323.108	419.75
323.337	442.75
323.566	475.75
323.795	502.75
324.024	564.75
324.253	693.75
324.482	1005.75
324.71	1623.75
324.939	2247.75
325.168	1859.75
325.397	960.75
325.626	645.75
325.855	542.75
326.084	476.75
326.313	465.75
326.542	461.75
326.77	541.75
326.999	655.75
327.228	900.75
327.457	1395.75
327.686	1650.75
327.914	1090.75
328.143	723.75
328.372	617.75
328.6	572.75
328.829	510.75
329.058	542.75
329.287	550.75
329.515	522.75
329.744	478.75
329.972	482.75
330.201	486.75
330.43	555.75
330.658	579.75
330.887	580.75
331.115	558.75
331.344	492.75
331.572	446.75
331.801	448.75
332.03	454.75
332.258	425.75
332.486	415.75
332.715	401.75
332.943	399.75
333.172	381.75
333.4	391.75
333.629	400.75
333.857	407.75
334.085	430.75
334.314	437.75
334.542	483.75
334.771	503.75
334.999	420.75
335.227	407.75
335.455	395.75
335.684	383.75
335.912	362.75
336.14	392.75
336.369	379.75
336.597	376.75
336.825	380.75
337.053	367.75
337.281	373.75
337.51	371.75
337.738	352.75
337.966	382.75
338.194	399.75
338.422	390.75
338.65	373.75
338.878	362.75
339.106	365.75
339.334	364.75
339.562	378.75
339.79	362.75
340.018	356.75
340.246	374.75
340.474	356.75
340.702	360.75
340.93	345.75
341.158	353.75
341.386	360.75
341.614	351.75
341.842	380.75
342.07	347.75
342.298	341.75
342.526	359.75
342.754	353.75
342.981	342.75
343.209	341.75
343.437	350.75
343.665	334.75
343.893	354.75
344.12	363.75
344.348	359.75
344.576	369.75
344.804	361.75
345.031	393.75
345.259	397.75
345.487	398.75
345.714	362.75
345.942	353.75
346.17	359.75
346.397	356.75
346.625	355.75
346.853	355.75
347.08	347.75
347.308	396.75
347.535	373.75
347.763	369.75
347.99	377.75
348.218	354.75
348.445	355.75
348.673	378.75
348.9	369.75
349.128	365.75
349.355	358.75
349.583	317.75
349.81	322.75
350.037	336.75
350.265	357.75
350.492	352.75
350.72	353.75
350.947	350.75
351.174	377.75
351.402	371.75
351.629	357.75
351.856	361.75
352.083	361.75
352.311	380.75
352.538	379.75
352.765	388.75
352.992	377.75
353.22	368.75
353.447	349.75
353.674	358.75
353.901	326.75
354.128	358.75
354.355	339.75
354.583	324.75
354.81	335.75
355.037	317.75
355.264	312.75
355.491	321.75
355.718	297.75
355.945	304.75
356.172	321.75
356.399	336.75
356.626	328.75
356.853	321.75
357.08	331.75
357.307	318.75
357.534	317.75
357.761	326.75
357.988	319.75
358.215	329.75
358.441	311.75
358.668	337.75
358.895	329.75
359.122	334.75
359.349	346.75
359.576	374.75
359.802	374.75
360.029	397.75
360.256	412.75
360.483	394.75
360.709	367.75
360.936	369.75
361.163	339.75
361.39	369.75
361.616	359.75
361.843	344.75
362.07	369.75
362.296	358.75
362.523	347.75
362.749	366.75
362.976	360.75
363.203	353.75
363.429	338.75
363.656	342.75
363.882	360.75
364.109	318.75
364.335	342.75
364.562	315.75
364.788	346.75
365.015	344.75
365.241	334.75
365.468	330.75
365.694	341.75
365.92	343.75
366.147	335.75
366.373	333.75
366.599	334.75
366.826	317.75
367.052	336.75
367.278	313.75
367.505	334.75
367.731	331.75
367.957	331.75
368.184	328.75
368.41	325.75
368.636	350.75
368.862	339.75
369.089	350.75
369.315	330.75
369.541	341.75
369.767	313.75
369.993	334.75
370.219	318.75
370.445	351.75
370.672	343.75
370.898	328.75
371.124	329.75
371.35	349.75
371.576	300.75
371.802	317.75
372.028	304.75
372.254	314.75
372.48	325.75
372.706	314.75
372.932	320.75
373.158	342.75
373.384	330.75
373.61	322.75
373.835	330.75
374.061	309.75
374.287	325.75
374.513	333.75
374.739	337.75
374.965	312.75
375.191	322.75
375.416	334.75
375.642	334.75
375.868	345.75
376.094	315.75
376.319	323.75
376.545	325.75
376.771	339.75
376.997	347.75
377.222	330.75
377.448	322.75
377.674	318.75
377.899	318.75
378.125	311.75
378.35	317.75
378.576	322.75
378.802	319.75
379.027	311.75
379.253	321.75
379.478	322.75
379.704	330.75
379.929	322.75
380.155	323.75
380.38	320.75
380.606	316.75
380.831	330.75
381.057	345.75
381.282	328.75
381.507	333.75
381.733	323.75
381.958	326.75
382.184	332.75
382.409	327.75
382.634	333.75
382.86	329.75
383.085	327.75
383.31	335.75
383.535	342.75
383.761	348.75
383.986	339.75
384.211	332.75
384.436	346.75
384.662	353.75
384.887	341.75
385.112	358.75
385.337	347.75
385.562	361.75
385.787	342.75
386.013	349.75
386.238	347.75
386.463	360.75
386.688	339.75
386.913	345.75
387.138	338.75
387.363	339.75
387.588	355.75
387.813	339.75
388.038	333.75
388.263	350.75
388.488	357.75
388.713	346.75
388.938	354.75
389.163	365.75
389.387	373.75
389.612	342.75
389.837	355.75
390.062	347.75
390.287	347.75
390.512	342.75
390.736	339.75
390.961	348.75
391.186	345.75
391.411	357.75
391.636	352.75
391.86	361.75
392.085	360.75
392.31	365.75
392.534	350.75
392.759	358.75
392.984	354.75
393.208	350.75
393.433	343.75
393.658	369.75
393.882	360.75
394.107	372.75
394.331	347.75
394.556	349.75
394.78	348.75
395.005	358.75
395.229	338.75
395.454	356.75
395.678	355.75
395.903	393.75
396.127	397.75
396.352	390.75
396.576	404.75
396.801	359.75
397.025	357.75
397.249	352.75
397.474	366.75
397.698	367.75
397.922	389.75
398.147	403.75
398.371	399.75
398.595	391.75
398.82	387.75
399.044	401.75
399.268	397.75
399.492	417.75
399.717	437.75
399.941	466.75
400.165	478.75
400.389	476.75
400.613	431.75
400.837	422.75
401.062	410.75
401.286	413.75
401.51	395.75
401.734	398.75
401.958	389.75
402.182	400.75
402.406	404.75
402.63	404.75
402.854	417.75
403.078	412.75
403.302	422.75
403.526	427.75
403.75	396.75
403.974	402.75
404.198	411.75
404.422	419.75
404.645	403.75
404.869	415.75
405.093	454.75
405.317	490.75
405.541	527.75
405.765	474.75
405.988	458.75
406.212	460.75
406.436	497.75
406.66	483.75
406.883	444.75
407.107	460.75
407.331	491.75
407.555	543.75
407.778	591.75
408.002	517.75
408.226	478.75
408.449	445.75
408.673	483.75
408.896	487.75
409.12	523.75
409.344	485.75
409.567	463.75
409.791	453.75
410.014	422.75
410.238	436.75
410.461	437.75
410.685	437.75
410.908	447.75
411.132	457.75
411.355	491.75
411.578	458.75
411.802	444.75
412.025	433.75
412.249	431.75
412.472	442.75
412.695	478.75
412.919	473.75
413.142	435.75
413.365	415.75
413.589	397.75
413.812	383.75
414.035	395.75
414.258	387.75
414.482	387.75
414.705	388.75
414.928	390.75
415.151	387.75
415.374	382.75
415.597	378.75
415.821	401.75
416.044	399.75
416.267	397.75
416.49	399.75
416.713	384.75
416.936	403.75
417.159	379.75
417.382	377.75
417.605	386.75
417.828	413.75
418.051	437.75
418.274	407.75
418.497	408.75
418.72	379.75
418.943	379.75
419.166	421.75
419.389	407.75
419.611	418.75
419.834	406.75
420.057	412.75
420.28	415.75
420.503	424.75
420.726	435.75
420.948	427.75
421.171	462.75
421.394	490.75
421.617	435.75
421.839	418.75
422.062	423.75
422.285	436.75
422.507	494.75
422.73	544.75
422.953	529.75
423.175	456.75
423.398	436.75
423.621	422.75
423.843	462.75
424.066	447.75
424.288	434.75
424.511	490.75
424.733	532.75
424.956	598.75
425.178	567.75
425.401	595.75
425.623	582.75
425.846	502.75
426.068	455.75
426.291	457.75
426.513	443.75
426.735	461.75
426.958	494.75
427.18	574.75
427.402	684.75
427.625	756.75
427.847	693.75
428.069	583.75
428.292	523.75
428.514	458.75
428.736	444.75
428.958	442.75
429.181	458.75
429.403	434.75
429.625	443.75
429.847	474.75
430.069	527.75
430.292	521.75
430.514	444.75
430.736	409.75
430.958	410.75
431.18	413.75
431.402	417.75
431.624	385.75
431.846	421.75
432.068	410.75
432.29	404.75
432.512	402.75
432.734	399.75
432.956	411.75
433.178	421.75
433.4	415.75
433.622	375.75
433.844	419.75
434.066	399.75
434.287	403.75
434.509	401.75
434.731	428.75
434.953	435.75
435.175	418.75
435.397	446.75
435.618	467.75
435.84	488.75
436.062	561.75
436.284	625.75
436.505	521.75
436.727	473.75
436.949	446.75
437.17	423.75
437.392	425.75
437.614	445.75
437.835	483.75
438.057	587.75
438.278	642.75
438.5	653.75
438.721	723.75
438.943	655.75
439.165	535.75
439.386	488.75
439.608	494.75
439.829	487.75
440.05	518.75
440.272	558.75
440.493	522.75
440.715	480.75
440.936	440.75
441.158	434.75
441.379	438.75
441.6	438.75
441.822	457.75
442.043	502.75
442.264	575.75
442.486	607.75
442.707	511.75
442.928	489.75
443.149	475.75
443.371	509.75
443.592	563.75
443.813	638.75
444.034	646.75
444.255	549.75
444.476	484.75
444.698	462.75
444.919	467.75
445.14	554.75
445.361	512.75
445.582	508.75
445.803	590.75
446.024	660.75
446.245	640.75
446.466	614.75
446.687	517.75
446.908	499.75
447.129	455.75
447.35	457.75
447.571	429.75
447.792	430.75
448.013	447.75
448.234	439.75
448.455	513.75
448.675	614.75
448.896	681.75
449.117	599.75
449.338	541.75
449.559	638.75
449.779	730.75
450	569.75
450.221	487.75
450.442	439.75
450.662	411.75
450.883	445.75
451.104	440.75
451.324	423.75
451.545	437.75
451.766	409.75
451.986	413.75
452.207	400.75
452.428	395.75
452.648	402.75
452.869	387.75
453.089	407.75
453.31	403.75
453.53	418.75
453.751	396.75
453.971	403.75
454.192	394.75
454.412	411.75
454.633	398.75
454.853	385.75
455.073	407.75
455.294	424.75
455.514	471.75
455.734	476.75
455.955	401.75
456.175	384.75
456.395	373.75
456.616	383.75
456.836	361.75
457.056	378.75
457.276	360.75
457.497	361.75
457.717	376.75
457.937	385.75
458.157	393.75
458.377	381.75
458.598	410.75
458.818	501.75
459.038	540.75
459.258	558.75
459.478	462.75
459.698	426.75
459.918	434.75
460.138	404.75
460.358	425.75
460.578	405.75
460.798	388.75
461.018	401.75
461.238	407.75
461.458	396.75
461.678	396.75
461.898	404.75
462.118	400.75
462.338	404.75
462.558	429.75
462.777	399.75
462.997	419.75
463.217	411.75
463.437	410.75
463.657	426.75
463.876	432.75
464.096	427.75
464.316	427.75
464.536	405.75
464.755	429.75
464.975	440.75
465.195	481.75
465.414	570.75
465.634	499.75
465.854	449.75
466.073	425.75
466.293	428.75
466.512	411.75
466.732	411.75
466.951	388.75
467.171	392.75
467.391	389.75
467.61	394.75
467.829	412.75
468.049	429.75
468.268	424.75
468.488	429.75
468.707	379.75
468.927	390.75
469.146	397.75
469.365	399.75
469.585	373.75
469.804	381.75
470.023	407.75
470.243	411.75
470.462	414.75
470.681	436.75
470.901	421.75
471.12	412.75
471.339	396.75
471.558	426.75
471.777	398.75
471.997	396.75
472.216	401.75
472.435	458.75
472.654	422.75
472.873	417.75
473.092	385.75
473.311	398.75
473.53	413.75
473.749	435.75
473.968	462.75
474.187	567.75
474.406	561.75
474.625	458.75
474.844	431.75
475.063	414.75
475.282	405.75
475.501	419.75
475.72	410.75
475.939	408.75
476.158	434.75
476.377	413.75
476.596	420.75
476.814	433.75
477.033	420.75
477.252	438.75
477.471	430.75
477.69	425.75
477.908	449.75
478.127	429.75
478.346	423.75
478.564	434.75
478.783	451.75
479.002	438.75
479.22	459.75
479.439	464.75
479.658	501.75
479.876	492.75
480.095	504.75
480.313	501.75
480.532	484.75
480.751	492.75
480.969	489.75
481.188	589.75
481.406	650.75
481.624	541.75
481.843	509.75
482.061	478.75
482.28	471.75
482.498	503.75
482.717	489.75
482.935	480.75
483.153	469.75
483.372	489.75
483.59	484.75
483.808	493.75
484.027	481.75
484.245	489.75
484.463	483.75
484.681	483.75
484.9	485.75
485.118	477.75
485.336	476.75
485.554	473.75
485.772	474.75
485.99	472.75
486.209	491.75
486.427	487.75
486.645	485.75
486.863	531.75
487.081	513.75
487.299	507.75
487.517	523.75
487.735	509.75
487.953	499.75
488.171	479.75
488.389	526.75
488.607	489.75
488.825	522.75
489.043	522.75
489.261	502.75
489.479	524.75
489.696	523.75
489.914	538.75
490.132	540.75
490.35	527.75
490.568	523.75
490.786	524.75
491.003	556.75
491.221	581.75
491.439	581.75
491.657	574.75
491.874	586.75
492.092	592.75
492.31	573.75
492.527	577.75
492.745	582.75
492.963	571.75
493.18	589.75
493.398	604.75
493.615	606.75
493.833	596.75
494.05	595.75
494.268	591.75
494.485	604.75
494.703	579.75
494.92	595.75
495.138	605.75
495.355	591.75
495.573	609.75
495.79	601.75
496.008	622.75
496.225	597.75
496.442	581.75
496.66	601.75
496.877	636.75
497.094	606.75
497.312	613.75
497.529	615.75
497.746	632.75
497.963	641.75
498.181	669.75
498.398	669.75
498.615	648.75
498.832	673.75
499.049	666.75
499.267	688.75
499.484	689.75
499.701	703.75
499.918	731.75
500.135	751.75
500.352	728.75
500.569	777.75
500.786	756.75
501.003	744.75
501.22	723.75
501.437	740.75
501.654	741.75
501.871	745.75
502.088	743.75
502.305	669.75
502.522	655.75
502.739	634.75
502.956	647.75
503.172	617.75
503.389	620.75
503.606	638.75
503.823	642.75
504.04	603.75
504.256	611.75
504.473	607.75
504.69	608.75
504.907	600.75
505.123	593.75
505.34	564.75
505.557	583.75
505.773	593.75
505.99	590.75
506.207	578.75
506.423	587.75
506.64	579.75
506.856	591.75
507.073	582.75
507.289	561.75
507.506	584.75
507.722	598.75
507.939	618.75
508.155	583.75
508.372	590.75
508.588	546.75
508.805	556.75
509.021	573.75
509.238	580.75
509.454	578.75
509.67	577.75
509.887	565.75
510.103	574.75
510.319	593.75
510.536	713.75
510.752	1239.75
510.968	986.75
511.184	608.75
511.401	547.75
511.617	566.75
511.833	567.75
512.049	553.75
512.265	539.75
512.481	541.75
512.698	539.75
512.914	537.75
513.13	536.75
513.346	538.75
513.562	542.75
513.778	541.75
513.994	578.75
514.21	568.75
514.426	593.75
514.642	645.75
514.858	670.75
515.074	730.75
515.29	900.75
515.506	1326.75
515.721	1103.75
515.937	702.75
516.153	653.75
516.369	619.75
516.585	581.75
516.801	573.75
517.016	579.75
517.232	560.75
517.448	568.75
517.664	535.75
517.879	565.75
518.095	533.75
518.311	546.75
518.527	545.75
518.742	539.75
518.958	566.75
519.173	538.75
519.389	518.75
519.605	540.75
519.82	548.75
520.036	586.75
520.251	599.75
520.467	609.75
520.682	614.75
520.898	634.75
521.113	662.75
521.329	709.75
521.544	795.75
521.76	1070.75
521.975	1781.75
522.19	1731.75
522.406	929.75
522.621	677.75
522.836	604.75
523.052	568.75
523.267	539.75
523.482	528.75
523.698	519.75
523.913	523.75
524.128	516.75
524.343	516.75
524.559	482.75
524.774	487.75
524.989	491.75
525.204	476.75
525.419	476.75
525.634	486.75
525.849	453.75
526.064	450.75
526.28	452.75
526.495	449.75
526.71	470.75
526.925	449.75
527.14	422.75
527.355	437.75
527.57	447.75
527.785	459.75
527.999	461.75
528.214	437.75
528.429	456.75
528.644	431.75
528.859	451.75
529.074	425.75
529.289	455.75
529.503	550.75
529.718	542.75
529.933	487.75
530.148	475.75
530.363	458.75
530.577	422.75
530.792	434.75
531.007	418.75
531.221	433.75
531.436	430.75
531.651	435.75
531.865	426.75
532.08	445.75
532.295	413.75
532.509	428.75
532.724	426.75
532.938	419.75
533.153	418.75
533.367	387.75
533.582	409.75
533.796	401.75
534.011	409.75
534.225	395.75
534.44	392.75
534.654	399.75
534.868	404.75
535.083	407.75
535.297	419.75
535.511	412.75
535.726	407.75
535.94	409.75
536.154	433.75
536.369	398.75
536.583	407.75
536.797	398.75
537.011	395.75
537.225	396.75
537.44	408.75
537.654	404.75
537.868	419.75
538.082	403.75
538.296	397.75
538.51	398.75
538.724	385.75
538.938	390.75
539.153	411.75
539.367	405.75
539.581	421.75
539.795	382.75
540.009	375.75
540.222	386.75
540.436	410.75
540.65	398.75
540.864	407.75
541.078	404.75
541.292	410.75
541.506	419.75
541.72	419.75
541.934	413.75
542.147	396.75
542.361	398.75
542.575	398.75
542.789	378.75
543.002	406.75
543.216	403.75
543.43	403.75
543.644	394.75
543.857	401.75
544.071	387.75
544.285	387.75
544.498	399.75
544.712	393.75
544.925	377.75
545.139	392.75
545.352	401.75
545.566	375.75
545.779	361.75
545.993	383.75
546.206	382.75
546.42	385.75
546.633	398.75
546.847	361.75
547.06	357.75
547.274	373.75
547.487	363.75
547.7	360.75
547.914	380.75
548.127	369.75
548.34	378.75
548.554	373.75
548.767	385.75
548.98	380.75
549.193	357.75
549.407	375.75
549.62	388.75
549.833	386.75
550.046	364.75
550.259	348.75
550.473	374.75
550.686	366.75
550.899	400.75
551.112	361.75
551.325	377.75
551.538	352.75
551.751	353.75
551.964	352.75
552.177	371.75
552.39	353.75
552.603	351.75
552.816	387.75
553.029	343.75
553.242	356.75
553.455	373.75
553.667	385.75
553.88	375.75
554.093	360.75
554.306	391.75
554.519	366.75
554.732	357.75
554.944	368.75
555.157	339.75
555.37	354.75
555.583	382.75
555.795	374.75
556.008	347.75
556.221	363.75
556.433	371.75
556.646	348.75
556.859	367.75
557.071	336.75
557.284	321.75
557.496	335.75
557.709	342.75
557.921	319.75
558.134	349.75
558.346	343.75
558.559	346.75
558.771	338.75
558.984	332.75
559.196	339.75
559.409	337.75
559.621	334.75
559.833	329.75
560.046	321.75
560.258	326.75
560.47	334.75
560.683	347.75
560.895	345.75
561.107	341.75
561.32	332.75
561.532	310.75
561.744	331.75
561.956	324.75
562.168	336.75
562.381	350.75
562.593	349.75
562.805	319.75
563.017	310.75
563.229	342.75
563.441	335.75
563.653	339.75
563.865	325.75
564.077	365.75
564.289	324.75
564.501	325.75
564.713	335.75
564.925	359.75
565.137	331.75
565.349	340.75
565.561	354.75
565.773	335.75
565.985	355.75
566.197	354.75
566.408	362.75
566.62	373.75
566.832	383.75
567.044	397.75
567.255	369.75
567.467	373.75
567.679	374.75
567.891	371.75
568.102	358.75
568.314	360.75
568.526	366.75
568.737	357.75
568.949	350.75
569.161	357.75
569.372	345.75
569.584	320.75
569.795	333.75
570.007	332.75
570.218	396.75
570.43	372.75
570.641	322.75
570.853	332.75
571.064	307.75
571.276	317.75
571.487	299.75
571.698	288.75
571.91	284.75
572.121	325.75
572.333	311.75
572.544	305.75
572.755	297.75
572.966	306.75
573.178	307.75
573.389	312.75
573.6	314.75
573.811	297.75
574.023	285.75
574.234	274.75
574.445	294.75
574.656	295.75
574.867	297.75
575.078	285.75
575.289	301.75
575.501	295.75
575.712	288.75
575.923	285.75
576.134	269.75
576.345	296.75
576.556	254.75
576.767	285.75
576.978	283.75
577.188	281.75
577.399	276.75
577.61	285.75
577.821	290.75
578.032	298.75
578.243	320.75
578.454	576.75
578.665	400.75
578.875	313.75
579.086	270.75
579.297	269.75
579.508	289.75
579.718	285.75
579.929	278.75
580.14	258.75
580.35	264.75
580.561	261.75
580.772	270.75
580.982	263.75
581.193	264.75
581.403	268.75
581.614	274.75
581.825	276.75
582.035	263.75
582.246	251.75
582.456	279.75
582.667	269.75
582.877	269.75
583.087	272.75
583.298	249.75
583.508	260.75
583.719	277.75
583.929	286.75
584.139	256.75
584.35	252.75
584.56	241.75
584.77	264.75
584.981	263.75
585.191	259.75
585.401	262.75
585.611	278.75
585.821	269.75
586.032	265.75
586.242	242.75
586.452	257.75
586.662	271.75
586.872	266.75
587.082	263.75
587.292	267.75
587.502	263.75
587.713	265.75
587.923	249.75
588.133	255.75
588.343	253.75
588.553	250.75
588.762	257.75
588.972	249.75
589.182	266.75
589.392	259.75
589.602	254.75
589.812	236.75
590.022	249.75
590.232	271.75
590.441	253.75
590.651	230.75
590.861	261.75
591.071	268.75
591.281	244.75
591.49	253.75
591.7	235.75
591.91	238.75
592.119	257.75
592.329	259.75
592.539	249.75
592.748	265.75
592.958	257.75
593.167	257.75
593.377	252.75
593.587	265.75
593.796	281.75
594.006	269.75
594.215	242.75
594.424	261.75
594.634	255.75
594.843	266.75
595.053	251.75
595.262	233.75
595.472	263.75
595.681	238.75
595.89	248.75
596.1	250.75
596.309	242.75
596.518	232.75
596.727	259.75
596.937	242.75
597.146	234.75
597.355	237.75
597.564	243.75
597.774	225.75
597.983	222.75
598.192	229.75
598.401	228.75
598.61	232.75
598.819	233.75
599.028	218.75
599.237	220.75
599.446	229.75
599.655	242.75
599.864	241.75
600.073	229.75
600.282	224.75
600.491	230.75
600.7	218.75
600.909	211.75
601.118	253.75
601.327	234.75
601.536	210.75
601.745	243.75
601.953	215.75
602.162	241.75
602.371	231.75
602.58	217.75
602.789	221.75
602.997	205.75
603.206	218.75
603.415	212.75
603.623	231.75
603.832	215.75
604.041	206.75
604.249	216.75
604.458	224.75
604.666	210.75
604.875	220.75
605.084	202.75
605.292	217.75
605.501	212.75
605.709	195.75
605.918	195.75
606.126	217.75
606.334	205.75
606.543	204.75
606.751	208.75
606.96	199.75
607.168	213.75
607.376	191.75
607.585	223.75
607.793	209.75
608.001	227.75
608.21	222.75
608.418	202.75
608.626	230.75
608.834	199.75
609.043	214.75
609.251	214.75
609.459	207.75
609.667	233.75
609.875	207.75
610.083	221.75
610.291	205.75
610.499	207.75
610.707	216.75
610.916	208.75
611.124	199.75
611.332	199.75
611.54	222.75
611.748	218.75
611.955	233.75
612.163	217.75
612.371	214.75
612.579	212.75
612.787	204.75
612.995	200.75
613.203	196.75
613.411	198.75
613.618	193.75
613.826	196.75
614.034	202.75
614.242	215.75
614.449	195.75
614.657	198.75
614.865	189.75
615.072	215.75
615.28	213.75
615.488	214.75
615.695	202.75
615.903	213.75
616.111	209.75
616.318	217.75
616.526	212.75
616.733	213.75
616.941	196.75
617.148	209.75
617.356	182.75
617.563	199.75
617.771	187.75
617.978	199.75
618.185	198.75
618.393	212.75
618.6	197.75
618.807	189.75
619.015	209.75
619.222	193.75
619.429	165.75
619.637	197.75
619.844	189.75
620.051	197.75
620.258	200.75
620.466	196.75
620.673	191.75
620.88	182.75
621.087	201.75
621.294	194.75
621.501	204.75
621.708	185.75
621.915	209.75
622.122	199.75
622.329	208.75
622.536	188.75
622.743	169.75
622.95	203.75
623.157	196.75
623.364	189.75
623.571	190.75
623.778	183.75
623.985	190.75
624.192	171.75
624.399	186.75
624.606	196.75
624.812	193.75
625.019	184.75
625.226	191.75
625.433	177.75
625.639	181.75
625.846	170.75
626.053	191.75
626.259	195.75
626.466	197.75
626.673	172.75
626.879	178.75
627.086	189.75
627.293	190.75
627.499	187.75
627.706	183.75
627.912	177.75
628.119	190.75
628.325	185.75
628.532	185.75
628.738	185.75
628.945	167.75
629.151	177.75
629.357	182.75
629.564	180.75
629.77	178.75
629.976	162.75
630.183	184.75
630.389	181.75
630.595	164.75
630.802	177.75
631.008	175.75
631.214	172.75
631.42	175.75
631.627	181.75
631.833	165.75
632.039	178.75
632.245	162.75
632.451	159.75
632.657	180.75
632.863	171.75
633.069	165.75
633.275	178.75
633.481	165.75
633.688	149.75
633.893	179.75
634.099	175.75
634.305	177.75
634.511	165.75
634.717	159.75
634.923	161.75
635.129	157.75
635.335	172.75
635.541	172.75
635.747	168.75
635.952	171.75
636.158	156.75
636.364	166.75
636.57	161.75
636.775	172.75
636.981	182.75
637.187	181.75
637.392	171.75
637.598	153.75
637.804	152.75
638.009	180.75
638.215	151.75
638.421	154.75
638.626	177.75
638.832	151.75
639.037	172.75
639.243	173.75
639.448	164.75
639.654	144.75
639.859	163.75
640.065	149.75
640.27	164.75
640.475	143.75
640.681	175.75
640.886	148.75
641.091	166.75
641.297	177.75
641.502	157.75
641.707	157.75
641.913	141.75
642.118	150.75
642.323	171.75
642.528	155.75
642.733	163.75
642.939	154.75
643.144	151.75
643.349	150.75
643.554	153.75
643.759	151.75
643.964	154.75
644.169	158.75
644.374	146.75
644.579	158.75
644.784	162.75
644.989	156.75
645.194	159.75
645.399	149.75
645.604	131.75
645.809	141.75
646.014	162.75
646.219	131.75
646.423	149.75
646.628	142.75
646.833	145.75
647.038	156.75
647.243	161.75
647.447	146.75
647.652	155.75
647.857	149.75
648.062	154.75
648.266	161.75
648.471	158.75
648.676	153.75
648.88	162.75
649.085	163.75
649.289	167.75
649.494	143.75
649.698	161.75
649.903	172.75
650.107	162.75
650.312	146.75
650.516	152.75
650.721	136.75
650.925	144.75
651.13	147.75
651.334	155.75
651.539	149.75
651.743	130.75
651.947	130.75
652.152	144.75
652.356	135.75
652.56	129.75
652.764	137.75
652.969	142.75
653.173	143.75
653.377	133.75
653.581	113.75
653.785	136.75
653.99	136.75
654.194	144.75
654.398	143.75
654.602	133.75
654.806	117.75
655.01	133.75
655.214	136.75
655.418	135.75
655.622	138.75
655.826	121.75
656.03	119.75
656.234	139.75
656.438	125.75
656.642	135.75
656.846	123.75
657.049	127.75
657.253	127.75
657.457	131.75
657.661	117.75
657.865	101.75
658.068	113.75
658.272	105.75
658.476	88.75
658.68	114.75
658.883	105.75
659.087	114.75
659.291	104.75
659.494	94.75
659.698	89.75
659.901	93.75
660.105	99.75
660.309	105.75
660.512	84.75
660.716	94.75
660.919	92.75
661.123	103.75
661.326	75.75
661.53	82.75
661.733	99.75
661.936	93.75
662.14	79.75
662.343	74.75
662.546	87.75
662.75	94.75
662.953	86.75
663.156	93.75
663.36	86.75
663.563	82.75
663.766	87.75
663.969	85.75
664.173	80.75
664.376	73.75
664.579	70.75
664.782	92.75
664.985	87.75
665.188	91.75
665.391	72.75
665.594	87.75
665.797	87.75
666	89.75
666.203	100.75
666.406	78.75
666.609	85.75
666.812	91.75
667.015	89.75
667.218	82.75
667.421	78.75
667.624	77.75
667.827	76.75
668.03	78.75
668.232	85.75
668.435	89.75
668.638	68.75
668.841	85.75
669.043	84.75
669.246	82.75
669.449	89.75
669.651	77.75
669.854	85.75
670.057	86.75
670.259	88.75
670.462	93.75
670.665	78.75
670.867	75.75
671.07	93.75
671.272	85.75
671.475	78.75
671.677	80.75
671.88	77.75
672.082	75.75
672.284	87.75
672.487	85.75
672.689	73.75
672.892	103.75
