Data from 1961.PennyLincolnUp.Lamp.En5.5.200Scan.071719.P1._HRD10591_13-46-16-057.txt Node
Date: Thu Jul 18 13:46:16 EDT 2019
User: cochatt
Spectrometer: HR+D1059
Trigger mode: 1
Integration Time (sec): 1.000000E-1
Scans to average: 1
Electric dark correction enabled: true
Nonlinearity correction enabled: false
Boxcar width: 0
XAxis mode: Wavelengths
Number of Pixels in Spectrum: 2048
>>>>>Begin Spectral Data<<<<<
223.165	-20.12
223.4	-20.12
223.635	-20.12
223.869	0.88
224.104	-9.12
224.338	-13.12
224.573	-13.12
224.808	-9.12
225.042	-22.12
225.277	-1.12
225.511	0.88
225.746	5.88
225.98	7.88
226.215	3.88
226.449	10.88
226.683	6.88
226.918	21.88
227.152	28.88
227.387	23.88
227.621	42.88
227.856	57.88
228.09	47.88
228.324	43.88
228.559	60.88
228.793	62.88
229.027	78.88
229.262	81.88
229.496	86.88
229.73	109.88
229.964	97.88
230.199	109.88
230.433	107.88
230.667	109.88
230.901	95.88
231.136	90.88
231.37	76.88
231.604	85.88
231.838	98.88
232.072	94.88
232.306	98.88
232.541	102.88
232.775	102.88
233.009	96.88
233.243	96.88
233.477	93.88
233.711	94.88
233.945	94.88
234.179	93.88
234.413	109.88
234.647	90.88
234.881	94.88
235.115	114.88
235.349	93.88
235.583	106.88
235.817	93.88
236.051	103.88
236.285	95.88
236.519	99.88
236.753	98.88
236.987	115.88
237.221	121.88
237.455	158.88
237.689	118.88
237.922	98.88
238.156	113.88
238.39	111.88
238.624	99.88
238.858	103.88
239.091	100.88
239.325	88.88
239.559	86.88
239.793	96.88
240.027	107.88
240.26	106.88
240.494	114.88
240.728	110.88
240.961	95.88
241.195	114.88
241.429	111.88
241.662	87.88
241.896	110.88
242.13	107.88
242.363	97.88
242.597	107.88
242.83	104.88
243.064	106.88
243.298	111.88
243.531	101.88
243.765	93.88
243.998	106.88
244.232	100.88
244.465	101.88
244.699	103.88
244.932	110.88
245.166	116.88
245.399	117.88
245.633	118.88
245.866	119.88
246.099	112.88
246.333	108.88
246.566	129.88
246.8	107.88
247.033	112.88
247.266	119.88
247.5	108.88
247.733	117.88
247.966	117.88
248.2	124.88
248.433	125.88
248.666	117.88
248.899	133.88
249.133	139.88
249.366	139.88
249.599	134.88
249.832	123.88
250.066	142.88
250.299	130.88
250.532	133.88
250.765	147.88
250.998	156.88
251.231	162.88
251.465	152.88
251.698	131.88
251.931	143.88
252.164	150.88
252.397	139.88
252.63	135.88
252.863	145.88
253.096	149.88
253.329	162.88
253.562	156.88
253.795	149.88
254.028	148.88
254.261	158.88
254.494	154.88
254.727	172.88
254.96	195.88
255.193	177.88
255.426	145.88
255.659	149.88
255.892	167.88
256.124	159.88
256.357	163.88
256.59	160.88
256.823	149.88
257.056	158.88
257.289	152.88
257.521	153.88
257.754	153.88
257.987	140.88
258.22	135.88
258.452	148.88
258.685	154.88
258.918	142.88
259.151	152.88
259.383	153.88
259.616	133.88
259.849	142.88
260.081	157.88
260.314	160.88
260.547	163.88
260.779	170.88
261.012	153.88
261.244	162.88
261.477	142.88
261.71	146.88
261.942	155.88
262.175	153.88
262.407	166.88
262.64	154.88
262.872	148.88
263.105	146.88
263.337	153.88
263.57	146.88
263.802	151.88
264.035	160.88
264.267	140.88
264.499	138.88
264.732	152.88
264.964	147.88
265.197	151.88
265.429	142.88
265.661	157.88
265.894	149.88
266.126	158.88
266.358	150.88
266.591	162.88
266.823	155.88
267.055	154.88
267.287	177.88
267.52	171.88
267.752	150.88
267.984	161.88
268.216	167.88
268.448	156.88
268.681	171.88
268.913	154.88
269.145	167.88
269.377	181.88
269.609	173.88
269.841	181.88
270.073	174.88
270.306	180.88
270.538	197.88
270.77	195.88
271.002	182.88
271.234	205.88
271.466	192.88
271.698	203.88
271.93	202.88
272.162	199.88
272.394	200.88
272.626	182.88
272.858	201.88
273.09	177.88
273.322	176.88
273.553	175.88
273.785	175.88
274.017	175.88
274.249	176.88
274.481	163.88
274.713	189.88
274.945	166.88
275.176	175.88
275.408	161.88
275.64	168.88
275.872	164.88
276.104	178.88
276.335	184.88
276.567	174.88
276.799	181.88
277.031	185.88
277.262	193.88
277.494	193.88
277.726	202.88
277.957	192.88
278.189	174.88
278.421	190.88
278.652	179.88
278.884	180.88
279.115	161.88
279.347	177.88
279.579	178.88
279.81	179.88
280.042	197.88
280.273	169.88
280.505	177.88
280.736	177.88
280.968	158.88
281.199	185.88
281.431	187.88
281.662	178.88
281.894	187.88
282.125	157.88
282.356	166.88
282.588	197.88
282.819	197.88
283.051	196.88
283.282	187.88
283.513	187.88
283.745	165.88
283.976	189.88
284.207	179.88
284.439	192.88
284.67	187.88
284.901	194.88
285.132	187.88
285.364	183.88
285.595	201.88
285.826	178.88
286.057	172.88
286.288	189.88
286.52	191.88
286.751	179.88
286.982	177.88
287.213	180.88
287.444	189.88
287.675	173.88
287.906	188.88
288.138	189.88
288.369	198.88
288.6	198.88
288.831	194.88
289.062	187.88
289.293	193.88
289.524	184.88
289.755	181.88
289.986	178.88
290.217	168.88
290.448	200.88
290.679	202.88
290.91	200.88
291.141	189.88
291.371	187.88
291.602	189.88
291.833	181.88
292.064	181.88
292.295	178.88
292.526	183.88
292.757	191.88
292.987	185.88
293.218	169.88
293.449	182.88
293.68	185.88
293.91	192.88
294.141	199.88
294.372	196.88
294.603	201.88
294.833	199.88
295.064	188.88
295.295	204.88
295.525	177.88
295.756	191.88
295.987	192.88
296.217	212.88
296.448	233.88
296.679	203.88
296.909	192.88
297.14	212.88
297.37	203.88
297.601	191.88
297.831	192.88
298.062	216.88
298.292	196.88
298.523	199.88
298.753	211.88
298.984	202.88
299.214	197.88
299.445	206.88
299.675	210.88
299.905	197.88
300.136	198.88
300.366	206.88
300.597	188.88
300.827	200.88
301.057	197.88
301.288	199.88
301.518	197.88
301.748	211.88
301.979	204.88
302.209	210.88
302.439	203.88
302.669	209.88
302.9	227.88
303.13	223.88
303.36	213.88
303.59	209.88
303.82	219.88
304.051	223.88
304.281	215.88
304.511	208.88
304.741	207.88
304.971	216.88
305.201	211.88
305.431	209.88
305.661	210.88
305.891	206.88
306.121	189.88
306.352	236.88
306.582	222.88
306.812	209.88
307.042	220.88
307.272	225.88
307.502	216.88
307.731	213.88
307.961	207.88
308.191	212.88
308.421	219.88
308.651	204.88
308.881	214.88
309.111	214.88
309.341	217.88
309.571	224.88
309.8	228.88
310.03	230.88
310.26	221.88
310.49	230.88
310.72	237.88
310.949	243.88
311.179	228.88
311.409	245.88
311.639	247.88
311.868	228.88
312.098	231.88
312.328	242.88
312.557	229.88
312.787	239.88
313.017	254.88
313.246	224.88
313.476	240.88
313.706	218.88
313.935	253.88
314.165	247.88
314.394	260.88
314.624	235.88
314.853	244.88
315.083	227.88
315.312	251.88
315.542	237.88
315.771	240.88
316.001	241.88
316.23	236.88
316.46	220.88
316.689	235.88
316.919	249.88
317.148	238.88
317.377	236.88
317.607	237.88
317.836	238.88
318.065	234.88
318.295	249.88
318.524	259.88
318.753	238.88
318.983	261.88
319.212	236.88
319.441	254.88
319.67	245.88
319.9	255.88
320.129	256.88
320.358	254.88
320.587	248.88
320.816	258.88
321.046	252.88
321.275	255.88
321.504	255.88
321.733	262.88
321.962	262.88
322.191	263.88
322.42	259.88
322.649	282.88
322.878	276.88
323.108	290.88
323.337	290.88
323.566	301.88
323.795	306.88
324.024	322.88
324.253	403.88
324.482	557.88
324.71	845.88
324.939	1167.88
325.168	1010.88
325.397	523.88
325.626	367.88
325.855	311.88
326.084	300.88
326.313	297.88
326.542	316.88
326.77	336.88
326.999	383.88
327.228	517.88
327.457	753.88
327.686	875.88
327.914	594.88
328.143	425.88
328.372	379.88
328.6	343.88
328.829	350.88
329.058	342.88
329.287	357.88
329.515	323.88
329.744	323.88
329.972	329.88
330.201	319.88
330.43	326.88
330.658	333.88
330.887	363.88
331.115	341.88
331.344	334.88
331.572	311.88
331.801	303.88
332.03	300.88
332.258	297.88
332.486	272.88
332.715	280.88
332.943	300.88
333.172	293.88
333.4	287.88
333.629	305.88
333.857	270.88
334.085	298.88
334.314	302.88
334.542	319.88
334.771	342.88
334.999	299.88
335.227	303.88
335.455	300.88
335.684	289.88
335.912	281.88
336.14	277.88
336.369	280.88
336.597	278.88
336.825	288.88
337.053	272.88
337.281	283.88
337.51	282.88
337.738	285.88
337.966	283.88
338.194	277.88
338.422	289.88
338.65	282.88
338.878	276.88
339.106	283.88
339.334	265.88
339.562	263.88
339.79	270.88
340.018	278.88
340.246	273.88
340.474	274.88
340.702	281.88
340.93	282.88
341.158	272.88
341.386	270.88
341.614	274.88
341.842	282.88
342.07	291.88
342.298	284.88
342.526	265.88
342.754	264.88
342.981	275.88
343.209	286.88
343.437	273.88
343.665	271.88
343.893	285.88
344.12	278.88
344.348	257.88
344.576	279.88
344.804	281.88
345.031	286.88
345.259	301.88
345.487	283.88
345.714	313.88
345.942	273.88
346.17	287.88
346.397	252.88
346.625	252.88
346.853	266.88
347.08	257.88
347.308	258.88
347.535	279.88
347.763	269.88
347.99	273.88
348.218	272.88
348.445	295.88
348.673	273.88
348.9	273.88
349.128	278.88
349.355	261.88
349.583	261.88
349.81	266.88
350.037	270.88
350.265	252.88
350.492	280.88
350.72	273.88
350.947	256.88
351.174	264.88
351.402	288.88
351.629	275.88
351.856	290.88
352.083	267.88
352.311	277.88
352.538	269.88
352.765	286.88
352.992	274.88
353.22	254.88
353.447	276.88
353.674	279.88
353.901	257.88
354.128	243.88
354.355	261.88
354.583	259.88
354.81	253.88
355.037	267.88
355.264	272.88
355.491	270.88
355.718	241.88
355.945	243.88
356.172	254.88
356.399	251.88
356.626	261.88
356.853	242.88
357.08	234.88
357.307	260.88
357.534	252.88
357.761	281.88
357.988	245.88
358.215	254.88
358.441	259.88
358.668	257.88
358.895	275.88
359.122	274.88
359.349	260.88
359.576	250.88
359.802	276.88
360.029	295.88
360.256	314.88
360.483	285.88
360.709	269.88
360.936	271.88
361.163	274.88
361.39	263.88
361.616	274.88
361.843	257.88
362.07	269.88
362.296	255.88
362.523	257.88
362.749	276.88
362.976	275.88
363.203	275.88
363.429	253.88
363.656	257.88
363.882	250.88
364.109	260.88
364.335	272.88
364.562	276.88
364.788	269.88
365.015	259.88
365.241	241.88
365.468	275.88
365.694	262.88
365.92	281.88
366.147	255.88
366.373	271.88
366.599	260.88
366.826	250.88
367.052	248.88
367.278	255.88
367.505	277.88
367.731	262.88
367.957	261.88
368.184	257.88
368.41	269.88
368.636	266.88
368.862	280.88
369.089	276.88
369.315	267.88
369.541	269.88
369.767	266.88
369.993	264.88
370.219	268.88
370.445	261.88
370.672	254.88
370.898	253.88
371.124	279.88
371.35	263.88
371.576	276.88
371.802	261.88
372.028	260.88
372.254	260.88
372.48	258.88
372.706	273.88
372.932	257.88
373.158	268.88
373.384	289.88
373.61	271.88
373.835	261.88
374.061	292.88
374.287	271.88
374.513	260.88
374.739	265.88
374.965	284.88
375.191	277.88
375.416	270.88
375.642	277.88
375.868	268.88
376.094	278.88
376.319	278.88
376.545	278.88
376.771	272.88
376.997	282.88
377.222	272.88
377.448	269.88
377.674	266.88
377.899	271.88
378.125	272.88
378.35	281.88
378.576	257.88
378.802	229.88
379.027	271.88
379.253	267.88
379.478	263.88
379.704	274.88
379.929	269.88
380.155	271.88
380.38	296.88
380.606	259.88
380.831	273.88
381.057	277.88
381.282	264.88
381.507	277.88
381.733	262.88
381.958	270.88
382.184	291.88
382.409	269.88
382.634	293.88
382.86	279.88
383.085	281.88
383.31	267.88
383.535	282.88
383.761	299.88
383.986	291.88
384.211	283.88
384.436	291.88
384.662	281.88
384.887	313.88
385.112	276.88
385.337	297.88
385.562	282.88
385.787	307.88
386.013	309.88
386.238	301.88
386.463	315.88
386.688	294.88
386.913	292.88
387.138	284.88
387.363	303.88
387.588	272.88
387.813	293.88
388.038	307.88
388.263	305.88
388.488	294.88
388.713	283.88
388.938	287.88
389.163	269.88
389.387	282.88
389.612	293.88
389.837	293.88
390.062	283.88
390.287	299.88
390.512	295.88
390.736	285.88
390.961	304.88
391.186	292.88
391.411	298.88
391.636	311.88
391.86	303.88
392.085	300.88
392.31	283.88
392.534	289.88
392.759	301.88
392.984	286.88
393.208	305.88
393.433	320.88
393.658	326.88
393.882	300.88
394.107	273.88
394.331	297.88
394.556	304.88
394.78	307.88
395.005	293.88
395.229	289.88
395.454	302.88
395.678	302.88
395.903	323.88
396.127	322.88
396.352	323.88
396.576	318.88
396.801	317.88
397.025	325.88
397.249	308.88
397.474	317.88
397.698	307.88
397.922	309.88
398.147	331.88
398.371	331.88
398.595	316.88
398.82	327.88
399.044	339.88
399.268	349.88
399.492	346.88
399.717	351.88
399.941	381.88
400.165	407.88
400.389	435.88
400.613	378.88
400.837	355.88
401.062	355.88
401.286	342.88
401.51	330.88
401.734	332.88
401.958	349.88
402.182	333.88
402.406	334.88
402.63	326.88
402.854	326.88
403.078	319.88
403.302	345.88
403.526	330.88
403.75	340.88
403.974	347.88
404.198	325.88
404.422	342.88
404.645	340.88
404.869	345.88
405.093	361.88
405.317	368.88
405.541	413.88
405.765	373.88
405.988	363.88
406.212	365.88
406.436	362.88
406.66	374.88
406.883	362.88
407.107	376.88
407.331	392.88
407.555	441.88
407.778	433.88
408.002	410.88
408.226	389.88
408.449	383.88
408.673	376.88
408.896	392.88
409.12	407.88
409.344	392.88
409.567	355.88
409.791	358.88
410.014	362.88
410.238	350.88
410.461	356.88
410.685	341.88
410.908	363.88
411.132	381.88
411.355	396.88
411.578	379.88
411.802	367.88
412.025	350.88
412.249	351.88
412.472	368.88
412.695	385.88
412.919	378.88
413.142	346.88
413.365	353.88
413.589	350.88
413.812	323.88
414.035	328.88
414.258	351.88
414.482	336.88
414.705	337.88
414.928	337.88
415.151	343.88
415.374	337.88
415.597	322.88
415.821	342.88
416.044	330.88
416.267	322.88
416.49	335.88
416.713	342.88
416.936	318.88
417.159	327.88
417.382	328.88
417.605	332.88
417.828	335.88
418.051	334.88
418.274	317.88
418.497	334.88
418.72	335.88
418.943	297.88
419.166	325.88
419.389	339.88
419.611	349.88
419.834	354.88
420.057	337.88
420.28	335.88
420.503	357.88
420.726	345.88
420.948	337.88
421.171	368.88
421.394	390.88
421.617	346.88
421.839	348.88
422.062	335.88
422.285	340.88
422.507	402.88
422.73	417.88
422.953	404.88
423.175	366.88
423.398	346.88
423.621	352.88
423.843	355.88
424.066	362.88
424.288	363.88
424.511	385.88
424.733	411.88
424.956	449.88
425.178	452.88
425.401	438.88
425.623	442.88
425.846	395.88
426.068	338.88
426.291	348.88
426.513	342.88
426.735	361.88
426.958	393.88
427.18	472.88
427.402	529.88
427.625	561.88
427.847	465.88
428.069	421.88
428.292	381.88
428.514	346.88
428.736	356.88
428.958	354.88
429.181	350.88
429.403	355.88
429.625	339.88
429.847	390.88
430.069	405.88
430.292	401.88
430.514	361.88
430.736	341.88
430.958	329.88
431.18	318.88
431.402	324.88
431.624	330.88
431.846	332.88
432.068	328.88
432.29	316.88
432.512	337.88
432.734	345.88
432.956	337.88
433.178	356.88
433.4	358.88
433.622	341.88
433.844	341.88
434.066	330.88
434.287	320.88
434.509	334.88
434.731	295.88
434.953	341.88
435.175	346.88
435.397	334.88
435.618	368.88
435.84	393.88
436.062	433.88
436.284	465.88
436.505	436.88
436.727	375.88
436.949	359.88
437.17	361.88
437.392	336.88
437.614	353.88
437.835	366.88
438.057	429.88
438.278	457.88
438.5	489.88
438.721	524.88
438.943	497.88
439.165	406.88
439.386	395.88
439.608	390.88
439.829	373.88
440.05	393.88
440.272	396.88
440.493	383.88
440.715	355.88
440.936	346.88
441.158	334.88
441.379	347.88
441.6	358.88
441.822	368.88
442.043	386.88
442.264	436.88
442.486	453.88
442.707	387.88
442.928	381.88
443.149	379.88
443.371	387.88
443.592	411.88
443.813	476.88
444.034	508.88
444.255	436.88
444.476	377.88
444.698	346.88
444.919	365.88
445.14	460.88
445.361	429.88
445.582	391.88
445.803	429.88
446.024	484.88
446.245	484.88
446.466	433.88
446.687	388.88
446.908	372.88
447.129	365.88
447.35	338.88
447.571	354.88
447.792	339.88
448.013	356.88
448.234	362.88
448.455	385.88
448.675	457.88
448.896	528.88
449.117	448.88
449.338	418.88
449.559	518.88
449.779	561.88
450	459.88
450.221	376.88
450.442	355.88
450.662	336.88
450.883	341.88
451.104	344.88
451.324	337.88
451.545	340.88
451.766	330.88
451.986	322.88
452.207	322.88
452.428	316.88
452.648	308.88
452.869	313.88
453.089	311.88
453.31	315.88
453.53	317.88
453.751	295.88
453.971	290.88
454.192	314.88
454.412	305.88
454.633	306.88
454.853	314.88
455.073	299.88
455.294	319.88
455.514	362.88
455.734	347.88
455.955	301.88
456.175	317.88
456.395	294.88
456.616	305.88
456.836	313.88
457.056	312.88
457.276	292.88
457.497	317.88
457.717	297.88
457.937	312.88
458.157	305.88
458.377	307.88
458.598	317.88
458.818	347.88
459.038	380.88
459.258	403.88
459.478	349.88
459.698	326.88
459.918	338.88
460.138	320.88
460.358	318.88
460.578	348.88
460.798	320.88
461.018	322.88
461.238	351.88
461.458	338.88
461.678	341.88
461.898	362.88
462.118	327.88
462.338	343.88
462.558	356.88
462.777	365.88
462.997	344.88
463.217	345.88
463.437	366.88
463.657	356.88
463.876	367.88
464.096	363.88
464.316	366.88
464.536	357.88
464.755	361.88
464.975	345.88
465.195	361.88
465.414	388.88
465.634	343.88
465.854	353.88
466.073	339.88
466.293	326.88
466.512	318.88
466.732	307.88
466.951	320.88
467.171	299.88
467.391	329.88
467.61	324.88
467.829	343.88
468.049	337.88
468.268	350.88
468.488	317.88
468.707	308.88
468.927	331.88
469.146	322.88
469.365	330.88
469.585	317.88
469.804	305.88
470.023	319.88
470.243	319.88
470.462	314.88
470.681	331.88
470.901	325.88
471.12	315.88
471.339	327.88
471.558	327.88
471.777	309.88
471.997	332.88
472.216	303.88
472.435	342.88
472.654	342.88
472.873	326.88
473.092	339.88
473.311	319.88
473.53	345.88
473.749	325.88
473.968	345.88
474.187	415.88
474.406	412.88
474.625	342.88
474.844	349.88
475.063	343.88
475.282	321.88
475.501	334.88
475.72	320.88
475.939	347.88
476.158	324.88
476.377	331.88
476.596	342.88
476.814	365.88
477.033	357.88
477.252	348.88
477.471	342.88
477.69	341.88
477.908	367.88
478.127	355.88
478.346	375.88
478.564	349.88
478.783	366.88
479.002	363.88
479.22	375.88
479.439	397.88
479.658	380.88
479.876	369.88
480.095	392.88
480.313	418.88
480.532	399.88
480.751	380.88
480.969	388.88
481.188	445.88
481.406	460.88
481.624	412.88
481.843	394.88
482.061	395.88
482.28	390.88
482.498	398.88
482.717	389.88
482.935	380.88
483.153	374.88
483.372	395.88
483.59	378.88
483.808	385.88
484.027	401.88
484.245	400.88
484.463	384.88
484.681	398.88
484.9	395.88
485.118	384.88
485.336	396.88
485.554	385.88
485.772	391.88
485.99	395.88
486.209	416.88
486.427	409.88
486.645	399.88
486.863	422.88
487.081	405.88
487.299	414.88
487.517	425.88
487.735	406.88
487.953	394.88
488.171	424.88
488.389	403.88
488.607	423.88
488.825	408.88
489.043	416.88
489.261	408.88
489.479	429.88
489.696	380.88
489.914	414.88
490.132	430.88
490.35	405.88
490.568	425.88
490.786	428.88
491.003	431.88
491.221	459.88
491.439	463.88
491.657	458.88
491.874	457.88
492.092	443.88
492.31	453.88
492.527	461.88
492.745	464.88
492.963	458.88
493.18	456.88
493.398	476.88
493.615	467.88
493.833	476.88
494.05	481.88
494.268	484.88
494.485	465.88
494.703	468.88
494.92	474.88
495.138	476.88
495.355	477.88
495.573	481.88
495.79	473.88
496.008	493.88
496.225	499.88
496.442	493.88
496.66	468.88
496.877	490.88
497.094	483.88
497.312	521.88
497.529	483.88
497.746	503.88
497.963	502.88
498.181	543.88
498.398	528.88
498.615	536.88
498.832	543.88
499.049	574.88
499.267	536.88
499.484	578.88
499.701	583.88
499.918	592.88
500.135	624.88
500.352	627.88
500.569	639.88
500.786	644.88
501.003	647.88
501.22	650.88
501.437	629.88
501.654	617.88
501.871	600.88
502.088	571.88
502.305	572.88
502.522	542.88
502.739	545.88
502.956	521.88
503.172	505.88
503.389	523.88
503.606	522.88
503.823	512.88
504.04	495.88
504.256	493.88
504.473	504.88
504.69	493.88
504.907	487.88
505.123	516.88
505.34	471.88
505.557	470.88
505.773	460.88
505.99	471.88
506.207	473.88
506.423	460.88
506.64	453.88
506.856	457.88
507.073	466.88
507.289	452.88
507.506	440.88
507.722	450.88
507.939	448.88
508.155	443.88
508.372	438.88
508.588	439.88
508.805	430.88
509.021	443.88
509.238	431.88
509.454	433.88
509.67	422.88
509.887	418.88
510.103	409.88
510.319	432.88
510.536	483.88
510.752	702.88
510.968	593.88
511.184	429.88
511.401	419.88
511.617	429.88
511.833	416.88
512.049	433.88
512.265	431.88
512.481	429.88
512.698	427.88
512.914	414.88
513.13	428.88
513.346	419.88
513.562	414.88
513.778	416.88
513.994	402.88
514.21	431.88
514.426	421.88
514.642	463.88
514.858	453.88
515.074	478.88
515.29	521.88
515.506	699.88
515.721	618.88
515.937	485.88
516.153	441.88
516.369	428.88
516.585	443.88
516.801	416.88
517.016	443.88
517.232	440.88
517.448	460.88
517.664	427.88
517.879	428.88
518.095	418.88
518.311	418.88
518.527	404.88
518.742	415.88
518.958	416.88
519.173	420.88
519.389	429.88
519.605	427.88
519.82	418.88
520.036	419.88
520.251	429.88
520.467	439.88
520.682	433.88
520.898	434.88
521.113	462.88
521.329	470.88
521.544	494.88
521.76	593.88
521.975	852.88
522.19	873.88
522.406	519.88
522.621	450.88
522.836	396.88
523.052	409.88
523.267	406.88
523.482	400.88
523.698	399.88
523.913	391.88
524.128	390.88
524.343	381.88
524.559	375.88
524.774	357.88
524.989	365.88
525.204	388.88
525.419	373.88
525.634	377.88
525.849	355.88
526.064	363.88
526.28	367.88
526.495	347.88
526.71	365.88
526.925	354.88
527.14	342.88
527.355	362.88
527.57	370.88
527.785	338.88
527.999	369.88
528.214	374.88
528.429	372.88
528.644	351.88
528.859	365.88
529.074	365.88
529.289	376.88
529.503	406.88
529.718	386.88
529.933	362.88
530.148	352.88
530.363	358.88
530.577	375.88
530.792	358.88
531.007	358.88
531.221	355.88
531.436	362.88
531.651	349.88
531.865	341.88
532.08	350.88
532.295	341.88
532.509	336.88
532.724	335.88
532.938	319.88
533.153	345.88
533.367	326.88
533.582	348.88
533.796	321.88
534.011	339.88
534.225	331.88
534.44	332.88
534.654	329.88
534.868	348.88
535.083	333.88
535.297	325.88
535.511	344.88
535.726	341.88
535.94	357.88
536.154	334.88
536.369	337.88
536.583	338.88
536.797	329.88
537.011	320.88
537.225	331.88
537.44	336.88
537.654	323.88
537.868	348.88
538.082	334.88
538.296	334.88
538.51	338.88
538.724	325.88
538.938	331.88
539.153	346.88
539.367	346.88
539.581	347.88
539.795	329.88
540.009	331.88
540.222	319.88
540.436	317.88
540.65	307.88
540.864	338.88
541.078	334.88
541.292	324.88
541.506	319.88
541.72	316.88
541.934	321.88
542.147	333.88
542.361	336.88
542.575	331.88
542.789	328.88
543.002	325.88
543.216	340.88
543.43	318.88
543.644	325.88
543.857	343.88
544.071	329.88
544.285	337.88
544.498	342.88
544.712	341.88
544.925	339.88
545.139	317.88
545.352	333.88
545.566	314.88
545.779	305.88
545.993	319.88
546.206	327.88
546.42	325.88
546.633	321.88
546.847	300.88
547.06	326.88
547.274	317.88
547.487	318.88
547.7	326.88
547.914	325.88
548.127	325.88
548.34	328.88
548.554	312.88
548.767	317.88
548.98	317.88
549.193	310.88
549.407	306.88
549.62	303.88
549.833	310.88
550.046	319.88
550.259	301.88
550.473	326.88
550.686	306.88
550.899	319.88
551.112	309.88
551.325	323.88
551.538	311.88
551.751	312.88
551.964	324.88
552.177	329.88
552.39	302.88
552.603	332.88
552.816	319.88
553.029	313.88
553.242	323.88
553.455	311.88
553.667	324.88
553.88	317.88
554.093	312.88
554.306	320.88
554.519	317.88
554.732	322.88
554.944	305.88
555.157	293.88
555.37	305.88
555.583	305.88
555.795	306.88
556.008	306.88
556.221	310.88
556.433	300.88
556.646	306.88
556.859	306.88
557.071	311.88
557.284	290.88
557.496	293.88
557.709	298.88
557.921	299.88
558.134	294.88
558.346	296.88
558.559	293.88
558.771	288.88
558.984	295.88
559.196	300.88
559.409	295.88
559.621	305.88
559.833	291.88
560.046	284.88
560.258	278.88
560.47	294.88
560.683	287.88
560.895	288.88
561.107	294.88
561.32	292.88
561.532	291.88
561.744	288.88
561.956	292.88
562.168	298.88
562.381	304.88
562.593	275.88
562.805	283.88
563.017	294.88
563.229	294.88
563.441	291.88
563.653	278.88
563.865	304.88
564.077	307.88
564.289	296.88
564.501	309.88
564.713	289.88
564.925	309.88
565.137	311.88
565.349	304.88
565.561	317.88
565.773	319.88
565.985	310.88
566.197	317.88
566.408	321.88
566.62	328.88
566.832	342.88
567.044	343.88
567.255	348.88
567.467	322.88
567.679	337.88
567.891	337.88
568.102	334.88
568.314	325.88
568.526	310.88
568.737	324.88
568.949	313.88
569.161	310.88
569.372	294.88
569.584	294.88
569.795	282.88
570.007	306.88
570.218	315.88
570.43	305.88
570.641	299.88
570.853	290.88
571.064	286.88
571.276	281.88
571.487	290.88
571.698	277.88
571.91	283.88
572.121	266.88
572.333	277.88
572.544	261.88
572.755	259.88
572.966	265.88
573.178	270.88
573.389	271.88
573.6	270.88
573.811	286.88
574.023	252.88
574.234	274.88
574.445	281.88
574.656	263.88
574.867	268.88
575.078	252.88
575.289	257.88
575.501	248.88
575.712	239.88
575.923	250.88
576.134	262.88
576.345	252.88
576.556	244.88
576.767	233.88
576.978	237.88
577.188	247.88
577.399	249.88
577.61	233.88
577.821	251.88
578.032	267.88
578.243	255.88
578.454	359.88
578.665	309.88
578.875	245.88
579.086	245.88
579.297	228.88
579.508	241.88
579.718	231.88
579.929	241.88
580.14	217.88
580.35	233.88
580.561	252.88
580.772	238.88
580.982	215.88
581.193	233.88
581.403	224.88
581.614	225.88
581.825	220.88
582.035	225.88
582.246	233.88
582.456	227.88
582.667	233.88
582.877	236.88
583.087	261.88
583.298	231.88
583.508	223.88
583.719	242.88
583.929	240.88
584.139	233.88
584.35	222.88
584.56	228.88
584.77	215.88
584.981	221.88
585.191	235.88
585.401	215.88
585.611	231.88
585.821	222.88
586.032	211.88
586.242	246.88
586.452	222.88
586.662	221.88
586.872	225.88
587.082	218.88
587.292	246.88
587.502	228.88
587.713	230.88
587.923	225.88
588.133	202.88
588.343	214.88
588.553	233.88
588.762	218.88
588.972	220.88
589.182	229.88
589.392	254.88
589.602	229.88
589.812	249.88
590.022	234.88
590.232	209.88
590.441	230.88
590.651	223.88
590.861	219.88
591.071	217.88
591.281	230.88
591.49	249.88
591.7	225.88
591.91	220.88
592.119	220.88
592.329	222.88
592.539	243.88
592.748	238.88
592.958	237.88
593.167	222.88
593.377	233.88
593.587	252.88
593.796	224.88
594.006	237.88
594.215	229.88
594.424	229.88
594.634	233.88
594.843	236.88
595.053	226.88
595.262	221.88
595.472	212.88
595.681	227.88
595.89	217.88
596.1	235.88
596.309	209.88
596.518	211.88
596.727	204.88
596.937	204.88
597.146	210.88
597.355	186.88
597.564	197.88
597.774	227.88
597.983	213.88
598.192	196.88
598.401	203.88
598.61	212.88
598.819	213.88
599.028	197.88
599.237	212.88
599.446	192.88
599.655	219.88
599.864	202.88
600.073	191.88
600.282	206.88
600.491	201.88
600.7	204.88
600.909	207.88
601.118	199.88
601.327	208.88
601.536	211.88
601.745	208.88
601.953	213.88
602.162	206.88
602.371	197.88
602.58	189.88
602.789	206.88
602.997	187.88
603.206	198.88
603.415	207.88
603.623	196.88
603.832	196.88
604.041	212.88
604.249	215.88
604.458	192.88
604.666	197.88
604.875	184.88
605.084	185.88
605.292	197.88
605.501	191.88
605.709	207.88
605.918	191.88
606.126	190.88
606.334	202.88
606.543	195.88
606.751	190.88
606.96	183.88
607.168	197.88
607.376	183.88
607.585	189.88
607.793	186.88
608.001	178.88
608.21	197.88
608.418	191.88
608.626	193.88
608.834	181.88
609.043	191.88
609.251	179.88
609.459	179.88
609.667	193.88
609.875	195.88
610.083	195.88
610.291	193.88
610.499	184.88
610.707	183.88
610.916	192.88
611.124	178.88
611.332	201.88
611.54	170.88
611.748	181.88
611.955	195.88
612.163	177.88
612.371	195.88
612.579	198.88
612.787	188.88
612.995	193.88
613.203	188.88
613.411	195.88
613.618	194.88
613.826	186.88
614.034	181.88
614.242	191.88
614.449	180.88
614.657	186.88
614.865	205.88
615.072	179.88
615.28	186.88
615.488	181.88
615.695	159.88
615.903	185.88
616.111	169.88
616.318	172.88
616.526	172.88
616.733	177.88
616.941	182.88
617.148	189.88
617.356	181.88
617.563	164.88
617.771	191.88
617.978	179.88
618.185	177.88
618.393	178.88
618.6	193.88
618.807	179.88
619.015	169.88
619.222	181.88
619.429	172.88
619.637	181.88
619.844	181.88
620.051	181.88
620.258	198.88
620.466	181.88
620.673	181.88
620.88	181.88
621.087	154.88
621.294	171.88
621.501	183.88
621.708	187.88
621.915	180.88
622.122	167.88
622.329	181.88
622.536	187.88
622.743	175.88
622.95	163.88
623.157	177.88
623.364	176.88
623.571	181.88
623.778	165.88
623.985	161.88
624.192	163.88
624.399	169.88
624.606	172.88
624.812	153.88
625.019	175.88
625.226	172.88
625.433	158.88
625.639	157.88
625.846	158.88
626.053	166.88
626.259	156.88
626.466	160.88
626.673	171.88
626.879	157.88
627.086	161.88
627.293	161.88
627.499	156.88
627.706	162.88
627.912	164.88
628.119	162.88
628.325	170.88
628.532	157.88
628.738	157.88
628.945	151.88
629.151	158.88
629.357	167.88
629.564	160.88
629.77	143.88
629.976	145.88
630.183	151.88
630.389	146.88
630.595	153.88
630.802	150.88
631.008	156.88
631.214	153.88
631.42	165.88
631.627	149.88
631.833	145.88
632.039	164.88
632.245	158.88
632.451	154.88
632.657	160.88
632.863	153.88
633.069	159.88
633.275	149.88
633.481	154.88
633.688	161.88
633.893	158.88
634.099	154.88
634.305	155.88
634.511	142.88
634.717	144.88
634.923	131.88
635.129	148.88
635.335	137.88
635.541	157.88
635.747	138.88
635.952	143.88
636.158	153.88
636.364	153.88
636.57	148.88
636.775	142.88
636.981	152.88
637.187	134.88
637.392	161.88
637.598	153.88
637.804	160.88
638.009	153.88
638.215	153.88
638.421	140.88
638.626	153.88
638.832	145.88
639.037	136.88
639.243	138.88
639.448	153.88
639.654	152.88
639.859	156.88
640.065	146.88
640.27	139.88
640.475	161.88
640.681	166.88
640.886	143.88
641.091	140.88
641.297	138.88
641.502	145.88
641.707	122.88
641.913	149.88
642.118	144.88
642.323	151.88
642.528	128.88
642.733	133.88
642.939	132.88
643.144	139.88
643.349	158.88
643.554	135.88
643.759	152.88
643.964	157.88
644.169	146.88
644.374	143.88
644.579	131.88
644.784	130.88
644.989	133.88
645.194	139.88
645.399	139.88
645.604	132.88
645.809	133.88
646.014	136.88
646.219	143.88
646.423	135.88
646.628	147.88
646.833	130.88
647.038	135.88
647.243	134.88
647.447	131.88
647.652	143.88
647.857	135.88
648.062	137.88
648.266	129.88
648.471	139.88
648.676	119.88
648.88	136.88
649.085	145.88
649.289	153.88
649.494	132.88
649.698	156.88
649.903	129.88
650.107	141.88
650.312	151.88
650.516	133.88
650.721	138.88
650.925	137.88
651.13	136.88
651.334	136.88
651.539	130.88
651.743	129.88
651.947	134.88
652.152	126.88
652.356	139.88
652.56	133.88
652.764	125.88
652.969	126.88
653.173	125.88
653.377	146.88
653.581	119.88
653.785	121.88
653.99	111.88
654.194	116.88
654.398	104.88
654.602	118.88
654.806	122.88
655.01	120.88
655.214	134.88
655.418	95.88
655.622	119.88
655.826	109.88
656.03	137.88
656.234	114.88
656.438	121.88
656.642	119.88
656.846	121.88
657.049	111.88
657.253	106.88
657.457	98.88
657.661	99.88
657.865	110.88
658.068	102.88
658.272	97.88
658.476	97.88
658.68	89.88
658.883	90.88
659.087	83.88
659.291	78.88
659.494	94.88
659.698	85.88
659.901	79.88
660.105	89.88
660.309	84.88
660.512	95.88
660.716	93.88
660.919	87.88
661.123	81.88
661.326	82.88
661.53	79.88
661.733	87.88
661.936	82.88
662.14	82.88
662.343	89.88
662.546	93.88
662.75	87.88
662.953	92.88
663.156	81.88
663.36	70.88
663.563	77.88
663.766	76.88
663.969	68.88
664.173	75.88
664.376	66.88
664.579	83.88
664.782	76.88
664.985	79.88
665.188	73.88
665.391	78.88
665.594	66.88
665.797	67.88
666	95.88
666.203	78.88
666.406	77.88
666.609	57.88
666.812	83.88
667.015	78.88
667.218	99.88
667.421	81.88
667.624	68.88
667.827	80.88
668.03	70.88
668.232	85.88
668.435	71.88
668.638	79.88
668.841	75.88
669.043	76.88
669.246	82.88
669.449	68.88
669.651	79.88
669.854	86.88
670.057	80.88
670.259	90.88
670.462	80.88
670.665	78.88
670.867	85.88
671.07	88.88
671.272	77.88
671.475	70.88
671.677	85.88
671.88	65.88
672.082	70.88
672.284	71.88
672.487	70.88
672.689	69.88
672.892	88.88
