Data from 1961.PennyLincolnUp.Lamp.En5.5.200Scan.071719.P1._HRD10591_13-47-54-057.txt Node
Date: Thu Jul 18 13:47:54 EDT 2019
User: cochatt
Spectrometer: HR+D1059
Trigger mode: 1
Integration Time (sec): 1.000000E-1
Scans to average: 1
Electric dark correction enabled: true
Nonlinearity correction enabled: false
Boxcar width: 0
XAxis mode: Wavelengths
Number of Pixels in Spectrum: 2048
>>>>>Begin Spectral Data<<<<<
223.165	-13.62
223.4	-13.62
223.635	-13.62
223.869	-27.62
224.104	-26.62
224.338	-11.62
224.573	-14.62
224.808	-17.62
225.042	-8.62
225.277	-2.62
225.511	8.38
225.746	9.38
225.98	1.38
226.215	5.38
226.449	13.38
226.683	21.38
226.918	30.38
227.152	33.38
227.387	25.38
227.621	30.38
227.856	46.38
228.09	37.38
228.324	55.38
228.559	62.38
228.793	69.38
229.027	97.38
229.262	86.38
229.496	120.38
229.73	123.38
229.964	144.38
230.199	132.38
230.433	102.38
230.667	113.38
230.901	121.38
231.136	98.38
231.37	104.38
231.604	103.38
231.838	114.38
232.072	109.38
232.306	115.38
232.541	100.38
232.775	122.38
233.009	107.38
233.243	106.38
233.477	106.38
233.711	117.38
233.945	101.38
234.179	109.38
234.413	117.38
234.647	103.38
234.881	94.38
235.115	98.38
235.349	107.38
235.583	111.38
235.817	123.38
236.051	122.38
236.285	109.38
236.519	123.38
236.753	129.38
236.987	132.38
237.221	158.38
237.455	206.38
237.689	179.38
237.922	129.38
238.156	122.38
238.39	132.38
238.624	123.38
238.858	125.38
239.091	125.38
239.325	117.38
239.559	125.38
239.793	111.38
240.027	125.38
240.26	122.38
240.494	151.38
240.728	129.38
240.961	131.38
241.195	122.38
241.429	129.38
241.662	137.38
241.896	130.38
242.13	113.38
242.363	125.38
242.597	119.38
242.83	136.38
243.064	130.38
243.298	133.38
243.531	125.38
243.765	125.38
243.998	134.38
244.232	131.38
244.465	129.38
244.699	128.38
244.932	130.38
245.166	129.38
245.399	115.38
245.633	143.38
245.866	117.38
246.099	143.38
246.333	125.38
246.566	141.38
246.8	120.38
247.033	132.38
247.266	131.38
247.5	146.38
247.733	156.38
247.966	135.38
248.2	157.38
248.433	138.38
248.666	161.38
248.899	167.38
249.133	148.38
249.366	191.38
249.599	168.38
249.832	163.38
250.066	162.38
250.299	155.38
250.532	171.38
250.765	178.38
250.998	181.38
251.231	184.38
251.465	195.38
251.698	172.38
251.931	177.38
252.164	170.38
252.397	175.38
252.63	177.38
252.863	181.38
253.096	180.38
253.329	192.38
253.562	197.38
253.795	181.38
254.028	203.38
254.261	187.38
254.494	184.38
254.727	198.38
254.96	246.38
255.193	219.38
255.426	212.38
255.659	180.38
255.892	193.38
256.124	197.38
256.357	191.38
256.59	210.38
256.823	204.38
257.056	179.38
257.289	181.38
257.521	195.38
257.754	173.38
257.987	157.38
258.22	179.38
258.452	177.38
258.685	175.38
258.918	185.38
259.151	186.38
259.383	187.38
259.616	192.38
259.849	195.38
260.081	195.38
260.314	201.38
260.547	216.38
260.779	204.38
261.012	204.38
261.244	196.38
261.477	217.38
261.71	185.38
261.942	206.38
262.175	205.38
262.407	209.38
262.64	177.38
262.872	180.38
263.105	179.38
263.337	186.38
263.57	186.38
263.802	189.38
264.035	188.38
264.267	187.38
264.499	169.38
264.732	189.38
264.964	184.38
265.197	181.38
265.429	193.38
265.661	174.38
265.894	181.38
266.126	170.38
266.358	182.38
266.591	184.38
266.823	197.38
267.055	206.38
267.287	193.38
267.52	191.38
267.752	191.38
267.984	202.38
268.216	186.38
268.448	206.38
268.681	195.38
268.913	209.38
269.145	219.38
269.377	239.38
269.609	229.38
269.841	224.38
270.073	244.38
270.306	243.38
270.538	274.38
270.77	264.38
271.002	251.38
271.234	263.38
271.466	268.38
271.698	251.38
271.93	258.38
272.162	263.38
272.394	275.38
272.626	255.38
272.858	250.38
273.09	240.38
273.322	218.38
273.553	219.38
273.785	218.38
274.017	233.38
274.249	217.38
274.481	233.38
274.713	225.38
274.945	202.38
275.176	232.38
275.408	251.38
275.64	241.38
275.872	220.38
276.104	228.38
276.335	202.38
276.567	233.38
276.799	229.38
277.031	257.38
277.262	259.38
277.494	261.38
277.726	243.38
277.957	242.38
278.189	214.38
278.421	222.38
278.652	239.38
278.884	229.38
279.115	207.38
279.347	211.38
279.579	213.38
279.81	227.38
280.042	209.38
280.273	216.38
280.505	229.38
280.736	230.38
280.968	215.38
281.199	218.38
281.431	210.38
281.662	236.38
281.894	222.38
282.125	217.38
282.356	244.38
282.588	277.38
282.819	255.38
283.051	226.38
283.282	220.38
283.513	225.38
283.745	220.38
283.976	235.38
284.207	232.38
284.439	224.38
284.67	241.38
284.901	238.38
285.132	241.38
285.364	235.38
285.595	233.38
285.826	218.38
286.057	228.38
286.288	213.38
286.52	238.38
286.751	236.38
286.982	230.38
287.213	232.38
287.444	231.38
287.675	226.38
287.906	263.38
288.138	247.38
288.369	240.38
288.6	242.38
288.831	246.38
289.062	250.38
289.293	245.38
289.524	234.38
289.755	213.38
289.986	233.38
290.217	220.38
290.448	218.38
290.679	227.38
290.91	232.38
291.141	232.38
291.371	248.38
291.602	236.38
291.833	238.38
292.064	230.38
292.295	249.38
292.526	244.38
292.757	219.38
292.987	242.38
293.218	215.38
293.449	233.38
293.68	220.38
293.91	228.38
294.141	240.38
294.372	241.38
294.603	240.38
294.833	238.38
295.064	243.38
295.295	250.38
295.525	252.38
295.756	234.38
295.987	256.38
296.217	268.38
296.448	270.38
296.679	254.38
296.909	241.38
297.14	239.38
297.37	252.38
297.601	231.38
297.831	238.38
298.062	241.38
298.292	251.38
298.523	236.38
298.753	239.38
298.984	244.38
299.214	260.38
299.445	258.38
299.675	264.38
299.905	255.38
300.136	254.38
300.366	254.38
300.597	253.38
300.827	251.38
301.057	272.38
301.288	275.38
301.518	273.38
301.748	253.38
301.979	250.38
302.209	269.38
302.439	283.38
302.669	285.38
302.9	280.38
303.13	285.38
303.36	266.38
303.59	279.38
303.82	288.38
304.051	268.38
304.281	271.38
304.511	264.38
304.741	257.38
304.971	261.38
305.201	263.38
305.431	259.38
305.661	262.38
305.891	263.38
306.121	273.38
306.352	281.38
306.582	276.38
306.812	283.38
307.042	268.38
307.272	270.38
307.502	279.38
307.731	285.38
307.961	274.38
308.191	282.38
308.421	268.38
308.651	284.38
308.881	272.38
309.111	271.38
309.341	280.38
309.571	275.38
309.8	294.38
310.03	300.38
310.26	302.38
310.49	322.38
310.72	323.38
310.949	331.38
311.179	335.38
311.409	314.38
311.639	307.38
311.868	305.38
312.098	315.38
312.328	313.38
312.557	326.38
312.787	357.38
313.017	344.38
313.246	306.38
313.476	305.38
313.706	318.38
313.935	331.38
314.165	326.38
314.394	349.38
314.624	339.38
314.853	324.38
315.083	315.38
315.312	313.38
315.542	309.38
315.771	312.38
316.001	311.38
316.23	325.38
316.46	314.38
316.689	313.38
316.919	333.38
317.148	329.38
317.377	320.38
317.607	332.38
317.836	328.38
318.065	307.38
318.295	297.38
318.524	303.38
318.753	318.38
318.983	325.38
319.212	310.38
319.441	327.38
319.67	322.38
319.9	325.38
320.129	328.38
320.358	315.38
320.587	309.38
320.816	342.38
321.046	325.38
321.275	325.38
321.504	338.38
321.733	344.38
321.962	350.38
322.191	379.38
322.42	371.38
322.649	388.38
322.878	419.38
323.108	419.38
323.337	439.38
323.566	446.38
323.795	493.38
324.024	545.38
324.253	685.38
324.482	985.38
324.71	1512.38
324.939	2158.38
325.168	1800.38
325.397	942.38
325.626	635.38
325.855	520.38
326.084	464.38
326.313	460.38
326.542	471.38
326.77	521.38
326.999	629.38
327.228	915.38
327.457	1346.38
327.686	1601.38
327.914	1079.38
328.143	697.38
328.372	602.38
328.6	563.38
328.829	498.38
329.058	532.38
329.287	536.38
329.515	506.38
329.744	474.38
329.972	457.38
330.201	488.38
330.43	540.38
330.658	532.38
330.887	573.38
331.115	546.38
331.344	475.38
331.572	430.38
331.801	436.38
332.03	441.38
332.258	392.38
332.486	377.38
332.715	387.38
332.943	377.38
333.172	392.38
333.4	388.38
333.629	393.38
333.857	387.38
334.085	413.38
334.314	458.38
334.542	461.38
334.771	475.38
334.999	441.38
335.227	398.38
335.455	394.38
335.684	380.38
335.912	372.38
336.14	362.38
336.369	383.38
336.597	363.38
336.825	379.38
337.053	349.38
337.281	349.38
337.51	355.38
337.738	356.38
337.966	379.38
338.194	375.38
338.422	361.38
338.65	360.38
338.878	374.38
339.106	373.38
339.334	364.38
339.562	347.38
339.79	347.38
340.018	355.38
340.246	357.38
340.474	359.38
340.702	356.38
340.93	362.38
341.158	371.38
341.386	348.38
341.614	348.38
341.842	375.38
342.07	349.38
342.298	352.38
342.526	350.38
342.754	330.38
342.981	342.38
343.209	354.38
343.437	341.38
343.665	359.38
343.893	361.38
344.12	358.38
344.348	356.38
344.576	340.38
344.804	360.38
345.031	361.38
345.259	367.38
345.487	353.38
345.714	347.38
345.942	369.38
346.17	364.38
346.397	346.38
346.625	343.38
346.853	346.38
347.08	342.38
347.308	347.38
347.535	356.38
347.763	367.38
347.99	355.38
348.218	355.38
348.445	377.38
348.673	359.38
348.9	345.38
349.128	345.38
349.355	339.38
349.583	331.38
349.81	333.38
350.037	336.38
350.265	348.38
350.492	328.38
350.72	340.38
350.947	341.38
351.174	328.38
351.402	381.38
351.629	360.38
351.856	344.38
352.083	372.38
352.311	364.38
352.538	364.38
352.765	364.38
352.992	353.38
353.22	350.38
353.447	364.38
353.674	350.38
353.901	318.38
354.128	343.38
354.355	333.38
354.583	339.38
354.81	320.38
355.037	325.38
355.264	311.38
355.491	302.38
355.718	336.38
355.945	316.38
356.172	311.38
356.399	324.38
356.626	322.38
356.853	302.38
357.08	322.38
357.307	309.38
357.534	316.38
357.761	291.38
357.988	301.38
358.215	317.38
358.441	335.38
358.668	338.38
358.895	319.38
359.122	323.38
359.349	315.38
359.576	365.38
359.802	369.38
360.029	403.38
360.256	406.38
360.483	396.38
360.709	347.38
360.936	372.38
361.163	347.38
361.39	351.38
361.616	369.38
361.843	345.38
362.07	359.38
362.296	365.38
362.523	353.38
362.749	339.38
362.976	367.38
363.203	345.38
363.429	344.38
363.656	337.38
363.882	324.38
364.109	336.38
364.335	333.38
364.562	342.38
364.788	321.38
365.015	363.38
365.241	343.38
365.468	345.38
365.694	330.38
365.92	347.38
366.147	320.38
366.373	325.38
366.599	326.38
366.826	329.38
367.052	329.38
367.278	352.38
367.505	338.38
367.731	316.38
367.957	326.38
368.184	323.38
368.41	317.38
368.636	343.38
368.862	332.38
369.089	344.38
369.315	340.38
369.541	326.38
369.767	326.38
369.993	336.38
370.219	327.38
370.445	335.38
370.672	361.38
370.898	334.38
371.124	330.38
371.35	321.38
371.576	343.38
371.802	330.38
372.028	330.38
372.254	316.38
372.48	334.38
372.706	339.38
372.932	331.38
373.158	305.38
373.384	318.38
373.61	326.38
373.835	317.38
374.061	316.38
374.287	324.38
374.513	325.38
374.739	336.38
374.965	332.38
375.191	337.38
375.416	321.38
375.642	310.38
375.868	332.38
376.094	309.38
376.319	329.38
376.545	331.38
376.771	310.38
376.997	322.38
377.222	292.38
377.448	311.38
377.674	318.38
377.899	337.38
378.125	322.38
378.35	321.38
378.576	321.38
378.802	318.38
379.027	327.38
379.253	312.38
379.478	308.38
379.704	310.38
379.929	325.38
380.155	325.38
380.38	326.38
380.606	318.38
380.831	314.38
381.057	330.38
381.282	328.38
381.507	325.38
381.733	332.38
381.958	333.38
382.184	346.38
382.409	317.38
382.634	330.38
382.86	317.38
383.085	332.38
383.31	341.38
383.535	336.38
383.761	341.38
383.986	333.38
384.211	329.38
384.436	357.38
384.662	344.38
384.887	355.38
385.112	331.38
385.337	333.38
385.562	332.38
385.787	335.38
386.013	362.38
386.238	354.38
386.463	348.38
386.688	346.38
386.913	343.38
387.138	344.38
387.363	325.38
387.588	341.38
387.813	364.38
388.038	335.38
388.263	333.38
388.488	347.38
388.713	332.38
388.938	363.38
389.163	364.38
389.387	358.38
389.612	346.38
389.837	356.38
390.062	354.38
390.287	344.38
390.512	325.38
390.736	362.38
390.961	350.38
391.186	338.38
391.411	364.38
391.636	336.38
391.86	353.38
392.085	362.38
392.31	351.38
392.534	365.38
392.759	350.38
392.984	335.38
393.208	335.38
393.433	359.38
393.658	360.38
393.882	349.38
394.107	354.38
394.331	341.38
394.556	343.38
394.78	355.38
395.005	346.38
395.229	373.38
395.454	359.38
395.678	365.38
395.903	371.38
396.127	381.38
396.352	377.38
396.576	360.38
396.801	374.38
397.025	357.38
397.249	352.38
397.474	373.38
397.698	369.38
397.922	386.38
398.147	378.38
398.371	386.38
398.595	400.38
398.82	374.38
399.044	401.38
399.268	393.38
399.492	423.38
399.717	422.38
399.941	430.38
400.165	461.38
400.389	473.38
400.613	455.38
400.837	420.38
401.062	406.38
401.286	413.38
401.51	419.38
401.734	395.38
401.958	413.38
402.182	412.38
402.406	422.38
402.63	411.38
402.854	395.38
403.078	422.38
403.302	406.38
403.526	394.38
403.75	408.38
403.974	419.38
404.198	413.38
404.422	409.38
404.645	416.38
404.869	423.38
405.093	451.38
405.317	467.38
405.541	487.38
405.765	472.38
405.988	446.38
406.212	449.38
406.436	466.38
406.66	477.38
406.883	454.38
407.107	470.38
407.331	510.38
407.555	539.38
407.778	540.38
408.002	477.38
408.226	487.38
408.449	472.38
408.673	469.38
408.896	486.38
409.12	512.38
409.344	487.38
409.567	449.38
409.791	429.38
410.014	425.38
410.238	431.38
410.461	402.38
410.685	417.38
410.908	420.38
411.132	463.38
411.355	479.38
411.578	464.38
411.802	429.38
412.025	417.38
412.249	418.38
412.472	449.38
412.695	464.38
412.919	469.38
413.142	452.38
413.365	422.38
413.589	406.38
413.812	405.38
414.035	393.38
414.258	405.38
414.482	395.38
414.705	393.38
414.928	376.38
415.151	376.38
415.374	407.38
415.597	391.38
415.821	394.38
416.044	398.38
416.267	385.38
416.49	392.38
416.713	394.38
416.936	384.38
417.159	383.38
417.382	390.38
417.605	393.38
417.828	415.38
418.051	418.38
418.274	401.38
418.497	394.38
418.72	388.38
418.943	411.38
419.166	385.38
419.389	411.38
419.611	427.38
419.834	417.38
420.057	395.38
420.28	409.38
420.503	422.38
420.726	426.38
420.948	435.38
421.171	450.38
421.394	471.38
421.617	421.38
421.839	413.38
422.062	435.38
422.285	438.38
422.507	470.38
422.73	537.38
422.953	535.38
423.175	462.38
423.398	443.38
423.621	427.38
423.843	456.38
424.066	439.38
424.288	451.38
424.511	455.38
424.733	515.38
424.956	585.38
425.178	533.38
425.401	536.38
425.623	577.38
425.846	495.38
426.068	463.38
426.291	448.38
426.513	452.38
426.735	451.38
426.958	490.38
427.18	574.38
427.402	695.38
427.625	740.38
427.847	679.38
428.069	603.38
428.292	509.38
428.514	477.38
428.736	440.38
428.958	434.38
429.181	424.38
429.403	429.38
429.625	443.38
429.847	462.38
430.069	505.38
430.292	519.38
430.514	449.38
430.736	417.38
430.958	406.38
431.18	410.38
431.402	422.38
431.624	402.38
431.846	386.38
432.068	380.38
432.29	429.38
432.512	389.38
432.734	412.38
432.956	397.38
433.178	416.38
433.4	415.38
433.622	406.38
433.844	404.38
434.066	395.38
434.287	403.38
434.509	387.38
434.731	403.38
434.953	413.38
435.175	414.38
435.397	454.38
435.618	449.38
435.84	497.38
436.062	582.38
436.284	649.38
436.505	527.38
436.727	461.38
436.949	463.38
437.17	444.38
437.392	438.38
437.614	439.38
437.835	465.38
438.057	562.38
438.278	638.38
438.5	640.38
438.721	658.38
438.943	673.38
439.165	569.38
439.386	471.38
439.608	462.38
439.829	464.38
440.05	506.38
440.272	553.38
440.493	506.38
440.715	462.38
440.936	435.38
441.158	439.38
441.379	446.38
441.6	438.38
441.822	450.38
442.043	489.38
442.264	563.38
442.486	603.38
442.707	518.38
442.928	461.38
443.149	466.38
443.371	503.38
443.592	509.38
443.813	599.38
444.034	646.38
444.255	543.38
444.476	467.38
444.698	443.38
444.919	459.38
445.14	570.38
445.361	516.38
445.582	511.38
445.803	569.38
446.024	643.38
446.245	659.38
446.466	604.38
446.687	508.38
446.908	467.38
447.129	439.38
447.35	420.38
447.571	424.38
447.792	445.38
448.013	429.38
448.234	447.38
448.455	491.38
448.675	597.38
448.896	676.38
449.117	584.38
449.338	561.38
449.559	635.38
449.779	719.38
450	565.38
450.221	485.38
450.442	445.38
450.662	430.38
450.883	433.38
451.104	441.38
451.324	447.38
451.545	418.38
451.766	389.38
451.986	396.38
452.207	374.38
452.428	373.38
452.648	398.38
452.869	398.38
453.089	397.38
453.31	409.38
453.53	390.38
453.751	403.38
453.971	403.38
454.192	415.38
454.412	405.38
454.633	390.38
454.853	383.38
455.073	389.38
455.294	410.38
455.514	483.38
455.734	447.38
455.955	394.38
456.175	363.38
456.395	361.38
456.616	373.38
456.836	356.38
457.056	359.38
457.276	355.38
457.497	381.38
457.717	381.38
457.937	372.38
458.157	361.38
458.377	379.38
458.598	386.38
458.818	471.38
459.038	548.38
459.258	549.38
459.478	473.38
459.698	425.38
459.918	396.38
460.138	417.38
460.358	409.38
460.578	389.38
460.798	397.38
461.018	425.38
461.238	411.38
461.458	400.38
461.678	395.38
461.898	400.38
462.118	391.38
462.338	395.38
462.558	418.38
462.777	404.38
462.997	395.38
463.217	399.38
463.437	425.38
463.657	417.38
463.876	409.38
464.096	430.38
464.316	422.38
464.536	430.38
464.755	429.38
464.975	426.38
465.195	491.38
465.414	558.38
465.634	521.38
465.854	468.38
466.073	433.38
466.293	410.38
466.512	390.38
466.732	397.38
466.951	398.38
467.171	383.38
467.391	397.38
467.61	403.38
467.829	407.38
468.049	437.38
468.268	415.38
468.488	397.38
468.707	408.38
468.927	401.38
469.146	393.38
469.365	382.38
469.585	362.38
469.804	383.38
470.023	409.38
470.243	396.38
470.462	431.38
470.681	445.38
470.901	420.38
471.12	407.38
471.339	393.38
471.558	403.38
471.777	396.38
471.997	405.38
472.216	410.38
472.435	452.38
472.654	439.38
472.873	414.38
473.092	416.38
473.311	407.38
473.53	389.38
473.749	414.38
473.968	457.38
474.187	539.38
474.406	557.38
474.625	458.38
474.844	417.38
475.063	395.38
475.282	402.38
475.501	412.38
475.72	417.38
475.939	413.38
476.158	415.38
476.377	398.38
476.596	442.38
476.814	418.38
477.033	426.38
477.252	418.38
477.471	436.38
477.69	443.38
477.908	423.38
478.127	443.38
478.346	414.38
478.564	444.38
478.783	443.38
479.002	455.38
479.22	443.38
479.439	454.38
479.658	487.38
479.876	490.38
480.095	494.38
480.313	522.38
480.532	508.38
480.751	492.38
480.969	520.38
481.188	559.38
481.406	601.38
481.624	520.38
481.843	513.38
482.061	493.38
482.28	458.38
482.498	491.38
482.717	485.38
482.935	479.38
483.153	476.38
483.372	470.38
483.59	469.38
483.808	471.38
484.027	470.38
484.245	463.38
484.463	474.38
484.681	485.38
484.9	468.38
485.118	499.38
485.336	483.38
485.554	494.38
485.772	474.38
485.99	478.38
486.209	477.38
486.427	478.38
486.645	499.38
486.863	511.38
487.081	513.38
487.299	505.38
487.517	500.38
487.735	498.38
487.953	487.38
488.171	507.38
488.389	486.38
488.607	508.38
488.825	522.38
489.043	524.38
489.261	527.38
489.479	500.38
489.696	509.38
489.914	519.38
490.132	510.38
490.35	516.38
490.568	524.38
490.786	546.38
491.003	558.38
491.221	545.38
491.439	555.38
491.657	589.38
491.874	568.38
492.092	571.38
492.31	573.38
492.527	589.38
492.745	577.38
492.963	583.38
493.18	579.38
493.398	591.38
493.615	584.38
493.833	557.38
494.05	578.38
494.268	603.38
494.485	579.38
494.703	572.38
494.92	588.38
495.138	575.38
495.355	587.38
495.573	604.38
495.79	598.38
496.008	590.38
496.225	590.38
496.442	600.38
496.66	586.38
496.877	615.38
497.094	607.38
497.312	598.38
497.529	615.38
497.746	621.38
497.963	619.38
498.181	625.38
498.398	636.38
498.615	664.38
498.832	672.38
499.049	677.38
499.267	660.38
499.484	673.38
499.701	700.38
499.918	693.38
500.135	717.38
500.352	710.38
500.569	762.38
500.786	744.38
501.003	737.38
501.22	756.38
501.437	730.38
501.654	723.38
501.871	763.38
502.088	696.38
502.305	667.38
502.522	675.38
502.739	665.38
502.956	639.38
503.172	614.38
503.389	633.38
503.606	636.38
503.823	623.38
504.04	605.38
504.256	587.38
504.473	617.38
504.69	586.38
504.907	594.38
505.123	588.38
505.34	596.38
505.557	565.38
505.773	604.38
505.99	589.38
506.207	577.38
506.423	572.38
506.64	587.38
506.856	575.38
507.073	558.38
507.289	549.38
507.506	599.38
507.722	590.38
507.939	587.38
508.155	565.38
508.372	563.38
508.588	563.38
508.805	550.38
509.021	540.38
509.238	550.38
509.454	579.38
509.67	566.38
509.887	539.38
510.103	553.38
510.319	572.38
510.536	667.38
510.752	1162.38
510.968	922.38
511.184	597.38
511.401	576.38
511.617	543.38
511.833	538.38
512.049	536.38
512.265	545.38
512.481	524.38
512.698	545.38
512.914	535.38
513.13	526.38
513.346	539.38
513.562	529.38
513.778	554.38
513.994	554.38
514.21	543.38
514.426	570.38
514.642	641.38
514.858	637.38
515.074	720.38
515.29	841.38
515.506	1226.38
515.721	1042.38
515.937	691.38
516.153	610.38
516.369	608.38
516.585	558.38
516.801	542.38
517.016	540.38
517.232	552.38
517.448	541.38
517.664	537.38
517.879	555.38
518.095	541.38
518.311	538.38
518.527	527.38
518.742	527.38
518.958	524.38
519.173	539.38
519.389	542.38
519.605	545.38
519.82	544.38
520.036	534.38
520.251	587.38
520.467	610.38
520.682	609.38
520.898	580.38
521.113	632.38
521.329	696.38
521.544	786.38
521.76	1009.38
521.975	1698.38
522.19	1637.38
522.406	884.38
522.621	656.38
522.836	567.38
523.052	558.38
523.267	539.38
523.482	515.38
523.698	506.38
523.913	520.38
524.128	515.38
524.343	475.38
524.559	482.38
524.774	481.38
524.989	489.38
525.204	468.38
525.419	489.38
525.634	450.38
525.849	462.38
526.064	465.38
526.28	456.38
526.495	445.38
526.71	446.38
526.925	443.38
527.14	447.38
527.355	444.38
527.57	446.38
527.785	444.38
527.999	418.38
528.214	419.38
528.429	430.38
528.644	428.38
528.859	436.38
529.074	458.38
529.289	442.38
529.503	547.38
529.718	538.38
529.933	457.38
530.148	456.38
530.363	450.38
530.577	438.38
530.792	429.38
531.007	422.38
531.221	423.38
531.436	418.38
531.651	419.38
531.865	428.38
532.08	411.38
532.295	412.38
532.509	406.38
532.724	440.38
532.938	434.38
533.153	397.38
533.367	391.38
533.582	401.38
533.796	422.38
534.011	389.38
534.225	403.38
534.44	420.38
534.654	402.38
534.868	407.38
535.083	394.38
535.297	401.38
535.511	391.38
535.726	433.38
535.94	411.38
536.154	403.38
536.369	422.38
536.583	400.38
536.797	409.38
537.011	396.38
537.225	392.38
537.44	410.38
537.654	378.38
537.868	375.38
538.082	390.38
538.296	397.38
538.51	381.38
538.724	406.38
538.938	399.38
539.153	387.38
539.367	404.38
539.581	399.38
539.795	419.38
540.009	385.38
540.222	394.38
540.436	412.38
540.65	388.38
540.864	415.38
541.078	394.38
541.292	403.38
541.506	387.38
541.72	405.38
541.934	386.38
542.147	383.38
542.361	380.38
542.575	389.38
542.789	388.38
543.002	405.38
543.216	397.38
543.43	411.38
543.644	409.38
543.857	393.38
544.071	399.38
544.285	400.38
544.498	377.38
544.712	375.38
544.925	392.38
545.139	379.38
545.352	382.38
545.566	388.38
545.779	369.38
545.993	383.38
546.206	385.38
546.42	382.38
546.633	364.38
546.847	380.38
547.06	370.38
547.274	375.38
547.487	374.38
547.7	365.38
547.914	362.38
548.127	358.38
548.34	360.38
548.554	368.38
548.767	373.38
548.98	354.38
549.193	357.38
549.407	364.38
549.62	376.38
549.833	364.38
550.046	369.38
550.259	377.38
550.473	357.38
550.686	354.38
550.899	369.38
551.112	360.38
551.325	365.38
551.538	362.38
551.751	367.38
551.964	368.38
552.177	366.38
552.39	362.38
552.603	378.38
552.816	381.38
553.029	350.38
553.242	359.38
553.455	373.38
553.667	390.38
553.88	401.38
554.093	383.38
554.306	370.38
554.519	381.38
554.732	369.38
554.944	354.38
555.157	367.38
555.37	343.38
555.583	362.38
555.795	361.38
556.008	354.38
556.221	348.38
556.433	341.38
556.646	334.38
556.859	338.38
557.071	345.38
557.284	343.38
557.496	338.38
557.709	349.38
557.921	347.38
558.134	342.38
558.346	341.38
558.559	346.38
558.771	324.38
558.984	326.38
559.196	318.38
559.409	349.38
559.621	348.38
559.833	355.38
560.046	345.38
560.258	315.38
560.47	332.38
560.683	315.38
560.895	324.38
561.107	315.38
561.32	325.38
561.532	330.38
561.744	327.38
561.956	317.38
562.168	322.38
562.381	350.38
562.593	305.38
562.805	321.38
563.017	337.38
563.229	313.38
563.441	338.38
563.653	341.38
563.865	349.38
564.077	337.38
564.289	330.38
564.501	341.38
564.713	342.38
564.925	338.38
565.137	364.38
565.349	356.38
565.561	335.38
565.773	364.38
565.985	353.38
566.197	362.38
566.408	366.38
566.62	362.38
566.832	383.38
567.044	378.38
567.255	397.38
567.467	385.38
567.679	385.38
567.891	371.38
568.102	366.38
568.314	365.38
568.526	379.38
568.737	366.38
568.949	336.38
569.161	343.38
569.372	342.38
569.584	334.38
569.795	339.38
570.007	319.38
570.218	381.38
570.43	353.38
570.641	336.38
570.853	314.38
571.064	328.38
571.276	321.38
571.487	301.38
571.698	312.38
571.91	319.38
572.121	311.38
572.333	295.38
572.544	306.38
572.755	311.38
572.966	295.38
573.178	310.38
573.389	281.38
573.6	298.38
573.811	303.38
574.023	315.38
574.234	290.38
574.445	297.38
574.656	289.38
574.867	294.38
575.078	306.38
575.289	284.38
575.501	303.38
575.712	276.38
575.923	302.38
576.134	282.38
576.345	277.38
576.556	271.38
576.767	275.38
576.978	281.38
577.188	286.38
577.399	269.38
577.61	253.38
577.821	271.38
578.032	286.38
578.243	325.38
578.454	527.38
578.665	396.38
578.875	298.38
579.086	282.38
579.297	296.38
579.508	278.38
579.718	286.38
579.929	277.38
580.14	275.38
580.35	269.38
580.561	279.38
580.772	269.38
580.982	266.38
581.193	271.38
581.403	260.38
581.614	262.38
581.825	254.38
582.035	267.38
582.246	260.38
582.456	259.38
582.667	269.38
582.877	276.38
583.087	252.38
583.298	280.38
583.508	262.38
583.719	264.38
583.929	258.38
584.139	267.38
584.35	263.38
584.56	269.38
584.77	256.38
584.981	261.38
585.191	261.38
585.401	268.38
585.611	273.38
585.821	277.38
586.032	254.38
586.242	259.38
586.452	262.38
586.662	255.38
586.872	246.38
587.082	269.38
587.292	265.38
587.502	245.38
587.713	253.38
587.923	254.38
588.133	246.38
588.343	242.38
588.553	226.38
588.762	247.38
588.972	248.38
589.182	245.38
589.392	247.38
589.602	227.38
589.812	262.38
590.022	252.38
590.232	246.38
590.441	253.38
590.651	250.38
590.861	258.38
591.071	276.38
591.281	262.38
591.49	255.38
591.7	243.38
591.91	254.38
592.119	253.38
592.329	251.38
592.539	242.38
592.748	259.38
592.958	266.38
593.167	251.38
593.377	260.38
593.587	265.38
593.796	255.38
594.006	239.38
594.215	277.38
594.424	246.38
594.634	250.38
594.843	273.38
595.053	242.38
595.262	263.38
595.472	252.38
595.681	238.38
595.89	239.38
596.1	245.38
596.309	242.38
596.518	262.38
596.727	229.38
596.937	231.38
597.146	244.38
597.355	257.38
597.564	220.38
597.774	233.38
597.983	229.38
598.192	234.38
598.401	241.38
598.61	221.38
598.819	235.38
599.028	227.38
599.237	234.38
599.446	219.38
599.655	235.38
599.864	234.38
600.073	231.38
600.282	236.38
600.491	222.38
600.7	225.38
600.909	234.38
601.118	223.38
601.327	232.38
601.536	227.38
601.745	219.38
601.953	225.38
602.162	198.38
602.371	234.38
602.58	220.38
602.789	216.38
602.997	219.38
603.206	216.38
603.415	219.38
603.623	214.38
603.832	219.38
604.041	218.38
604.249	203.38
604.458	212.38
604.666	211.38
604.875	203.38
605.084	233.38
605.292	211.38
605.501	191.38
605.709	218.38
605.918	213.38
606.126	211.38
606.334	208.38
606.543	224.38
606.751	205.38
606.96	231.38
607.168	207.38
607.376	199.38
607.585	204.38
607.793	204.38
608.001	207.38
608.21	204.38
608.418	208.38
608.626	224.38
608.834	199.38
609.043	213.38
609.251	214.38
609.459	213.38
609.667	205.38
609.875	211.38
610.083	195.38
610.291	213.38
610.499	216.38
610.707	207.38
610.916	214.38
611.124	217.38
611.332	199.38
611.54	220.38
611.748	209.38
611.955	191.38
612.163	216.38
612.371	178.38
612.579	202.38
612.787	215.38
612.995	202.38
613.203	222.38
613.411	212.38
613.618	214.38
613.826	225.38
614.034	197.38
614.242	206.38
614.449	202.38
614.657	203.38
614.865	211.38
615.072	199.38
615.28	205.38
615.488	204.38
615.695	194.38
615.903	198.38
616.111	204.38
616.318	221.38
616.526	213.38
616.733	193.38
616.941	195.38
617.148	201.38
617.356	194.38
617.563	201.38
617.771	219.38
617.978	194.38
618.185	196.38
618.393	181.38
618.6	195.38
618.807	206.38
619.015	191.38
619.222	183.38
619.429	197.38
619.637	221.38
619.844	206.38
620.051	200.38
620.258	197.38
620.466	202.38
620.673	181.38
620.88	183.38
621.087	180.38
621.294	207.38
621.501	186.38
621.708	196.38
621.915	203.38
622.122	191.38
622.329	191.38
622.536	199.38
622.743	204.38
622.95	185.38
623.157	197.38
623.364	188.38
623.571	192.38
623.778	195.38
623.985	206.38
624.192	208.38
624.399	193.38
624.606	190.38
624.812	194.38
625.019	193.38
625.226	196.38
625.433	186.38
625.639	187.38
625.846	180.38
626.053	188.38
626.259	179.38
626.466	195.38
626.673	179.38
626.879	194.38
627.086	200.38
627.293	177.38
627.499	179.38
627.706	187.38
627.912	171.38
628.119	179.38
628.325	154.38
628.532	165.38
628.738	163.38
628.945	193.38
629.151	179.38
629.357	181.38
629.564	188.38
629.77	191.38
629.976	172.38
630.183	174.38
630.389	181.38
630.595	172.38
630.802	186.38
631.008	173.38
631.214	168.38
631.42	195.38
631.627	179.38
631.833	157.38
632.039	171.38
632.245	168.38
632.451	164.38
632.657	160.38
632.863	174.38
633.069	162.38
633.275	166.38
633.481	158.38
633.688	179.38
633.893	158.38
634.099	170.38
634.305	168.38
634.511	178.38
634.717	174.38
634.923	175.38
635.129	181.38
635.335	174.38
635.541	157.38
635.747	167.38
635.952	154.38
636.158	170.38
636.364	168.38
636.57	168.38
636.775	153.38
636.981	161.38
637.187	169.38
637.392	149.38
637.598	154.38
637.804	150.38
638.009	171.38
638.215	191.38
638.421	157.38
638.626	152.38
638.832	142.38
639.037	162.38
639.243	165.38
639.448	166.38
639.654	166.38
639.859	161.38
640.065	154.38
640.27	169.38
640.475	158.38
640.681	163.38
640.886	144.38
641.091	163.38
641.297	166.38
641.502	150.38
641.707	152.38
641.913	160.38
642.118	145.38
642.323	165.38
642.528	166.38
642.733	163.38
642.939	156.38
643.144	143.38
643.349	149.38
643.554	163.38
643.759	159.38
643.964	149.38
644.169	144.38
644.374	146.38
644.579	162.38
644.784	154.38
644.989	153.38
645.194	152.38
645.399	138.38
645.604	150.38
645.809	166.38
646.014	162.38
646.219	157.38
646.423	148.38
646.628	152.38
646.833	153.38
647.038	149.38
647.243	148.38
647.447	151.38
647.652	144.38
647.857	144.38
648.062	145.38
648.266	161.38
648.471	165.38
648.676	149.38
648.88	165.38
649.085	154.38
649.289	158.38
649.494	158.38
649.698	179.38
649.903	185.38
650.107	147.38
650.312	155.38
650.516	149.38
650.721	125.38
650.925	145.38
651.13	143.38
651.334	154.38
651.539	140.38
651.743	143.38
651.947	152.38
652.152	144.38
652.356	141.38
652.56	145.38
652.764	123.38
652.969	129.38
653.173	120.38
653.377	122.38
653.581	146.38
653.785	126.38
653.99	140.38
654.194	132.38
654.398	127.38
654.602	138.38
654.806	134.38
655.01	133.38
655.214	138.38
655.418	134.38
655.622	129.38
655.826	126.38
656.03	125.38
656.234	119.38
656.438	128.38
656.642	142.38
656.846	145.38
657.049	129.38
657.253	127.38
657.457	117.38
657.661	108.38
657.865	107.38
658.068	103.38
658.272	113.38
658.476	106.38
658.68	109.38
658.883	110.38
659.087	113.38
659.291	101.38
659.494	107.38
659.698	109.38
659.901	102.38
660.105	113.38
660.309	110.38
660.512	96.38
660.716	97.38
660.919	83.38
661.123	86.38
661.326	94.38
661.53	95.38
661.733	93.38
661.936	86.38
662.14	102.38
662.343	100.38
662.546	91.38
662.75	91.38
662.953	101.38
663.156	89.38
663.36	80.38
663.563	99.38
663.766	86.38
663.969	91.38
664.173	87.38
664.376	68.38
664.579	84.38
664.782	93.38
664.985	91.38
665.188	83.38
665.391	96.38
665.594	82.38
665.797	106.38
666	86.38
666.203	75.38
666.406	81.38
666.609	86.38
666.812	83.38
667.015	92.38
667.218	85.38
667.421	90.38
667.624	91.38
667.827	80.38
668.03	86.38
668.232	95.38
668.435	104.38
668.638	101.38
668.841	97.38
669.043	70.38
669.246	78.38
669.449	86.38
669.651	95.38
669.854	98.38
670.057	91.38
670.259	82.38
670.462	71.38
670.665	103.38
670.867	82.38
671.07	88.38
671.272	86.38
671.475	77.38
671.677	91.38
671.88	91.38
672.082	89.38
672.284	94.38
672.487	77.38
672.689	81.38
672.892	70.38
