Data from 1961.PennyLincolnUp.Lamp.En5.5.200Scan.071719.P1._HRD10591_13-46-09-058.txt Node
Date: Thu Jul 18 13:46:09 EDT 2019
User: cochatt
Spectrometer: HR+D1059
Trigger mode: 1
Integration Time (sec): 1.000000E-1
Scans to average: 1
Electric dark correction enabled: true
Nonlinearity correction enabled: false
Boxcar width: 0
XAxis mode: Wavelengths
Number of Pixels in Spectrum: 2048
>>>>>Begin Spectral Data<<<<<
223.165	-20.94
223.4	-20.94
223.635	-20.94
223.869	-12.94
224.104	-14.94
224.338	-11.94
224.573	-25.94
224.808	-26.94
225.042	-5.94
225.277	-2.94
225.511	-6.94
225.746	11.06
225.98	16.06
226.215	27.06
226.449	3.06
226.683	10.06
226.918	31.06
227.152	31.06
227.387	38.06
227.621	38.06
227.856	29.06
228.09	55.06
228.324	54.06
228.559	49.06
228.793	61.06
229.027	68.06
229.262	84.06
229.496	79.06
229.73	89.06
229.964	116.06
230.199	99.06
230.433	90.06
230.667	99.06
230.901	83.06
231.136	98.06
231.37	85.06
231.604	95.06
231.838	99.06
232.072	90.06
232.306	93.06
232.541	103.06
232.775	97.06
233.009	90.06
233.243	97.06
233.477	94.06
233.711	104.06
233.945	102.06
234.179	100.06
234.413	94.06
234.647	83.06
234.881	107.06
235.115	109.06
235.349	88.06
235.583	85.06
235.817	87.06
236.051	107.06
236.285	104.06
236.519	96.06
236.753	111.06
236.987	113.06
237.221	128.06
237.455	157.06
237.689	140.06
237.922	109.06
238.156	99.06
238.39	95.06
238.624	96.06
238.858	93.06
239.091	102.06
239.325	96.06
239.559	97.06
239.793	98.06
240.027	113.06
240.26	112.06
240.494	113.06
240.728	110.06
240.961	107.06
241.195	111.06
241.429	105.06
241.662	104.06
241.896	108.06
242.13	107.06
242.363	99.06
242.597	102.06
242.83	106.06
243.064	99.06
243.298	109.06
243.531	91.06
243.765	100.06
243.998	118.06
244.232	107.06
244.465	121.06
244.699	104.06
244.932	122.06
245.166	97.06
245.399	127.06
245.633	104.06
245.866	127.06
246.099	113.06
246.333	115.06
246.566	116.06
246.8	127.06
247.033	112.06
247.266	103.06
247.5	133.06
247.733	128.06
247.966	129.06
248.2	121.06
248.433	139.06
248.666	123.06
248.899	134.06
249.133	121.06
249.366	135.06
249.599	145.06
249.832	130.06
250.066	131.06
250.299	123.06
250.532	130.06
250.765	145.06
250.998	151.06
251.231	153.06
251.465	147.06
251.698	138.06
251.931	143.06
252.164	141.06
252.397	142.06
252.63	139.06
252.863	134.06
253.096	152.06
253.329	155.06
253.562	162.06
253.795	153.06
254.028	146.06
254.261	145.06
254.494	154.06
254.727	173.06
254.96	165.06
255.193	160.06
255.426	162.06
255.659	148.06
255.892	132.06
256.124	149.06
256.357	168.06
256.59	157.06
256.823	153.06
257.056	162.06
257.289	155.06
257.521	144.06
257.754	144.06
257.987	153.06
258.22	153.06
258.452	145.06
258.685	143.06
258.918	164.06
259.151	149.06
259.383	149.06
259.616	151.06
259.849	156.06
260.081	151.06
260.314	168.06
260.547	163.06
260.779	169.06
261.012	177.06
261.244	167.06
261.477	137.06
261.71	145.06
261.942	147.06
262.175	155.06
262.407	157.06
262.64	126.06
262.872	142.06
263.105	157.06
263.337	163.06
263.57	144.06
263.802	139.06
264.035	158.06
264.267	141.06
264.499	149.06
264.732	144.06
264.964	154.06
265.197	159.06
265.429	168.06
265.661	147.06
265.894	151.06
266.126	141.06
266.358	165.06
266.591	139.06
266.823	158.06
267.055	160.06
267.287	151.06
267.52	156.06
267.752	164.06
267.984	163.06
268.216	155.06
268.448	150.06
268.681	169.06
268.913	157.06
269.145	176.06
269.377	173.06
269.609	186.06
269.841	166.06
270.073	165.06
270.306	199.06
270.538	193.06
270.77	187.06
271.002	183.06
271.234	196.06
271.466	188.06
271.698	190.06
271.93	200.06
272.162	206.06
272.394	208.06
272.626	205.06
272.858	190.06
273.09	173.06
273.322	177.06
273.553	166.06
273.785	193.06
274.017	155.06
274.249	180.06
274.481	185.06
274.713	181.06
274.945	179.06
275.176	189.06
275.408	179.06
275.64	184.06
275.872	182.06
276.104	185.06
276.335	186.06
276.567	192.06
276.799	185.06
277.031	186.06
277.262	185.06
277.494	210.06
277.726	173.06
277.957	188.06
278.189	168.06
278.421	175.06
278.652	179.06
278.884	190.06
279.115	184.06
279.347	194.06
279.579	190.06
279.81	177.06
280.042	187.06
280.273	195.06
280.505	179.06
280.736	189.06
280.968	177.06
281.199	178.06
281.431	178.06
281.662	192.06
281.894	185.06
282.125	178.06
282.356	173.06
282.588	201.06
282.819	191.06
283.051	203.06
283.282	183.06
283.513	178.06
283.745	185.06
283.976	174.06
284.207	175.06
284.439	210.06
284.67	200.06
284.901	189.06
285.132	189.06
285.364	192.06
285.595	199.06
285.826	179.06
286.057	193.06
286.288	195.06
286.52	199.06
286.751	186.06
286.982	185.06
287.213	184.06
287.444	198.06
287.675	175.06
287.906	195.06
288.138	205.06
288.369	197.06
288.6	205.06
288.831	196.06
289.062	199.06
289.293	191.06
289.524	190.06
289.755	187.06
289.986	182.06
290.217	197.06
290.448	204.06
290.679	206.06
290.91	197.06
291.141	179.06
291.371	189.06
291.602	201.06
291.833	190.06
292.064	195.06
292.295	198.06
292.526	200.06
292.757	188.06
292.987	201.06
293.218	199.06
293.449	204.06
293.68	199.06
293.91	205.06
294.141	185.06
294.372	186.06
294.603	190.06
294.833	203.06
295.064	191.06
295.295	182.06
295.525	194.06
295.756	198.06
295.987	207.06
296.217	209.06
296.448	217.06
296.679	197.06
296.909	183.06
297.14	198.06
297.37	205.06
297.601	192.06
297.831	198.06
298.062	202.06
298.292	199.06
298.523	208.06
298.753	213.06
298.984	207.06
299.214	209.06
299.445	194.06
299.675	185.06
299.905	207.06
300.136	200.06
300.366	194.06
300.597	210.06
300.827	198.06
301.057	209.06
301.288	202.06
301.518	207.06
301.748	208.06
301.979	215.06
302.209	210.06
302.439	210.06
302.669	221.06
302.9	229.06
303.13	200.06
303.36	215.06
303.59	225.06
303.82	233.06
304.051	218.06
304.281	208.06
304.511	216.06
304.741	215.06
304.971	228.06
305.201	215.06
305.431	214.06
305.661	198.06
305.891	212.06
306.121	214.06
306.352	226.06
306.582	207.06
306.812	214.06
307.042	222.06
307.272	217.06
307.502	220.06
307.731	228.06
307.961	208.06
308.191	216.06
308.421	234.06
308.651	206.06
308.881	219.06
309.111	221.06
309.341	222.06
309.571	215.06
309.8	224.06
310.03	217.06
310.26	237.06
310.49	227.06
310.72	246.06
310.949	259.06
311.179	243.06
311.409	224.06
311.639	234.06
311.868	233.06
312.098	249.06
312.328	246.06
312.557	234.06
312.787	250.06
313.017	241.06
313.246	254.06
313.476	218.06
313.706	249.06
313.935	259.06
314.165	253.06
314.394	244.06
314.624	246.06
314.853	248.06
315.083	267.06
315.312	238.06
315.542	243.06
315.771	246.06
316.001	220.06
316.23	261.06
316.46	223.06
316.689	230.06
316.919	243.06
317.148	265.06
317.377	249.06
317.607	251.06
317.836	255.06
318.065	246.06
318.295	240.06
318.524	235.06
318.753	231.06
318.983	249.06
319.212	246.06
319.441	255.06
319.67	252.06
319.9	239.06
320.129	243.06
320.358	259.06
320.587	244.06
320.816	239.06
321.046	233.06
321.275	263.06
321.504	259.06
321.733	257.06
321.962	262.06
322.191	271.06
322.42	277.06
322.649	286.06
322.878	275.06
323.108	287.06
323.337	293.06
323.566	282.06
323.795	312.06
324.024	329.06
324.253	406.06
324.482	591.06
324.71	866.06
324.939	1210.06
325.168	1014.06
325.397	528.06
325.626	374.06
325.855	343.06
326.084	317.06
326.313	308.06
326.542	293.06
326.77	323.06
326.999	393.06
327.228	532.06
327.457	749.06
327.686	885.06
327.914	594.06
328.143	425.06
328.372	374.06
328.6	333.06
328.829	329.06
329.058	343.06
329.287	336.06
329.515	325.06
329.744	301.06
329.972	317.06
330.201	318.06
330.43	313.06
330.658	347.06
330.887	361.06
331.115	347.06
331.344	304.06
331.572	318.06
331.801	298.06
332.03	300.06
332.258	305.06
332.486	281.06
332.715	276.06
332.943	293.06
333.172	277.06
333.4	285.06
333.629	274.06
333.857	299.06
334.085	297.06
334.314	303.06
334.542	309.06
334.771	329.06
334.999	309.06
335.227	290.06
335.455	307.06
335.684	287.06
335.912	285.06
336.14	283.06
336.369	286.06
336.597	282.06
336.825	293.06
337.053	283.06
337.281	312.06
337.51	303.06
337.738	289.06
337.966	273.06
338.194	279.06
338.422	271.06
338.65	293.06
338.878	273.06
339.106	286.06
339.334	303.06
339.562	271.06
339.79	275.06
340.018	289.06
340.246	273.06
340.474	282.06
340.702	272.06
340.93	278.06
341.158	264.06
341.386	297.06
341.614	279.06
341.842	276.06
342.07	280.06
342.298	297.06
342.526	285.06
342.754	281.06
342.981	278.06
343.209	260.06
343.437	267.06
343.665	280.06
343.893	261.06
344.12	277.06
344.348	269.06
344.576	267.06
344.804	296.06
345.031	279.06
345.259	296.06
345.487	285.06
345.714	281.06
345.942	282.06
346.17	270.06
346.397	281.06
346.625	285.06
346.853	263.06
347.08	258.06
347.308	261.06
347.535	261.06
347.763	275.06
347.99	272.06
348.218	252.06
348.445	248.06
348.673	291.06
348.9	294.06
349.128	273.06
349.355	263.06
349.583	264.06
349.81	283.06
350.037	262.06
350.265	272.06
350.492	273.06
350.72	253.06
350.947	271.06
351.174	275.06
351.402	286.06
351.629	286.06
351.856	265.06
352.083	280.06
352.311	279.06
352.538	277.06
352.765	284.06
352.992	272.06
353.22	291.06
353.447	273.06
353.674	273.06
353.901	275.06
354.128	260.06
354.355	261.06
354.583	262.06
354.81	257.06
355.037	257.06
355.264	261.06
355.491	259.06
355.718	238.06
355.945	271.06
356.172	252.06
356.399	271.06
356.626	250.06
356.853	259.06
357.08	279.06
357.307	273.06
357.534	250.06
357.761	273.06
357.988	266.06
358.215	271.06
358.441	258.06
358.668	269.06
358.895	275.06
359.122	265.06
359.349	261.06
359.576	263.06
359.802	273.06
360.029	296.06
360.256	293.06
360.483	299.06
360.709	270.06
360.936	273.06
361.163	270.06
361.39	275.06
361.616	258.06
361.843	278.06
362.07	294.06
362.296	286.06
362.523	272.06
362.749	263.06
362.976	267.06
363.203	251.06
363.429	282.06
363.656	271.06
363.882	248.06
364.109	274.06
364.335	264.06
364.562	270.06
364.788	262.06
365.015	253.06
365.241	272.06
365.468	264.06
365.694	261.06
365.92	266.06
366.147	257.06
366.373	242.06
366.599	295.06
366.826	263.06
367.052	278.06
367.278	274.06
367.505	260.06
367.731	268.06
367.957	262.06
368.184	276.06
368.41	263.06
368.636	278.06
368.862	276.06
369.089	255.06
369.315	282.06
369.541	282.06
369.767	270.06
369.993	277.06
370.219	263.06
370.445	261.06
370.672	279.06
370.898	271.06
371.124	270.06
371.35	258.06
371.576	280.06
371.802	264.06
372.028	263.06
372.254	268.06
372.48	279.06
372.706	266.06
372.932	257.06
373.158	281.06
373.384	273.06
373.61	275.06
373.835	284.06
374.061	263.06
374.287	277.06
374.513	282.06
374.739	271.06
374.965	282.06
375.191	265.06
375.416	299.06
375.642	274.06
375.868	298.06
376.094	288.06
376.319	274.06
376.545	289.06
376.771	289.06
376.997	278.06
377.222	271.06
377.448	266.06
377.674	272.06
377.899	285.06
378.125	255.06
378.35	270.06
378.576	275.06
378.802	297.06
379.027	256.06
379.253	286.06
379.478	279.06
379.704	268.06
379.929	274.06
380.155	266.06
380.38	286.06
380.606	283.06
380.831	268.06
381.057	286.06
381.282	279.06
381.507	272.06
381.733	288.06
381.958	267.06
382.184	273.06
382.409	294.06
382.634	268.06
382.86	287.06
383.085	279.06
383.31	293.06
383.535	304.06
383.761	290.06
383.986	285.06
384.211	291.06
384.436	285.06
384.662	319.06
384.887	293.06
385.112	303.06
385.337	310.06
385.562	303.06
385.787	325.06
386.013	313.06
386.238	314.06
386.463	316.06
386.688	324.06
386.913	312.06
387.138	323.06
387.363	317.06
387.588	305.06
387.813	318.06
388.038	309.06
388.263	313.06
388.488	316.06
388.713	291.06
388.938	315.06
389.163	301.06
389.387	310.06
389.612	296.06
389.837	290.06
390.062	300.06
390.287	308.06
390.512	298.06
390.736	304.06
390.961	299.06
391.186	311.06
391.411	319.06
391.636	297.06
391.86	293.06
392.085	327.06
392.31	323.06
392.534	307.06
392.759	306.06
392.984	302.06
393.208	314.06
393.433	335.06
393.658	327.06
393.882	287.06
394.107	294.06
394.331	324.06
394.556	302.06
394.78	291.06
395.005	293.06
395.229	298.06
395.454	314.06
395.678	306.06
395.903	330.06
396.127	336.06
396.352	344.06
396.576	299.06
396.801	317.06
397.025	322.06
397.249	306.06
397.474	315.06
397.698	317.06
397.922	309.06
398.147	334.06
398.371	325.06
398.595	339.06
398.82	333.06
399.044	346.06
399.268	340.06
399.492	373.06
399.717	380.06
399.941	394.06
400.165	403.06
400.389	395.06
400.613	382.06
400.837	376.06
401.062	367.06
401.286	334.06
401.51	338.06
401.734	340.06
401.958	344.06
402.182	341.06
402.406	347.06
402.63	331.06
402.854	340.06
403.078	355.06
403.302	334.06
403.526	336.06
403.75	344.06
403.974	356.06
404.198	340.06
404.422	347.06
404.645	351.06
404.869	360.06
405.093	363.06
405.317	388.06
405.541	392.06
405.765	385.06
405.988	370.06
406.212	387.06
406.436	393.06
406.66	375.06
406.883	373.06
407.107	389.06
407.331	418.06
407.555	469.06
407.778	432.06
408.002	403.06
408.226	381.06
408.449	413.06
408.673	384.06
408.896	404.06
409.12	416.06
409.344	416.06
409.567	387.06
409.791	359.06
410.014	354.06
410.238	353.06
410.461	341.06
410.685	338.06
410.908	343.06
411.132	377.06
411.355	403.06
411.578	405.06
411.802	348.06
412.025	352.06
412.249	374.06
412.472	375.06
412.695	381.06
412.919	373.06
413.142	350.06
413.365	369.06
413.589	352.06
413.812	328.06
414.035	351.06
414.258	335.06
414.482	322.06
414.705	323.06
414.928	325.06
415.151	322.06
415.374	328.06
415.597	313.06
415.821	329.06
416.044	360.06
416.267	328.06
416.49	313.06
416.713	350.06
416.936	334.06
417.159	361.06
417.382	346.06
417.605	332.06
417.828	327.06
418.051	331.06
418.274	344.06
418.497	324.06
418.72	328.06
418.943	330.06
419.166	338.06
419.389	362.06
419.611	339.06
419.834	362.06
420.057	353.06
420.28	347.06
420.503	350.06
420.726	354.06
420.948	369.06
421.171	383.06
421.394	391.06
421.617	358.06
421.839	350.06
422.062	355.06
422.285	368.06
422.507	385.06
422.73	438.06
422.953	431.06
423.175	368.06
423.398	371.06
423.621	342.06
423.843	341.06
424.066	373.06
424.288	362.06
424.511	387.06
424.733	399.06
424.956	453.06
425.178	426.06
425.401	451.06
425.623	443.06
425.846	376.06
426.068	376.06
426.291	372.06
426.513	373.06
426.735	388.06
426.958	398.06
427.18	433.06
427.402	537.06
427.625	573.06
427.847	501.06
428.069	420.06
428.292	391.06
428.514	376.06
428.736	355.06
428.958	343.06
429.181	356.06
429.403	369.06
429.625	356.06
429.847	369.06
430.069	409.06
430.292	390.06
430.514	353.06
430.736	331.06
430.958	337.06
431.18	331.06
431.402	343.06
431.624	314.06
431.846	337.06
432.068	341.06
432.29	321.06
432.512	316.06
432.734	342.06
432.956	330.06
433.178	352.06
433.4	344.06
433.622	349.06
433.844	330.06
434.066	329.06
434.287	335.06
434.509	335.06
434.731	342.06
434.953	313.06
435.175	353.06
435.397	362.06
435.618	354.06
435.84	409.06
436.062	462.06
436.284	480.06
436.505	411.06
436.727	390.06
436.949	356.06
437.17	368.06
437.392	349.06
437.614	362.06
437.835	375.06
438.057	438.06
438.278	490.06
438.5	501.06
438.721	543.06
438.943	504.06
439.165	397.06
439.386	389.06
439.608	370.06
439.829	369.06
440.05	392.06
440.272	414.06
440.493	383.06
440.715	361.06
440.936	367.06
441.158	349.06
441.379	339.06
441.6	360.06
441.822	384.06
442.043	382.06
442.264	450.06
442.486	458.06
442.707	399.06
442.928	383.06
443.149	389.06
443.371	420.06
443.592	437.06
443.813	499.06
444.034	504.06
444.255	409.06
444.476	373.06
444.698	390.06
444.919	377.06
445.14	483.06
445.361	413.06
445.582	390.06
445.803	420.06
446.024	490.06
446.245	489.06
446.466	456.06
446.687	396.06
446.908	394.06
447.129	367.06
447.35	357.06
447.571	352.06
447.792	342.06
448.013	355.06
448.234	355.06
448.455	381.06
448.675	463.06
448.896	520.06
449.117	458.06
449.338	445.06
449.559	505.06
449.779	547.06
450	465.06
450.221	382.06
450.442	355.06
450.662	338.06
450.883	331.06
451.104	366.06
451.324	340.06
451.545	315.06
451.766	309.06
451.986	301.06
452.207	301.06
452.428	315.06
452.648	321.06
452.869	313.06
453.089	328.06
453.31	362.06
453.53	323.06
453.751	304.06
453.971	301.06
454.192	319.06
454.412	313.06
454.633	310.06
454.853	322.06
455.073	305.06
455.294	309.06
455.514	357.06
455.734	375.06
455.955	344.06
456.175	305.06
456.395	294.06
456.616	315.06
456.836	314.06
457.056	323.06
457.276	305.06
457.497	292.06
457.717	314.06
457.937	305.06
458.157	323.06
458.377	309.06
458.598	328.06
458.818	335.06
459.038	414.06
459.258	418.06
459.478	359.06
459.698	325.06
459.918	328.06
460.138	334.06
460.358	324.06
460.578	357.06
460.798	330.06
461.018	358.06
461.238	358.06
461.458	344.06
461.678	356.06
461.898	342.06
462.118	360.06
462.338	350.06
462.558	353.06
462.777	365.06
462.997	372.06
463.217	365.06
463.437	375.06
463.657	363.06
463.876	379.06
464.096	365.06
464.316	360.06
464.536	384.06
464.755	377.06
464.975	354.06
465.195	384.06
465.414	429.06
465.634	377.06
465.854	354.06
466.073	343.06
466.293	341.06
466.512	354.06
466.732	328.06
466.951	348.06
467.171	330.06
467.391	319.06
467.61	335.06
467.829	331.06
468.049	330.06
468.268	326.06
468.488	332.06
468.707	323.06
468.927	326.06
469.146	320.06
469.365	320.06
469.585	330.06
469.804	313.06
470.023	346.06
470.243	343.06
470.462	327.06
470.681	346.06
470.901	340.06
471.12	338.06
471.339	329.06
471.558	344.06
471.777	336.06
471.997	321.06
472.216	333.06
472.435	351.06
472.654	346.06
472.873	328.06
473.092	331.06
473.311	361.06
473.53	349.06
473.749	350.06
473.968	378.06
474.187	418.06
474.406	433.06
474.625	373.06
474.844	353.06
475.063	338.06
475.282	348.06
475.501	344.06
475.72	352.06
475.939	350.06
476.158	349.06
476.377	351.06
476.596	337.06
476.814	357.06
477.033	334.06
477.252	357.06
477.471	367.06
477.69	360.06
477.908	365.06
478.127	369.06
478.346	368.06
478.564	382.06
478.783	368.06
479.002	365.06
479.22	372.06
479.439	400.06
479.658	385.06
479.876	405.06
480.095	406.06
480.313	426.06
480.532	405.06
480.751	380.06
480.969	395.06
481.188	425.06
481.406	461.06
481.624	393.06
481.843	404.06
482.061	427.06
482.28	385.06
482.498	393.06
482.717	406.06
482.935	385.06
483.153	391.06
483.372	382.06
483.59	418.06
483.808	414.06
484.027	404.06
484.245	389.06
484.463	421.06
484.681	405.06
484.9	394.06
485.118	397.06
485.336	389.06
485.554	388.06
485.772	401.06
485.99	407.06
486.209	398.06
486.427	405.06
486.645	398.06
486.863	423.06
487.081	436.06
487.299	424.06
487.517	428.06
487.735	419.06
487.953	437.06
488.171	403.06
488.389	428.06
488.607	401.06
488.825	426.06
489.043	431.06
489.261	433.06
489.479	415.06
489.696	444.06
489.914	452.06
490.132	433.06
490.35	438.06
490.568	444.06
490.786	440.06
491.003	452.06
491.221	468.06
491.439	461.06
491.657	467.06
491.874	456.06
492.092	478.06
492.31	488.06
492.527	451.06
492.745	447.06
492.963	482.06
493.18	466.06
493.398	471.06
493.615	481.06
493.833	472.06
494.05	486.06
494.268	477.06
494.485	484.06
494.703	482.06
494.92	493.06
495.138	470.06
495.355	473.06
495.573	490.06
495.79	496.06
496.008	493.06
496.225	476.06
496.442	486.06
496.66	479.06
496.877	487.06
497.094	489.06
497.312	511.06
497.529	500.06
497.746	529.06
497.963	495.06
498.181	541.06
498.398	519.06
498.615	565.06
498.832	542.06
499.049	553.06
499.267	568.06
499.484	566.06
499.701	602.06
499.918	605.06
500.135	639.06
500.352	638.06
500.569	656.06
500.786	657.06
501.003	665.06
501.22	647.06
501.437	652.06
501.654	614.06
501.871	607.06
502.088	590.06
502.305	569.06
502.522	574.06
502.739	563.06
502.956	558.06
503.172	526.06
503.389	501.06
503.606	511.06
503.823	521.06
504.04	507.06
504.256	512.06
504.473	521.06
504.69	513.06
504.907	516.06
505.123	476.06
505.34	483.06
505.557	495.06
505.773	487.06
505.99	473.06
506.207	481.06
506.423	474.06
506.64	445.06
506.856	466.06
507.073	459.06
507.289	462.06
507.506	435.06
507.722	463.06
507.939	478.06
508.155	441.06
508.372	433.06
508.588	430.06
508.805	434.06
509.021	440.06
509.238	439.06
509.454	445.06
509.67	450.06
509.887	456.06
510.103	451.06
510.319	450.06
510.536	505.06
510.752	740.06
510.968	608.06
511.184	448.06
511.401	434.06
511.617	445.06
511.833	423.06
512.049	416.06
512.265	446.06
512.481	427.06
512.698	399.06
512.914	408.06
513.13	421.06
513.346	441.06
513.562	437.06
513.778	436.06
513.994	430.06
514.21	437.06
514.426	467.06
514.642	468.06
514.858	490.06
515.074	461.06
515.29	541.06
515.506	732.06
515.721	619.06
515.937	483.06
516.153	463.06
516.369	451.06
516.585	425.06
516.801	434.06
517.016	422.06
517.232	428.06
517.448	434.06
517.664	428.06
517.879	438.06
518.095	440.06
518.311	437.06
518.527	425.06
518.742	413.06
518.958	432.06
519.173	432.06
519.389	422.06
519.605	423.06
519.82	411.06
520.036	450.06
520.251	432.06
520.467	451.06
520.682	468.06
520.898	442.06
521.113	471.06
521.329	474.06
521.544	517.06
521.76	629.06
521.975	916.06
522.19	907.06
522.406	565.06
522.621	449.06
522.836	419.06
523.052	421.06
523.267	394.06
523.482	374.06
523.698	384.06
523.913	385.06
524.128	388.06
524.343	395.06
524.559	376.06
524.774	384.06
524.989	399.06
525.204	395.06
525.419	387.06
525.634	385.06
525.849	386.06
526.064	357.06
526.28	371.06
526.495	354.06
526.71	374.06
526.925	355.06
527.14	368.06
527.355	351.06
527.57	359.06
527.785	369.06
527.999	358.06
528.214	345.06
528.429	370.06
528.644	360.06
528.859	363.06
529.074	361.06
529.289	360.06
529.503	426.06
529.718	391.06
529.933	383.06
530.148	367.06
530.363	376.06
530.577	362.06
530.792	350.06
531.007	359.06
531.221	356.06
531.436	363.06
531.651	359.06
531.865	360.06
532.08	360.06
532.295	352.06
532.509	358.06
532.724	347.06
532.938	346.06
533.153	353.06
533.367	336.06
533.582	329.06
533.796	345.06
534.011	345.06
534.225	340.06
534.44	344.06
534.654	330.06
534.868	345.06
535.083	358.06
535.297	334.06
535.511	351.06
535.726	351.06
535.94	342.06
536.154	344.06
536.369	339.06
536.583	345.06
536.797	350.06
537.011	351.06
537.225	327.06
537.44	323.06
537.654	330.06
537.868	319.06
538.082	337.06
538.296	348.06
538.51	344.06
538.724	348.06
538.938	359.06
539.153	355.06
539.367	343.06
539.581	338.06
539.795	327.06
540.009	325.06
540.222	326.06
540.436	333.06
540.65	345.06
540.864	318.06
541.078	342.06
541.292	335.06
541.506	337.06
541.72	326.06
541.934	351.06
542.147	337.06
542.361	338.06
542.575	342.06
542.789	346.06
543.002	346.06
543.216	335.06
543.43	343.06
543.644	328.06
543.857	303.06
544.071	334.06
544.285	341.06
544.498	343.06
544.712	354.06
544.925	339.06
545.139	342.06
545.352	335.06
545.566	321.06
545.779	329.06
545.993	345.06
546.206	323.06
546.42	338.06
546.633	337.06
546.847	339.06
547.06	333.06
547.274	323.06
547.487	320.06
547.7	334.06
547.914	331.06
548.127	342.06
548.34	331.06
548.554	325.06
548.767	320.06
548.98	343.06
549.193	330.06
549.407	316.06
549.62	320.06
549.833	321.06
550.046	323.06
550.259	306.06
550.473	328.06
550.686	305.06
550.899	335.06
551.112	313.06
551.325	316.06
551.538	307.06
551.751	320.06
551.964	315.06
552.177	335.06
552.39	319.06
552.603	314.06
552.816	325.06
553.029	347.06
553.242	333.06
553.455	322.06
553.667	323.06
553.88	322.06
554.093	324.06
554.306	323.06
554.519	321.06
554.732	315.06
554.944	322.06
555.157	309.06
555.37	313.06
555.583	306.06
555.795	309.06
556.008	322.06
556.221	315.06
556.433	312.06
556.646	290.06
556.859	311.06
557.071	309.06
557.284	297.06
557.496	302.06
557.709	313.06
557.921	301.06
558.134	294.06
558.346	287.06
558.559	298.06
558.771	309.06
558.984	303.06
559.196	286.06
559.409	321.06
559.621	303.06
559.833	285.06
560.046	312.06
560.258	298.06
560.47	303.06
560.683	296.06
560.895	314.06
561.107	282.06
561.32	281.06
561.532	281.06
561.744	285.06
561.956	296.06
562.168	306.06
562.381	289.06
562.593	314.06
562.805	299.06
563.017	292.06
563.229	320.06
563.441	313.06
563.653	312.06
563.865	295.06
564.077	317.06
564.289	288.06
564.501	296.06
564.713	291.06
564.925	296.06
565.137	307.06
565.349	306.06
565.561	322.06
565.773	309.06
565.985	319.06
566.197	345.06
566.408	329.06
566.62	323.06
566.832	342.06
567.044	345.06
567.255	358.06
567.467	356.06
567.679	341.06
567.891	322.06
568.102	351.06
568.314	353.06
568.526	324.06
568.737	325.06
568.949	309.06
569.161	325.06
569.372	306.06
569.584	305.06
569.795	300.06
570.007	307.06
570.218	318.06
570.43	309.06
570.641	294.06
570.853	273.06
571.064	285.06
571.276	296.06
571.487	296.06
571.698	266.06
571.91	290.06
572.121	274.06
572.333	281.06
572.544	293.06
572.755	267.06
572.966	282.06
573.178	263.06
573.389	261.06
573.6	261.06
573.811	278.06
574.023	258.06
574.234	261.06
574.445	265.06
574.656	248.06
574.867	245.06
575.078	271.06
575.289	268.06
575.501	256.06
575.712	256.06
575.923	260.06
576.134	250.06
576.345	257.06
576.556	240.06
576.767	232.06
576.978	260.06
577.188	249.06
577.399	261.06
577.61	261.06
577.821	249.06
578.032	276.06
578.243	283.06
578.454	357.06
578.665	285.06
578.875	240.06
579.086	240.06
579.297	240.06
579.508	244.06
579.718	240.06
579.929	228.06
580.14	224.06
580.35	263.06
580.561	231.06
580.772	243.06
580.982	245.06
581.193	253.06
581.403	250.06
581.614	235.06
581.825	241.06
582.035	237.06
582.246	242.06
582.456	243.06
582.667	253.06
582.877	234.06
583.087	233.06
583.298	249.06
583.508	232.06
583.719	233.06
583.929	242.06
584.139	225.06
584.35	241.06
584.56	246.06
584.77	236.06
584.981	233.06
585.191	244.06
585.401	240.06
585.611	221.06
585.821	233.06
586.032	241.06
586.242	239.06
586.452	212.06
586.662	226.06
586.872	233.06
587.082	245.06
587.292	238.06
587.502	232.06
587.713	247.06
587.923	239.06
588.133	227.06
588.343	240.06
588.553	226.06
588.762	242.06
588.972	244.06
589.182	268.06
589.392	254.06
589.602	217.06
589.812	239.06
590.022	263.06
590.232	241.06
590.441	221.06
590.651	241.06
590.861	269.06
591.071	222.06
591.281	241.06
591.49	242.06
591.7	243.06
591.91	235.06
592.119	234.06
592.329	226.06
592.539	237.06
592.748	232.06
592.958	247.06
593.167	226.06
593.377	232.06
593.587	247.06
593.796	246.06
594.006	225.06
594.215	251.06
594.424	259.06
594.634	238.06
594.843	231.06
595.053	247.06
595.262	245.06
595.472	239.06
595.681	235.06
595.89	219.06
596.1	217.06
596.309	221.06
596.518	220.06
596.727	216.06
596.937	235.06
597.146	209.06
597.355	223.06
597.564	212.06
597.774	228.06
597.983	204.06
598.192	213.06
598.401	207.06
598.61	199.06
598.819	202.06
599.028	235.06
599.237	216.06
599.446	216.06
599.655	203.06
599.864	214.06
600.073	213.06
600.282	191.06
600.491	202.06
600.7	211.06
600.909	203.06
601.118	209.06
601.327	193.06
601.536	207.06
601.745	183.06
601.953	195.06
602.162	201.06
602.371	203.06
602.58	195.06
602.789	187.06
602.997	191.06
603.206	192.06
603.415	226.06
603.623	202.06
603.832	205.06
604.041	203.06
604.249	216.06
604.458	194.06
604.666	200.06
604.875	193.06
605.084	203.06
605.292	199.06
605.501	205.06
605.709	201.06
605.918	196.06
606.126	193.06
606.334	199.06
606.543	199.06
606.751	225.06
606.96	202.06
607.168	197.06
607.376	199.06
607.585	190.06
607.793	206.06
608.001	184.06
608.21	188.06
608.418	195.06
608.626	183.06
608.834	176.06
609.043	201.06
609.251	185.06
609.459	200.06
609.667	197.06
609.875	184.06
610.083	192.06
610.291	191.06
610.499	196.06
610.707	193.06
610.916	205.06
611.124	202.06
611.332	203.06
611.54	187.06
611.748	200.06
611.955	196.06
612.163	188.06
612.371	187.06
612.579	192.06
612.787	182.06
612.995	185.06
613.203	197.06
613.411	194.06
613.618	181.06
613.826	182.06
614.034	187.06
614.242	176.06
614.449	175.06
614.657	179.06
614.865	177.06
615.072	197.06
615.28	200.06
615.488	173.06
615.695	192.06
615.903	183.06
616.111	186.06
616.318	208.06
616.526	179.06
616.733	183.06
616.941	179.06
617.148	189.06
617.356	200.06
617.563	179.06
617.771	177.06
617.978	185.06
618.185	165.06
618.393	169.06
618.6	198.06
618.807	191.06
619.015	184.06
619.222	191.06
619.429	167.06
619.637	170.06
619.844	184.06
620.051	190.06
620.258	181.06
620.466	182.06
620.673	181.06
620.88	188.06
621.087	196.06
621.294	188.06
621.501	169.06
621.708	174.06
621.915	191.06
622.122	186.06
622.329	168.06
622.536	178.06
622.743	171.06
622.95	166.06
623.157	174.06
623.364	177.06
623.571	175.06
623.778	187.06
623.985	168.06
624.192	173.06
624.399	175.06
624.606	175.06
624.812	185.06
625.019	167.06
625.226	169.06
625.433	175.06
625.639	178.06
625.846	177.06
626.053	165.06
626.259	170.06
626.466	172.06
626.673	181.06
626.879	187.06
627.086	171.06
627.293	174.06
627.499	173.06
627.706	177.06
627.912	184.06
628.119	164.06
628.325	166.06
628.532	165.06
628.738	157.06
628.945	163.06
629.151	161.06
629.357	168.06
629.564	169.06
629.77	174.06
629.976	163.06
630.183	162.06
630.389	150.06
630.595	170.06
630.802	172.06
631.008	168.06
631.214	165.06
631.42	163.06
631.627	161.06
631.833	160.06
632.039	146.06
632.245	167.06
632.451	159.06
632.657	171.06
632.863	157.06
633.069	165.06
633.275	157.06
633.481	160.06
633.688	154.06
633.893	160.06
634.099	145.06
634.305	147.06
634.511	153.06
634.717	154.06
634.923	149.06
635.129	163.06
635.335	160.06
635.541	166.06
635.747	161.06
635.952	165.06
636.158	152.06
636.364	165.06
636.57	166.06
636.775	134.06
636.981	161.06
637.187	150.06
637.392	151.06
637.598	157.06
637.804	141.06
638.009	151.06
638.215	152.06
638.421	147.06
638.626	141.06
638.832	155.06
639.037	150.06
639.243	147.06
639.448	140.06
639.654	142.06
639.859	145.06
640.065	132.06
640.27	149.06
640.475	141.06
640.681	153.06
640.886	155.06
641.091	154.06
641.297	151.06
641.502	160.06
641.707	152.06
641.913	148.06
642.118	147.06
642.323	160.06
642.528	147.06
642.733	162.06
642.939	136.06
643.144	154.06
643.349	136.06
643.554	159.06
643.759	140.06
643.964	147.06
644.169	139.06
644.374	151.06
644.579	151.06
644.784	139.06
644.989	142.06
645.194	145.06
645.399	145.06
645.604	156.06
645.809	148.06
646.014	126.06
646.219	135.06
646.423	145.06
646.628	142.06
646.833	137.06
647.038	141.06
647.243	149.06
647.447	125.06
647.652	149.06
647.857	148.06
648.062	152.06
648.266	154.06
648.471	144.06
648.676	142.06
648.88	154.06
649.085	144.06
649.289	155.06
649.494	142.06
649.698	161.06
649.903	147.06
650.107	136.06
650.312	149.06
650.516	147.06
650.721	156.06
650.925	132.06
651.13	129.06
651.334	144.06
651.539	132.06
651.743	129.06
651.947	129.06
652.152	128.06
652.356	145.06
652.56	131.06
652.764	128.06
652.969	117.06
653.173	122.06
653.377	126.06
653.581	126.06
653.785	126.06
653.99	133.06
654.194	135.06
654.398	121.06
654.602	124.06
654.806	103.06
655.01	118.06
655.214	125.06
655.418	118.06
655.622	116.06
655.826	120.06
656.03	130.06
656.234	137.06
656.438	127.06
656.642	126.06
656.846	126.06
657.049	122.06
657.253	129.06
657.457	117.06
657.661	126.06
657.865	107.06
658.068	116.06
658.272	114.06
658.476	113.06
658.68	102.06
658.883	105.06
659.087	86.06
659.291	102.06
659.494	96.06
659.698	110.06
659.901	93.06
660.105	87.06
660.309	84.06
660.512	87.06
660.716	105.06
660.919	93.06
661.123	94.06
661.326	81.06
661.53	102.06
661.733	86.06
661.936	88.06
662.14	104.06
662.343	93.06
662.546	97.06
662.75	96.06
662.953	92.06
663.156	85.06
663.36	93.06
663.563	83.06
663.766	93.06
663.969	74.06
664.173	92.06
664.376	79.06
664.579	84.06
664.782	85.06
664.985	84.06
665.188	87.06
665.391	79.06
665.594	80.06
665.797	84.06
666	83.06
666.203	79.06
666.406	70.06
666.609	72.06
666.812	73.06
667.015	95.06
667.218	81.06
667.421	82.06
667.624	79.06
667.827	82.06
668.03	84.06
668.232	87.06
668.435	83.06
668.638	84.06
668.841	91.06
669.043	79.06
669.246	90.06
669.449	87.06
669.651	85.06
669.854	82.06
670.057	77.06
670.259	86.06
670.462	82.06
670.665	73.06
670.867	92.06
671.07	86.06
671.272	86.06
671.475	93.06
671.677	69.06
671.88	69.06
672.082	86.06
672.284	86.06
672.487	93.06
672.689	83.06
672.892	92.06
