Data from 1961.PennyLincolnUp.Lamp.En5.5.200Scan.071719.P1._HRD10591_13-48-51-058.txt Node
Date: Thu Jul 18 13:48:51 EDT 2019
User: cochatt
Spectrometer: HR+D1059
Trigger mode: 1
Integration Time (sec): 1.000000E-1
Scans to average: 1
Electric dark correction enabled: true
Nonlinearity correction enabled: false
Boxcar width: 0
XAxis mode: Wavelengths
Number of Pixels in Spectrum: 2048
>>>>>Begin Spectral Data<<<<<
223.165	3.38
223.4	3.38
223.635	3.38
223.869	-22.62
224.104	-36.62
224.338	-26.62
224.573	-2.62
224.808	-7.62
225.042	-20.62
225.277	2.38
225.511	-4.62
225.746	6.38
225.98	5.38
226.215	14.38
226.449	29.38
226.683	19.38
226.918	18.38
227.152	22.38
227.387	39.38
227.621	28.38
227.856	38.38
228.09	37.38
228.324	48.38
228.559	46.38
228.793	57.38
229.027	87.38
229.262	119.38
229.496	112.38
229.73	127.38
229.964	151.38
230.199	120.38
230.433	109.38
230.667	103.38
230.901	109.38
231.136	106.38
231.37	115.38
231.604	100.38
231.838	122.38
232.072	99.38
232.306	105.38
232.541	111.38
232.775	106.38
233.009	123.38
233.243	119.38
233.477	102.38
233.711	90.38
233.945	109.38
234.179	123.38
234.413	107.38
234.647	112.38
234.881	105.38
235.115	106.38
235.349	110.38
235.583	111.38
235.817	118.38
236.051	111.38
236.285	116.38
236.519	115.38
236.753	135.38
236.987	142.38
237.221	165.38
237.455	225.38
237.689	168.38
237.922	140.38
238.156	123.38
238.39	130.38
238.624	119.38
238.858	99.38
239.091	107.38
239.325	107.38
239.559	106.38
239.793	114.38
240.027	122.38
240.26	125.38
240.494	157.38
240.728	131.38
240.961	128.38
241.195	131.38
241.429	126.38
241.662	116.38
241.896	101.38
242.13	106.38
242.363	118.38
242.597	113.38
242.83	114.38
243.064	112.38
243.298	126.38
243.531	126.38
243.765	115.38
243.998	119.38
244.232	131.38
244.465	127.38
244.699	137.38
244.932	118.38
245.166	125.38
245.399	123.38
245.633	123.38
245.866	123.38
246.099	137.38
246.333	123.38
246.566	129.38
246.8	140.38
247.033	125.38
247.266	138.38
247.5	140.38
247.733	153.38
247.966	150.38
248.2	150.38
248.433	149.38
248.666	146.38
248.899	175.38
249.133	183.38
249.366	187.38
249.599	169.38
249.832	161.38
250.066	159.38
250.299	158.38
250.532	166.38
250.765	177.38
250.998	181.38
251.231	187.38
251.465	185.38
251.698	177.38
251.931	165.38
252.164	179.38
252.397	173.38
252.63	171.38
252.863	182.38
253.096	173.38
253.329	196.38
253.562	202.38
253.795	180.38
254.028	204.38
254.261	185.38
254.494	186.38
254.727	217.38
254.96	243.38
255.193	247.38
255.426	216.38
255.659	198.38
255.892	207.38
256.124	199.38
256.357	222.38
256.59	201.38
256.823	186.38
257.056	180.38
257.289	183.38
257.521	195.38
257.754	165.38
257.987	179.38
258.22	187.38
258.452	186.38
258.685	194.38
258.918	191.38
259.151	177.38
259.383	191.38
259.616	190.38
259.849	192.38
260.081	202.38
260.314	212.38
260.547	226.38
260.779	213.38
261.012	202.38
261.244	204.38
261.477	200.38
261.71	197.38
261.942	200.38
262.175	208.38
262.407	201.38
262.64	186.38
262.872	189.38
263.105	182.38
263.337	179.38
263.57	174.38
263.802	178.38
264.035	174.38
264.267	189.38
264.499	162.38
264.732	185.38
264.964	191.38
265.197	177.38
265.429	198.38
265.661	179.38
265.894	173.38
266.126	201.38
266.358	185.38
266.591	181.38
266.823	191.38
267.055	180.38
267.287	190.38
267.52	198.38
267.752	191.38
267.984	198.38
268.216	211.38
268.448	200.38
268.681	206.38
268.913	218.38
269.145	214.38
269.377	236.38
269.609	226.38
269.841	228.38
270.073	234.38
270.306	253.38
270.538	273.38
270.77	258.38
271.002	268.38
271.234	249.38
271.466	249.38
271.698	277.38
271.93	275.38
272.162	265.38
272.394	286.38
272.626	271.38
272.858	245.38
273.09	237.38
273.322	246.38
273.553	217.38
273.785	217.38
274.017	221.38
274.249	217.38
274.481	226.38
274.713	233.38
274.945	217.38
275.176	241.38
275.408	212.38
275.64	213.38
275.872	238.38
276.104	213.38
276.335	226.38
276.567	224.38
276.799	251.38
277.031	277.38
277.262	278.38
277.494	285.38
277.726	255.38
277.957	257.38
278.189	260.38
278.421	227.38
278.652	229.38
278.884	244.38
279.115	217.38
279.347	223.38
279.579	230.38
279.81	233.38
280.042	211.38
280.273	210.38
280.505	226.38
280.736	227.38
280.968	214.38
281.199	217.38
281.431	221.38
281.662	216.38
281.894	226.38
282.125	233.38
282.356	257.38
282.588	271.38
282.819	279.38
283.051	248.38
283.282	233.38
283.513	223.38
283.745	224.38
283.976	235.38
284.207	247.38
284.439	246.38
284.67	239.38
284.901	232.38
285.132	232.38
285.364	236.38
285.595	219.38
285.826	218.38
286.057	233.38
286.288	226.38
286.52	251.38
286.751	219.38
286.982	210.38
287.213	224.38
287.444	248.38
287.675	238.38
287.906	241.38
288.138	250.38
288.369	262.38
288.6	245.38
288.831	230.38
289.062	253.38
289.293	229.38
289.524	243.38
289.755	227.38
289.986	233.38
290.217	223.38
290.448	223.38
290.679	242.38
290.91	254.38
291.141	231.38
291.371	211.38
291.602	234.38
291.833	225.38
292.064	235.38
292.295	224.38
292.526	234.38
292.757	246.38
292.987	223.38
293.218	236.38
293.449	231.38
293.68	226.38
293.91	248.38
294.141	233.38
294.372	222.38
294.603	234.38
294.833	246.38
295.064	240.38
295.295	237.38
295.525	248.38
295.756	243.38
295.987	260.38
296.217	280.38
296.448	290.38
296.679	253.38
296.909	244.38
297.14	243.38
297.37	260.38
297.601	249.38
297.831	241.38
298.062	247.38
298.292	242.38
298.523	255.38
298.753	256.38
298.984	263.38
299.214	257.38
299.445	267.38
299.675	256.38
299.905	253.38
300.136	246.38
300.366	250.38
300.597	253.38
300.827	261.38
301.057	263.38
301.288	285.38
301.518	277.38
301.748	244.38
301.979	273.38
302.209	264.38
302.439	263.38
302.669	283.38
302.9	269.38
303.13	259.38
303.36	261.38
303.59	273.38
303.82	295.38
304.051	263.38
304.281	269.38
304.511	267.38
304.741	262.38
304.971	259.38
305.201	256.38
305.431	275.38
305.661	266.38
305.891	281.38
306.121	282.38
306.352	265.38
306.582	282.38
306.812	281.38
307.042	254.38
307.272	292.38
307.502	279.38
307.731	284.38
307.961	271.38
308.191	268.38
308.421	282.38
308.651	282.38
308.881	287.38
309.111	301.38
309.341	293.38
309.571	287.38
309.8	307.38
310.03	338.38
310.26	324.38
310.49	339.38
310.72	314.38
310.949	342.38
311.179	340.38
311.409	319.38
311.639	311.38
311.868	329.38
312.098	302.38
312.328	323.38
312.557	350.38
312.787	351.38
313.017	350.38
313.246	340.38
313.476	315.38
313.706	329.38
313.935	331.38
314.165	346.38
314.394	356.38
314.624	341.38
314.853	333.38
315.083	322.38
315.312	300.38
315.542	312.38
315.771	327.38
316.001	326.38
316.23	314.38
316.46	322.38
316.689	324.38
316.919	319.38
317.148	347.38
317.377	319.38
317.607	329.38
317.836	342.38
318.065	338.38
318.295	327.38
318.524	325.38
318.753	318.38
318.983	306.38
319.212	320.38
319.441	340.38
319.67	359.38
319.9	316.38
320.129	323.38
320.358	332.38
320.587	325.38
320.816	348.38
321.046	369.38
321.275	338.38
321.504	337.38
321.733	369.38
321.962	361.38
322.191	379.38
322.42	395.38
322.649	398.38
322.878	409.38
323.108	422.38
323.337	450.38
323.566	473.38
323.795	531.38
324.024	584.38
324.253	721.38
324.482	1049.38
324.71	1682.38
324.939	2339.38
325.168	1953.38
325.397	1026.38
325.626	672.38
325.855	554.38
326.084	494.38
326.313	465.38
326.542	485.38
326.77	547.38
326.999	667.38
327.228	960.38
327.457	1427.38
327.686	1695.38
327.914	1104.38
328.143	711.38
328.372	630.38
328.6	564.38
328.829	525.38
329.058	565.38
329.287	583.38
329.515	509.38
329.744	479.38
329.972	467.38
330.201	523.38
330.43	559.38
330.658	589.38
330.887	577.38
331.115	582.38
331.344	491.38
331.572	454.38
331.801	450.38
332.03	432.38
332.258	423.38
332.486	387.38
332.715	387.38
332.943	379.38
333.172	383.38
333.4	386.38
333.629	403.38
333.857	410.38
334.085	423.38
334.314	447.38
334.542	469.38
334.771	511.38
334.999	448.38
335.227	403.38
335.455	388.38
335.684	407.38
335.912	392.38
336.14	369.38
336.369	381.38
336.597	373.38
336.825	407.38
337.053	378.38
337.281	358.38
337.51	369.38
337.738	381.38
337.966	374.38
338.194	371.38
338.422	383.38
338.65	355.38
338.878	383.38
339.106	367.38
339.334	356.38
339.562	373.38
339.79	362.38
340.018	359.38
340.246	361.38
340.474	361.38
340.702	384.38
340.93	376.38
341.158	342.38
341.386	358.38
341.614	376.38
341.842	375.38
342.07	360.38
342.298	366.38
342.526	350.38
342.754	343.38
342.981	362.38
343.209	332.38
343.437	359.38
343.665	352.38
343.893	370.38
344.12	359.38
344.348	376.38
344.576	388.38
344.804	376.38
345.031	377.38
345.259	365.38
345.487	384.38
345.714	376.38
345.942	371.38
346.17	353.38
346.397	350.38
346.625	366.38
346.853	363.38
347.08	369.38
347.308	367.38
347.535	375.38
347.763	386.38
347.99	387.38
348.218	373.38
348.445	359.38
348.673	369.38
348.9	351.38
349.128	343.38
349.355	357.38
349.583	343.38
349.81	345.38
350.037	330.38
350.265	323.38
350.492	353.38
350.72	341.38
350.947	362.38
351.174	368.38
351.402	380.38
351.629	347.38
351.856	367.38
352.083	366.38
352.311	358.38
352.538	372.38
352.765	368.38
352.992	346.38
353.22	354.38
353.447	361.38
353.674	350.38
353.901	359.38
354.128	347.38
354.355	337.38
354.583	343.38
354.81	337.38
355.037	341.38
355.264	319.38
355.491	333.38
355.718	321.38
355.945	319.38
356.172	335.38
356.399	323.38
356.626	319.38
356.853	327.38
357.08	303.38
357.307	340.38
357.534	330.38
357.761	333.38
357.988	309.38
358.215	329.38
358.441	317.38
358.668	335.38
358.895	342.38
359.122	337.38
359.349	351.38
359.576	353.38
359.802	378.38
360.029	399.38
360.256	425.38
360.483	403.38
360.709	379.38
360.936	356.38
361.163	369.38
361.39	358.38
361.616	361.38
361.843	353.38
362.07	334.38
362.296	335.38
362.523	357.38
362.749	343.38
362.976	360.38
363.203	347.38
363.429	351.38
363.656	350.38
363.882	341.38
364.109	323.38
364.335	341.38
364.562	322.38
364.788	330.38
365.015	372.38
365.241	331.38
365.468	340.38
365.694	344.38
365.92	332.38
366.147	329.38
366.373	343.38
366.599	332.38
366.826	331.38
367.052	327.38
367.278	330.38
367.505	323.38
367.731	341.38
367.957	330.38
368.184	322.38
368.41	314.38
368.636	320.38
368.862	349.38
369.089	342.38
369.315	333.38
369.541	330.38
369.767	338.38
369.993	313.38
370.219	324.38
370.445	311.38
370.672	323.38
370.898	330.38
371.124	312.38
371.35	329.38
371.576	318.38
371.802	328.38
372.028	338.38
372.254	319.38
372.48	322.38
372.706	324.38
372.932	335.38
373.158	337.38
373.384	332.38
373.61	352.38
373.835	326.38
374.061	323.38
374.287	325.38
374.513	333.38
374.739	331.38
374.965	329.38
375.191	319.38
375.416	327.38
375.642	336.38
375.868	339.38
376.094	339.38
376.319	318.38
376.545	319.38
376.771	311.38
376.997	325.38
377.222	329.38
377.448	321.38
377.674	343.38
377.899	317.38
378.125	321.38
378.35	314.38
378.576	316.38
378.802	305.38
379.027	313.38
379.253	303.38
379.478	329.38
379.704	321.38
379.929	335.38
380.155	322.38
380.38	311.38
380.606	333.38
380.831	324.38
381.057	323.38
381.282	325.38
381.507	328.38
381.733	328.38
381.958	327.38
382.184	320.38
382.409	327.38
382.634	343.38
382.86	333.38
383.085	326.38
383.31	319.38
383.535	334.38
383.761	339.38
383.986	340.38
384.211	325.38
384.436	354.38
384.662	334.38
384.887	353.38
385.112	340.38
385.337	349.38
385.562	339.38
385.787	354.38
386.013	371.38
386.238	363.38
386.463	347.38
386.688	344.38
386.913	331.38
387.138	353.38
387.363	346.38
387.588	332.38
387.813	341.38
388.038	364.38
388.263	339.38
388.488	350.38
388.713	349.38
388.938	365.38
389.163	377.38
389.387	361.38
389.612	336.38
389.837	347.38
390.062	344.38
390.287	354.38
390.512	342.38
390.736	341.38
390.961	340.38
391.186	343.38
391.411	345.38
391.636	356.38
391.86	349.38
392.085	348.38
392.31	355.38
392.534	356.38
392.759	360.38
392.984	341.38
393.208	344.38
393.433	342.38
393.658	351.38
393.882	362.38
394.107	342.38
394.331	342.38
394.556	364.38
394.78	362.38
395.005	374.38
395.229	344.38
395.454	369.38
395.678	362.38
395.903	381.38
396.127	380.38
396.352	383.38
396.576	363.38
396.801	355.38
397.025	358.38
397.249	359.38
397.474	370.38
397.698	369.38
397.922	372.38
398.147	397.38
398.371	407.38
398.595	400.38
398.82	385.38
399.044	387.38
399.268	391.38
399.492	399.38
399.717	425.38
399.941	428.38
400.165	478.38
400.389	494.38
400.613	457.38
400.837	429.38
401.062	408.38
401.286	386.38
401.51	390.38
401.734	388.38
401.958	407.38
402.182	399.38
402.406	407.38
402.63	412.38
402.854	413.38
403.078	406.38
403.302	406.38
403.526	418.38
403.75	409.38
403.974	419.38
404.198	393.38
404.422	421.38
404.645	418.38
404.869	409.38
405.093	467.38
405.317	464.38
405.541	512.38
405.765	483.38
405.988	436.38
406.212	449.38
406.436	470.38
406.66	486.38
406.883	466.38
407.107	456.38
407.331	521.38
407.555	563.38
407.778	551.38
408.002	516.38
408.226	460.38
408.449	466.38
408.673	466.38
408.896	486.38
409.12	503.38
409.344	481.38
409.567	438.38
409.791	453.38
410.014	423.38
410.238	404.38
410.461	425.38
410.685	467.38
410.908	445.38
411.132	463.38
411.355	477.38
411.578	484.38
411.802	431.38
412.025	423.38
412.249	435.38
412.472	429.38
412.695	482.38
412.919	488.38
413.142	434.38
413.365	420.38
413.589	402.38
413.812	409.38
414.035	383.38
414.258	379.38
414.482	395.38
414.705	389.38
414.928	388.38
415.151	378.38
415.374	390.38
415.597	396.38
415.821	372.38
416.044	379.38
416.267	409.38
416.49	413.38
416.713	375.38
416.936	403.38
417.159	407.38
417.382	408.38
417.605	407.38
417.828	414.38
418.051	412.38
418.274	399.38
418.497	407.38
418.72	393.38
418.943	377.38
419.166	395.38
419.389	402.38
419.611	394.38
419.834	408.38
420.057	441.38
420.28	415.38
420.503	419.38
420.726	431.38
420.948	439.38
421.171	463.38
421.394	489.38
421.617	447.38
421.839	414.38
422.062	413.38
422.285	431.38
422.507	490.38
422.73	548.38
422.953	543.38
423.175	483.38
423.398	460.38
423.621	423.38
423.843	452.38
424.066	460.38
424.288	454.38
424.511	473.38
424.733	500.38
424.956	606.38
425.178	575.38
425.401	561.38
425.623	599.38
425.846	501.38
426.068	442.38
426.291	478.38
426.513	474.38
426.735	474.38
426.958	529.38
427.18	585.38
427.402	679.38
427.625	763.38
427.847	699.38
428.069	594.38
428.292	549.38
428.514	487.38
428.736	475.38
428.958	461.38
429.181	428.38
429.403	426.38
429.625	446.38
429.847	493.38
430.069	533.38
430.292	525.38
430.514	452.38
430.736	433.38
430.958	424.38
431.18	429.38
431.402	407.38
431.624	399.38
431.846	414.38
432.068	408.38
432.29	389.38
432.512	387.38
432.734	410.38
432.956	412.38
433.178	414.38
433.4	422.38
433.622	405.38
433.844	398.38
434.066	404.38
434.287	385.38
434.509	399.38
434.731	408.38
434.953	393.38
435.175	433.38
435.397	464.38
435.618	455.38
435.84	501.38
436.062	600.38
436.284	650.38
436.505	531.38
436.727	493.38
436.949	445.38
437.17	425.38
437.392	431.38
437.614	435.38
437.835	471.38
438.057	566.38
438.278	665.38
438.5	653.38
438.721	689.38
438.943	654.38
439.165	534.38
439.386	495.38
439.608	486.38
439.829	485.38
440.05	522.38
440.272	571.38
440.493	527.38
440.715	463.38
440.936	441.38
441.158	437.38
441.379	433.38
441.6	462.38
441.822	465.38
442.043	502.38
442.264	582.38
442.486	600.38
442.707	543.38
442.928	502.38
443.149	473.38
443.371	523.38
443.592	563.38
443.813	613.38
444.034	641.38
444.255	550.38
444.476	488.38
444.698	457.38
444.919	458.38
445.14	562.38
445.361	547.38
445.582	524.38
445.803	573.38
446.024	654.38
446.245	679.38
446.466	617.38
446.687	512.38
446.908	497.38
447.129	436.38
447.35	438.38
447.571	427.38
447.792	438.38
448.013	453.38
448.234	456.38
448.455	510.38
448.675	607.38
448.896	696.38
449.117	592.38
449.338	566.38
449.559	661.38
449.779	721.38
450	595.38
450.221	497.38
450.442	456.38
450.662	437.38
450.883	450.38
451.104	455.38
451.324	459.38
451.545	445.38
451.766	417.38
451.986	402.38
452.207	391.38
452.428	382.38
452.648	393.38
452.869	385.38
453.089	409.38
453.31	424.38
453.53	401.38
453.751	396.38
453.971	403.38
454.192	421.38
454.412	419.38
454.633	410.38
454.853	398.38
455.073	410.38
455.294	419.38
455.514	492.38
455.734	477.38
455.955	416.38
456.175	392.38
456.395	376.38
456.616	379.38
456.836	361.38
457.056	366.38
457.276	361.38
457.497	369.38
457.717	373.38
457.937	373.38
458.157	369.38
458.377	386.38
458.598	417.38
458.818	466.38
459.038	566.38
459.258	563.38
459.478	451.38
459.698	418.38
459.918	413.38
460.138	382.38
460.358	391.38
460.578	412.38
460.798	415.38
461.018	402.38
461.238	409.38
461.458	399.38
461.678	397.38
461.898	391.38
462.118	402.38
462.338	393.38
462.558	418.38
462.777	411.38
462.997	401.38
463.217	427.38
463.437	429.38
463.657	407.38
463.876	425.38
464.096	415.38
464.316	417.38
464.536	445.38
464.755	447.38
464.975	419.38
465.195	474.38
465.414	585.38
465.634	489.38
465.854	451.38
466.073	433.38
466.293	418.38
466.512	410.38
466.732	415.38
466.951	396.38
467.171	393.38
467.391	407.38
467.61	415.38
467.829	419.38
468.049	406.38
468.268	421.38
468.488	402.38
468.707	401.38
468.927	395.38
469.146	393.38
469.365	381.38
469.585	388.38
469.804	396.38
470.023	405.38
470.243	416.38
470.462	403.38
470.681	435.38
470.901	402.38
471.12	405.38
471.339	404.38
471.558	401.38
471.777	409.38
471.997	390.38
472.216	410.38
472.435	485.38
472.654	443.38
472.873	430.38
473.092	407.38
473.311	396.38
473.53	394.38
473.749	409.38
473.968	455.38
474.187	552.38
474.406	587.38
474.625	470.38
474.844	423.38
475.063	408.38
475.282	409.38
475.501	422.38
475.72	409.38
475.939	401.38
476.158	395.38
476.377	401.38
476.596	410.38
476.814	451.38
477.033	437.38
477.252	431.38
477.471	408.38
477.69	426.38
477.908	425.38
478.127	426.38
478.346	434.38
478.564	413.38
478.783	432.38
479.002	463.38
479.22	464.38
479.439	471.38
479.658	469.38
479.876	481.38
480.095	478.38
480.313	515.38
480.532	489.38
480.751	489.38
480.969	502.38
481.188	579.38
481.406	646.38
481.624	569.38
481.843	519.38
482.061	493.38
482.28	482.38
482.498	481.38
482.717	466.38
482.935	471.38
483.153	480.38
483.372	475.38
483.59	490.38
483.808	483.38
484.027	501.38
484.245	472.38
484.463	486.38
484.681	489.38
484.9	472.38
485.118	490.38
485.336	491.38
485.554	498.38
485.772	479.38
485.99	511.38
486.209	494.38
486.427	504.38
486.645	514.38
486.863	532.38
487.081	521.38
487.299	530.38
487.517	497.38
487.735	513.38
487.953	500.38
488.171	510.38
488.389	510.38
488.607	518.38
488.825	512.38
489.043	509.38
489.261	515.38
489.479	543.38
489.696	522.38
489.914	538.38
490.132	523.38
490.35	558.38
490.568	525.38
490.786	566.38
491.003	555.38
491.221	547.38
491.439	590.38
491.657	578.38
491.874	575.38
492.092	605.38
492.31	600.38
492.527	569.38
492.745	591.38
492.963	591.38
493.18	591.38
493.398	600.38
493.615	595.38
493.833	605.38
494.05	595.38
494.268	597.38
494.485	605.38
494.703	592.38
494.92	592.38
495.138	597.38
495.355	605.38
495.573	606.38
495.79	619.38
496.008	588.38
496.225	606.38
496.442	595.38
496.66	612.38
496.877	625.38
497.094	607.38
497.312	634.38
497.529	621.38
497.746	639.38
497.963	621.38
498.181	639.38
498.398	649.38
498.615	661.38
498.832	667.38
499.049	646.38
499.267	685.38
499.484	696.38
499.701	692.38
499.918	713.38
500.135	736.38
500.352	777.38
500.569	774.38
500.786	767.38
501.003	769.38
501.22	730.38
501.437	711.38
501.654	727.38
501.871	741.38
502.088	731.38
502.305	687.38
502.522	696.38
502.739	679.38
502.956	650.38
503.172	625.38
503.389	661.38
503.606	629.38
503.823	622.38
504.04	656.38
504.256	611.38
504.473	598.38
504.69	611.38
504.907	627.38
505.123	580.38
505.34	617.38
505.557	607.38
505.773	591.38
505.99	591.38
506.207	591.38
506.423	594.38
506.64	598.38
506.856	575.38
507.073	576.38
507.289	577.38
507.506	582.38
507.722	576.38
507.939	587.38
508.155	589.38
508.372	564.38
508.588	565.38
508.805	574.38
509.021	575.38
509.238	573.38
509.454	574.38
509.67	582.38
509.887	578.38
510.103	554.38
510.319	580.38
510.536	712.38
510.752	1248.38
510.968	968.38
511.184	601.38
511.401	560.38
511.617	570.38
511.833	565.38
512.049	563.38
512.265	558.38
512.481	545.38
512.698	549.38
512.914	546.38
513.13	539.38
513.346	565.38
513.562	550.38
513.778	548.38
513.994	543.38
514.21	566.38
514.426	593.38
514.642	645.38
514.858	662.38
515.074	737.38
515.29	879.38
515.506	1360.38
515.721	1051.38
515.937	721.38
516.153	624.38
516.369	602.38
516.585	572.38
516.801	555.38
517.016	580.38
517.232	561.38
517.448	557.38
517.664	561.38
517.879	563.38
518.095	547.38
518.311	562.38
518.527	553.38
518.742	543.38
518.958	541.38
519.173	557.38
519.389	554.38
519.605	549.38
519.82	557.38
520.036	564.38
520.251	581.38
520.467	618.38
520.682	630.38
520.898	651.38
521.113	646.38
521.329	728.38
521.544	833.38
521.76	1080.38
521.975	1808.38
522.19	1792.38
522.406	915.38
522.621	691.38
522.836	604.38
523.052	567.38
523.267	561.38
523.482	517.38
523.698	526.38
523.913	501.38
524.128	489.38
524.343	482.38
524.559	494.38
524.774	488.38
524.989	496.38
525.204	483.38
525.419	481.38
525.634	477.38
525.849	470.38
526.064	440.38
526.28	456.38
526.495	463.38
526.71	421.38
526.925	452.38
527.14	423.38
527.355	431.38
527.57	427.38
527.785	458.38
527.999	442.38
528.214	438.38
528.429	435.38
528.644	456.38
528.859	441.38
529.074	440.38
529.289	469.38
529.503	559.38
529.718	553.38
529.933	501.38
530.148	464.38
530.363	451.38
530.577	433.38
530.792	457.38
531.007	432.38
531.221	419.38
531.436	430.38
531.651	418.38
531.865	414.38
532.08	428.38
532.295	416.38
532.509	442.38
532.724	423.38
532.938	429.38
533.153	431.38
533.367	405.38
533.582	407.38
533.796	415.38
534.011	411.38
534.225	414.38
534.44	407.38
534.654	396.38
534.868	403.38
535.083	416.38
535.297	401.38
535.511	408.38
535.726	435.38
535.94	423.38
536.154	416.38
536.369	411.38
536.583	389.38
536.797	425.38
537.011	393.38
537.225	378.38
537.44	406.38
537.654	390.38
537.868	394.38
538.082	390.38
538.296	419.38
538.51	407.38
538.724	382.38
538.938	381.38
539.153	407.38
539.367	415.38
539.581	407.38
539.795	391.38
540.009	386.38
540.222	393.38
540.436	392.38
540.65	398.38
540.864	401.38
541.078	410.38
541.292	417.38
541.506	421.38
541.72	386.38
541.934	370.38
542.147	402.38
542.361	417.38
542.575	390.38
542.789	388.38
543.002	396.38
543.216	403.38
543.43	398.38
543.644	406.38
543.857	407.38
544.071	389.38
544.285	390.38
544.498	376.38
544.712	377.38
544.925	390.38
545.139	396.38
545.352	383.38
545.566	387.38
545.779	363.38
545.993	386.38
546.206	353.38
546.42	393.38
546.633	386.38
546.847	371.38
547.06	392.38
547.274	375.38
547.487	372.38
547.7	377.38
547.914	370.38
548.127	362.38
548.34	361.38
548.554	383.38
548.767	367.38
548.98	371.38
549.193	388.38
549.407	361.38
549.62	357.38
549.833	374.38
550.046	356.38
550.259	375.38
550.473	370.38
550.686	369.38
550.899	366.38
551.112	365.38
551.325	345.38
551.538	356.38
551.751	366.38
551.964	361.38
552.177	370.38
552.39	371.38
552.603	369.38
552.816	375.38
553.029	370.38
553.242	370.38
553.455	351.38
553.667	373.38
553.88	367.38
554.093	373.38
554.306	371.38
554.519	352.38
554.732	373.38
554.944	358.38
555.157	373.38
555.37	360.38
555.583	351.38
555.795	362.38
556.008	335.38
556.221	336.38
556.433	344.38
556.646	326.38
556.859	334.38
557.071	342.38
557.284	337.38
557.496	324.38
557.709	333.38
557.921	335.38
558.134	329.38
558.346	331.38
558.559	346.38
558.771	351.38
558.984	314.38
559.196	310.38
559.409	330.38
559.621	337.38
559.833	325.38
560.046	339.38
560.258	321.38
560.47	326.38
560.683	317.38
560.895	318.38
561.107	317.38
561.32	337.38
561.532	342.38
561.744	331.38
561.956	337.38
562.168	338.38
562.381	315.38
562.593	326.38
562.805	340.38
563.017	341.38
563.229	335.38
563.441	331.38
563.653	331.38
563.865	339.38
564.077	341.38
564.289	330.38
564.501	362.38
564.713	337.38
564.925	337.38
565.137	353.38
565.349	329.38
565.561	352.38
565.773	344.38
565.985	350.38
566.197	358.38
566.408	372.38
566.62	356.38
566.832	387.38
567.044	372.38
567.255	375.38
567.467	377.38
567.679	382.38
567.891	362.38
568.102	377.38
568.314	393.38
568.526	366.38
568.737	363.38
568.949	345.38
569.161	344.38
569.372	333.38
569.584	336.38
569.795	333.38
570.007	333.38
570.218	385.38
570.43	369.38
570.641	321.38
570.853	331.38
571.064	330.38
571.276	317.38
571.487	302.38
571.698	303.38
571.91	296.38
572.121	295.38
572.333	288.38
572.544	310.38
572.755	305.38
572.966	296.38
573.178	306.38
573.389	271.38
573.6	281.38
573.811	292.38
574.023	281.38
574.234	289.38
574.445	294.38
574.656	275.38
574.867	287.38
575.078	289.38
575.289	287.38
575.501	281.38
575.712	278.38
575.923	287.38
576.134	286.38
576.345	281.38
576.556	280.38
576.767	282.38
576.978	291.38
577.188	288.38
577.399	291.38
577.61	281.38
577.821	285.38
578.032	291.38
578.243	324.38
578.454	565.38
578.665	403.38
578.875	279.38
579.086	277.38
579.297	274.38
579.508	271.38
579.718	266.38
579.929	275.38
580.14	265.38
580.35	264.38
580.561	265.38
580.772	255.38
580.982	281.38
581.193	253.38
581.403	259.38
581.614	276.38
581.825	253.38
582.035	266.38
582.246	249.38
582.456	256.38
582.667	246.38
582.877	273.38
583.087	270.38
583.298	260.38
583.508	279.38
583.719	258.38
583.929	265.38
584.139	259.38
584.35	245.38
584.56	253.38
584.77	267.38
584.981	247.38
585.191	254.38
585.401	262.38
585.611	249.38
585.821	255.38
586.032	249.38
586.242	257.38
586.452	250.38
586.662	234.38
586.872	251.38
587.082	240.38
587.292	223.38
587.502	258.38
587.713	244.38
587.923	238.38
588.133	261.38
588.343	253.38
588.553	228.38
588.762	253.38
588.972	250.38
589.182	257.38
589.392	255.38
589.602	265.38
589.812	240.38
590.022	256.38
590.232	237.38
590.441	257.38
590.651	256.38
590.861	238.38
591.071	258.38
591.281	268.38
591.49	255.38
591.7	253.38
591.91	250.38
592.119	246.38
592.329	255.38
592.539	239.38
592.748	259.38
592.958	249.38
593.167	245.38
593.377	270.38
593.587	267.38
593.796	265.38
594.006	246.38
594.215	253.38
594.424	258.38
594.634	241.38
594.843	244.38
595.053	233.38
595.262	256.38
595.472	243.38
595.681	240.38
595.89	225.38
596.1	257.38
596.309	237.38
596.518	232.38
596.727	215.38
596.937	243.38
597.146	256.38
597.355	229.38
597.564	213.38
597.774	241.38
597.983	217.38
598.192	225.38
598.401	222.38
598.61	217.38
598.819	224.38
599.028	213.38
599.237	226.38
599.446	214.38
599.655	242.38
599.864	224.38
600.073	220.38
600.282	224.38
600.491	213.38
600.7	211.38
600.909	226.38
601.118	234.38
601.327	224.38
601.536	216.38
601.745	218.38
601.953	228.38
602.162	215.38
602.371	214.38
602.58	194.38
602.789	222.38
602.997	222.38
603.206	219.38
603.415	214.38
603.623	216.38
603.832	229.38
604.041	202.38
604.249	228.38
604.458	231.38
604.666	208.38
604.875	202.38
605.084	222.38
605.292	210.38
605.501	200.38
605.709	203.38
605.918	233.38
606.126	209.38
606.334	192.38
606.543	200.38
606.751	198.38
606.96	200.38
607.168	211.38
607.376	209.38
607.585	219.38
607.793	214.38
608.001	220.38
608.21	212.38
608.418	215.38
608.626	203.38
608.834	206.38
609.043	211.38
609.251	209.38
609.459	192.38
609.667	202.38
609.875	208.38
610.083	207.38
610.291	206.38
610.499	199.38
610.707	192.38
610.916	205.38
611.124	199.38
611.332	203.38
611.54	224.38
611.748	213.38
611.955	187.38
612.163	201.38
612.371	204.38
612.579	210.38
612.787	193.38
612.995	203.38
613.203	209.38
613.411	207.38
613.618	208.38
613.826	205.38
614.034	222.38
614.242	199.38
614.449	212.38
614.657	198.38
614.865	186.38
615.072	183.38
615.28	218.38
615.488	204.38
615.695	211.38
615.903	206.38
616.111	193.38
616.318	239.38
616.526	195.38
616.733	191.38
616.941	201.38
617.148	195.38
617.356	204.38
617.563	188.38
617.771	197.38
617.978	197.38
618.185	207.38
618.393	195.38
618.6	207.38
618.807	191.38
619.015	200.38
619.222	187.38
619.429	206.38
619.637	197.38
619.844	186.38
620.051	189.38
620.258	195.38
620.466	189.38
620.673	185.38
620.88	195.38
621.087	190.38
621.294	190.38
621.501	189.38
621.708	190.38
621.915	185.38
622.122	186.38
622.329	194.38
622.536	197.38
622.743	193.38
622.95	187.38
623.157	190.38
623.364	188.38
623.571	189.38
623.778	191.38
623.985	177.38
624.192	189.38
624.399	168.38
624.606	178.38
624.812	185.38
625.019	180.38
625.226	187.38
625.433	186.38
625.639	190.38
625.846	176.38
626.053	188.38
626.259	197.38
626.466	193.38
626.673	189.38
626.879	174.38
627.086	178.38
627.293	178.38
627.499	190.38
627.706	168.38
627.912	166.38
628.119	153.38
628.325	169.38
628.532	173.38
628.738	195.38
628.945	174.38
629.151	173.38
629.357	177.38
629.564	177.38
629.77	166.38
629.976	176.38
630.183	181.38
630.389	178.38
630.595	175.38
630.802	161.38
631.008	156.38
631.214	157.38
631.42	188.38
631.627	176.38
631.833	169.38
632.039	152.38
632.245	170.38
632.451	158.38
632.657	162.38
632.863	174.38
633.069	159.38
633.275	163.38
633.481	155.38
633.688	186.38
633.893	170.38
634.099	164.38
634.305	153.38
634.511	174.38
634.717	149.38
634.923	158.38
635.129	157.38
635.335	165.38
635.541	153.38
635.747	165.38
635.952	171.38
636.158	174.38
636.364	154.38
636.57	174.38
636.775	180.38
636.981	166.38
637.187	179.38
637.392	168.38
637.598	138.38
637.804	165.38
638.009	167.38
638.215	152.38
638.421	163.38
638.626	170.38
638.832	170.38
639.037	146.38
639.243	136.38
639.448	151.38
639.654	155.38
639.859	138.38
640.065	156.38
640.27	159.38
640.475	148.38
640.681	145.38
640.886	147.38
641.091	157.38
641.297	156.38
641.502	149.38
641.707	143.38
641.913	150.38
642.118	154.38
642.323	167.38
642.528	149.38
642.733	149.38
642.939	142.38
643.144	141.38
643.349	136.38
643.554	139.38
643.759	142.38
643.964	164.38
644.169	155.38
644.374	149.38
644.579	155.38
644.784	154.38
644.989	148.38
645.194	157.38
645.399	162.38
645.604	146.38
645.809	148.38
646.014	141.38
646.219	151.38
646.423	140.38
646.628	151.38
646.833	150.38
647.038	142.38
647.243	157.38
647.447	137.38
647.652	160.38
647.857	145.38
648.062	146.38
648.266	150.38
648.471	146.38
648.676	150.38
648.88	160.38
649.085	145.38
649.289	144.38
649.494	170.38
649.698	162.38
649.903	171.38
650.107	163.38
650.312	159.38
650.516	144.38
650.721	159.38
650.925	142.38
651.13	145.38
651.334	153.38
651.539	131.38
651.743	134.38
651.947	146.38
652.152	128.38
652.356	136.38
652.56	134.38
652.764	135.38
652.969	138.38
653.173	124.38
653.377	128.38
653.581	130.38
653.785	130.38
653.99	127.38
654.194	138.38
654.398	130.38
654.602	123.38
654.806	143.38
655.01	125.38
655.214	120.38
655.418	123.38
655.622	127.38
655.826	129.38
656.03	119.38
656.234	129.38
656.438	126.38
656.642	128.38
656.846	125.38
657.049	117.38
657.253	111.38
657.457	97.38
657.661	121.38
657.865	117.38
658.068	102.38
658.272	104.38
658.476	101.38
658.68	97.38
658.883	104.38
659.087	93.38
659.291	101.38
659.494	104.38
659.698	97.38
659.901	94.38
660.105	101.38
660.309	92.38
660.512	86.38
660.716	86.38
660.919	90.38
661.123	86.38
661.326	83.38
661.53	80.38
661.733	85.38
661.936	89.38
662.14	84.38
662.343	93.38
662.546	90.38
662.75	87.38
662.953	100.38
663.156	83.38
663.36	77.38
663.563	70.38
663.766	63.38
663.969	74.38
664.173	75.38
664.376	76.38
664.579	83.38
664.782	88.38
664.985	92.38
665.188	90.38
665.391	92.38
665.594	84.38
665.797	96.38
666	74.38
666.203	83.38
666.406	75.38
666.609	86.38
666.812	76.38
667.015	65.38
667.218	81.38
667.421	90.38
667.624	82.38
667.827	98.38
668.03	85.38
668.232	90.38
668.435	83.38
668.638	77.38
668.841	81.38
669.043	81.38
669.246	73.38
669.449	80.38
669.651	87.38
669.854	95.38
670.057	83.38
670.259	79.38
670.462	77.38
670.665	68.38
670.867	77.38
671.07	92.38
671.272	74.38
671.475	76.38
671.677	85.38
671.88	81.38
672.082	73.38
672.284	85.38
672.487	88.38
672.689	90.38
672.892	82.38
