Data from 1961.PennyLincolnUp.Lamp.En5.5.200Scan.071719.P1._HRD10591_13-48-43-058.txt Node
Date: Thu Jul 18 13:48:43 EDT 2019
User: cochatt
Spectrometer: HR+D1059
Trigger mode: 1
Integration Time (sec): 1.000000E-1
Scans to average: 1
Electric dark correction enabled: true
Nonlinearity correction enabled: false
Boxcar width: 0
XAxis mode: Wavelengths
Number of Pixels in Spectrum: 2048
>>>>>Begin Spectral Data<<<<<
223.165	-8.94
223.4	-8.94
223.635	-8.94
223.869	-7.94
224.104	-19.94
224.338	-6.94
224.573	2.06
224.808	-12.94
225.042	-21.94
225.277	-4.94
225.511	-3.94
225.746	26.06
225.98	-12.94
226.215	5.06
226.449	12.06
226.683	16.06
226.918	23.06
227.152	16.06
227.387	22.06
227.621	37.06
227.856	44.06
228.09	43.06
228.324	42.06
228.559	52.06
228.793	48.06
229.027	87.06
229.262	114.06
229.496	104.06
229.73	133.06
229.964	138.06
230.199	123.06
230.433	105.06
230.667	102.06
230.901	98.06
231.136	105.06
231.37	106.06
231.604	100.06
231.838	110.06
232.072	82.06
232.306	92.06
232.541	68.06
232.775	86.06
233.009	96.06
233.243	100.06
233.477	105.06
233.711	97.06
233.945	112.06
234.179	106.06
234.413	96.06
234.647	116.06
234.881	99.06
235.115	100.06
235.349	125.06
235.583	114.06
235.817	107.06
236.051	112.06
236.285	100.06
236.519	112.06
236.753	128.06
236.987	117.06
237.221	152.06
237.455	216.06
237.689	172.06
237.922	133.06
238.156	135.06
238.39	116.06
238.624	113.06
238.858	122.06
239.091	103.06
239.325	111.06
239.559	129.06
239.793	114.06
240.027	104.06
240.26	126.06
240.494	140.06
240.728	136.06
240.961	140.06
241.195	130.06
241.429	110.06
241.662	135.06
241.896	113.06
242.13	119.06
242.363	116.06
242.597	117.06
242.83	120.06
243.064	119.06
243.298	127.06
243.531	134.06
243.765	120.06
243.998	128.06
244.232	114.06
244.465	134.06
244.699	124.06
244.932	116.06
245.166	141.06
245.399	126.06
245.633	127.06
245.866	122.06
246.099	121.06
246.333	138.06
246.566	122.06
246.8	125.06
247.033	121.06
247.266	132.06
247.5	119.06
247.733	124.06
247.966	156.06
248.2	142.06
248.433	161.06
248.666	152.06
248.899	154.06
249.133	190.06
249.366	180.06
249.599	165.06
249.832	164.06
250.066	151.06
250.299	170.06
250.532	173.06
250.765	156.06
250.998	194.06
251.231	190.06
251.465	170.06
251.698	181.06
251.931	172.06
252.164	177.06
252.397	164.06
252.63	178.06
252.863	196.06
253.096	168.06
253.329	196.06
253.562	204.06
253.795	191.06
254.028	204.06
254.261	196.06
254.494	195.06
254.727	223.06
254.96	254.06
255.193	254.06
255.426	212.06
255.659	190.06
255.892	190.06
256.124	207.06
256.357	194.06
256.59	211.06
256.823	185.06
257.056	180.06
257.289	181.06
257.521	183.06
257.754	173.06
257.987	176.06
258.22	178.06
258.452	182.06
258.685	177.06
258.918	175.06
259.151	192.06
259.383	177.06
259.616	175.06
259.849	198.06
260.081	208.06
260.314	229.06
260.547	225.06
260.779	194.06
261.012	219.06
261.244	200.06
261.477	201.06
261.71	202.06
261.942	191.06
262.175	192.06
262.407	204.06
262.64	188.06
262.872	168.06
263.105	197.06
263.337	187.06
263.57	174.06
263.802	186.06
264.035	179.06
264.267	172.06
264.499	181.06
264.732	186.06
264.964	167.06
265.197	178.06
265.429	199.06
265.661	173.06
265.894	194.06
266.126	181.06
266.358	189.06
266.591	176.06
266.823	177.06
267.055	198.06
267.287	199.06
267.52	182.06
267.752	201.06
267.984	199.06
268.216	188.06
268.448	208.06
268.681	206.06
268.913	212.06
269.145	232.06
269.377	233.06
269.609	219.06
269.841	242.06
270.073	232.06
270.306	258.06
270.538	247.06
270.77	269.06
271.002	243.06
271.234	258.06
271.466	245.06
271.698	246.06
271.93	266.06
272.162	269.06
272.394	261.06
272.626	255.06
272.858	252.06
273.09	245.06
273.322	256.06
273.553	225.06
273.785	215.06
274.017	214.06
274.249	232.06
274.481	225.06
274.713	226.06
274.945	220.06
275.176	223.06
275.408	216.06
275.64	230.06
275.872	228.06
276.104	226.06
276.335	214.06
276.567	211.06
276.799	232.06
277.031	250.06
277.262	274.06
277.494	281.06
277.726	260.06
277.957	250.06
278.189	242.06
278.421	230.06
278.652	232.06
278.884	225.06
279.115	229.06
279.347	205.06
279.579	225.06
279.81	226.06
280.042	232.06
280.273	242.06
280.505	221.06
280.736	217.06
280.968	212.06
281.199	215.06
281.431	213.06
281.662	214.06
281.894	212.06
282.125	214.06
282.356	229.06
282.588	281.06
282.819	264.06
283.051	230.06
283.282	233.06
283.513	224.06
283.745	233.06
283.976	232.06
284.207	225.06
284.439	231.06
284.67	222.06
284.901	240.06
285.132	229.06
285.364	237.06
285.595	214.06
285.826	246.06
286.057	218.06
286.288	225.06
286.52	236.06
286.751	233.06
286.982	230.06
287.213	245.06
287.444	220.06
287.675	208.06
287.906	230.06
288.138	244.06
288.369	257.06
288.6	262.06
288.831	242.06
289.062	230.06
289.293	242.06
289.524	217.06
289.755	232.06
289.986	248.06
290.217	228.06
290.448	226.06
290.679	236.06
290.91	228.06
291.141	216.06
291.371	236.06
291.602	230.06
291.833	229.06
292.064	246.06
292.295	213.06
292.526	222.06
292.757	246.06
292.987	228.06
293.218	243.06
293.449	227.06
293.68	238.06
293.91	217.06
294.141	235.06
294.372	224.06
294.603	227.06
294.833	230.06
295.064	239.06
295.295	206.06
295.525	239.06
295.756	245.06
295.987	257.06
296.217	274.06
296.448	292.06
296.679	241.06
296.909	240.06
297.14	238.06
297.37	243.06
297.601	245.06
297.831	234.06
298.062	244.06
298.292	254.06
298.523	259.06
298.753	255.06
298.984	256.06
299.214	239.06
299.445	254.06
299.675	240.06
299.905	242.06
300.136	251.06
300.366	239.06
300.597	259.06
300.827	272.06
301.057	272.06
301.288	272.06
301.518	272.06
301.748	260.06
301.979	242.06
302.209	270.06
302.439	268.06
302.669	260.06
302.9	273.06
303.13	261.06
303.36	266.06
303.59	285.06
303.82	282.06
304.051	279.06
304.281	258.06
304.511	292.06
304.741	270.06
304.971	260.06
305.201	264.06
305.431	269.06
305.661	264.06
305.891	260.06
306.121	272.06
306.352	274.06
306.582	264.06
306.812	261.06
307.042	267.06
307.272	282.06
307.502	262.06
307.731	271.06
307.961	281.06
308.191	293.06
308.421	277.06
308.651	266.06
308.881	284.06
309.111	293.06
309.341	286.06
309.571	306.06
309.8	306.06
310.03	295.06
310.26	322.06
310.49	317.06
310.72	330.06
310.949	340.06
311.179	352.06
311.409	323.06
311.639	321.06
311.868	332.06
312.098	316.06
312.328	344.06
312.557	353.06
312.787	355.06
313.017	345.06
313.246	345.06
313.476	299.06
313.706	301.06
313.935	320.06
314.165	348.06
314.394	351.06
314.624	354.06
314.853	341.06
315.083	323.06
315.312	319.06
315.542	319.06
315.771	319.06
316.001	308.06
316.23	298.06
316.46	317.06
316.689	312.06
316.919	318.06
317.148	329.06
317.377	313.06
317.607	335.06
317.836	339.06
318.065	330.06
318.295	324.06
318.524	321.06
318.753	282.06
318.983	325.06
319.212	314.06
319.441	321.06
319.67	328.06
319.9	323.06
320.129	325.06
320.358	336.06
320.587	330.06
320.816	333.06
321.046	351.06
321.275	348.06
321.504	338.06
321.733	362.06
321.962	350.06
322.191	362.06
322.42	378.06
322.649	401.06
322.878	399.06
323.108	411.06
323.337	439.06
323.566	458.06
323.795	497.06
324.024	555.06
324.253	701.06
324.482	1038.06
324.71	1621.06
324.939	2289.06
325.168	1914.06
325.397	975.06
325.626	638.06
325.855	565.06
326.084	496.06
326.313	478.06
326.542	488.06
326.77	520.06
326.999	645.06
327.228	938.06
327.457	1413.06
327.686	1652.06
327.914	1090.06
328.143	710.06
328.372	632.06
328.6	558.06
328.829	532.06
329.058	546.06
329.287	537.06
329.515	497.06
329.744	474.06
329.972	458.06
330.201	495.06
330.43	534.06
330.658	543.06
330.887	565.06
331.115	559.06
331.344	472.06
331.572	423.06
331.801	439.06
332.03	446.06
332.258	416.06
332.486	371.06
332.715	368.06
332.943	400.06
333.172	361.06
333.4	383.06
333.629	388.06
333.857	423.06
334.085	428.06
334.314	428.06
334.542	481.06
334.771	506.06
334.999	456.06
335.227	408.06
335.455	388.06
335.684	383.06
335.912	372.06
336.14	374.06
336.369	374.06
336.597	391.06
336.825	379.06
337.053	352.06
337.281	366.06
337.51	354.06
337.738	374.06
337.966	354.06
338.194	380.06
338.422	360.06
338.65	367.06
338.878	368.06
339.106	358.06
339.334	356.06
339.562	364.06
339.79	338.06
340.018	372.06
340.246	356.06
340.474	353.06
340.702	349.06
340.93	345.06
341.158	365.06
341.386	340.06
341.614	376.06
341.842	378.06
342.07	374.06
342.298	340.06
342.526	340.06
342.754	331.06
342.981	345.06
343.209	334.06
343.437	357.06
343.665	342.06
343.893	336.06
344.12	356.06
344.348	334.06
344.576	373.06
344.804	370.06
345.031	391.06
345.259	371.06
345.487	371.06
345.714	367.06
345.942	366.06
346.17	353.06
346.397	345.06
346.625	328.06
346.853	341.06
347.08	373.06
347.308	356.06
347.535	369.06
347.763	344.06
347.99	377.06
348.218	368.06
348.445	372.06
348.673	359.06
348.9	373.06
349.128	359.06
349.355	331.06
349.583	347.06
349.81	349.06
350.037	325.06
350.265	335.06
350.492	322.06
350.72	344.06
350.947	342.06
351.174	349.06
351.402	357.06
351.629	345.06
351.856	366.06
352.083	354.06
352.311	368.06
352.538	372.06
352.765	365.06
352.992	365.06
353.22	365.06
353.447	361.06
353.674	351.06
353.901	337.06
354.128	322.06
354.355	329.06
354.583	336.06
354.81	330.06
355.037	330.06
355.264	316.06
355.491	303.06
355.718	314.06
355.945	319.06
356.172	317.06
356.399	323.06
356.626	313.06
356.853	328.06
357.08	302.06
357.307	310.06
357.534	304.06
357.761	328.06
357.988	340.06
358.215	317.06
358.441	324.06
358.668	336.06
358.895	347.06
359.122	339.06
359.349	330.06
359.576	346.06
359.802	377.06
360.029	406.06
360.256	417.06
360.483	364.06
360.709	360.06
360.936	368.06
361.163	363.06
361.39	367.06
361.616	365.06
361.843	353.06
362.07	368.06
362.296	358.06
362.523	343.06
362.749	358.06
362.976	344.06
363.203	331.06
363.429	318.06
363.656	321.06
363.882	334.06
364.109	314.06
364.335	342.06
364.562	327.06
364.788	343.06
365.015	326.06
365.241	329.06
365.468	342.06
365.694	334.06
365.92	343.06
366.147	333.06
366.373	320.06
366.599	327.06
366.826	320.06
367.052	333.06
367.278	325.06
367.505	340.06
367.731	318.06
367.957	327.06
368.184	335.06
368.41	321.06
368.636	334.06
368.862	347.06
369.089	342.06
369.315	327.06
369.541	326.06
369.767	326.06
369.993	322.06
370.219	315.06
370.445	339.06
370.672	330.06
370.898	324.06
371.124	317.06
371.35	317.06
371.576	336.06
371.802	327.06
372.028	319.06
372.254	327.06
372.48	302.06
372.706	310.06
372.932	323.06
373.158	327.06
373.384	352.06
373.61	321.06
373.835	330.06
374.061	342.06
374.287	330.06
374.513	316.06
374.739	325.06
374.965	323.06
375.191	312.06
375.416	321.06
375.642	335.06
375.868	317.06
376.094	334.06
376.319	334.06
376.545	326.06
376.771	317.06
376.997	338.06
377.222	311.06
377.448	333.06
377.674	316.06
377.899	308.06
378.125	308.06
378.35	304.06
378.576	310.06
378.802	321.06
379.027	320.06
379.253	325.06
379.478	309.06
379.704	305.06
379.929	330.06
380.155	325.06
380.38	320.06
380.606	303.06
380.831	308.06
381.057	339.06
381.282	310.06
381.507	317.06
381.733	331.06
381.958	312.06
382.184	319.06
382.409	327.06
382.634	316.06
382.86	332.06
383.085	312.06
383.31	337.06
383.535	355.06
383.761	349.06
383.986	318.06
384.211	346.06
384.436	324.06
384.662	328.06
384.887	339.06
385.112	322.06
385.337	330.06
385.562	342.06
385.787	348.06
386.013	353.06
386.238	359.06
386.463	336.06
386.688	325.06
386.913	359.06
387.138	335.06
387.363	346.06
387.588	339.06
387.813	343.06
388.038	335.06
388.263	343.06
388.488	353.06
388.713	349.06
388.938	344.06
389.163	352.06
389.387	358.06
389.612	358.06
389.837	354.06
390.062	331.06
390.287	346.06
390.512	346.06
390.736	362.06
390.961	353.06
391.186	343.06
391.411	354.06
391.636	362.06
391.86	347.06
392.085	329.06
392.31	353.06
392.534	354.06
392.759	357.06
392.984	342.06
393.208	349.06
393.433	355.06
393.658	351.06
393.882	359.06
394.107	350.06
394.331	358.06
394.556	343.06
394.78	361.06
395.005	331.06
395.229	359.06
395.454	354.06
395.678	360.06
395.903	376.06
396.127	375.06
396.352	383.06
396.576	355.06
396.801	361.06
397.025	357.06
397.249	358.06
397.474	358.06
397.698	374.06
397.922	390.06
398.147	398.06
398.371	390.06
398.595	373.06
398.82	384.06
399.044	387.06
399.268	407.06
399.492	423.06
399.717	414.06
399.941	456.06
400.165	460.06
400.389	475.06
400.613	452.06
400.837	420.06
401.062	399.06
401.286	404.06
401.51	395.06
401.734	392.06
401.958	388.06
402.182	394.06
402.406	387.06
402.63	418.06
402.854	408.06
403.078	419.06
403.302	388.06
403.526	407.06
403.75	419.06
403.974	403.06
404.198	404.06
404.422	421.06
404.645	409.06
404.869	436.06
405.093	462.06
405.317	506.06
405.541	506.06
405.765	467.06
405.988	431.06
406.212	448.06
406.436	473.06
406.66	465.06
406.883	435.06
407.107	475.06
407.331	500.06
407.555	545.06
407.778	546.06
408.002	497.06
408.226	460.06
408.449	434.06
408.673	468.06
408.896	504.06
409.12	505.06
409.344	489.06
409.567	451.06
409.791	425.06
410.014	418.06
410.238	433.06
410.461	415.06
410.685	419.06
410.908	444.06
411.132	462.06
411.355	498.06
411.578	468.06
411.802	444.06
412.025	421.06
412.249	401.06
412.472	445.06
412.695	496.06
412.919	469.06
413.142	420.06
413.365	397.06
413.589	392.06
413.812	379.06
414.035	375.06
414.258	386.06
414.482	399.06
414.705	390.06
414.928	377.06
415.151	385.06
415.374	397.06
415.597	402.06
415.821	387.06
416.044	380.06
416.267	395.06
416.49	392.06
416.713	384.06
416.936	396.06
417.159	387.06
417.382	395.06
417.605	404.06
417.828	405.06
418.051	423.06
418.274	408.06
418.497	391.06
418.72	383.06
418.943	389.06
419.166	398.06
419.389	412.06
419.611	407.06
419.834	432.06
420.057	428.06
420.28	398.06
420.503	400.06
420.726	406.06
420.948	445.06
421.171	466.06
421.394	492.06
421.617	417.06
421.839	426.06
422.062	434.06
422.285	432.06
422.507	478.06
422.73	541.06
422.953	492.06
423.175	443.06
423.398	455.06
423.621	436.06
423.843	438.06
424.066	446.06
424.288	448.06
424.511	469.06
424.733	498.06
424.956	592.06
425.178	550.06
425.401	549.06
425.623	544.06
425.846	475.06
426.068	448.06
426.291	445.06
426.513	442.06
426.735	461.06
426.958	486.06
427.18	564.06
427.402	672.06
427.625	762.06
427.847	672.06
428.069	562.06
428.292	515.06
428.514	473.06
428.736	460.06
428.958	442.06
429.181	420.06
429.403	434.06
429.625	440.06
429.847	465.06
430.069	509.06
430.292	518.06
430.514	432.06
430.736	435.06
430.958	405.06
431.18	405.06
431.402	402.06
431.624	407.06
431.846	397.06
432.068	381.06
432.29	392.06
432.512	384.06
432.734	408.06
432.956	418.06
433.178	418.06
433.4	424.06
433.622	419.06
433.844	411.06
434.066	395.06
434.287	390.06
434.509	388.06
434.731	399.06
434.953	414.06
435.175	425.06
435.397	444.06
435.618	453.06
435.84	502.06
436.062	574.06
436.284	625.06
436.505	544.06
436.727	462.06
436.949	451.06
437.17	451.06
437.392	424.06
437.614	462.06
437.835	500.06
438.057	574.06
438.278	658.06
438.5	631.06
438.721	674.06
438.943	664.06
439.165	530.06
439.386	470.06
439.608	479.06
439.829	482.06
440.05	522.06
440.272	538.06
440.493	519.06
440.715	467.06
440.936	452.06
441.158	426.06
441.379	424.06
441.6	450.06
441.822	479.06
442.043	507.06
442.264	561.06
442.486	598.06
442.707	507.06
442.928	474.06
443.149	478.06
443.371	502.06
443.592	562.06
443.813	608.06
444.034	647.06
444.255	550.06
444.476	478.06
444.698	438.06
444.919	457.06
445.14	559.06
445.361	504.06
445.582	517.06
445.803	561.06
446.024	688.06
446.245	673.06
446.466	595.06
446.687	510.06
446.908	488.06
447.129	453.06
447.35	431.06
447.571	447.06
447.792	435.06
448.013	422.06
448.234	456.06
448.455	500.06
448.675	583.06
448.896	692.06
449.117	605.06
449.338	588.06
449.559	650.06
449.779	731.06
450	588.06
450.221	471.06
450.442	462.06
450.662	448.06
450.883	429.06
451.104	450.06
451.324	463.06
451.545	430.06
451.766	401.06
451.986	380.06
452.207	372.06
452.428	408.06
452.648	362.06
452.869	394.06
453.089	397.06
453.31	411.06
453.53	394.06
453.751	400.06
453.971	384.06
454.192	413.06
454.412	399.06
454.633	373.06
454.853	393.06
455.073	402.06
455.294	429.06
455.514	465.06
455.734	465.06
455.955	408.06
456.175	389.06
456.395	359.06
456.616	348.06
456.836	354.06
457.056	342.06
457.276	338.06
457.497	366.06
457.717	364.06
457.937	358.06
458.157	376.06
458.377	373.06
458.598	424.06
458.818	465.06
459.038	545.06
459.258	560.06
459.478	458.06
459.698	385.06
459.918	390.06
460.138	395.06
460.358	380.06
460.578	388.06
460.798	401.06
461.018	399.06
461.238	390.06
461.458	415.06
461.678	387.06
461.898	405.06
462.118	406.06
462.338	407.06
462.558	389.06
462.777	408.06
462.997	401.06
463.217	416.06
463.437	410.06
463.657	415.06
463.876	403.06
464.096	410.06
464.316	406.06
464.536	431.06
464.755	430.06
464.975	430.06
465.195	498.06
465.414	580.06
465.634	483.06
465.854	461.06
466.073	409.06
466.293	437.06
466.512	374.06
466.732	407.06
466.951	400.06
467.171	383.06
467.391	397.06
467.61	413.06
467.829	412.06
468.049	428.06
468.268	410.06
468.488	382.06
468.707	368.06
468.927	381.06
469.146	383.06
469.365	388.06
469.585	384.06
469.804	391.06
470.023	411.06
470.243	406.06
470.462	408.06
470.681	437.06
470.901	426.06
471.12	390.06
471.339	409.06
471.558	420.06
471.777	415.06
471.997	399.06
472.216	414.06
472.435	477.06
472.654	436.06
472.873	414.06
473.092	414.06
473.311	390.06
473.53	410.06
473.749	404.06
473.968	467.06
474.187	548.06
474.406	538.06
474.625	470.06
474.844	410.06
475.063	412.06
475.282	399.06
475.501	395.06
475.72	417.06
475.939	395.06
476.158	400.06
476.377	396.06
476.596	416.06
476.814	425.06
477.033	421.06
477.252	437.06
477.471	413.06
477.69	417.06
477.908	415.06
478.127	420.06
478.346	440.06
478.564	425.06
478.783	437.06
479.002	437.06
479.22	441.06
479.439	460.06
479.658	493.06
479.876	488.06
480.095	496.06
480.313	506.06
480.532	485.06
480.751	467.06
480.969	517.06
481.188	574.06
481.406	610.06
481.624	559.06
481.843	498.06
482.061	500.06
482.28	478.06
482.498	460.06
482.717	481.06
482.935	482.06
483.153	471.06
483.372	468.06
483.59	488.06
483.808	455.06
484.027	460.06
484.245	474.06
484.463	463.06
484.681	478.06
484.9	457.06
485.118	485.06
485.336	484.06
485.554	504.06
485.772	475.06
485.99	488.06
486.209	474.06
486.427	498.06
486.645	488.06
486.863	502.06
487.081	522.06
487.299	489.06
487.517	518.06
487.735	493.06
487.953	506.06
488.171	520.06
488.389	494.06
488.607	496.06
488.825	504.06
489.043	506.06
489.261	521.06
489.479	509.06
489.696	508.06
489.914	516.06
490.132	519.06
490.35	532.06
490.568	537.06
490.786	531.06
491.003	564.06
491.221	560.06
491.439	574.06
491.657	571.06
491.874	572.06
492.092	565.06
492.31	572.06
492.527	571.06
492.745	575.06
492.963	580.06
493.18	576.06
493.398	583.06
493.615	595.06
493.833	601.06
494.05	602.06
494.268	605.06
494.485	588.06
494.703	585.06
494.92	594.06
495.138	583.06
495.355	590.06
495.573	612.06
495.79	585.06
496.008	624.06
496.225	585.06
496.442	602.06
496.66	602.06
496.877	606.06
497.094	612.06
497.312	609.06
497.529	609.06
497.746	628.06
497.963	607.06
498.181	646.06
498.398	658.06
498.615	652.06
498.832	669.06
499.049	648.06
499.267	673.06
499.484	678.06
499.701	675.06
499.918	719.06
500.135	698.06
500.352	730.06
500.569	749.06
500.786	762.06
501.003	736.06
501.22	737.06
501.437	713.06
501.654	732.06
501.871	729.06
502.088	714.06
502.305	684.06
502.522	670.06
502.739	648.06
502.956	623.06
503.172	628.06
503.389	628.06
503.606	615.06
503.823	622.06
504.04	613.06
504.256	634.06
504.473	588.06
504.69	613.06
504.907	610.06
505.123	594.06
505.34	585.06
505.557	595.06
505.773	602.06
505.99	590.06
506.207	585.06
506.423	577.06
506.64	560.06
506.856	604.06
507.073	575.06
507.289	578.06
507.506	563.06
507.722	583.06
507.939	615.06
508.155	586.06
508.372	567.06
508.588	557.06
508.805	562.06
509.021	581.06
509.238	569.06
509.454	568.06
509.67	586.06
509.887	548.06
510.103	586.06
510.319	579.06
510.536	688.06
510.752	1229.06
510.968	973.06
511.184	612.06
511.401	570.06
511.617	558.06
511.833	554.06
512.049	568.06
512.265	520.06
512.481	532.06
512.698	532.06
512.914	515.06
513.13	536.06
513.346	554.06
513.562	557.06
513.778	539.06
513.994	564.06
514.21	533.06
514.426	625.06
514.642	656.06
514.858	662.06
515.074	709.06
515.29	876.06
515.506	1338.06
515.721	1083.06
515.937	709.06
516.153	594.06
516.369	612.06
516.585	588.06
516.801	544.06
517.016	536.06
517.232	549.06
517.448	553.06
517.664	549.06
517.879	557.06
518.095	547.06
518.311	536.06
518.527	535.06
518.742	527.06
518.958	541.06
519.173	547.06
519.389	549.06
519.605	569.06
519.82	552.06
520.036	562.06
520.251	576.06
520.467	618.06
520.682	620.06
520.898	617.06
521.113	646.06
521.329	696.06
521.544	808.06
521.76	1057.06
521.975	1788.06
522.19	1708.06
522.406	890.06
522.621	701.06
522.836	609.06
523.052	557.06
523.267	534.06
523.482	508.06
523.698	500.06
523.913	495.06
524.128	498.06
524.343	494.06
524.559	461.06
524.774	488.06
524.989	491.06
525.204	504.06
525.419	475.06
525.634	477.06
525.849	464.06
526.064	456.06
526.28	444.06
526.495	453.06
526.71	456.06
526.925	453.06
527.14	422.06
527.355	423.06
527.57	440.06
527.785	437.06
527.999	423.06
528.214	440.06
528.429	436.06
528.644	433.06
528.859	412.06
529.074	438.06
529.289	459.06
529.503	531.06
529.718	535.06
529.933	460.06
530.148	450.06
530.363	458.06
530.577	432.06
530.792	422.06
531.007	438.06
531.221	423.06
531.436	413.06
531.651	415.06
531.865	422.06
532.08	418.06
532.295	413.06
532.509	399.06
532.724	423.06
532.938	420.06
533.153	402.06
533.367	402.06
533.582	420.06
533.796	406.06
534.011	422.06
534.225	422.06
534.44	394.06
534.654	399.06
534.868	400.06
535.083	410.06
535.297	408.06
535.511	412.06
535.726	429.06
535.94	422.06
536.154	412.06
536.369	416.06
536.583	413.06
536.797	388.06
537.011	398.06
537.225	401.06
537.44	396.06
537.654	416.06
537.868	400.06
538.082	394.06
538.296	387.06
538.51	400.06
538.724	370.06
538.938	388.06
539.153	404.06
539.367	419.06
539.581	408.06
539.795	396.06
540.009	400.06
540.222	393.06
540.436	392.06
540.65	397.06
540.864	389.06
541.078	399.06
541.292	389.06
541.506	388.06
541.72	385.06
541.934	408.06
542.147	406.06
542.361	386.06
542.575	370.06
542.789	397.06
543.002	400.06
543.216	393.06
543.43	405.06
543.644	385.06
543.857	397.06
544.071	410.06
544.285	369.06
544.498	384.06
544.712	380.06
544.925	377.06
545.139	372.06
545.352	385.06
545.566	406.06
545.779	382.06
545.993	381.06
546.206	365.06
546.42	387.06
546.633	381.06
546.847	357.06
547.06	359.06
547.274	359.06
547.487	352.06
547.7	351.06
547.914	360.06
548.127	368.06
548.34	370.06
548.554	368.06
548.767	351.06
548.98	366.06
549.193	365.06
549.407	360.06
549.62	384.06
549.833	353.06
550.046	356.06
550.259	353.06
550.473	355.06
550.686	334.06
550.899	367.06
551.112	367.06
551.325	354.06
551.538	382.06
551.751	370.06
551.964	360.06
552.177	350.06
552.39	375.06
552.603	364.06
552.816	366.06
553.029	368.06
553.242	350.06
553.455	370.06
553.667	374.06
553.88	380.06
554.093	371.06
554.306	374.06
554.519	371.06
554.732	374.06
554.944	376.06
555.157	364.06
555.37	357.06
555.583	360.06
555.795	349.06
556.008	353.06
556.221	349.06
556.433	362.06
556.646	334.06
556.859	345.06
557.071	323.06
557.284	340.06
557.496	337.06
557.709	320.06
557.921	335.06
558.134	336.06
558.346	333.06
558.559	327.06
558.771	327.06
558.984	328.06
559.196	317.06
559.409	312.06
559.621	335.06
559.833	324.06
560.046	323.06
560.258	334.06
560.47	321.06
560.683	322.06
560.895	315.06
561.107	334.06
561.32	321.06
561.532	325.06
561.744	322.06
561.956	336.06
562.168	330.06
562.381	329.06
562.593	330.06
562.805	341.06
563.017	335.06
563.229	329.06
563.441	322.06
563.653	326.06
563.865	336.06
564.077	332.06
564.289	327.06
564.501	343.06
564.713	335.06
564.925	324.06
565.137	350.06
565.349	336.06
565.561	339.06
565.773	345.06
565.985	342.06
566.197	350.06
566.408	361.06
566.62	369.06
566.832	371.06
567.044	370.06
567.255	361.06
567.467	381.06
567.679	367.06
567.891	355.06
568.102	356.06
568.314	349.06
568.526	358.06
568.737	360.06
568.949	351.06
569.161	329.06
569.372	330.06
569.584	348.06
569.795	332.06
570.007	332.06
570.218	366.06
570.43	369.06
570.641	325.06
570.853	317.06
571.064	318.06
571.276	309.06
571.487	302.06
571.698	319.06
571.91	310.06
572.121	302.06
572.333	302.06
572.544	305.06
572.755	281.06
572.966	288.06
573.178	300.06
573.389	289.06
573.6	318.06
573.811	277.06
574.023	292.06
574.234	289.06
574.445	292.06
574.656	284.06
574.867	285.06
575.078	274.06
575.289	284.06
575.501	294.06
575.712	262.06
575.923	264.06
576.134	278.06
576.345	291.06
576.556	277.06
576.767	269.06
576.978	284.06
577.188	292.06
577.399	281.06
577.61	280.06
577.821	280.06
578.032	287.06
578.243	316.06
578.454	530.06
578.665	394.06
578.875	285.06
579.086	274.06
579.297	279.06
579.508	286.06
579.718	271.06
579.929	250.06
580.14	276.06
580.35	263.06
580.561	264.06
580.772	273.06
580.982	252.06
581.193	257.06
581.403	260.06
581.614	252.06
581.825	260.06
582.035	256.06
582.246	273.06
582.456	248.06
582.667	248.06
582.877	266.06
583.087	245.06
583.298	251.06
583.508	234.06
583.719	252.06
583.929	255.06
584.139	265.06
584.35	242.06
584.56	268.06
584.77	252.06
584.981	272.06
585.191	270.06
585.401	258.06
585.611	269.06
585.821	245.06
586.032	256.06
586.242	253.06
586.452	235.06
586.662	254.06
586.872	239.06
587.082	238.06
587.292	246.06
587.502	256.06
587.713	238.06
587.923	240.06
588.133	252.06
588.343	234.06
588.553	232.06
588.762	261.06
588.972	266.06
589.182	255.06
589.392	240.06
589.602	254.06
589.812	254.06
590.022	246.06
590.232	258.06
590.441	233.06
590.651	223.06
590.861	249.06
591.071	249.06
591.281	254.06
591.49	239.06
591.7	268.06
591.91	250.06
592.119	249.06
592.329	237.06
592.539	245.06
592.748	247.06
592.958	240.06
593.167	236.06
593.377	258.06
593.587	265.06
593.796	269.06
594.006	242.06
594.215	242.06
594.424	252.06
594.634	256.06
594.843	227.06
595.053	249.06
595.262	256.06
595.472	243.06
595.681	247.06
595.89	236.06
596.1	245.06
596.309	229.06
596.518	216.06
596.727	232.06
596.937	238.06
597.146	229.06
597.355	234.06
597.564	224.06
597.774	232.06
597.983	213.06
598.192	210.06
598.401	223.06
598.61	224.06
598.819	224.06
599.028	226.06
599.237	221.06
599.446	225.06
599.655	223.06
599.864	228.06
600.073	226.06
600.282	229.06
600.491	218.06
600.7	224.06
600.909	216.06
601.118	217.06
601.327	215.06
601.536	206.06
601.745	221.06
601.953	231.06
602.162	226.06
602.371	222.06
602.58	201.06
602.789	216.06
602.997	219.06
603.206	212.06
603.415	196.06
603.623	212.06
603.832	207.06
604.041	202.06
604.249	218.06
604.458	208.06
604.666	209.06
604.875	226.06
605.084	216.06
605.292	201.06
605.501	211.06
605.709	193.06
605.918	206.06
606.126	203.06
606.334	217.06
606.543	209.06
606.751	200.06
606.96	210.06
607.168	191.06
607.376	205.06
607.585	197.06
607.793	207.06
608.001	222.06
608.21	205.06
608.418	200.06
608.626	198.06
608.834	222.06
609.043	207.06
609.251	209.06
609.459	190.06
609.667	196.06
609.875	197.06
610.083	206.06
610.291	196.06
610.499	204.06
610.707	197.06
610.916	205.06
611.124	210.06
611.332	195.06
611.54	206.06
611.748	219.06
611.955	189.06
612.163	210.06
612.371	205.06
612.579	197.06
612.787	209.06
612.995	197.06
613.203	212.06
613.411	191.06
613.618	216.06
613.826	196.06
614.034	210.06
614.242	216.06
614.449	201.06
614.657	193.06
614.865	197.06
615.072	198.06
615.28	180.06
615.488	186.06
615.695	200.06
615.903	188.06
616.111	208.06
616.318	201.06
616.526	209.06
616.733	201.06
616.941	181.06
617.148	184.06
617.356	189.06
617.563	201.06
617.771	204.06
617.978	188.06
618.185	182.06
618.393	182.06
618.6	185.06
618.807	194.06
619.015	195.06
619.222	191.06
619.429	197.06
619.637	200.06
619.844	194.06
620.051	185.06
620.258	200.06
620.466	192.06
620.673	198.06
620.88	180.06
621.087	184.06
621.294	182.06
621.501	190.06
621.708	198.06
621.915	203.06
622.122	180.06
622.329	185.06
622.536	196.06
622.743	191.06
622.95	193.06
623.157	173.06
623.364	168.06
623.571	194.06
623.778	185.06
623.985	185.06
624.192	169.06
624.399	183.06
624.606	195.06
624.812	179.06
625.019	184.06
625.226	191.06
625.433	194.06
625.639	186.06
625.846	185.06
626.053	176.06
626.259	174.06
626.466	182.06
626.673	175.06
626.879	170.06
627.086	161.06
627.293	177.06
627.499	160.06
627.706	175.06
627.912	182.06
628.119	170.06
628.325	188.06
628.532	162.06
628.738	177.06
628.945	176.06
629.151	176.06
629.357	165.06
629.564	169.06
629.77	171.06
629.976	165.06
630.183	174.06
630.389	150.06
630.595	183.06
630.802	170.06
631.008	165.06
631.214	180.06
631.42	173.06
631.627	169.06
631.833	164.06
632.039	175.06
632.245	151.06
632.451	165.06
632.657	175.06
632.863	174.06
633.069	175.06
633.275	172.06
633.481	175.06
633.688	169.06
633.893	160.06
634.099	153.06
634.305	168.06
634.511	160.06
634.717	152.06
634.923	144.06
635.129	160.06
635.335	152.06
635.541	160.06
635.747	164.06
635.952	161.06
636.158	157.06
636.364	144.06
636.57	168.06
636.775	166.06
636.981	169.06
637.187	183.06
637.392	164.06
637.598	144.06
637.804	153.06
638.009	158.06
638.215	162.06
638.421	151.06
638.626	148.06
638.832	159.06
639.037	140.06
639.243	149.06
639.448	146.06
639.654	155.06
639.859	153.06
640.065	156.06
640.27	160.06
640.475	160.06
640.681	149.06
640.886	165.06
641.091	150.06
641.297	156.06
641.502	151.06
641.707	168.06
641.913	166.06
642.118	156.06
642.323	155.06
642.528	164.06
642.733	154.06
642.939	156.06
643.144	160.06
643.349	148.06
643.554	141.06
643.759	146.06
643.964	138.06
644.169	146.06
644.374	161.06
644.579	149.06
644.784	161.06
644.989	128.06
645.194	117.06
645.399	141.06
645.604	133.06
645.809	151.06
646.014	142.06
646.219	143.06
646.423	146.06
646.628	143.06
646.833	156.06
647.038	157.06
647.243	160.06
647.447	149.06
647.652	164.06
647.857	137.06
648.062	138.06
648.266	149.06
648.471	152.06
648.676	155.06
648.88	155.06
649.085	161.06
649.289	146.06
649.494	156.06
649.698	159.06
649.903	156.06
650.107	144.06
650.312	149.06
650.516	144.06
650.721	147.06
650.925	146.06
651.13	137.06
651.334	138.06
651.539	130.06
651.743	145.06
651.947	135.06
652.152	129.06
652.356	134.06
652.56	134.06
652.764	138.06
652.969	126.06
653.173	126.06
653.377	126.06
653.581	120.06
653.785	114.06
653.99	112.06
654.194	134.06
654.398	118.06
654.602	124.06
654.806	118.06
655.01	111.06
655.214	124.06
655.418	128.06
655.622	125.06
655.826	124.06
656.03	136.06
656.234	116.06
656.438	109.06
656.642	118.06
656.846	126.06
657.049	119.06
657.253	108.06
657.457	116.06
657.661	121.06
657.865	113.06
658.068	116.06
658.272	97.06
658.476	98.06
658.68	102.06
658.883	109.06
659.087	88.06
659.291	84.06
659.494	87.06
659.698	82.06
659.901	97.06
660.105	91.06
660.309	106.06
660.512	94.06
660.716	95.06
660.919	92.06
661.123	98.06
661.326	91.06
661.53	82.06
661.733	73.06
661.936	82.06
662.14	89.06
662.343	78.06
662.546	79.06
662.75	88.06
662.953	82.06
663.156	67.06
663.36	89.06
663.563	79.06
663.766	69.06
663.969	67.06
664.173	74.06
664.376	77.06
664.579	77.06
664.782	72.06
664.985	73.06
665.188	83.06
665.391	84.06
665.594	70.06
665.797	89.06
666	72.06
666.203	79.06
666.406	85.06
666.609	85.06
666.812	84.06
667.015	88.06
667.218	84.06
667.421	80.06
667.624	81.06
667.827	71.06
668.03	73.06
668.232	63.06
668.435	95.06
668.638	78.06
668.841	88.06
669.043	74.06
669.246	84.06
669.449	71.06
669.651	75.06
669.854	74.06
670.057	85.06
670.259	81.06
670.462	81.06
670.665	89.06
670.867	88.06
671.07	84.06
671.272	88.06
671.475	77.06
671.677	81.06
671.88	84.06
672.082	80.06
672.284	92.06
672.487	89.06
672.689	72.06
672.892	85.06
