Data from 1961.PennyLincolnUp.Lamp.En5.5.200Scan.071719.P1._HRD10591_13-46-34-057.txt Node
Date: Thu Jul 18 13:46:34 EDT 2019
User: cochatt
Spectrometer: HR+D1059
Trigger mode: 1
Integration Time (sec): 1.000000E-1
Scans to average: 1
Electric dark correction enabled: true
Nonlinearity correction enabled: false
Boxcar width: 0
XAxis mode: Wavelengths
Number of Pixels in Spectrum: 2048
>>>>>Begin Spectral Data<<<<<
223.165	2.88
223.4	2.88
223.635	2.88
223.869	-25.12
224.104	-28.12
224.338	-28.12
224.573	-12.12
224.808	-6.12
225.042	-4.12
225.277	-6.12
225.511	-0.12
225.746	6.88
225.98	12.88
226.215	4.88
226.449	18.88
226.683	22.88
226.918	20.88
227.152	19.88
227.387	34.88
227.621	32.88
227.856	65.88
228.09	48.88
228.324	46.88
228.559	51.88
228.793	59.88
229.027	85.88
229.262	88.88
229.496	82.88
229.73	111.88
229.964	118.88
230.199	101.88
230.433	110.88
230.667	102.88
230.901	100.88
231.136	96.88
231.37	103.88
231.604	87.88
231.838	116.88
232.072	91.88
232.306	90.88
232.541	100.88
232.775	109.88
233.009	87.88
233.243	107.88
233.477	90.88
233.711	108.88
233.945	99.88
234.179	89.88
234.413	101.88
234.647	114.88
234.881	95.88
235.115	102.88
235.349	95.88
235.583	88.88
235.817	89.88
236.051	90.88
236.285	100.88
236.519	110.88
236.753	106.88
236.987	121.88
237.221	132.88
237.455	167.88
237.689	139.88
237.922	117.88
238.156	115.88
238.39	106.88
238.624	117.88
238.858	113.88
239.091	110.88
239.325	111.88
239.559	98.88
239.793	110.88
240.027	118.88
240.26	108.88
240.494	123.88
240.728	130.88
240.961	120.88
241.195	107.88
241.429	106.88
241.662	102.88
241.896	112.88
242.13	110.88
242.363	117.88
242.597	115.88
242.83	117.88
243.064	122.88
243.298	109.88
243.531	113.88
243.765	119.88
243.998	121.88
244.232	105.88
244.465	123.88
244.699	105.88
244.932	106.88
245.166	115.88
245.399	114.88
245.633	118.88
245.866	117.88
246.099	136.88
246.333	126.88
246.566	124.88
246.8	123.88
247.033	119.88
247.266	132.88
247.5	137.88
247.733	126.88
247.966	134.88
248.2	131.88
248.433	127.88
248.666	142.88
248.899	152.88
249.133	147.88
249.366	159.88
249.599	166.88
249.832	143.88
250.066	130.88
250.299	136.88
250.532	151.88
250.765	142.88
250.998	155.88
251.231	177.88
251.465	154.88
251.698	155.88
251.931	164.88
252.164	169.88
252.397	154.88
252.63	163.88
252.863	165.88
253.096	166.88
253.329	158.88
253.562	158.88
253.795	156.88
254.028	155.88
254.261	171.88
254.494	175.88
254.727	167.88
254.96	178.88
255.193	169.88
255.426	162.88
255.659	171.88
255.892	178.88
256.124	178.88
256.357	153.88
256.59	165.88
256.823	168.88
257.056	147.88
257.289	173.88
257.521	155.88
257.754	157.88
257.987	156.88
258.22	160.88
258.452	157.88
258.685	153.88
258.918	154.88
259.151	156.88
259.383	149.88
259.616	158.88
259.849	172.88
260.081	168.88
260.314	172.88
260.547	192.88
260.779	174.88
261.012	164.88
261.244	178.88
261.477	178.88
261.71	176.88
261.942	169.88
262.175	176.88
262.407	161.88
262.64	164.88
262.872	149.88
263.105	162.88
263.337	171.88
263.57	145.88
263.802	149.88
264.035	170.88
264.267	162.88
264.499	160.88
264.732	154.88
264.964	141.88
265.197	157.88
265.429	152.88
265.661	143.88
265.894	162.88
266.126	148.88
266.358	158.88
266.591	164.88
266.823	160.88
267.055	170.88
267.287	174.88
267.52	161.88
267.752	158.88
267.984	159.88
268.216	169.88
268.448	163.88
268.681	178.88
268.913	184.88
269.145	191.88
269.377	188.88
269.609	193.88
269.841	185.88
270.073	200.88
270.306	173.88
270.538	204.88
270.77	211.88
271.002	210.88
271.234	202.88
271.466	203.88
271.698	217.88
271.93	219.88
272.162	208.88
272.394	205.88
272.626	225.88
272.858	214.88
273.09	212.88
273.322	181.88
273.553	191.88
273.785	182.88
274.017	190.88
274.249	166.88
274.481	188.88
274.713	200.88
274.945	205.88
275.176	176.88
275.408	201.88
275.64	208.88
275.872	193.88
276.104	195.88
276.335	178.88
276.567	203.88
276.799	194.88
277.031	193.88
277.262	206.88
277.494	215.88
277.726	207.88
277.957	191.88
278.189	187.88
278.421	196.88
278.652	190.88
278.884	193.88
279.115	181.88
279.347	198.88
279.579	198.88
279.81	186.88
280.042	194.88
280.273	189.88
280.505	191.88
280.736	186.88
280.968	194.88
281.199	194.88
281.431	194.88
281.662	191.88
281.894	178.88
282.125	190.88
282.356	201.88
282.588	220.88
282.819	208.88
283.051	201.88
283.282	187.88
283.513	198.88
283.745	188.88
283.976	183.88
284.207	207.88
284.439	186.88
284.67	201.88
284.901	195.88
285.132	186.88
285.364	193.88
285.595	190.88
285.826	179.88
286.057	175.88
286.288	182.88
286.52	207.88
286.751	210.88
286.982	198.88
287.213	218.88
287.444	198.88
287.675	182.88
287.906	205.88
288.138	206.88
288.369	221.88
288.6	214.88
288.831	209.88
289.062	217.88
289.293	204.88
289.524	203.88
289.755	207.88
289.986	210.88
290.217	194.88
290.448	195.88
290.679	209.88
290.91	201.88
291.141	195.88
291.371	197.88
291.602	188.88
291.833	198.88
292.064	195.88
292.295	206.88
292.526	199.88
292.757	187.88
292.987	192.88
293.218	194.88
293.449	194.88
293.68	203.88
293.91	184.88
294.141	196.88
294.372	200.88
294.603	201.88
294.833	219.88
295.064	196.88
295.295	213.88
295.525	211.88
295.756	204.88
295.987	222.88
296.217	215.88
296.448	217.88
296.679	230.88
296.909	215.88
297.14	202.88
297.37	205.88
297.601	186.88
297.831	205.88
298.062	198.88
298.292	203.88
298.523	202.88
298.753	210.88
298.984	208.88
299.214	222.88
299.445	218.88
299.675	238.88
299.905	216.88
300.136	208.88
300.366	218.88
300.597	216.88
300.827	225.88
301.057	226.88
301.288	226.88
301.518	225.88
301.748	209.88
301.979	215.88
302.209	215.88
302.439	222.88
302.669	234.88
302.9	231.88
303.13	213.88
303.36	220.88
303.59	217.88
303.82	229.88
304.051	250.88
304.281	214.88
304.511	231.88
304.741	222.88
304.971	225.88
305.201	224.88
305.431	219.88
305.661	246.88
305.891	232.88
306.121	226.88
306.352	231.88
306.582	245.88
306.812	234.88
307.042	222.88
307.272	231.88
307.502	234.88
307.731	246.88
307.961	251.88
308.191	224.88
308.421	238.88
308.651	233.88
308.881	221.88
309.111	231.88
309.341	249.88
309.571	252.88
309.8	240.88
310.03	257.88
310.26	260.88
310.49	243.88
310.72	281.88
310.949	251.88
311.179	263.88
311.409	251.88
311.639	243.88
311.868	256.88
312.098	260.88
312.328	262.88
312.557	283.88
312.787	266.88
313.017	276.88
313.246	284.88
313.476	245.88
313.706	257.88
313.935	259.88
314.165	267.88
314.394	281.88
314.624	283.88
314.853	256.88
315.083	254.88
315.312	282.88
315.542	255.88
315.771	254.88
316.001	280.88
316.23	252.88
316.46	257.88
316.689	280.88
316.919	250.88
317.148	266.88
317.377	260.88
317.607	254.88
317.836	245.88
318.065	282.88
318.295	278.88
318.524	263.88
318.753	248.88
318.983	244.88
319.212	269.88
319.441	278.88
319.67	252.88
319.9	281.88
320.129	270.88
320.358	254.88
320.587	262.88
320.816	286.88
321.046	280.88
321.275	277.88
321.504	254.88
321.733	266.88
321.962	287.88
322.191	286.88
322.42	292.88
322.649	306.88
322.878	325.88
323.108	323.88
323.337	324.88
323.566	353.88
323.795	374.88
324.024	408.88
324.253	482.88
324.482	698.88
324.71	1078.88
324.939	1492.88
325.168	1228.88
325.397	646.88
325.626	459.88
325.855	402.88
326.084	370.88
326.313	361.88
326.542	344.88
326.77	378.88
326.999	463.88
327.228	617.88
327.457	935.88
327.686	1090.88
327.914	728.88
328.143	499.88
328.372	456.88
328.6	396.88
328.829	393.88
329.058	392.88
329.287	422.88
329.515	363.88
329.744	359.88
329.972	367.88
330.201	392.88
330.43	403.88
330.658	397.88
330.887	405.88
331.115	404.88
331.344	354.88
331.572	319.88
331.801	354.88
332.03	334.88
332.258	340.88
332.486	314.88
332.715	316.88
332.943	308.88
333.172	311.88
333.4	304.88
333.629	321.88
333.857	347.88
334.085	343.88
334.314	365.88
334.542	345.88
334.771	386.88
334.999	356.88
335.227	321.88
335.455	310.88
335.684	328.88
335.912	294.88
336.14	307.88
336.369	300.88
336.597	295.88
336.825	313.88
337.053	298.88
337.281	306.88
337.51	304.88
337.738	286.88
337.966	287.88
338.194	318.88
338.422	297.88
338.65	312.88
338.878	291.88
339.106	296.88
339.334	295.88
339.562	310.88
339.79	282.88
340.018	290.88
340.246	295.88
340.474	306.88
340.702	296.88
340.93	290.88
341.158	287.88
341.386	301.88
341.614	311.88
341.842	299.88
342.07	294.88
342.298	296.88
342.526	268.88
342.754	282.88
342.981	268.88
343.209	290.88
343.437	298.88
343.665	292.88
343.893	290.88
344.12	314.88
344.348	300.88
344.576	316.88
344.804	307.88
345.031	304.88
345.259	296.88
345.487	312.88
345.714	294.88
345.942	298.88
346.17	287.88
346.397	294.88
346.625	286.88
346.853	302.88
347.08	299.88
347.308	297.88
347.535	316.88
347.763	297.88
347.99	291.88
348.218	285.88
348.445	301.88
348.673	314.88
348.9	302.88
349.128	302.88
349.355	274.88
349.583	274.88
349.81	280.88
350.037	291.88
350.265	264.88
350.492	277.88
350.72	289.88
350.947	273.88
351.174	279.88
351.402	292.88
351.629	281.88
351.856	312.88
352.083	290.88
352.311	304.88
352.538	318.88
352.765	308.88
352.992	315.88
353.22	272.88
353.447	289.88
353.674	295.88
353.901	259.88
354.128	278.88
354.355	272.88
354.583	261.88
354.81	277.88
355.037	265.88
355.264	267.88
355.491	267.88
355.718	271.88
355.945	262.88
356.172	271.88
356.399	264.88
356.626	277.88
356.853	260.88
357.08	267.88
357.307	282.88
357.534	274.88
357.761	273.88
357.988	272.88
358.215	272.88
358.441	263.88
358.668	263.88
358.895	274.88
359.122	263.88
359.349	294.88
359.576	293.88
359.802	308.88
360.029	314.88
360.256	336.88
360.483	317.88
360.709	283.88
360.936	286.88
361.163	291.88
361.39	294.88
361.616	285.88
361.843	293.88
362.07	293.88
362.296	274.88
362.523	293.88
362.749	284.88
362.976	275.88
363.203	296.88
363.429	283.88
363.656	268.88
363.882	272.88
364.109	289.88
364.335	280.88
364.562	284.88
364.788	287.88
365.015	270.88
365.241	267.88
365.468	280.88
365.694	287.88
365.92	286.88
366.147	276.88
366.373	275.88
366.599	266.88
366.826	272.88
367.052	280.88
367.278	276.88
367.505	281.88
367.731	282.88
367.957	270.88
368.184	282.88
368.41	282.88
368.636	288.88
368.862	312.88
369.089	285.88
369.315	268.88
369.541	286.88
369.767	297.88
369.993	275.88
370.219	289.88
370.445	274.88
370.672	263.88
370.898	270.88
371.124	272.88
371.35	287.88
371.576	269.88
371.802	285.88
372.028	293.88
372.254	275.88
372.48	264.88
372.706	275.88
372.932	289.88
373.158	276.88
373.384	291.88
373.61	264.88
373.835	290.88
374.061	291.88
374.287	282.88
374.513	282.88
374.739	302.88
374.965	296.88
375.191	286.88
375.416	281.88
375.642	266.88
375.868	288.88
376.094	266.88
376.319	266.88
376.545	280.88
376.771	271.88
376.997	271.88
377.222	274.88
377.448	285.88
377.674	263.88
377.899	269.88
378.125	268.88
378.35	286.88
378.576	272.88
378.802	259.88
379.027	268.88
379.253	292.88
379.478	270.88
379.704	288.88
379.929	287.88
380.155	288.88
380.38	262.88
380.606	265.88
380.831	263.88
381.057	266.88
381.282	288.88
381.507	276.88
381.733	279.88
381.958	279.88
382.184	294.88
382.409	293.88
382.634	280.88
382.86	277.88
383.085	268.88
383.31	283.88
383.535	303.88
383.761	284.88
383.986	294.88
384.211	279.88
384.436	305.88
384.662	276.88
384.887	300.88
385.112	296.88
385.337	291.88
385.562	302.88
385.787	302.88
386.013	293.88
386.238	298.88
386.463	312.88
386.688	296.88
386.913	280.88
387.138	295.88
387.363	311.88
387.588	280.88
387.813	304.88
388.038	302.88
388.263	305.88
388.488	304.88
388.713	292.88
388.938	279.88
389.163	304.88
389.387	296.88
389.612	296.88
389.837	303.88
390.062	307.88
390.287	310.88
390.512	290.88
390.736	297.88
390.961	297.88
391.186	313.88
391.411	306.88
391.636	299.88
391.86	306.88
392.085	306.88
392.31	305.88
392.534	312.88
392.759	323.88
392.984	320.88
393.208	303.88
393.433	329.88
393.658	310.88
393.882	293.88
394.107	310.88
394.331	284.88
394.556	303.88
394.78	311.88
395.005	301.88
395.229	287.88
395.454	319.88
395.678	306.88
395.903	326.88
396.127	343.88
396.352	336.88
396.576	324.88
396.801	315.88
397.025	313.88
397.249	322.88
397.474	327.88
397.698	311.88
397.922	328.88
398.147	331.88
398.371	344.88
398.595	331.88
398.82	339.88
399.044	350.88
399.268	342.88
399.492	369.88
399.717	366.88
399.941	394.88
400.165	409.88
400.389	420.88
400.613	385.88
400.837	373.88
401.062	363.88
401.286	357.88
401.51	327.88
401.734	343.88
401.958	356.88
402.182	342.88
402.406	361.88
402.63	345.88
402.854	352.88
403.078	352.88
403.302	363.88
403.526	353.88
403.75	338.88
403.974	346.88
404.198	342.88
404.422	367.88
404.645	355.88
404.869	366.88
405.093	374.88
405.317	384.88
405.541	424.88
405.765	399.88
405.988	358.88
406.212	368.88
406.436	375.88
406.66	380.88
406.883	370.88
407.107	410.88
407.331	426.88
407.555	468.88
407.778	439.88
408.002	412.88
408.226	383.88
408.449	381.88
408.673	394.88
408.896	402.88
409.12	435.88
409.344	409.88
409.567	382.88
409.791	386.88
410.014	367.88
410.238	373.88
410.461	354.88
410.685	362.88
410.908	388.88
411.132	404.88
411.355	404.88
411.578	401.88
411.802	361.88
412.025	363.88
412.249	365.88
412.472	379.88
412.695	391.88
412.919	404.88
413.142	380.88
413.365	348.88
413.589	357.88
413.812	339.88
414.035	338.88
414.258	348.88
414.482	327.88
414.705	338.88
414.928	339.88
415.151	314.88
415.374	334.88
415.597	316.88
415.821	343.88
416.044	329.88
416.267	351.88
416.49	336.88
416.713	320.88
416.936	346.88
417.159	345.88
417.382	342.88
417.605	352.88
417.828	354.88
418.051	375.88
418.274	353.88
418.497	342.88
418.72	334.88
418.943	328.88
419.166	360.88
419.389	371.88
419.611	366.88
419.834	358.88
420.057	373.88
420.28	374.88
420.503	348.88
420.726	360.88
420.948	374.88
421.171	393.88
421.394	418.88
421.617	378.88
421.839	364.88
422.062	356.88
422.285	376.88
422.507	419.88
422.73	439.88
422.953	435.88
423.175	379.88
423.398	378.88
423.621	374.88
423.843	390.88
424.066	388.88
424.288	358.88
424.511	400.88
424.733	438.88
424.956	479.88
425.178	452.88
425.401	456.88
425.623	478.88
425.846	422.88
426.068	392.88
426.291	378.88
426.513	377.88
426.735	376.88
426.958	406.88
427.18	467.88
427.402	550.88
427.625	610.88
427.847	518.88
428.069	458.88
428.292	404.88
428.514	388.88
428.736	371.88
428.958	378.88
429.181	345.88
429.403	348.88
429.625	361.88
429.847	378.88
430.069	432.88
430.292	440.88
430.514	356.88
430.736	362.88
430.958	336.88
431.18	353.88
431.402	327.88
431.624	366.88
431.846	350.88
432.068	333.88
432.29	333.88
432.512	338.88
432.734	336.88
432.956	340.88
433.178	362.88
433.4	361.88
433.622	340.88
433.844	325.88
434.066	350.88
434.287	325.88
434.509	318.88
434.731	372.88
434.953	349.88
435.175	352.88
435.397	380.88
435.618	350.88
435.84	410.88
436.062	473.88
436.284	522.88
436.505	427.88
436.727	395.88
436.949	396.88
437.17	378.88
437.392	366.88
437.614	384.88
437.835	386.88
438.057	458.88
438.278	521.88
438.5	531.88
438.721	560.88
438.943	542.88
439.165	453.88
439.386	390.88
439.608	380.88
439.829	390.88
440.05	400.88
440.272	457.88
440.493	419.88
440.715	390.88
440.936	366.88
441.158	351.88
441.379	372.88
441.6	374.88
441.822	383.88
442.043	436.88
442.264	472.88
442.486	495.88
442.707	432.88
442.928	395.88
443.149	408.88
443.371	427.88
443.592	427.88
443.813	498.88
444.034	542.88
444.255	453.88
444.476	417.88
444.698	362.88
444.919	386.88
445.14	518.88
445.361	436.88
445.582	422.88
445.803	453.88
446.024	532.88
446.245	548.88
446.466	475.88
446.687	418.88
446.908	388.88
447.129	368.88
447.35	381.88
447.571	383.88
447.792	385.88
448.013	360.88
448.234	372.88
448.455	406.88
448.675	490.88
448.896	562.88
449.117	468.88
449.338	474.88
449.559	531.88
449.779	584.88
450	479.88
450.221	416.88
450.442	377.88
450.662	358.88
450.883	348.88
451.104	361.88
451.324	375.88
451.545	352.88
451.766	341.88
451.986	328.88
452.207	323.88
452.428	329.88
452.648	326.88
452.869	310.88
453.089	328.88
453.31	318.88
453.53	336.88
453.751	326.88
453.971	346.88
454.192	348.88
454.412	339.88
454.633	336.88
454.853	320.88
455.073	316.88
455.294	334.88
455.514	407.88
455.734	361.88
455.955	314.88
456.175	312.88
456.395	312.88
456.616	295.88
456.836	318.88
457.056	301.88
457.276	292.88
457.497	296.88
457.717	304.88
457.937	313.88
458.157	324.88
458.377	312.88
458.598	346.88
458.818	386.88
459.038	427.88
459.258	440.88
459.478	361.88
459.698	350.88
459.918	334.88
460.138	340.88
460.358	341.88
460.578	331.88
460.798	340.88
461.018	347.88
461.238	357.88
461.458	370.88
461.678	360.88
461.898	345.88
462.118	349.88
462.338	342.88
462.558	358.88
462.777	360.88
462.997	364.88
463.217	367.88
463.437	357.88
463.657	349.88
463.876	374.88
464.096	362.88
464.316	360.88
464.536	357.88
464.755	357.88
464.975	364.88
465.195	402.88
465.414	467.88
465.634	384.88
465.854	368.88
466.073	347.88
466.293	362.88
466.512	325.88
466.732	326.88
466.951	320.88
467.171	343.88
467.391	340.88
467.61	332.88
467.829	348.88
468.049	331.88
468.268	349.88
468.488	340.88
468.707	324.88
468.927	326.88
469.146	324.88
469.365	313.88
469.585	325.88
469.804	327.88
470.023	338.88
470.243	348.88
470.462	361.88
470.681	364.88
470.901	355.88
471.12	328.88
471.339	330.88
471.558	352.88
471.777	340.88
471.997	336.88
472.216	363.88
472.435	357.88
472.654	374.88
472.873	370.88
473.092	346.88
473.311	330.88
473.53	330.88
473.749	347.88
473.968	387.88
474.187	451.88
474.406	456.88
474.625	373.88
474.844	350.88
475.063	342.88
475.282	351.88
475.501	346.88
475.72	374.88
475.939	358.88
476.158	368.88
476.377	351.88
476.596	359.88
476.814	349.88
477.033	356.88
477.252	375.88
477.471	358.88
477.69	373.88
477.908	374.88
478.127	366.88
478.346	381.88
478.564	355.88
478.783	370.88
479.002	381.88
479.22	387.88
479.439	395.88
479.658	410.88
479.876	419.88
480.095	416.88
480.313	415.88
480.532	435.88
480.751	419.88
480.969	411.88
481.188	459.88
481.406	481.88
481.624	422.88
481.843	419.88
482.061	437.88
482.28	407.88
482.498	407.88
482.717	402.88
482.935	380.88
483.153	388.88
483.372	394.88
483.59	400.88
483.808	413.88
484.027	386.88
484.245	403.88
484.463	379.88
484.681	410.88
484.9	395.88
485.118	399.88
485.336	409.88
485.554	431.88
485.772	408.88
485.99	402.88
486.209	420.88
486.427	416.88
486.645	427.88
486.863	423.88
487.081	433.88
487.299	422.88
487.517	436.88
487.735	405.88
487.953	432.88
488.171	440.88
488.389	436.88
488.607	456.88
488.825	429.88
489.043	421.88
489.261	438.88
489.479	418.88
489.696	440.88
489.914	434.88
490.132	420.88
490.35	450.88
490.568	440.88
490.786	452.88
491.003	467.88
491.221	460.88
491.439	472.88
491.657	478.88
491.874	482.88
492.092	490.88
492.31	475.88
492.527	475.88
492.745	483.88
492.963	490.88
493.18	497.88
493.398	496.88
493.615	456.88
493.833	477.88
494.05	491.88
494.268	492.88
494.485	498.88
494.703	487.88
494.92	498.88
495.138	482.88
495.355	488.88
495.573	499.88
495.79	489.88
496.008	481.88
496.225	482.88
496.442	496.88
496.66	497.88
496.877	485.88
497.094	532.88
497.312	507.88
497.529	504.88
497.746	521.88
497.963	520.88
498.181	523.88
498.398	555.88
498.615	548.88
498.832	555.88
499.049	568.88
499.267	563.88
499.484	572.88
499.701	599.88
499.918	602.88
500.135	615.88
500.352	649.88
500.569	627.88
500.786	648.88
501.003	662.88
501.22	643.88
501.437	618.88
501.654	596.88
501.871	616.88
502.088	572.88
502.305	577.88
502.522	584.88
502.739	544.88
502.956	531.88
503.172	517.88
503.389	543.88
503.606	559.88
503.823	529.88
504.04	502.88
504.256	541.88
504.473	507.88
504.69	514.88
504.907	519.88
505.123	518.88
505.34	522.88
505.557	479.88
505.773	498.88
505.99	476.88
506.207	475.88
506.423	486.88
506.64	487.88
506.856	463.88
507.073	469.88
507.289	474.88
507.506	468.88
507.722	514.88
507.939	520.88
508.155	484.88
508.372	464.88
508.588	466.88
508.805	478.88
509.021	463.88
509.238	475.88
509.454	474.88
509.67	447.88
509.887	467.88
510.103	456.88
510.319	480.88
510.536	528.88
510.752	844.88
510.968	688.88
511.184	466.88
511.401	462.88
511.617	445.88
511.833	443.88
512.049	442.88
512.265	447.88
512.481	459.88
512.698	462.88
512.914	428.88
513.13	436.88
513.346	459.88
513.562	433.88
513.778	443.88
513.994	442.88
514.21	462.88
514.426	465.88
514.642	507.88
514.858	514.88
515.074	539.88
515.29	641.88
515.506	891.88
515.721	756.88
515.937	529.88
516.153	487.88
516.369	470.88
516.585	452.88
516.801	464.88
517.016	464.88
517.232	444.88
517.448	441.88
517.664	458.88
517.879	433.88
518.095	436.88
518.311	436.88
518.527	432.88
518.742	448.88
518.958	452.88
519.173	448.88
519.389	446.88
519.605	456.88
519.82	433.88
520.036	454.88
520.251	478.88
520.467	469.88
520.682	480.88
520.898	490.88
521.113	492.88
521.329	529.88
521.544	601.88
521.76	727.88
521.975	1145.88
522.19	1089.88
522.406	643.88
522.621	488.88
522.836	469.88
523.052	438.88
523.267	423.88
523.482	419.88
523.698	442.88
523.913	413.88
524.128	424.88
524.343	412.88
524.559	390.88
524.774	380.88
524.989	395.88
525.204	415.88
525.419	380.88
525.634	381.88
525.849	378.88
526.064	382.88
526.28	383.88
526.495	354.88
526.71	376.88
526.925	376.88
527.14	360.88
527.355	359.88
527.57	360.88
527.785	383.88
527.999	385.88
528.214	376.88
528.429	378.88
528.644	378.88
528.859	359.88
529.074	378.88
529.289	398.88
529.503	446.88
529.718	416.88
529.933	383.88
530.148	386.88
530.363	372.88
530.577	382.88
530.792	360.88
531.007	366.88
531.221	367.88
531.436	359.88
531.651	366.88
531.865	350.88
532.08	349.88
532.295	363.88
532.509	347.88
532.724	355.88
532.938	372.88
533.153	366.88
533.367	351.88
533.582	366.88
533.796	352.88
534.011	356.88
534.225	319.88
534.44	347.88
534.654	341.88
534.868	352.88
535.083	359.88
535.297	329.88
535.511	339.88
535.726	357.88
535.94	338.88
536.154	364.88
536.369	364.88
536.583	344.88
536.797	348.88
537.011	330.88
537.225	342.88
537.44	331.88
537.654	361.88
537.868	339.88
538.082	335.88
538.296	327.88
538.51	338.88
538.724	336.88
538.938	337.88
539.153	362.88
539.367	356.88
539.581	352.88
539.795	352.88
540.009	336.88
540.222	341.88
540.436	352.88
540.65	348.88
540.864	333.88
541.078	369.88
541.292	350.88
541.506	318.88
541.72	345.88
541.934	345.88
542.147	334.88
542.361	348.88
542.575	336.88
542.789	336.88
543.002	338.88
543.216	336.88
543.43	347.88
543.644	354.88
543.857	349.88
544.071	356.88
544.285	328.88
544.498	335.88
544.712	330.88
544.925	344.88
545.139	335.88
545.352	353.88
545.566	347.88
545.779	341.88
545.993	350.88
546.206	350.88
546.42	337.88
546.633	338.88
546.847	336.88
547.06	335.88
547.274	307.88
547.487	316.88
547.7	332.88
547.914	339.88
548.127	323.88
548.34	327.88
548.554	313.88
548.767	330.88
548.98	333.88
549.193	321.88
549.407	320.88
549.62	341.88
549.833	322.88
550.046	331.88
550.259	325.88
550.473	325.88
550.686	331.88
550.899	308.88
551.112	323.88
551.325	317.88
551.538	328.88
551.751	319.88
551.964	323.88
552.177	335.88
552.39	317.88
552.603	318.88
552.816	317.88
553.029	318.88
553.242	323.88
553.455	312.88
553.667	327.88
553.88	345.88
554.093	312.88
554.306	317.88
554.519	323.88
554.732	305.88
554.944	314.88
555.157	326.88
555.37	311.88
555.583	306.88
555.795	304.88
556.008	289.88
556.221	299.88
556.433	299.88
556.646	312.88
556.859	294.88
557.071	317.88
557.284	310.88
557.496	294.88
557.709	299.88
557.921	299.88
558.134	290.88
558.346	295.88
558.559	282.88
558.771	297.88
558.984	304.88
559.196	295.88
559.409	300.88
559.621	279.88
559.833	289.88
560.046	290.88
560.258	291.88
560.47	254.88
560.683	303.88
560.895	276.88
561.107	304.88
561.32	292.88
561.532	292.88
561.744	288.88
561.956	303.88
562.168	303.88
562.381	297.88
562.593	310.88
562.805	295.88
563.017	286.88
563.229	302.88
563.441	287.88
563.653	282.88
563.865	303.88
564.077	312.88
564.289	296.88
564.501	291.88
564.713	306.88
564.925	302.88
565.137	311.88
565.349	315.88
565.561	312.88
565.773	299.88
565.985	314.88
566.197	322.88
566.408	322.88
566.62	341.88
566.832	334.88
567.044	331.88
567.255	343.88
567.467	348.88
567.679	350.88
567.891	332.88
568.102	339.88
568.314	325.88
568.526	326.88
568.737	317.88
568.949	325.88
569.161	293.88
569.372	320.88
569.584	308.88
569.795	304.88
570.007	306.88
570.218	312.88
570.43	321.88
570.641	287.88
570.853	289.88
571.064	267.88
571.276	287.88
571.487	291.88
571.698	293.88
571.91	281.88
572.121	281.88
572.333	262.88
572.544	277.88
572.755	265.88
572.966	270.88
573.178	272.88
573.389	271.88
573.6	278.88
573.811	274.88
574.023	279.88
574.234	265.88
574.445	258.88
574.656	257.88
574.867	261.88
575.078	260.88
575.289	235.88
575.501	249.88
575.712	258.88
575.923	255.88
576.134	242.88
576.345	240.88
576.556	260.88
576.767	249.88
576.978	255.88
577.188	252.88
577.399	250.88
577.61	242.88
577.821	253.88
578.032	274.88
578.243	279.88
578.454	414.88
578.665	340.88
578.875	254.88
579.086	254.88
579.297	244.88
579.508	231.88
579.718	252.88
579.929	242.88
580.14	240.88
580.35	240.88
580.561	247.88
580.772	240.88
580.982	249.88
581.193	242.88
581.403	227.88
581.614	237.88
581.825	245.88
582.035	239.88
582.246	239.88
582.456	227.88
582.667	238.88
582.877	248.88
583.087	206.88
583.298	228.88
583.508	233.88
583.719	235.88
583.929	240.88
584.139	240.88
584.35	236.88
584.56	222.88
584.77	225.88
584.981	234.88
585.191	229.88
585.401	235.88
585.611	231.88
585.821	213.88
586.032	232.88
586.242	234.88
586.452	245.88
586.662	238.88
586.872	219.88
587.082	228.88
587.292	223.88
587.502	228.88
587.713	225.88
587.923	227.88
588.133	233.88
588.343	226.88
588.553	212.88
588.762	218.88
588.972	208.88
589.182	249.88
589.392	244.88
589.602	229.88
589.812	246.88
590.022	236.88
590.232	214.88
590.441	231.88
590.651	244.88
590.861	215.88
591.071	211.88
591.281	219.88
591.49	220.88
591.7	231.88
591.91	217.88
592.119	220.88
592.329	225.88
592.539	235.88
592.748	225.88
592.958	230.88
593.167	216.88
593.377	252.88
593.587	238.88
593.796	236.88
594.006	242.88
594.215	235.88
594.424	229.88
594.634	218.88
594.843	231.88
595.053	230.88
595.262	230.88
595.472	214.88
595.681	239.88
595.89	217.88
596.1	214.88
596.309	210.88
596.518	230.88
596.727	227.88
596.937	205.88
597.146	201.88
597.355	224.88
597.564	211.88
597.774	202.88
597.983	202.88
598.192	205.88
598.401	234.88
598.61	218.88
598.819	205.88
599.028	209.88
599.237	211.88
599.446	203.88
599.655	208.88
599.864	213.88
600.073	211.88
600.282	204.88
600.491	196.88
600.7	212.88
600.909	205.88
601.118	190.88
601.327	216.88
601.536	214.88
601.745	198.88
601.953	197.88
602.162	200.88
602.371	191.88
602.58	206.88
602.789	190.88
602.997	181.88
603.206	216.88
603.415	191.88
603.623	188.88
603.832	194.88
604.041	205.88
604.249	199.88
604.458	196.88
604.666	190.88
604.875	190.88
605.084	197.88
605.292	185.88
605.501	187.88
605.709	192.88
605.918	202.88
606.126	197.88
606.334	185.88
606.543	193.88
606.751	188.88
606.96	178.88
607.168	194.88
607.376	198.88
607.585	198.88
607.793	190.88
608.001	193.88
608.21	187.88
608.418	196.88
608.626	194.88
608.834	198.88
609.043	197.88
609.251	197.88
609.459	200.88
609.667	187.88
609.875	196.88
610.083	180.88
610.291	197.88
610.499	206.88
610.707	188.88
610.916	192.88
611.124	187.88
611.332	205.88
611.54	201.88
611.748	222.88
611.955	200.88
612.163	207.88
612.371	185.88
612.579	172.88
612.787	184.88
612.995	190.88
613.203	183.88
613.411	202.88
613.618	171.88
613.826	174.88
614.034	194.88
614.242	191.88
614.449	196.88
614.657	197.88
614.865	179.88
615.072	197.88
615.28	188.88
615.488	198.88
615.695	192.88
615.903	175.88
616.111	180.88
616.318	196.88
616.526	185.88
616.733	196.88
616.941	175.88
617.148	178.88
617.356	192.88
617.563	189.88
617.771	190.88
617.978	185.88
618.185	187.88
618.393	166.88
618.6	170.88
618.807	195.88
619.015	198.88
619.222	179.88
619.429	192.88
619.637	159.88
619.844	201.88
620.051	184.88
620.258	189.88
620.466	175.88
620.673	182.88
620.88	188.88
621.087	165.88
621.294	186.88
621.501	178.88
621.708	176.88
621.915	191.88
622.122	170.88
622.329	182.88
622.536	164.88
622.743	170.88
622.95	178.88
623.157	178.88
623.364	178.88
623.571	178.88
623.778	171.88
623.985	187.88
624.192	179.88
624.399	163.88
624.606	174.88
624.812	180.88
625.019	174.88
625.226	172.88
625.433	165.88
625.639	171.88
625.846	165.88
626.053	152.88
626.259	169.88
626.466	167.88
626.673	168.88
626.879	164.88
627.086	152.88
627.293	182.88
627.499	187.88
627.706	163.88
627.912	165.88
628.119	154.88
628.325	154.88
628.532	155.88
628.738	164.88
628.945	150.88
629.151	170.88
629.357	166.88
629.564	164.88
629.77	162.88
629.976	159.88
630.183	155.88
630.389	154.88
630.595	164.88
630.802	154.88
631.008	164.88
631.214	168.88
631.42	152.88
631.627	152.88
631.833	162.88
632.039	147.88
632.245	169.88
632.451	157.88
632.657	144.88
632.863	155.88
633.069	154.88
633.275	150.88
633.481	151.88
633.688	156.88
633.893	148.88
634.099	170.88
634.305	139.88
634.511	167.88
634.717	156.88
634.923	148.88
635.129	144.88
635.335	151.88
635.541	139.88
635.747	151.88
635.952	149.88
636.158	146.88
636.364	171.88
636.57	162.88
636.775	158.88
636.981	156.88
637.187	172.88
637.392	136.88
637.598	137.88
637.804	155.88
638.009	144.88
638.215	149.88
638.421	146.88
638.626	145.88
638.832	150.88
639.037	124.88
639.243	144.88
639.448	154.88
639.654	137.88
639.859	146.88
640.065	154.88
640.27	143.88
640.475	144.88
640.681	147.88
640.886	142.88
641.091	153.88
641.297	157.88
641.502	144.88
641.707	153.88
641.913	145.88
642.118	159.88
642.323	130.88
642.528	150.88
642.733	157.88
642.939	142.88
643.144	158.88
643.349	138.88
643.554	158.88
643.759	147.88
643.964	122.88
644.169	140.88
644.374	152.88
644.579	157.88
644.784	159.88
644.989	166.88
645.194	154.88
645.399	138.88
645.604	132.88
645.809	148.88
646.014	135.88
646.219	138.88
646.423	140.88
646.628	146.88
646.833	123.88
647.038	128.88
647.243	150.88
647.447	142.88
647.652	137.88
647.857	146.88
648.062	128.88
648.266	140.88
648.471	146.88
648.676	150.88
648.88	138.88
649.085	152.88
649.289	138.88
649.494	155.88
649.698	162.88
649.903	150.88
650.107	137.88
650.312	132.88
650.516	152.88
650.721	142.88
650.925	131.88
651.13	130.88
651.334	128.88
651.539	140.88
651.743	129.88
651.947	115.88
652.152	124.88
652.356	138.88
652.56	127.88
652.764	130.88
652.969	122.88
653.173	119.88
653.377	130.88
653.581	122.88
653.785	130.88
653.99	128.88
654.194	130.88
654.398	120.88
654.602	132.88
654.806	120.88
655.01	122.88
655.214	119.88
655.418	118.88
655.622	128.88
655.826	125.88
656.03	136.88
656.234	122.88
656.438	130.88
656.642	121.88
656.846	126.88
657.049	116.88
657.253	121.88
657.457	112.88
657.661	112.88
657.865	100.88
658.068	108.88
658.272	100.88
658.476	92.88
658.68	96.88
658.883	97.88
659.087	95.88
659.291	96.88
659.494	86.88
659.698	92.88
659.901	89.88
660.105	86.88
660.309	86.88
660.512	104.88
660.716	102.88
660.919	105.88
661.123	85.88
661.326	84.88
661.53	80.88
661.733	105.88
661.936	88.88
662.14	97.88
662.343	86.88
662.546	77.88
662.75	75.88
662.953	84.88
663.156	81.88
663.36	86.88
663.563	76.88
663.766	89.88
663.969	68.88
664.173	74.88
664.376	83.88
664.579	70.88
664.782	90.88
664.985	72.88
665.188	85.88
665.391	88.88
665.594	89.88
665.797	87.88
666	94.88
666.203	76.88
666.406	75.88
666.609	92.88
666.812	82.88
667.015	92.88
667.218	91.88
667.421	89.88
667.624	80.88
667.827	81.88
668.03	87.88
668.232	82.88
668.435	73.88
668.638	81.88
668.841	95.88
669.043	88.88
669.246	82.88
669.449	89.88
669.651	66.88
669.854	74.88
670.057	75.88
670.259	79.88
670.462	81.88
670.665	83.88
670.867	80.88
671.07	76.88
671.272	81.88
671.475	75.88
671.677	82.88
671.88	72.88
672.082	85.88
672.284	89.88
672.487	67.88
672.689	85.88
672.892	84.88
