Data from 1962.PennyLincolnUp.Lamp.En5.5.200Scan.071719.P1._HRD10591_13-55-01-061.txt Node
Date: Thu Jul 18 13:55:01 EDT 2019
User: cochatt
Spectrometer: HR+D1059
Trigger mode: 1
Integration Time (sec): 1.000000E-1
Scans to average: 1
Electric dark correction enabled: true
Nonlinearity correction enabled: false
Boxcar width: 0
XAxis mode: Wavelengths
Number of Pixels in Spectrum: 2048
>>>>>Begin Spectral Data<<<<<
223.165	-7.62
223.4	-7.62
223.635	-7.62
223.869	-13.62
224.104	-20.62
224.338	-15.62
224.573	-5.62
224.808	-14.62
225.042	-8.62
225.277	6.38
225.511	-7.62
225.746	12.38
225.98	-5.62
226.215	6.38
226.449	9.38
226.683	19.38
226.918	21.38
227.152	24.38
227.387	34.38
227.621	44.38
227.856	40.38
228.09	34.38
228.324	42.38
228.559	36.38
228.793	62.38
229.027	73.38
229.262	98.38
229.496	95.38
229.73	96.38
229.964	116.38
230.199	127.38
230.433	103.38
230.667	112.38
230.901	115.38
231.136	86.38
231.37	101.38
231.604	104.38
231.838	109.38
232.072	123.38
232.306	117.38
232.541	120.38
232.775	116.38
233.009	110.38
233.243	112.38
233.477	105.38
233.711	116.38
233.945	103.38
234.179	112.38
234.413	115.38
234.647	116.38
234.881	112.38
235.115	131.38
235.349	122.38
235.583	111.38
235.817	130.38
236.051	121.38
236.285	133.38
236.519	115.38
236.753	123.38
236.987	144.38
237.221	149.38
237.455	187.38
237.689	152.38
237.922	126.38
238.156	112.38
238.39	107.38
238.624	110.38
238.858	114.38
239.091	114.38
239.325	123.38
239.559	124.38
239.793	122.38
240.027	114.38
240.26	124.38
240.494	142.38
240.728	137.38
240.961	137.38
241.195	156.38
241.429	125.38
241.662	131.38
241.896	146.38
242.13	126.38
242.363	128.38
242.597	139.38
242.83	123.38
243.064	144.38
243.298	134.38
243.531	134.38
243.765	138.38
243.998	124.38
244.232	117.38
244.465	124.38
244.699	138.38
244.932	120.38
245.166	140.38
245.399	127.38
245.633	141.38
245.866	145.38
246.099	144.38
246.333	151.38
246.566	144.38
246.8	147.38
247.033	156.38
247.266	146.38
247.5	159.38
247.733	153.38
247.966	159.38
248.2	159.38
248.433	164.38
248.666	161.38
248.899	160.38
249.133	184.38
249.366	179.38
249.599	162.38
249.832	165.38
250.066	162.38
250.299	170.38
250.532	180.38
250.765	187.38
250.998	196.38
251.231	194.38
251.465	187.38
251.698	179.38
251.931	187.38
252.164	184.38
252.397	166.38
252.63	175.38
252.863	195.38
253.096	192.38
253.329	190.38
253.562	196.38
253.795	202.38
254.028	191.38
254.261	191.38
254.494	190.38
254.727	193.38
254.96	240.38
255.193	223.38
255.426	232.38
255.659	197.38
255.892	219.38
256.124	214.38
256.357	209.38
256.59	198.38
256.823	201.38
257.056	193.38
257.289	196.38
257.521	198.38
257.754	201.38
257.987	203.38
258.22	184.38
258.452	197.38
258.685	203.38
258.918	199.38
259.151	197.38
259.383	202.38
259.616	204.38
259.849	210.38
260.081	203.38
260.314	235.38
260.547	209.38
260.779	207.38
261.012	210.38
261.244	225.38
261.477	218.38
261.71	204.38
261.942	201.38
262.175	209.38
262.407	208.38
262.64	203.38
262.872	196.38
263.105	198.38
263.337	200.38
263.57	214.38
263.802	212.38
264.035	202.38
264.267	208.38
264.499	216.38
264.732	214.38
264.964	217.38
265.197	203.38
265.429	206.38
265.661	226.38
265.894	203.38
266.126	201.38
266.358	203.38
266.591	201.38
266.823	225.38
267.055	219.38
267.287	235.38
267.52	222.38
267.752	217.38
267.984	231.38
268.216	227.38
268.448	222.38
268.681	226.38
268.913	253.38
269.145	258.38
269.377	245.38
269.609	259.38
269.841	254.38
270.073	256.38
270.306	259.38
270.538	254.38
270.77	276.38
271.002	272.38
271.234	279.38
271.466	280.38
271.698	279.38
271.93	289.38
272.162	298.38
272.394	294.38
272.626	272.38
272.858	273.38
273.09	263.38
273.322	272.38
273.553	251.38
273.785	253.38
274.017	249.38
274.249	247.38
274.481	261.38
274.713	260.38
274.945	264.38
275.176	264.38
275.408	260.38
275.64	250.38
275.872	255.38
276.104	257.38
276.335	252.38
276.567	275.38
276.799	261.38
277.031	274.38
277.262	278.38
277.494	307.38
277.726	264.38
277.957	284.38
278.189	263.38
278.421	269.38
278.652	268.38
278.884	266.38
279.115	272.38
279.347	269.38
279.579	289.38
279.81	293.38
280.042	247.38
280.273	277.38
280.505	256.38
280.736	259.38
280.968	283.38
281.199	264.38
281.431	260.38
281.662	279.38
281.894	272.38
282.125	272.38
282.356	293.38
282.588	306.38
282.819	304.38
283.051	290.38
283.282	279.38
283.513	283.38
283.745	281.38
283.976	291.38
284.207	281.38
284.439	285.38
284.67	270.38
284.901	287.38
285.132	286.38
285.364	287.38
285.595	292.38
285.826	283.38
286.057	288.38
286.288	278.38
286.52	279.38
286.751	286.38
286.982	296.38
287.213	290.38
287.444	287.38
287.675	284.38
287.906	326.38
288.138	296.38
288.369	313.38
288.6	300.38
288.831	302.38
289.062	312.38
289.293	309.38
289.524	303.38
289.755	303.38
289.986	288.38
290.217	307.38
290.448	282.38
290.679	276.38
290.91	291.38
291.141	281.38
291.371	290.38
291.602	311.38
291.833	268.38
292.064	289.38
292.295	286.38
292.526	286.38
292.757	286.38
292.987	303.38
293.218	287.38
293.449	315.38
293.68	318.38
293.91	302.38
294.141	281.38
294.372	287.38
294.603	294.38
294.833	310.38
295.064	299.38
295.295	307.38
295.525	312.38
295.756	314.38
295.987	315.38
296.217	313.38
296.448	327.38
296.679	287.38
296.909	314.38
297.14	308.38
297.37	310.38
297.601	303.38
297.831	322.38
298.062	322.38
298.292	314.38
298.523	300.38
298.753	301.38
298.984	314.38
299.214	308.38
299.445	320.38
299.675	326.38
299.905	319.38
300.136	315.38
300.366	326.38
300.597	332.38
300.827	334.38
301.057	318.38
301.288	331.38
301.518	330.38
301.748	355.38
301.979	346.38
302.209	336.38
302.439	345.38
302.669	337.38
302.9	332.38
303.13	334.38
303.36	310.38
303.59	343.38
303.82	342.38
304.051	338.38
304.281	352.38
304.511	352.38
304.741	350.38
304.971	343.38
305.201	358.38
305.431	344.38
305.661	322.38
305.891	332.38
306.121	323.38
306.352	340.38
306.582	323.38
306.812	316.38
307.042	335.38
307.272	339.38
307.502	356.38
307.731	361.38
307.961	338.38
308.191	335.38
308.421	334.38
308.651	340.38
308.881	352.38
309.111	370.38
309.341	339.38
309.571	342.38
309.8	361.38
310.03	346.38
310.26	367.38
310.49	366.38
310.72	363.38
310.949	366.38
311.179	374.38
311.409	370.38
311.639	372.38
311.868	355.38
312.098	358.38
312.328	367.38
312.557	363.38
312.787	369.38
313.017	389.38
313.246	377.38
313.476	368.38
313.706	366.38
313.935	357.38
314.165	386.38
314.394	382.38
314.624	390.38
314.853	391.38
315.083	386.38
315.312	361.38
315.542	368.38
315.771	370.38
316.001	360.38
316.23	374.38
316.46	367.38
316.689	376.38
316.919	361.38
317.148	390.38
317.377	374.38
317.607	362.38
317.836	379.38
318.065	376.38
318.295	354.38
318.524	386.38
318.753	382.38
318.983	377.38
319.212	382.38
319.441	390.38
319.67	377.38
319.9	391.38
320.129	377.38
320.358	374.38
320.587	378.38
320.816	391.38
321.046	364.38
321.275	390.38
321.504	380.38
321.733	397.38
321.962	398.38
322.191	394.38
322.42	384.38
322.649	392.38
322.878	422.38
323.108	412.38
323.337	446.38
323.566	432.38
323.795	473.38
324.024	472.38
324.253	544.38
324.482	739.38
324.71	1033.38
324.939	1486.38
325.168	1318.38
325.397	714.38
325.626	539.38
325.855	475.38
326.084	452.38
326.313	447.38
326.542	460.38
326.77	478.38
326.999	528.38
327.228	706.38
327.457	967.38
327.686	1161.38
327.914	816.38
328.143	566.38
328.372	510.38
328.6	498.38
328.829	465.38
329.058	470.38
329.287	487.38
329.515	471.38
329.744	465.38
329.972	472.38
330.201	478.38
330.43	485.38
330.658	509.38
330.887	527.38
331.115	508.38
331.344	474.38
331.572	480.38
331.801	465.38
332.03	471.38
332.258	466.38
332.486	461.38
332.715	444.38
332.943	460.38
333.172	467.38
333.4	470.38
333.629	464.38
333.857	483.38
334.085	504.38
334.314	482.38
334.542	513.38
334.771	508.38
334.999	500.38
335.227	477.38
335.455	475.38
335.684	459.38
335.912	451.38
336.14	443.38
336.369	446.38
336.597	443.38
336.825	442.38
337.053	459.38
337.281	449.38
337.51	453.38
337.738	432.38
337.966	444.38
338.194	437.38
338.422	451.38
338.65	452.38
338.878	436.38
339.106	430.38
339.334	454.38
339.562	428.38
339.79	423.38
340.018	422.38
340.246	427.38
340.474	443.38
340.702	420.38
340.93	448.38
341.158	422.38
341.386	424.38
341.614	426.38
341.842	425.38
342.07	412.38
342.298	435.38
342.526	418.38
342.754	437.38
342.981	415.38
343.209	414.38
343.437	419.38
343.665	434.38
343.893	426.38
344.12	450.38
344.348	447.38
344.576	452.38
344.804	455.38
345.031	426.38
345.259	433.38
345.487	432.38
345.714	417.38
345.942	418.38
346.17	434.38
346.397	416.38
346.625	410.38
346.853	439.38
347.08	430.38
347.308	394.38
347.535	394.38
347.763	417.38
347.99	419.38
348.218	402.38
348.445	412.38
348.673	404.38
348.9	403.38
349.128	406.38
349.355	400.38
349.583	397.38
349.81	415.38
350.037	378.38
350.265	394.38
350.492	390.38
350.72	403.38
350.947	408.38
351.174	416.38
351.402	421.38
351.629	416.38
351.856	383.38
352.083	413.38
352.311	419.38
352.538	400.38
352.765	430.38
352.992	414.38
353.22	390.38
353.447	396.38
353.674	404.38
353.901	390.38
354.128	400.38
354.355	386.38
354.583	402.38
354.81	396.38
355.037	376.38
355.264	392.38
355.491	379.38
355.718	399.38
355.945	383.38
356.172	384.38
356.399	387.38
356.626	397.38
356.853	372.38
357.08	368.38
357.307	391.38
357.534	382.38
357.761	391.38
357.988	417.38
358.215	408.38
358.441	380.38
358.668	412.38
358.895	419.38
359.122	406.38
359.349	392.38
359.576	422.38
359.802	415.38
360.029	426.38
360.256	432.38
360.483	419.38
360.709	407.38
360.936	391.38
361.163	414.38
361.39	391.38
361.616	406.38
361.843	400.38
362.07	388.38
362.296	410.38
362.523	402.38
362.749	394.38
362.976	386.38
363.203	407.38
363.429	396.38
363.656	394.38
363.882	385.38
364.109	402.38
364.335	383.38
364.562	368.38
364.788	389.38
365.015	390.38
365.241	386.38
365.468	390.38
365.694	403.38
365.92	391.38
366.147	396.38
366.373	410.38
366.599	406.38
366.826	387.38
367.052	386.38
367.278	370.38
367.505	373.38
367.731	376.38
367.957	382.38
368.184	402.38
368.41	384.38
368.636	394.38
368.862	410.38
369.089	418.38
369.315	411.38
369.541	402.38
369.767	388.38
369.993	398.38
370.219	400.38
370.445	396.38
370.672	386.38
370.898	402.38
371.124	402.38
371.35	388.38
371.576	414.38
371.802	395.38
372.028	382.38
372.254	404.38
372.48	426.38
372.706	415.38
372.932	405.38
373.158	417.38
373.384	422.38
373.61	405.38
373.835	396.38
374.061	414.38
374.287	435.38
374.513	410.38
374.739	416.38
374.965	414.38
375.191	412.38
375.416	422.38
375.642	408.38
375.868	409.38
376.094	422.38
376.319	415.38
376.545	400.38
376.771	397.38
376.997	398.38
377.222	399.38
377.448	422.38
377.674	418.38
377.899	386.38
378.125	405.38
378.35	402.38
378.576	382.38
378.802	402.38
379.027	395.38
379.253	376.38
379.478	405.38
379.704	398.38
379.929	400.38
380.155	417.38
380.38	392.38
380.606	384.38
380.831	415.38
381.057	402.38
381.282	390.38
381.507	407.38
381.733	426.38
381.958	400.38
382.184	406.38
382.409	425.38
382.634	422.38
382.86	419.38
383.085	431.38
383.31	438.38
383.535	429.38
383.761	449.38
383.986	470.38
384.211	420.38
384.436	440.38
384.662	468.38
384.887	456.38
385.112	448.38
385.337	480.38
385.562	468.38
385.787	466.38
386.013	461.38
386.238	443.38
386.463	494.38
386.688	464.38
386.913	463.38
387.138	453.38
387.363	452.38
387.588	461.38
387.813	447.38
388.038	460.38
388.263	454.38
388.488	471.38
388.713	453.38
388.938	459.38
389.163	462.38
389.387	450.38
389.612	455.38
389.837	447.38
390.062	452.38
390.287	458.38
390.512	459.38
390.736	435.38
390.961	465.38
391.186	457.38
391.411	480.38
391.636	470.38
391.86	479.38
392.085	464.38
392.31	489.38
392.534	483.38
392.759	516.38
392.984	480.38
393.208	488.38
393.433	478.38
393.658	465.38
393.882	455.38
394.107	468.38
394.331	473.38
394.556	468.38
394.78	475.38
395.005	497.38
395.229	497.38
395.454	478.38
395.678	479.38
395.903	521.38
396.127	501.38
396.352	504.38
396.576	484.38
396.801	478.38
397.025	475.38
397.249	484.38
397.474	483.38
397.698	486.38
397.922	532.38
398.147	513.38
398.371	538.38
398.595	516.38
398.82	530.38
399.044	560.38
399.268	598.38
399.492	635.38
399.717	678.38
399.941	681.38
400.165	693.38
400.389	695.38
400.613	629.38
400.837	598.38
401.062	571.38
401.286	554.38
401.51	546.38
401.734	535.38
401.958	528.38
402.182	571.38
402.406	566.38
402.63	540.38
402.854	556.38
403.078	546.38
403.302	569.38
403.526	591.38
403.75	574.38
403.974	565.38
404.198	577.38
404.422	599.38
404.645	590.38
404.869	594.38
405.093	630.38
405.317	640.38
405.541	672.38
405.765	606.38
405.988	569.38
406.212	601.38
406.436	603.38
406.66	608.38
406.883	614.38
407.107	631.38
407.331	679.38
407.555	711.38
407.778	715.38
408.002	682.38
408.226	642.38
408.449	615.38
408.673	614.38
408.896	639.38
409.12	676.38
409.344	636.38
409.567	581.38
409.791	570.38
410.014	581.38
410.238	570.38
410.461	578.38
410.685	558.38
410.908	574.38
411.132	599.38
411.355	613.38
411.578	599.38
411.802	587.38
412.025	552.38
412.249	584.38
412.472	574.38
412.695	611.38
412.919	613.38
413.142	562.38
413.365	553.38
413.589	556.38
413.812	530.38
414.035	532.38
414.258	539.38
414.482	540.38
414.705	538.38
414.928	542.38
415.151	535.38
415.374	548.38
415.597	557.38
415.821	518.38
416.044	496.38
416.267	507.38
416.49	528.38
416.713	524.38
416.936	549.38
417.159	522.38
417.382	524.38
417.605	538.38
417.828	535.38
418.051	556.38
418.274	541.38
418.497	521.38
418.72	523.38
418.943	519.38
419.166	574.38
419.389	572.38
419.611	546.38
419.834	565.38
420.057	560.38
420.28	551.38
420.503	563.38
420.726	559.38
420.948	553.38
421.171	591.38
421.394	595.38
421.617	578.38
421.839	544.38
422.062	562.38
422.285	555.38
422.507	598.38
422.73	633.38
422.953	639.38
423.175	590.38
423.398	586.38
423.621	576.38
423.843	600.38
424.066	581.38
424.288	584.38
424.511	589.38
424.733	628.38
424.956	705.38
425.178	673.38
425.401	656.38
425.623	675.38
425.846	572.38
426.068	532.38
426.291	552.38
426.513	564.38
426.735	565.38
426.958	595.38
427.18	650.38
427.402	752.38
427.625	806.38
427.847	711.38
428.069	627.38
428.292	582.38
428.514	552.38
428.736	528.38
428.958	543.38
429.181	518.38
429.403	520.38
429.625	520.38
429.847	554.38
430.069	602.38
430.292	597.38
430.514	538.38
430.736	525.38
430.958	517.38
431.18	490.38
431.402	486.38
431.624	498.38
431.846	503.38
432.068	508.38
432.29	512.38
432.512	498.38
432.734	499.38
432.956	491.38
433.178	514.38
433.4	516.38
433.622	508.38
433.844	505.38
434.066	512.38
434.287	499.38
434.509	515.38
434.731	542.38
434.953	530.38
435.175	552.38
435.397	580.38
435.618	569.38
435.84	588.38
436.062	647.38
436.284	716.38
436.505	597.38
436.727	558.38
436.949	530.38
437.17	521.38
437.392	520.38
437.614	522.38
437.835	557.38
438.057	591.38
438.278	679.38
438.5	690.38
438.721	719.38
438.943	709.38
439.165	591.38
439.386	536.38
439.608	554.38
439.829	547.38
440.05	577.38
440.272	575.38
440.493	594.38
440.715	551.38
440.936	558.38
441.158	550.38
441.379	533.38
441.6	540.38
441.822	556.38
442.043	590.38
442.264	664.38
442.486	664.38
442.707	608.38
442.928	554.38
443.149	552.38
443.371	582.38
443.592	613.38
443.813	694.38
444.034	752.38
444.255	636.38
444.476	614.38
444.698	595.38
444.919	594.38
445.14	708.38
445.361	656.38
445.582	620.38
445.803	633.38
446.024	701.38
446.245	716.38
446.466	648.38
446.687	577.38
446.908	572.38
447.129	518.38
447.35	522.38
447.571	527.38
447.792	494.38
448.013	494.38
448.234	512.38
448.455	553.38
448.675	666.38
448.896	724.38
449.117	636.38
449.338	608.38
449.559	655.38
449.779	754.38
450	624.38
450.221	544.38
450.442	498.38
450.662	484.38
450.883	480.38
451.104	483.38
451.324	482.38
451.545	480.38
451.766	480.38
451.986	471.38
452.207	451.38
452.428	449.38
452.648	450.38
452.869	456.38
453.089	455.38
453.31	470.38
453.53	470.38
453.751	454.38
453.971	460.38
454.192	462.38
454.412	462.38
454.633	446.38
454.853	451.38
455.073	443.38
455.294	492.38
455.514	528.38
455.734	504.38
455.955	449.38
456.175	436.38
456.395	425.38
456.616	416.38
456.836	444.38
457.056	442.38
457.276	422.38
457.497	407.38
457.717	412.38
457.937	422.38
458.157	446.38
458.377	442.38
458.598	489.38
458.818	521.38
459.038	591.38
459.258	579.38
459.478	526.38
459.698	481.38
459.918	504.38
460.138	523.38
460.358	555.38
460.578	540.38
460.798	551.38
461.018	524.38
461.238	536.38
461.458	555.38
461.678	526.38
461.898	565.38
462.118	525.38
462.338	550.38
462.558	567.38
462.777	576.38
462.997	595.38
463.217	641.38
463.437	614.38
463.657	617.38
463.876	591.38
464.096	595.38
464.316	583.38
464.536	617.38
464.755	609.38
464.975	574.38
465.195	573.38
465.414	593.38
465.634	532.38
465.854	525.38
466.073	505.38
466.293	513.38
466.512	486.38
466.732	482.38
466.951	491.38
467.171	482.38
467.391	481.38
467.61	476.38
467.829	497.38
468.049	468.38
468.268	496.38
468.488	469.38
468.707	456.38
468.927	463.38
469.146	456.38
469.365	495.38
469.585	465.38
469.804	471.38
470.023	489.38
470.243	489.38
470.462	482.38
470.681	498.38
470.901	516.38
471.12	466.38
471.339	516.38
471.558	501.38
471.777	483.38
471.997	490.38
472.216	498.38
472.435	471.38
472.654	483.38
472.873	479.38
473.092	481.38
473.311	472.38
473.53	481.38
473.749	479.38
473.968	513.38
474.187	588.38
474.406	574.38
474.625	508.38
474.844	509.38
475.063	490.38
475.282	486.38
475.501	472.38
475.72	479.38
475.939	498.38
476.158	493.38
476.377	479.38
476.596	494.38
476.814	499.38
477.033	481.38
477.252	507.38
477.471	527.38
477.69	522.38
477.908	499.38
478.127	543.38
478.346	537.38
478.564	564.38
478.783	540.38
479.002	566.38
479.22	562.38
479.439	560.38
479.658	575.38
479.876	587.38
480.095	595.38
480.313	631.38
480.532	627.38
480.751	601.38
480.969	619.38
481.188	609.38
481.406	630.38
481.624	572.38
481.843	578.38
482.061	548.38
482.28	587.38
482.498	572.38
482.717	555.38
482.935	581.38
483.153	594.38
483.372	562.38
483.59	575.38
483.808	568.38
484.027	558.38
484.245	585.38
484.463	551.38
484.681	570.38
484.9	558.38
485.118	553.38
485.336	570.38
485.554	552.38
485.772	587.38
485.99	586.38
486.209	582.38
486.427	576.38
486.645	584.38
486.863	583.38
487.081	577.38
487.299	582.38
487.517	593.38
487.735	581.38
487.953	581.38
488.171	587.38
488.389	616.38
488.607	592.38
488.825	592.38
489.043	607.38
489.261	591.38
489.479	606.38
489.696	595.38
489.914	592.38
490.132	605.38
490.35	633.38
490.568	606.38
490.786	632.38
491.003	626.38
491.221	626.38
491.439	629.38
491.657	650.38
491.874	668.38
492.092	658.38
492.31	648.38
492.527	648.38
492.745	655.38
492.963	642.38
493.18	644.38
493.398	671.38
493.615	680.38
493.833	683.38
494.05	648.38
494.268	660.38
494.485	665.38
494.703	666.38
494.92	662.38
495.138	690.38
495.355	658.38
495.573	698.38
495.79	655.38
496.008	693.38
496.225	693.38
496.442	703.38
496.66	700.38
496.877	681.38
497.094	721.38
497.312	728.38
497.529	709.38
497.746	719.38
497.963	729.38
498.181	744.38
498.398	780.38
498.615	801.38
498.832	820.38
499.049	875.38
499.267	890.38
499.484	950.38
499.701	992.38
499.918	1066.38
500.135	1117.38
500.352	1170.38
500.569	1219.38
500.786	1254.38
501.003	1210.38
501.22	1135.38
501.437	1092.38
501.654	1027.38
501.871	952.38
502.088	922.38
502.305	873.38
502.522	842.38
502.739	818.38
502.956	789.38
503.172	745.38
503.389	754.38
503.606	739.38
503.823	745.38
504.04	735.38
504.256	709.38
504.473	739.38
504.69	729.38
504.907	734.38
505.123	688.38
505.34	658.38
505.557	697.38
505.773	674.38
505.99	661.38
506.207	649.38
506.423	647.38
506.64	658.38
506.856	650.38
507.073	628.38
507.289	622.38
507.506	629.38
507.722	626.38
507.939	644.38
508.155	640.38
508.372	591.38
508.588	592.38
508.805	611.38
509.021	603.38
509.238	621.38
509.454	614.38
509.67	600.38
509.887	594.38
510.103	598.38
510.319	607.38
510.536	668.38
510.752	887.38
510.968	772.38
511.184	608.38
511.401	583.38
511.617	612.38
511.833	581.38
512.049	567.38
512.265	577.38
512.481	578.38
512.698	563.38
512.914	574.38
513.13	560.38
513.346	573.38
513.562	554.38
513.778	550.38
513.994	571.38
514.21	595.38
514.426	609.38
514.642	598.38
514.858	595.38
515.074	653.38
515.29	691.38
515.506	855.38
515.721	782.38
515.937	640.38
516.153	609.38
516.369	634.38
516.585	590.38
516.801	624.38
517.016	644.38
517.232	624.38
517.448	642.38
517.664	663.38
517.879	648.38
518.095	682.38
518.311	655.38
518.527	608.38
518.742	615.38
518.958	609.38
519.173	641.38
519.389	605.38
519.605	577.38
519.82	574.38
520.036	582.38
520.251	598.38
520.467	589.38
520.682	608.38
520.898	593.38
521.113	582.38
521.329	595.38
521.544	638.38
521.76	713.38
521.975	1016.38
522.19	1000.38
522.406	676.38
522.621	588.38
522.836	541.38
523.052	537.38
523.267	537.38
523.482	539.38
523.698	499.38
523.913	503.38
524.128	531.38
524.343	523.38
524.559	530.38
524.774	509.38
524.989	516.38
525.204	508.38
525.419	499.38
525.634	506.38
525.849	514.38
526.064	484.38
526.28	496.38
526.495	517.38
526.71	511.38
526.925	503.38
527.14	481.38
527.355	496.38
527.57	492.38
527.785	509.38
527.999	461.38
528.214	467.38
528.429	465.38
528.644	452.38
528.859	483.38
529.074	490.38
529.289	501.38
529.503	526.38
529.718	514.38
529.933	478.38
530.148	480.38
530.363	491.38
530.577	488.38
530.792	466.38
531.007	472.38
531.221	469.38
531.436	490.38
531.651	480.38
531.865	475.38
532.08	480.38
532.295	508.38
532.509	474.38
532.724	476.38
532.938	462.38
533.153	466.38
533.367	463.38
533.582	456.38
533.796	457.38
534.011	471.38
534.225	458.38
534.44	443.38
534.654	438.38
534.868	460.38
535.083	456.38
535.297	480.38
535.511	474.38
535.726	502.38
535.94	457.38
536.154	468.38
536.369	475.38
536.583	471.38
536.797	459.38
537.011	444.38
537.225	447.38
537.44	467.38
537.654	456.38
537.868	435.38
538.082	464.38
538.296	456.38
538.51	447.38
538.724	467.38
538.938	447.38
539.153	458.38
539.367	452.38
539.581	446.38
539.795	442.38
540.009	438.38
540.222	449.38
540.436	427.38
540.65	440.38
540.864	455.38
541.078	448.38
541.292	440.38
541.506	453.38
541.72	450.38
541.934	427.38
542.147	437.38
542.361	430.38
542.575	446.38
542.789	439.38
543.002	457.38
543.216	455.38
543.43	457.38
543.644	458.38
543.857	435.38
544.071	445.38
544.285	442.38
544.498	424.38
544.712	453.38
544.925	433.38
545.139	452.38
545.352	455.38
545.566	427.38
545.779	437.38
545.993	465.38
546.206	470.38
546.42	445.38
546.633	446.38
546.847	443.38
547.06	423.38
547.274	437.38
547.487	430.38
547.7	435.38
547.914	437.38
548.127	440.38
548.34	433.38
548.554	440.38
548.767	435.38
548.98	446.38
549.193	457.38
549.407	450.38
549.62	447.38
549.833	450.38
550.046	452.38
550.259	434.38
550.473	443.38
550.686	464.38
550.899	434.38
551.112	440.38
551.325	435.38
551.538	418.38
551.751	443.38
551.964	437.38
552.177	438.38
552.39	426.38
552.603	448.38
552.816	448.38
553.029	447.38
553.242	473.38
553.455	468.38
553.667	454.38
553.88	475.38
554.093	458.38
554.306	456.38
554.519	438.38
554.732	443.38
554.944	420.38
555.157	412.38
555.37	454.38
555.583	410.38
555.795	426.38
556.008	416.38
556.221	407.38
556.433	411.38
556.646	409.38
556.859	399.38
557.071	398.38
557.284	411.38
557.496	380.38
557.709	382.38
557.921	415.38
558.134	379.38
558.346	385.38
558.559	387.38
558.771	389.38
558.984	377.38
559.196	386.38
559.409	390.38
559.621	392.38
559.833	393.38
560.046	384.38
560.258	373.38
560.47	370.38
560.683	370.38
560.895	388.38
561.107	383.38
561.32	378.38
561.532	386.38
561.744	389.38
561.956	389.38
562.168	396.38
562.381	371.38
562.593	382.38
562.805	411.38
563.017	387.38
563.229	378.38
563.441	377.38
563.653	394.38
563.865	402.38
564.077	414.38
564.289	409.38
564.501	406.38
564.713	425.38
564.925	424.38
565.137	447.38
565.349	436.38
565.561	462.38
565.773	452.38
565.985	456.38
566.197	473.38
566.408	483.38
566.62	512.38
566.832	543.38
567.044	548.38
567.255	551.38
567.467	556.38
567.679	582.38
567.891	566.38
568.102	608.38
568.314	588.38
568.526	538.38
568.737	518.38
568.949	499.38
569.161	460.38
569.372	467.38
569.584	432.38
569.795	413.38
570.007	421.38
570.218	423.38
570.43	433.38
570.641	414.38
570.853	414.38
571.064	403.38
571.276	400.38
571.487	386.38
571.698	371.38
571.91	389.38
572.121	375.38
572.333	357.38
572.544	355.38
572.755	361.38
572.966	348.38
573.178	362.38
573.389	348.38
573.6	357.38
573.811	372.38
574.023	350.38
574.234	325.38
574.445	360.38
574.656	333.38
574.867	342.38
575.078	361.38
575.289	333.38
575.501	355.38
575.712	357.38
575.923	344.38
576.134	332.38
576.345	331.38
576.556	332.38
576.767	344.38
576.978	317.38
577.188	328.38
577.399	323.38
577.61	323.38
577.821	297.38
578.032	322.38
578.243	345.38
578.454	467.38
578.665	374.38
578.875	326.38
579.086	320.38
579.297	329.38
579.508	320.38
579.718	337.38
579.929	322.38
580.14	302.38
580.35	298.38
580.561	312.38
580.772	307.38
580.982	314.38
581.193	311.38
581.403	293.38
581.614	312.38
581.825	310.38
582.035	320.38
582.246	306.38
582.456	304.38
582.667	314.38
582.877	324.38
583.087	295.38
583.298	305.38
583.508	302.38
583.719	315.38
583.929	319.38
584.139	306.38
584.35	306.38
584.56	310.38
584.77	292.38
584.981	301.38
585.191	295.38
585.401	294.38
585.611	286.38
585.821	300.38
586.032	302.38
586.242	322.38
586.452	311.38
586.662	304.38
586.872	314.38
587.082	311.38
587.292	300.38
587.502	302.38
587.713	284.38
587.923	295.38
588.133	295.38
588.343	290.38
588.553	296.38
588.762	286.38
588.972	297.38
589.182	330.38
589.392	338.38
589.602	310.38
589.812	325.38
590.022	317.38
590.232	306.38
590.441	304.38
590.651	316.38
590.861	284.38
591.071	307.38
591.281	304.38
591.49	311.38
591.7	315.38
591.91	307.38
592.119	326.38
592.329	318.38
592.539	332.38
592.748	316.38
592.958	335.38
593.167	314.38
593.377	331.38
593.587	364.38
593.796	362.38
594.006	344.38
594.215	332.38
594.424	340.38
594.634	332.38
594.843	344.38
595.053	336.38
595.262	324.38
595.472	330.38
595.681	311.38
595.89	296.38
596.1	298.38
596.309	283.38
596.518	290.38
596.727	291.38
596.937	265.38
597.146	286.38
597.355	293.38
597.564	269.38
597.774	293.38
597.983	269.38
598.192	278.38
598.401	271.38
598.61	286.38
598.819	268.38
599.028	276.38
599.237	266.38
599.446	271.38
599.655	274.38
599.864	269.38
600.073	270.38
600.282	263.38
600.491	256.38
600.7	266.38
600.909	268.38
601.118	270.38
601.327	232.38
601.536	245.38
601.745	263.38
601.953	262.38
602.162	248.38
602.371	256.38
602.58	256.38
602.789	244.38
602.997	247.38
603.206	272.38
603.415	243.38
603.623	235.38
603.832	256.38
604.041	238.38
604.249	249.38
604.458	259.38
604.666	238.38
604.875	268.38
605.084	235.38
605.292	242.38
605.501	248.38
605.709	251.38
605.918	242.38
606.126	243.38
606.334	230.38
606.543	261.38
606.751	254.38
606.96	232.38
607.168	230.38
607.376	234.38
607.585	250.38
607.793	228.38
608.001	251.38
608.21	220.38
608.418	242.38
608.626	245.38
608.834	232.38
609.043	251.38
609.251	218.38
609.459	222.38
609.667	250.38
609.875	224.38
610.083	230.38
610.291	259.38
610.499	233.38
610.707	227.38
610.916	251.38
611.124	234.38
611.332	232.38
611.54	243.38
611.748	254.38
611.955	240.38
612.163	235.38
612.371	241.38
612.579	227.38
612.787	229.38
612.995	232.38
613.203	248.38
613.411	227.38
613.618	216.38
613.826	239.38
614.034	225.38
614.242	242.38
614.449	219.38
614.657	236.38
614.865	220.38
615.072	239.38
615.28	233.38
615.488	225.38
615.695	246.38
615.903	223.38
616.111	214.38
616.318	226.38
616.526	246.38
616.733	248.38
616.941	222.38
617.148	250.38
617.356	240.38
617.563	231.38
617.771	228.38
617.978	231.38
618.185	223.38
618.393	225.38
618.6	229.38
618.807	237.38
619.015	241.38
619.222	228.38
619.429	217.38
619.637	222.38
619.844	233.38
620.051	207.38
620.258	219.38
620.466	216.38
620.673	209.38
620.88	230.38
621.087	227.38
621.294	230.38
621.501	214.38
621.708	228.38
621.915	218.38
622.122	214.38
622.329	217.38
622.536	222.38
622.743	210.38
622.95	218.38
623.157	223.38
623.364	224.38
623.571	218.38
623.778	215.38
623.985	197.38
624.192	196.38
624.399	206.38
624.606	214.38
624.812	200.38
625.019	198.38
625.226	207.38
625.433	210.38
625.639	211.38
625.846	198.38
626.053	219.38
626.259	208.38
626.466	205.38
626.673	190.38
626.879	211.38
627.086	214.38
627.293	187.38
627.499	199.38
627.706	212.38
627.912	183.38
628.119	191.38
628.325	201.38
628.532	186.38
628.738	201.38
628.945	207.38
629.151	196.38
629.357	186.38
629.564	203.38
629.77	215.38
629.976	188.38
630.183	200.38
630.389	181.38
630.595	194.38
630.802	188.38
631.008	195.38
631.214	197.38
631.42	201.38
631.627	192.38
631.833	177.38
632.039	188.38
632.245	192.38
632.451	200.38
632.657	167.38
632.863	190.38
633.069	186.38
633.275	206.38
633.481	179.38
633.688	169.38
633.893	186.38
634.099	183.38
634.305	191.38
634.511	184.38
634.717	181.38
634.923	182.38
635.129	169.38
635.335	173.38
635.541	184.38
635.747	181.38
635.952	168.38
636.158	194.38
636.364	194.38
636.57	195.38
636.775	180.38
636.981	165.38
637.187	174.38
637.392	191.38
637.598	202.38
637.804	186.38
638.009	178.38
638.215	178.38
638.421	173.38
638.626	147.38
638.832	167.38
639.037	177.38
639.243	172.38
639.448	183.38
639.654	176.38
639.859	167.38
640.065	186.38
640.27	176.38
640.475	165.38
640.681	163.38
640.886	164.38
641.091	169.38
641.297	162.38
641.502	171.38
641.707	158.38
641.913	169.38
642.118	159.38
642.323	169.38
642.528	173.38
642.733	152.38
642.939	168.38
643.144	172.38
643.349	152.38
643.554	166.38
643.759	170.38
643.964	159.38
644.169	151.38
644.374	167.38
644.579	175.38
644.784	160.38
644.989	163.38
645.194	164.38
645.399	160.38
645.604	169.38
645.809	163.38
646.014	169.38
646.219	177.38
646.423	164.38
646.628	154.38
646.833	157.38
647.038	187.38
647.243	159.38
647.447	165.38
647.652	155.38
647.857	160.38
648.062	173.38
648.266	165.38
648.471	176.38
648.676	176.38
648.88	171.38
649.085	159.38
649.289	169.38
649.494	168.38
649.698	168.38
649.903	184.38
650.107	168.38
650.312	150.38
650.516	142.38
650.721	161.38
650.925	137.38
651.13	137.38
651.334	160.38
651.539	147.38
651.743	168.38
651.947	152.38
652.152	161.38
652.356	152.38
652.56	154.38
652.764	113.38
652.969	132.38
653.173	132.38
653.377	154.38
653.581	143.38
653.785	141.38
653.99	128.38
654.194	131.38
654.398	136.38
654.602	151.38
654.806	141.38
655.01	137.38
655.214	141.38
655.418	141.38
655.622	126.38
655.826	130.38
656.03	151.38
656.234	130.38
656.438	134.38
656.642	149.38
656.846	136.38
657.049	129.38
657.253	129.38
657.457	130.38
657.661	119.38
657.865	105.38
658.068	110.38
658.272	94.38
658.476	108.38
658.68	101.38
658.883	106.38
659.087	96.38
659.291	101.38
659.494	105.38
659.698	98.38
659.901	105.38
660.105	95.38
660.309	107.38
660.512	100.38
660.716	107.38
660.919	92.38
661.123	84.38
661.326	96.38
661.53	92.38
661.733	100.38
661.936	93.38
662.14	83.38
662.343	81.38
662.546	102.38
662.75	84.38
662.953	85.38
663.156	67.38
663.36	77.38
663.563	86.38
663.766	79.38
663.969	73.38
664.173	71.38
664.376	89.38
664.579	81.38
664.782	73.38
664.985	80.38
665.188	84.38
665.391	93.38
665.594	91.38
665.797	81.38
666	81.38
666.203	83.38
666.406	86.38
666.609	88.38
666.812	76.38
667.015	78.38
667.218	86.38
667.421	82.38
667.624	95.38
667.827	74.38
668.03	81.38
668.232	88.38
668.435	68.38
668.638	65.38
668.841	64.38
669.043	65.38
669.246	67.38
669.449	68.38
669.651	88.38
669.854	76.38
670.057	79.38
670.259	78.38
670.462	82.38
670.665	87.38
670.867	94.38
671.07	80.38
671.272	67.38
671.475	75.38
671.677	77.38
671.88	76.38
672.082	90.38
672.284	88.38
672.487	85.38
672.689	82.38
672.892	82.38
