Data from 1962.PennyLincolnUp.Lamp.En5.5.200Scan.071719.P1._HRD10591_13-53-37-060.txt Node
Date: Thu Jul 18 13:53:37 EDT 2019
User: cochatt
Spectrometer: HR+D1059
Trigger mode: 1
Integration Time (sec): 1.000000E-1
Scans to average: 1
Electric dark correction enabled: true
Nonlinearity correction enabled: false
Boxcar width: 0
XAxis mode: Wavelengths
Number of Pixels in Spectrum: 2048
>>>>>Begin Spectral Data<<<<<
223.165	-10.12
223.4	-10.12
223.635	-10.12
223.869	-2.12
224.104	-17.12
224.338	-14.12
224.573	-16.12
224.808	-14.12
225.042	3.88
225.277	-23.12
225.511	-10.12
225.746	5.88
225.98	-2.12
226.215	7.88
226.449	9.88
226.683	29.88
226.918	29.88
227.152	21.88
227.387	37.88
227.621	25.88
227.856	47.88
228.09	44.88
228.324	51.88
228.559	46.88
228.793	54.88
229.027	102.88
229.262	88.88
229.496	82.88
229.73	106.88
229.964	114.88
230.199	111.88
230.433	103.88
230.667	93.88
230.901	99.88
231.136	117.88
231.37	96.88
231.604	103.88
231.838	97.88
232.072	113.88
232.306	103.88
232.541	109.88
232.775	119.88
233.009	112.88
233.243	110.88
233.477	110.88
233.711	116.88
233.945	97.88
234.179	96.88
234.413	114.88
234.647	119.88
234.881	110.88
235.115	117.88
235.349	111.88
235.583	112.88
235.817	109.88
236.051	107.88
236.285	111.88
236.519	111.88
236.753	117.88
236.987	121.88
237.221	145.88
237.455	154.88
237.689	152.88
237.922	130.88
238.156	119.88
238.39	115.88
238.624	112.88
238.858	115.88
239.091	111.88
239.325	114.88
239.559	104.88
239.793	124.88
240.027	133.88
240.26	126.88
240.494	133.88
240.728	122.88
240.961	125.88
241.195	136.88
241.429	111.88
241.662	119.88
241.896	122.88
242.13	129.88
242.363	125.88
242.597	119.88
242.83	125.88
243.064	140.88
243.298	130.88
243.531	113.88
243.765	129.88
243.998	118.88
244.232	142.88
244.465	129.88
244.699	131.88
244.932	127.88
245.166	140.88
245.399	133.88
245.633	129.88
245.866	131.88
246.099	129.88
246.333	128.88
246.566	129.88
246.8	137.88
247.033	161.88
247.266	137.88
247.5	128.88
247.733	160.88
247.966	158.88
248.2	137.88
248.433	145.88
248.666	153.88
248.899	156.88
249.133	168.88
249.366	173.88
249.599	165.88
249.832	164.88
250.066	179.88
250.299	165.88
250.532	166.88
250.765	167.88
250.998	169.88
251.231	194.88
251.465	186.88
251.698	179.88
251.931	178.88
252.164	160.88
252.397	181.88
252.63	165.88
252.863	146.88
253.096	185.88
253.329	196.88
253.562	192.88
253.795	194.88
254.028	182.88
254.261	201.88
254.494	186.88
254.727	199.88
254.96	218.88
255.193	200.88
255.426	214.88
255.659	200.88
255.892	198.88
256.124	197.88
256.357	210.88
256.59	197.88
256.823	177.88
257.056	198.88
257.289	175.88
257.521	180.88
257.754	198.88
257.987	179.88
258.22	183.88
258.452	184.88
258.685	200.88
258.918	189.88
259.151	183.88
259.383	192.88
259.616	183.88
259.849	199.88
260.081	192.88
260.314	201.88
260.547	216.88
260.779	219.88
261.012	186.88
261.244	203.88
261.477	181.88
261.71	201.88
261.942	194.88
262.175	201.88
262.407	193.88
262.64	204.88
262.872	210.88
263.105	195.88
263.337	197.88
263.57	202.88
263.802	195.88
264.035	196.88
264.267	205.88
264.499	207.88
264.732	212.88
264.964	202.88
265.197	198.88
265.429	195.88
265.661	214.88
265.894	201.88
266.126	184.88
266.358	205.88
266.591	213.88
266.823	200.88
267.055	202.88
267.287	237.88
267.52	199.88
267.752	206.88
267.984	205.88
268.216	196.88
268.448	230.88
268.681	220.88
268.913	226.88
269.145	236.88
269.377	239.88
269.609	232.88
269.841	230.88
270.073	250.88
270.306	242.88
270.538	258.88
270.77	261.88
271.002	259.88
271.234	267.88
271.466	242.88
271.698	258.88
271.93	254.88
272.162	253.88
272.394	262.88
272.626	290.88
272.858	255.88
273.09	255.88
273.322	228.88
273.553	234.88
273.785	237.88
274.017	239.88
274.249	237.88
274.481	246.88
274.713	234.88
274.945	241.88
275.176	249.88
275.408	256.88
275.64	245.88
275.872	234.88
276.104	248.88
276.335	261.88
276.567	254.88
276.799	245.88
277.031	274.88
277.262	282.88
277.494	270.88
277.726	277.88
277.957	267.88
278.189	237.88
278.421	232.88
278.652	245.88
278.884	242.88
279.115	282.88
279.347	258.88
279.579	265.88
279.81	261.88
280.042	269.88
280.273	257.88
280.505	254.88
280.736	261.88
280.968	254.88
281.199	262.88
281.431	237.88
281.662	238.88
281.894	260.88
282.125	266.88
282.356	285.88
282.588	273.88
282.819	288.88
283.051	274.88
283.282	250.88
283.513	280.88
283.745	277.88
283.976	266.88
284.207	274.88
284.439	271.88
284.67	257.88
284.901	253.88
285.132	281.88
285.364	271.88
285.595	282.88
285.826	268.88
286.057	273.88
286.288	275.88
286.52	264.88
286.751	291.88
286.982	285.88
287.213	257.88
287.444	276.88
287.675	267.88
287.906	282.88
288.138	304.88
288.369	299.88
288.6	286.88
288.831	270.88
289.062	281.88
289.293	294.88
289.524	285.88
289.755	282.88
289.986	297.88
290.217	289.88
290.448	281.88
290.679	279.88
290.91	295.88
291.141	282.88
291.371	294.88
291.602	284.88
291.833	268.88
292.064	296.88
292.295	290.88
292.526	288.88
292.757	272.88
292.987	285.88
293.218	283.88
293.449	282.88
293.68	277.88
293.91	275.88
294.141	274.88
294.372	288.88
294.603	283.88
294.833	298.88
295.064	289.88
295.295	290.88
295.525	287.88
295.756	314.88
295.987	296.88
296.217	299.88
296.448	311.88
296.679	314.88
296.909	307.88
297.14	310.88
297.37	321.88
297.601	322.88
297.831	299.88
298.062	281.88
298.292	297.88
298.523	289.88
298.753	306.88
298.984	307.88
299.214	292.88
299.445	294.88
299.675	342.88
299.905	304.88
300.136	316.88
300.366	302.88
300.597	305.88
300.827	312.88
301.057	314.88
301.288	315.88
301.518	310.88
301.748	315.88
301.979	329.88
302.209	331.88
302.439	327.88
302.669	321.88
302.9	315.88
303.13	310.88
303.36	330.88
303.59	336.88
303.82	334.88
304.051	339.88
304.281	314.88
304.511	320.88
304.741	321.88
304.971	321.88
305.201	319.88
305.431	323.88
305.661	336.88
305.891	315.88
306.121	332.88
306.352	327.88
306.582	295.88
306.812	325.88
307.042	336.88
307.272	330.88
307.502	327.88
307.731	329.88
307.961	329.88
308.191	306.88
308.421	331.88
308.651	321.88
308.881	326.88
309.111	313.88
309.341	331.88
309.571	330.88
309.8	357.88
310.03	337.88
310.26	352.88
310.49	345.88
310.72	357.88
310.949	360.88
311.179	351.88
311.409	363.88
311.639	358.88
311.868	341.88
312.098	342.88
312.328	362.88
312.557	375.88
312.787	365.88
313.017	377.88
313.246	358.88
313.476	352.88
313.706	362.88
313.935	358.88
314.165	365.88
314.394	365.88
314.624	368.88
314.853	370.88
315.083	364.88
315.312	360.88
315.542	349.88
315.771	358.88
316.001	341.88
316.23	359.88
316.46	363.88
316.689	350.88
316.919	358.88
317.148	353.88
317.377	342.88
317.607	346.88
317.836	365.88
318.065	360.88
318.295	364.88
318.524	365.88
318.753	358.88
318.983	353.88
319.212	358.88
319.441	354.88
319.67	361.88
319.9	377.88
320.129	348.88
320.358	360.88
320.587	353.88
320.816	358.88
321.046	367.88
321.275	351.88
321.504	358.88
321.733	376.88
321.962	381.88
322.191	375.88
322.42	384.88
322.649	397.88
322.878	399.88
323.108	390.88
323.337	399.88
323.566	419.88
323.795	425.88
324.024	435.88
324.253	493.88
324.482	656.88
324.71	921.88
324.939	1257.88
325.168	1127.88
325.397	637.88
325.626	502.88
325.855	433.88
326.084	435.88
326.313	403.88
326.542	427.88
326.77	454.88
326.999	480.88
327.228	613.88
327.457	850.88
327.686	1014.88
327.914	697.88
328.143	531.88
328.372	488.88
328.6	453.88
328.829	446.88
329.058	458.88
329.287	448.88
329.515	472.88
329.744	433.88
329.972	409.88
330.201	438.88
330.43	467.88
330.658	473.88
330.887	458.88
331.115	470.88
331.344	436.88
331.572	432.88
331.801	449.88
332.03	445.88
332.258	441.88
332.486	411.88
332.715	429.88
332.943	435.88
333.172	437.88
333.4	454.88
333.629	466.88
333.857	485.88
334.085	454.88
334.314	486.88
334.542	489.88
334.771	489.88
334.999	468.88
335.227	456.88
335.455	441.88
335.684	435.88
335.912	443.88
336.14	451.88
336.369	424.88
336.597	444.88
336.825	441.88
337.053	438.88
337.281	437.88
337.51	427.88
337.738	455.88
337.966	441.88
338.194	431.88
338.422	427.88
338.65	441.88
338.878	433.88
339.106	401.88
339.334	421.88
339.562	393.88
339.79	429.88
340.018	418.88
340.246	405.88
340.474	414.88
340.702	414.88
340.93	405.88
341.158	385.88
341.386	405.88
341.614	379.88
341.842	403.88
342.07	389.88
342.298	398.88
342.526	431.88
342.754	394.88
342.981	396.88
343.209	416.88
343.437	433.88
343.665	445.88
343.893	451.88
344.12	462.88
344.348	462.88
344.576	431.88
344.804	418.88
345.031	420.88
345.259	427.88
345.487	400.88
345.714	416.88
345.942	408.88
346.17	399.88
346.397	390.88
346.625	398.88
346.853	403.88
347.08	401.88
347.308	413.88
347.535	382.88
347.763	381.88
347.99	383.88
348.218	404.88
348.445	385.88
348.673	384.88
348.9	398.88
349.128	401.88
349.355	390.88
349.583	400.88
349.81	398.88
350.037	370.88
350.265	397.88
350.492	371.88
350.72	407.88
350.947	395.88
351.174	400.88
351.402	399.88
351.629	385.88
351.856	393.88
352.083	404.88
352.311	383.88
352.538	402.88
352.765	403.88
352.992	388.88
353.22	384.88
353.447	393.88
353.674	398.88
353.901	379.88
354.128	390.88
354.355	375.88
354.583	390.88
354.81	390.88
355.037	369.88
355.264	384.88
355.491	367.88
355.718	357.88
355.945	369.88
356.172	384.88
356.399	382.88
356.626	379.88
356.853	376.88
357.08	364.88
357.307	340.88
357.534	365.88
357.761	383.88
357.988	382.88
358.215	372.88
358.441	391.88
358.668	393.88
358.895	387.88
359.122	379.88
359.349	394.88
359.576	387.88
359.802	410.88
360.029	395.88
360.256	407.88
360.483	404.88
360.709	376.88
360.936	376.88
361.163	369.88
361.39	381.88
361.616	394.88
361.843	377.88
362.07	385.88
362.296	390.88
362.523	389.88
362.749	383.88
362.976	390.88
363.203	378.88
363.429	367.88
363.656	369.88
363.882	369.88
364.109	395.88
364.335	384.88
364.562	367.88
364.788	377.88
365.015	376.88
365.241	376.88
365.468	370.88
365.694	390.88
365.92	396.88
366.147	365.88
366.373	367.88
366.599	372.88
366.826	374.88
367.052	377.88
367.278	385.88
367.505	382.88
367.731	390.88
367.957	379.88
368.184	367.88
368.41	385.88
368.636	393.88
368.862	390.88
369.089	381.88
369.315	380.88
369.541	391.88
369.767	394.88
369.993	374.88
370.219	376.88
370.445	385.88
370.672	392.88
370.898	396.88
371.124	392.88
371.35	398.88
371.576	384.88
371.802	390.88
372.028	377.88
372.254	382.88
372.48	388.88
372.706	383.88
372.932	396.88
373.158	394.88
373.384	399.88
373.61	398.88
373.835	405.88
374.061	389.88
374.287	423.88
374.513	411.88
374.739	430.88
374.965	411.88
375.191	413.88
375.416	407.88
375.642	403.88
375.868	396.88
376.094	397.88
376.319	402.88
376.545	405.88
376.771	389.88
376.997	405.88
377.222	400.88
377.448	384.88
377.674	388.88
377.899	388.88
378.125	394.88
378.35	400.88
378.576	413.88
378.802	406.88
379.027	406.88
379.253	389.88
379.478	391.88
379.704	382.88
379.929	373.88
380.155	394.88
380.38	396.88
380.606	405.88
380.831	397.88
381.057	393.88
381.282	390.88
381.507	385.88
381.733	376.88
381.958	385.88
382.184	377.88
382.409	379.88
382.634	391.88
382.86	403.88
383.085	420.88
383.31	425.88
383.535	403.88
383.761	402.88
383.986	415.88
384.211	414.88
384.436	449.88
384.662	438.88
384.887	437.88
385.112	438.88
385.337	446.88
385.562	474.88
385.787	423.88
386.013	454.88
386.238	447.88
386.463	443.88
386.688	454.88
386.913	455.88
387.138	442.88
387.363	449.88
387.588	435.88
387.813	454.88
388.038	422.88
388.263	458.88
388.488	440.88
388.713	454.88
388.938	449.88
389.163	463.88
389.387	459.88
389.612	436.88
389.837	436.88
390.062	453.88
390.287	439.88
390.512	434.88
390.736	437.88
390.961	423.88
391.186	447.88
391.411	455.88
391.636	465.88
391.86	500.88
392.085	472.88
392.31	465.88
392.534	456.88
392.759	466.88
392.984	469.88
393.208	465.88
393.433	462.88
393.658	494.88
393.882	483.88
394.107	450.88
394.331	444.88
394.556	470.88
394.78	450.88
395.005	453.88
395.229	471.88
395.454	470.88
395.678	494.88
395.903	475.88
396.127	504.88
396.352	500.88
396.576	490.88
396.801	475.88
397.025	480.88
397.249	454.88
397.474	462.88
397.698	487.88
397.922	494.88
398.147	498.88
398.371	524.88
398.595	531.88
398.82	537.88
399.044	561.88
399.268	578.88
399.492	621.88
399.717	657.88
399.941	696.88
400.165	649.88
400.389	648.88
400.613	582.88
400.837	571.88
401.062	551.88
401.286	554.88
401.51	523.88
401.734	552.88
401.958	535.88
402.182	520.88
402.406	543.88
402.63	530.88
402.854	533.88
403.078	576.88
403.302	551.88
403.526	557.88
403.75	550.88
403.974	562.88
404.198	571.88
404.422	570.88
404.645	577.88
404.869	570.88
405.093	595.88
405.317	606.88
405.541	628.88
405.765	597.88
405.988	566.88
406.212	577.88
406.436	587.88
406.66	594.88
406.883	578.88
407.107	636.88
407.331	638.88
407.555	689.88
407.778	659.88
408.002	650.88
408.226	634.88
408.449	597.88
408.673	601.88
408.896	648.88
409.12	670.88
409.344	623.88
409.567	554.88
409.791	567.88
410.014	555.88
410.238	535.88
410.461	568.88
410.685	557.88
410.908	542.88
411.132	585.88
411.355	599.88
411.578	567.88
411.802	542.88
412.025	557.88
412.249	554.88
412.472	582.88
412.695	601.88
412.919	586.88
413.142	557.88
413.365	534.88
413.589	529.88
413.812	513.88
414.035	515.88
414.258	522.88
414.482	523.88
414.705	535.88
414.928	535.88
415.151	529.88
415.374	562.88
415.597	497.88
415.821	508.88
416.044	523.88
416.267	515.88
416.49	501.88
416.713	505.88
416.936	495.88
417.159	511.88
417.382	503.88
417.605	511.88
417.828	533.88
418.051	521.88
418.274	531.88
418.497	512.88
418.72	542.88
418.943	523.88
419.166	547.88
419.389	557.88
419.611	565.88
419.834	547.88
420.057	546.88
420.28	533.88
420.503	513.88
420.726	523.88
420.948	533.88
421.171	573.88
421.394	582.88
421.617	534.88
421.839	520.88
422.062	522.88
422.285	526.88
422.507	601.88
422.73	607.88
422.953	581.88
423.175	568.88
423.398	538.88
423.621	564.88
423.843	576.88
424.066	570.88
424.288	556.88
424.511	563.88
424.733	623.88
424.956	649.88
425.178	613.88
425.401	628.88
425.623	629.88
425.846	575.88
426.068	557.88
426.291	542.88
426.513	535.88
426.735	559.88
426.958	553.88
427.18	617.88
427.402	714.88
427.625	770.88
427.847	670.88
428.069	603.88
428.292	561.88
428.514	534.88
428.736	509.88
428.958	539.88
429.181	506.88
429.403	485.88
429.625	487.88
429.847	494.88
430.069	556.88
430.292	562.88
430.514	524.88
430.736	497.88
430.958	496.88
431.18	487.88
431.402	470.88
431.624	482.88
431.846	486.88
432.068	489.88
432.29	487.88
432.512	495.88
432.734	489.88
432.956	468.88
433.178	484.88
433.4	482.88
433.622	499.88
433.844	482.88
434.066	481.88
434.287	499.88
434.509	514.88
434.731	520.88
434.953	511.88
435.175	515.88
435.397	551.88
435.618	548.88
435.84	567.88
436.062	626.88
436.284	663.88
436.505	569.88
436.727	549.88
436.949	489.88
437.17	520.88
437.392	493.88
437.614	500.88
437.835	531.88
438.057	565.88
438.278	657.88
438.5	642.88
438.721	687.88
438.943	651.88
439.165	541.88
439.386	542.88
439.608	530.88
439.829	543.88
440.05	542.88
440.272	585.88
440.493	551.88
440.715	522.88
440.936	521.88
441.158	514.88
441.379	521.88
441.6	516.88
441.822	521.88
442.043	567.88
442.264	618.88
442.486	639.88
442.707	575.88
442.928	561.88
443.149	577.88
443.371	559.88
443.592	562.88
443.813	647.88
444.034	670.88
444.255	617.88
444.476	585.88
444.698	574.88
444.919	583.88
445.14	695.88
445.361	637.88
445.582	593.88
445.803	613.88
446.024	667.88
446.245	661.88
446.466	617.88
446.687	553.88
446.908	543.88
447.129	522.88
447.35	505.88
447.571	497.88
447.792	490.88
448.013	477.88
448.234	521.88
448.455	548.88
448.675	607.88
448.896	697.88
449.117	605.88
449.338	599.88
449.559	653.88
449.779	724.88
450	586.88
450.221	506.88
450.442	508.88
450.662	461.88
450.883	472.88
451.104	479.88
451.324	457.88
451.545	479.88
451.766	466.88
451.986	458.88
452.207	425.88
452.428	422.88
452.648	445.88
452.869	431.88
453.089	443.88
453.31	461.88
453.53	468.88
453.751	436.88
453.971	441.88
454.192	451.88
454.412	449.88
454.633	422.88
454.853	434.88
455.073	443.88
455.294	462.88
455.514	508.88
455.734	511.88
455.955	444.88
456.175	420.88
456.395	433.88
456.616	427.88
456.836	462.88
457.056	430.88
457.276	406.88
457.497	440.88
457.717	423.88
457.937	414.88
458.157	433.88
458.377	446.88
458.598	458.88
458.818	488.88
459.038	541.88
459.258	543.88
459.478	487.88
459.698	523.88
459.918	500.88
460.138	493.88
460.358	519.88
460.578	517.88
460.798	545.88
461.018	552.88
461.238	539.88
461.458	535.88
461.678	521.88
461.898	545.88
462.118	515.88
462.338	561.88
462.558	542.88
462.777	577.88
462.997	581.88
463.217	625.88
463.437	631.88
463.657	602.88
463.876	576.88
464.096	563.88
464.316	604.88
464.536	591.88
464.755	596.88
464.975	563.88
465.195	554.88
465.414	587.88
465.634	528.88
465.854	510.88
466.073	516.88
466.293	485.88
466.512	489.88
466.732	481.88
466.951	468.88
467.171	490.88
467.391	462.88
467.61	454.88
467.829	448.88
468.049	465.88
468.268	458.88
468.488	471.88
468.707	466.88
468.927	454.88
469.146	456.88
469.365	453.88
469.585	466.88
469.804	459.88
470.023	471.88
470.243	475.88
470.462	454.88
470.681	465.88
470.901	489.88
471.12	466.88
471.339	453.88
471.558	465.88
471.777	464.88
471.997	490.88
472.216	473.88
472.435	475.88
472.654	486.88
472.873	439.88
473.092	449.88
473.311	474.88
473.53	463.88
473.749	478.88
473.968	493.88
474.187	561.88
474.406	573.88
474.625	496.88
474.844	469.88
475.063	464.88
475.282	465.88
475.501	471.88
475.72	485.88
475.939	469.88
476.158	502.88
476.377	489.88
476.596	490.88
476.814	494.88
477.033	493.88
477.252	475.88
477.471	502.88
477.69	496.88
477.908	517.88
478.127	545.88
478.346	529.88
478.564	541.88
478.783	520.88
479.002	561.88
479.22	552.88
479.439	561.88
479.658	556.88
479.876	554.88
480.095	580.88
480.313	595.88
480.532	619.88
480.751	607.88
480.969	593.88
481.188	594.88
481.406	607.88
481.624	577.88
481.843	563.88
482.061	544.88
482.28	546.88
482.498	553.88
482.717	535.88
482.935	555.88
483.153	530.88
483.372	527.88
483.59	523.88
483.808	545.88
484.027	553.88
484.245	544.88
484.463	544.88
484.681	542.88
484.9	561.88
485.118	557.88
485.336	536.88
485.554	559.88
485.772	571.88
485.99	564.88
486.209	553.88
486.427	569.88
486.645	568.88
486.863	580.88
487.081	554.88
487.299	565.88
487.517	574.88
487.735	542.88
487.953	567.88
488.171	566.88
488.389	577.88
488.607	577.88
488.825	561.88
489.043	559.88
489.261	560.88
489.479	572.88
489.696	591.88
489.914	593.88
490.132	590.88
490.35	605.88
490.568	598.88
490.786	604.88
491.003	573.88
491.221	617.88
491.439	609.88
491.657	631.88
491.874	620.88
492.092	643.88
492.31	635.88
492.527	611.88
492.745	631.88
492.963	625.88
493.18	630.88
493.398	661.88
493.615	647.88
493.833	639.88
494.05	638.88
494.268	677.88
494.485	646.88
494.703	643.88
494.92	635.88
495.138	641.88
495.355	638.88
495.573	665.88
495.79	681.88
496.008	655.88
496.225	642.88
496.442	659.88
496.66	651.88
496.877	675.88
497.094	669.88
497.312	694.88
497.529	700.88
497.746	680.88
497.963	740.88
498.181	757.88
498.398	757.88
498.615	773.88
498.832	816.88
499.049	826.88
499.267	863.88
499.484	906.88
499.701	981.88
499.918	1030.88
500.135	1099.88
500.352	1173.88
500.569	1194.88
500.786	1201.88
501.003	1191.88
501.22	1099.88
501.437	1009.88
501.654	1005.88
501.871	930.88
502.088	890.88
502.305	868.88
502.522	843.88
502.739	803.88
502.956	760.88
503.172	749.88
503.389	735.88
503.606	717.88
503.823	725.88
504.04	690.88
504.256	718.88
504.473	689.88
504.69	704.88
504.907	724.88
505.123	678.88
505.34	671.88
505.557	636.88
505.773	650.88
505.99	618.88
506.207	635.88
506.423	604.88
506.64	610.88
506.856	589.88
507.073	585.88
507.289	602.88
507.506	606.88
507.722	587.88
507.939	589.88
508.155	598.88
508.372	576.88
508.588	572.88
508.805	587.88
509.021	579.88
509.238	589.88
509.454	574.88
509.67	568.88
509.887	571.88
510.103	569.88
510.319	556.88
510.536	635.88
510.752	815.88
510.968	720.88
511.184	563.88
511.401	537.88
511.617	555.88
511.833	538.88
512.049	544.88
512.265	556.88
512.481	562.88
512.698	536.88
512.914	546.88
513.13	538.88
513.346	551.88
513.562	546.88
513.778	545.88
513.994	519.88
514.21	553.88
514.426	539.88
514.642	594.88
514.858	579.88
515.074	593.88
515.29	654.88
515.506	785.88
515.721	730.88
515.937	611.88
516.153	599.88
516.369	579.88
516.585	590.88
516.801	587.88
517.016	617.88
517.232	629.88
517.448	641.88
517.664	641.88
517.879	641.88
518.095	646.88
518.311	645.88
518.527	615.88
518.742	603.88
518.958	607.88
519.173	599.88
519.389	543.88
519.605	565.88
519.82	561.88
520.036	563.88
520.251	566.88
520.467	567.88
520.682	551.88
520.898	540.88
521.113	570.88
521.329	553.88
521.544	596.88
521.76	656.88
521.975	902.88
522.19	907.88
522.406	614.88
522.621	534.88
522.836	537.88
523.052	519.88
523.267	535.88
523.482	506.88
523.698	493.88
523.913	506.88
524.128	508.88
524.343	494.88
524.559	475.88
524.774	494.88
524.989	497.88
525.204	489.88
525.419	477.88
525.634	474.88
525.849	479.88
526.064	469.88
526.28	467.88
526.495	465.88
526.71	476.88
526.925	447.88
527.14	470.88
527.355	467.88
527.57	453.88
527.785	489.88
527.999	472.88
528.214	451.88
528.429	483.88
528.644	469.88
528.859	485.88
529.074	474.88
529.289	486.88
529.503	480.88
529.718	485.88
529.933	475.88
530.148	456.88
530.363	465.88
530.577	480.88
530.792	450.88
531.007	475.88
531.221	468.88
531.436	454.88
531.651	461.88
531.865	446.88
532.08	473.88
532.295	478.88
532.509	465.88
532.724	462.88
532.938	463.88
533.153	451.88
533.367	459.88
533.582	477.88
533.796	435.88
534.011	445.88
534.225	459.88
534.44	457.88
534.654	451.88
534.868	435.88
535.083	434.88
535.297	436.88
535.511	446.88
535.726	473.88
535.94	449.88
536.154	441.88
536.369	439.88
536.583	455.88
536.797	437.88
537.011	430.88
537.225	423.88
537.44	448.88
537.654	439.88
537.868	437.88
538.082	433.88
538.296	451.88
538.51	462.88
538.724	439.88
538.938	438.88
539.153	416.88
539.367	445.88
539.581	439.88
539.795	431.88
540.009	447.88
540.222	442.88
540.436	443.88
540.65	431.88
540.864	442.88
541.078	414.88
541.292	436.88
541.506	448.88
541.72	442.88
541.934	432.88
542.147	413.88
542.361	418.88
542.575	420.88
542.789	438.88
543.002	420.88
543.216	447.88
543.43	426.88
543.644	426.88
543.857	430.88
544.071	431.88
544.285	424.88
544.498	423.88
544.712	439.88
544.925	434.88
545.139	432.88
545.352	413.88
545.566	426.88
545.779	429.88
545.993	420.88
546.206	441.88
546.42	431.88
546.633	418.88
546.847	431.88
547.06	444.88
547.274	421.88
547.487	442.88
547.7	434.88
547.914	417.88
548.127	433.88
548.34	446.88
548.554	419.88
548.767	432.88
548.98	439.88
549.193	428.88
549.407	433.88
549.62	443.88
549.833	438.88
550.046	417.88
550.259	410.88
550.473	421.88
550.686	426.88
550.899	413.88
551.112	431.88
551.325	437.88
551.538	422.88
551.751	423.88
551.964	421.88
552.177	416.88
552.39	444.88
552.603	442.88
552.816	441.88
553.029	449.88
553.242	459.88
553.455	451.88
553.667	442.88
553.88	442.88
554.093	425.88
554.306	449.88
554.519	442.88
554.732	440.88
554.944	414.88
555.157	399.88
555.37	408.88
555.583	391.88
555.795	403.88
556.008	391.88
556.221	393.88
556.433	392.88
556.646	392.88
556.859	376.88
557.071	390.88
557.284	408.88
557.496	395.88
557.709	392.88
557.921	374.88
558.134	377.88
558.346	369.88
558.559	384.88
558.771	385.88
558.984	387.88
559.196	387.88
559.409	384.88
559.621	376.88
559.833	374.88
560.046	361.88
560.258	385.88
560.47	367.88
560.683	371.88
560.895	372.88
561.107	357.88
561.32	385.88
561.532	398.88
561.744	362.88
561.956	387.88
562.168	381.88
562.381	395.88
562.593	369.88
562.805	396.88
563.017	373.88
563.229	363.88
563.441	383.88
563.653	393.88
563.865	384.88
564.077	365.88
564.289	391.88
564.501	403.88
564.713	382.88
564.925	394.88
565.137	415.88
565.349	429.88
565.561	431.88
565.773	420.88
565.985	431.88
566.197	469.88
566.408	490.88
566.62	497.88
566.832	514.88
567.044	512.88
567.255	536.88
567.467	531.88
567.679	550.88
567.891	548.88
568.102	575.88
568.314	575.88
568.526	531.88
568.737	514.88
568.949	462.88
569.161	454.88
569.372	441.88
569.584	422.88
569.795	407.88
570.007	416.88
570.218	418.88
570.43	405.88
570.641	393.88
570.853	409.88
571.064	417.88
571.276	382.88
571.487	389.88
571.698	375.88
571.91	360.88
572.121	343.88
572.333	343.88
572.544	354.88
572.755	334.88
572.966	345.88
573.178	357.88
573.389	355.88
573.6	337.88
573.811	335.88
574.023	327.88
574.234	347.88
574.445	333.88
574.656	349.88
574.867	340.88
575.078	323.88
575.289	325.88
575.501	326.88
575.712	322.88
575.923	326.88
576.134	310.88
576.345	323.88
576.556	332.88
576.767	327.88
576.978	310.88
577.188	337.88
577.399	330.88
577.61	317.88
577.821	316.88
578.032	324.88
578.243	324.88
578.454	437.88
578.665	369.88
578.875	304.88
579.086	309.88
579.297	302.88
579.508	305.88
579.718	295.88
579.929	282.88
580.14	303.88
580.35	305.88
580.561	297.88
580.772	314.88
580.982	311.88
581.193	294.88
581.403	311.88
581.614	314.88
581.825	301.88
582.035	308.88
582.246	280.88
582.456	295.88
582.667	319.88
582.877	283.88
583.087	309.88
583.298	304.88
583.508	292.88
583.719	285.88
583.929	288.88
584.139	284.88
584.35	288.88
584.56	286.88
584.77	310.88
584.981	289.88
585.191	295.88
585.401	298.88
585.611	266.88
585.821	302.88
586.032	311.88
586.242	283.88
586.452	282.88
586.662	281.88
586.872	286.88
587.082	298.88
587.292	302.88
587.502	295.88
587.713	309.88
587.923	302.88
588.133	301.88
588.343	311.88
588.553	284.88
588.762	299.88
588.972	319.88
589.182	352.88
589.392	343.88
589.602	298.88
589.812	323.88
590.022	308.88
590.232	298.88
590.441	279.88
590.651	286.88
590.861	307.88
591.071	291.88
591.281	292.88
591.49	286.88
591.7	293.88
591.91	325.88
592.119	314.88
592.329	328.88
592.539	315.88
592.748	322.88
592.958	347.88
593.167	310.88
593.377	322.88
593.587	346.88
593.796	326.88
594.006	326.88
594.215	348.88
594.424	321.88
594.634	312.88
594.843	334.88
595.053	335.88
595.262	316.88
595.472	301.88
595.681	303.88
595.89	299.88
596.1	309.88
596.309	270.88
596.518	285.88
596.727	290.88
596.937	273.88
597.146	279.88
597.355	275.88
597.564	268.88
597.774	286.88
597.983	283.88
598.192	265.88
598.401	274.88
598.61	255.88
598.819	266.88
599.028	255.88
599.237	246.88
599.446	247.88
599.655	255.88
599.864	264.88
600.073	261.88
600.282	264.88
600.491	248.88
600.7	254.88
600.909	238.88
601.118	239.88
601.327	237.88
601.536	243.88
601.745	258.88
601.953	259.88
602.162	250.88
602.371	231.88
602.58	248.88
602.789	255.88
602.997	230.88
603.206	240.88
603.415	238.88
603.623	242.88
603.832	241.88
604.041	253.88
604.249	256.88
604.458	246.88
604.666	251.88
604.875	248.88
605.084	232.88
605.292	238.88
605.501	239.88
605.709	248.88
605.918	250.88
606.126	258.88
606.334	247.88
606.543	229.88
606.751	247.88
606.96	244.88
607.168	240.88
607.376	242.88
607.585	231.88
607.793	233.88
608.001	240.88
608.21	254.88
608.418	217.88
608.626	214.88
608.834	238.88
609.043	233.88
609.251	228.88
609.459	228.88
609.667	247.88
609.875	226.88
610.083	227.88
610.291	244.88
610.499	232.88
610.707	249.88
610.916	245.88
611.124	228.88
611.332	240.88
611.54	239.88
611.748	251.88
611.955	232.88
612.163	223.88
612.371	245.88
612.579	232.88
612.787	237.88
612.995	214.88
613.203	241.88
613.411	224.88
613.618	220.88
613.826	228.88
614.034	237.88
614.242	257.88
614.449	242.88
614.657	217.88
614.865	211.88
615.072	222.88
615.28	228.88
615.488	217.88
615.695	217.88
615.903	224.88
616.111	230.88
616.318	253.88
616.526	253.88
616.733	235.88
616.941	222.88
617.148	237.88
617.356	221.88
617.563	215.88
617.771	221.88
617.978	228.88
618.185	217.88
618.393	230.88
618.6	221.88
618.807	225.88
619.015	234.88
619.222	213.88
619.429	232.88
619.637	227.88
619.844	218.88
620.051	239.88
620.258	210.88
620.466	212.88
620.673	210.88
620.88	216.88
621.087	209.88
621.294	228.88
621.501	217.88
621.708	226.88
621.915	224.88
622.122	219.88
622.329	233.88
622.536	233.88
622.743	209.88
622.95	221.88
623.157	194.88
623.364	220.88
623.571	206.88
623.778	204.88
623.985	204.88
624.192	216.88
624.399	208.88
624.606	190.88
624.812	207.88
625.019	208.88
625.226	209.88
625.433	208.88
625.639	221.88
625.846	221.88
626.053	189.88
626.259	189.88
626.466	198.88
626.673	203.88
626.879	201.88
627.086	206.88
627.293	204.88
627.499	201.88
627.706	200.88
627.912	204.88
628.119	201.88
628.325	201.88
628.532	189.88
628.738	193.88
628.945	200.88
629.151	205.88
629.357	183.88
629.564	197.88
629.77	186.88
629.976	206.88
630.183	183.88
630.389	170.88
630.595	189.88
630.802	186.88
631.008	184.88
631.214	186.88
631.42	198.88
631.627	202.88
631.833	183.88
632.039	184.88
632.245	184.88
632.451	188.88
632.657	191.88
632.863	192.88
633.069	189.88
633.275	196.88
633.481	183.88
633.688	181.88
633.893	178.88
634.099	180.88
634.305	177.88
634.511	188.88
634.717	175.88
634.923	197.88
635.129	181.88
635.335	176.88
635.541	173.88
635.747	163.88
635.952	153.88
636.158	177.88
636.364	168.88
636.57	180.88
636.775	187.88
636.981	198.88
637.187	183.88
637.392	177.88
637.598	185.88
637.804	189.88
638.009	176.88
638.215	173.88
638.421	160.88
638.626	178.88
638.832	166.88
639.037	170.88
639.243	168.88
639.448	174.88
639.654	171.88
639.859	166.88
640.065	165.88
640.27	158.88
640.475	162.88
640.681	166.88
640.886	179.88
641.091	154.88
641.297	167.88
641.502	176.88
641.707	165.88
641.913	165.88
642.118	150.88
642.323	154.88
642.528	162.88
642.733	170.88
642.939	155.88
643.144	174.88
643.349	171.88
643.554	159.88
643.759	149.88
643.964	148.88
644.169	150.88
644.374	166.88
644.579	156.88
644.784	159.88
644.989	162.88
645.194	153.88
645.399	148.88
645.604	160.88
645.809	145.88
646.014	170.88
646.219	159.88
646.423	154.88
646.628	164.88
646.833	168.88
647.038	166.88
647.243	163.88
647.447	170.88
647.652	170.88
647.857	162.88
648.062	174.88
648.266	157.88
648.471	177.88
648.676	176.88
648.88	175.88
649.085	176.88
649.289	175.88
649.494	174.88
649.698	188.88
649.903	160.88
650.107	152.88
650.312	166.88
650.516	162.88
650.721	163.88
650.925	161.88
651.13	176.88
651.334	146.88
651.539	160.88
651.743	164.88
651.947	147.88
652.152	141.88
652.356	154.88
652.56	151.88
652.764	142.88
652.969	142.88
653.173	140.88
653.377	128.88
653.581	161.88
653.785	151.88
653.99	130.88
654.194	135.88
654.398	133.88
654.602	131.88
654.806	153.88
655.01	138.88
655.214	138.88
655.418	121.88
655.622	147.88
655.826	147.88
656.03	129.88
656.234	154.88
656.438	137.88
656.642	165.88
656.846	153.88
657.049	134.88
657.253	135.88
657.457	117.88
657.661	142.88
657.865	104.88
658.068	115.88
658.272	121.88
658.476	116.88
658.68	117.88
658.883	110.88
659.087	106.88
659.291	122.88
659.494	93.88
659.698	101.88
659.901	109.88
660.105	99.88
660.309	93.88
660.512	97.88
660.716	87.88
660.919	106.88
661.123	90.88
661.326	96.88
661.53	76.88
661.733	86.88
661.936	86.88
662.14	80.88
662.343	82.88
662.546	84.88
662.75	75.88
662.953	88.88
663.156	89.88
663.36	90.88
663.563	98.88
663.766	87.88
663.969	78.88
664.173	85.88
664.376	90.88
664.579	95.88
664.782	83.88
664.985	77.88
665.188	74.88
665.391	79.88
665.594	81.88
665.797	73.88
666	83.88
666.203	87.88
666.406	79.88
666.609	91.88
666.812	74.88
667.015	78.88
667.218	78.88
667.421	83.88
667.624	74.88
667.827	76.88
668.03	87.88
668.232	86.88
668.435	86.88
668.638	85.88
668.841	82.88
669.043	89.88
669.246	74.88
669.449	76.88
669.651	92.88
669.854	79.88
670.057	79.88
670.259	82.88
670.462	80.88
670.665	88.88
670.867	79.88
671.07	78.88
671.272	84.88
671.475	78.88
671.677	87.88
671.88	72.88
672.082	80.88
672.284	69.88
672.487	85.88
672.689	89.88
672.892	81.88
