Data from 1962.PennyLincolnUp.Lamp.En5.5.200Scan.071719.P1._HRD10591_13-54-15-060.txt Node
Date: Thu Jul 18 13:54:15 EDT 2019
User: cochatt
Spectrometer: HR+D1059
Trigger mode: 1
Integration Time (sec): 1.000000E-1
Scans to average: 1
Electric dark correction enabled: true
Nonlinearity correction enabled: false
Boxcar width: 0
XAxis mode: Wavelengths
Number of Pixels in Spectrum: 2048
>>>>>Begin Spectral Data<<<<<
223.165	-15.62
223.4	-15.62
223.635	-15.62
223.869	-5.62
224.104	-12.62
224.338	-32.62
224.573	-20.62
224.808	-21.62
225.042	-11.62
225.277	-17.62
225.511	7.38
225.746	8.38
225.98	16.38
226.215	8.38
226.449	20.38
226.683	14.38
226.918	26.38
227.152	36.38
227.387	41.38
227.621	28.38
227.856	34.38
228.09	48.38
228.324	36.38
228.559	56.38
228.793	66.38
229.027	77.38
229.262	112.38
229.496	95.38
229.73	108.38
229.964	125.38
230.199	126.38
230.433	108.38
230.667	98.38
230.901	113.38
231.136	107.38
231.37	108.38
231.604	93.38
231.838	103.38
232.072	112.38
232.306	114.38
232.541	102.38
232.775	118.38
233.009	110.38
233.243	117.38
233.477	125.38
233.711	119.38
233.945	95.38
234.179	104.38
234.413	105.38
234.647	118.38
234.881	113.38
235.115	116.38
235.349	106.38
235.583	109.38
235.817	117.38
236.051	123.38
236.285	128.38
236.519	114.38
236.753	126.38
236.987	120.38
237.221	143.38
237.455	179.38
237.689	140.38
237.922	141.38
238.156	135.38
238.39	114.38
238.624	96.38
238.858	119.38
239.091	120.38
239.325	128.38
239.559	118.38
239.793	129.38
240.027	128.38
240.26	139.38
240.494	130.38
240.728	117.38
240.961	130.38
241.195	123.38
241.429	126.38
241.662	122.38
241.896	113.38
242.13	140.38
242.363	127.38
242.597	116.38
242.83	142.38
243.064	118.38
243.298	136.38
243.531	117.38
243.765	126.38
243.998	126.38
244.232	143.38
244.465	130.38
244.699	150.38
244.932	141.38
245.166	136.38
245.399	138.38
245.633	149.38
245.866	141.38
246.099	141.38
246.333	129.38
246.566	143.38
246.8	146.38
247.033	146.38
247.266	156.38
247.5	162.38
247.733	159.38
247.966	154.38
248.2	164.38
248.433	159.38
248.666	159.38
248.899	169.38
249.133	179.38
249.366	164.38
249.599	177.38
249.832	171.38
250.066	140.38
250.299	161.38
250.532	180.38
250.765	179.38
250.998	188.38
251.231	194.38
251.465	180.38
251.698	182.38
251.931	186.38
252.164	201.38
252.397	194.38
252.63	171.38
252.863	189.38
253.096	200.38
253.329	194.38
253.562	190.38
253.795	191.38
254.028	192.38
254.261	194.38
254.494	185.38
254.727	219.38
254.96	217.38
255.193	215.38
255.426	212.38
255.659	202.38
255.892	206.38
256.124	208.38
256.357	208.38
256.59	191.38
256.823	213.38
257.056	206.38
257.289	177.38
257.521	180.38
257.754	204.38
257.987	197.38
258.22	195.38
258.452	173.38
258.685	201.38
258.918	198.38
259.151	195.38
259.383	212.38
259.616	203.38
259.849	203.38
260.081	211.38
260.314	229.38
260.547	233.38
260.779	225.38
261.012	213.38
261.244	214.38
261.477	204.38
261.71	207.38
261.942	217.38
262.175	233.38
262.407	213.38
262.64	202.38
262.872	214.38
263.105	201.38
263.337	214.38
263.57	183.38
263.802	196.38
264.035	195.38
264.267	203.38
264.499	205.38
264.732	207.38
264.964	219.38
265.197	202.38
265.429	215.38
265.661	210.38
265.894	200.38
266.126	199.38
266.358	219.38
266.591	208.38
266.823	221.38
267.055	219.38
267.287	222.38
267.52	198.38
267.752	208.38
267.984	220.38
268.216	215.38
268.448	208.38
268.681	193.38
268.913	243.38
269.145	230.38
269.377	235.38
269.609	251.38
269.841	260.38
270.073	250.38
270.306	261.38
270.538	282.38
270.77	266.38
271.002	273.38
271.234	247.38
271.466	276.38
271.698	284.38
271.93	286.38
272.162	276.38
272.394	288.38
272.626	266.38
272.858	260.38
273.09	251.38
273.322	256.38
273.553	258.38
273.785	250.38
274.017	257.38
274.249	268.38
274.481	249.38
274.713	234.38
274.945	264.38
275.176	246.38
275.408	252.38
275.64	242.38
275.872	240.38
276.104	262.38
276.335	265.38
276.567	264.38
276.799	272.38
277.031	290.38
277.262	274.38
277.494	284.38
277.726	281.38
277.957	271.38
278.189	285.38
278.421	270.38
278.652	253.38
278.884	279.38
279.115	294.38
279.347	264.38
279.579	250.38
279.81	248.38
280.042	266.38
280.273	254.38
280.505	276.38
280.736	251.38
280.968	260.38
281.199	264.38
281.431	265.38
281.662	274.38
281.894	254.38
282.125	272.38
282.356	276.38
282.588	278.38
282.819	291.38
283.051	276.38
283.282	286.38
283.513	285.38
283.745	285.38
283.976	263.38
284.207	301.38
284.439	292.38
284.67	292.38
284.901	273.38
285.132	273.38
285.364	283.38
285.595	288.38
285.826	286.38
286.057	304.38
286.288	288.38
286.52	284.38
286.751	296.38
286.982	283.38
287.213	273.38
287.444	293.38
287.675	293.38
287.906	290.38
288.138	281.38
288.369	280.38
288.6	291.38
288.831	305.38
289.062	277.38
289.293	298.38
289.524	292.38
289.755	295.38
289.986	296.38
290.217	299.38
290.448	288.38
290.679	301.38
290.91	302.38
291.141	305.38
291.371	308.38
291.602	284.38
291.833	301.38
292.064	297.38
292.295	306.38
292.526	304.38
292.757	313.38
292.987	309.38
293.218	284.38
293.449	296.38
293.68	297.38
293.91	289.38
294.141	299.38
294.372	290.38
294.603	305.38
294.833	286.38
295.064	294.38
295.295	318.38
295.525	290.38
295.756	305.38
295.987	326.38
296.217	306.38
296.448	334.38
296.679	310.38
296.909	297.38
297.14	290.38
297.37	317.38
297.601	305.38
297.831	312.38
298.062	325.38
298.292	319.38
298.523	325.38
298.753	314.38
298.984	283.38
299.214	304.38
299.445	310.38
299.675	331.38
299.905	302.38
300.136	317.38
300.366	318.38
300.597	302.38
300.827	308.38
301.057	322.38
301.288	347.38
301.518	326.38
301.748	325.38
301.979	338.38
302.209	347.38
302.439	333.38
302.669	320.38
302.9	348.38
303.13	322.38
303.36	325.38
303.59	310.38
303.82	338.38
304.051	333.38
304.281	333.38
304.511	316.38
304.741	343.38
304.971	341.38
305.201	348.38
305.431	343.38
305.661	345.38
305.891	328.38
306.121	321.38
306.352	317.38
306.582	335.38
306.812	322.38
307.042	320.38
307.272	344.38
307.502	333.38
307.731	317.38
307.961	330.38
308.191	331.38
308.421	317.38
308.651	333.38
308.881	334.38
309.111	317.38
309.341	346.38
309.571	343.38
309.8	344.38
310.03	347.38
310.26	358.38
310.49	348.38
310.72	366.38
310.949	370.38
311.179	372.38
311.409	356.38
311.639	360.38
311.868	355.38
312.098	361.38
312.328	360.38
312.557	375.38
312.787	392.38
313.017	382.38
313.246	370.38
313.476	358.38
313.706	362.38
313.935	373.38
314.165	376.38
314.394	370.38
314.624	386.38
314.853	370.38
315.083	377.38
315.312	371.38
315.542	365.38
315.771	370.38
316.001	369.38
316.23	355.38
316.46	365.38
316.689	369.38
316.919	356.38
317.148	357.38
317.377	385.38
317.607	383.38
317.836	370.38
318.065	360.38
318.295	358.38
318.524	374.38
318.753	376.38
318.983	365.38
319.212	361.38
319.441	368.38
319.67	372.38
319.9	366.38
320.129	345.38
320.358	378.38
320.587	384.38
320.816	376.38
321.046	374.38
321.275	388.38
321.504	374.38
321.733	375.38
321.962	384.38
322.191	393.38
322.42	390.38
322.649	405.38
322.878	405.38
323.108	421.38
323.337	419.38
323.566	410.38
323.795	442.38
324.024	470.38
324.253	520.38
324.482	670.38
324.71	985.38
324.939	1346.38
325.168	1214.38
325.397	700.38
325.626	518.38
325.855	476.38
326.084	448.38
326.313	448.38
326.542	422.38
326.77	449.38
326.999	514.38
327.228	625.38
327.457	888.38
327.686	1089.38
327.914	746.38
328.143	561.38
328.372	502.38
328.6	503.38
328.829	472.38
329.058	478.38
329.287	485.38
329.515	459.38
329.744	444.38
329.972	449.38
330.201	466.38
330.43	476.38
330.658	488.38
330.887	479.38
331.115	476.38
331.344	453.38
331.572	442.38
331.801	448.38
332.03	449.38
332.258	451.38
332.486	447.38
332.715	437.38
332.943	457.38
333.172	460.38
333.4	453.38
333.629	480.38
333.857	488.38
334.085	473.38
334.314	501.38
334.542	518.38
334.771	510.38
334.999	502.38
335.227	472.38
335.455	482.38
335.684	440.38
335.912	455.38
336.14	449.38
336.369	440.38
336.597	459.38
336.825	443.38
337.053	459.38
337.281	461.38
337.51	465.38
337.738	452.38
337.966	440.38
338.194	448.38
338.422	472.38
338.65	443.38
338.878	436.38
339.106	433.38
339.334	428.38
339.562	418.38
339.79	428.38
340.018	421.38
340.246	427.38
340.474	427.38
340.702	412.38
340.93	410.38
341.158	418.38
341.386	426.38
341.614	421.38
341.842	418.38
342.07	431.38
342.298	406.38
342.526	412.38
342.754	423.38
342.981	427.38
343.209	405.38
343.437	421.38
343.665	423.38
343.893	429.38
344.12	485.38
344.348	451.38
344.576	430.38
344.804	439.38
345.031	432.38
345.259	433.38
345.487	439.38
345.714	426.38
345.942	416.38
346.17	414.38
346.397	417.38
346.625	410.38
346.853	392.38
347.08	391.38
347.308	399.38
347.535	403.38
347.763	408.38
347.99	400.38
348.218	401.38
348.445	421.38
348.673	405.38
348.9	396.38
349.128	398.38
349.355	377.38
349.583	404.38
349.81	394.38
350.037	399.38
350.265	408.38
350.492	400.38
350.72	405.38
350.947	403.38
351.174	398.38
351.402	404.38
351.629	409.38
351.856	402.38
352.083	398.38
352.311	407.38
352.538	407.38
352.765	413.38
352.992	418.38
353.22	409.38
353.447	419.38
353.674	396.38
353.901	384.38
354.128	395.38
354.355	422.38
354.583	394.38
354.81	380.38
355.037	363.38
355.264	379.38
355.491	389.38
355.718	379.38
355.945	382.38
356.172	373.38
356.399	365.38
356.626	395.38
356.853	378.38
357.08	381.38
357.307	392.38
357.534	385.38
357.761	401.38
357.988	410.38
358.215	406.38
358.441	380.38
358.668	385.38
358.895	391.38
359.122	402.38
359.349	408.38
359.576	408.38
359.802	407.38
360.029	429.38
360.256	420.38
360.483	421.38
360.709	384.38
360.936	398.38
361.163	390.38
361.39	392.38
361.616	397.38
361.843	394.38
362.07	415.38
362.296	412.38
362.523	410.38
362.749	391.38
362.976	394.38
363.203	394.38
363.429	372.38
363.656	399.38
363.882	397.38
364.109	389.38
364.335	381.38
364.562	394.38
364.788	401.38
365.015	389.38
365.241	390.38
365.468	392.38
365.694	380.38
365.92	409.38
366.147	387.38
366.373	372.38
366.599	379.38
366.826	371.38
367.052	371.38
367.278	409.38
367.505	369.38
367.731	386.38
367.957	401.38
368.184	396.38
368.41	390.38
368.636	404.38
368.862	404.38
369.089	381.38
369.315	385.38
369.541	389.38
369.767	395.38
369.993	388.38
370.219	404.38
370.445	407.38
370.672	392.38
370.898	394.38
371.124	403.38
371.35	396.38
371.576	373.38
371.802	406.38
372.028	403.38
372.254	409.38
372.48	411.38
372.706	409.38
372.932	418.38
373.158	415.38
373.384	406.38
373.61	406.38
373.835	433.38
374.061	397.38
374.287	416.38
374.513	412.38
374.739	412.38
374.965	413.38
375.191	426.38
375.416	441.38
375.642	416.38
375.868	408.38
376.094	401.38
376.319	410.38
376.545	413.38
376.771	400.38
376.997	400.38
377.222	399.38
377.448	393.38
377.674	393.38
377.899	404.38
378.125	384.38
378.35	389.38
378.576	390.38
378.802	391.38
379.027	412.38
379.253	404.38
379.478	405.38
379.704	386.38
379.929	406.38
380.155	388.38
380.38	412.38
380.606	396.38
380.831	406.38
381.057	401.38
381.282	408.38
381.507	392.38
381.733	397.38
381.958	411.38
382.184	393.38
382.409	422.38
382.634	418.38
382.86	421.38
383.085	419.38
383.31	404.38
383.535	428.38
383.761	436.38
383.986	454.38
384.211	446.38
384.436	442.38
384.662	445.38
384.887	437.38
385.112	446.38
385.337	463.38
385.562	445.38
385.787	467.38
386.013	457.38
386.238	454.38
386.463	452.38
386.688	462.38
386.913	451.38
387.138	470.38
387.363	468.38
387.588	465.38
387.813	468.38
388.038	446.38
388.263	454.38
388.488	460.38
388.713	459.38
388.938	466.38
389.163	456.38
389.387	453.38
389.612	450.38
389.837	446.38
390.062	454.38
390.287	439.38
390.512	440.38
390.736	435.38
390.961	463.38
391.186	466.38
391.411	477.38
391.636	477.38
391.86	499.38
392.085	478.38
392.31	489.38
392.534	489.38
392.759	470.38
392.984	470.38
393.208	459.38
393.433	477.38
393.658	459.38
393.882	465.38
394.107	447.38
394.331	459.38
394.556	450.38
394.78	489.38
395.005	477.38
395.229	474.38
395.454	477.38
395.678	484.38
395.903	494.38
396.127	500.38
396.352	505.38
396.576	485.38
396.801	471.38
397.025	470.38
397.249	507.38
397.474	490.38
397.698	485.38
397.922	497.38
398.147	512.38
398.371	506.38
398.595	512.38
398.82	525.38
399.044	548.38
399.268	581.38
399.492	654.38
399.717	680.38
399.941	694.38
400.165	692.38
400.389	628.38
400.613	603.38
400.837	594.38
401.062	549.38
401.286	562.38
401.51	565.38
401.734	553.38
401.958	555.38
402.182	539.38
402.406	516.38
402.63	532.38
402.854	546.38
403.078	545.38
403.302	554.38
403.526	560.38
403.75	580.38
403.974	578.38
404.198	581.38
404.422	564.38
404.645	562.38
404.869	580.38
405.093	619.38
405.317	637.38
405.541	624.38
405.765	594.38
405.988	573.38
406.212	592.38
406.436	590.38
406.66	602.38
406.883	605.38
407.107	612.38
407.331	644.38
407.555	710.38
407.778	725.38
408.002	664.38
408.226	646.38
408.449	603.38
408.673	602.38
408.896	631.38
409.12	630.38
409.344	612.38
409.567	576.38
409.791	561.38
410.014	572.38
410.238	594.38
410.461	570.38
410.685	563.38
410.908	578.38
411.132	597.38
411.355	614.38
411.578	596.38
411.802	553.38
412.025	532.38
412.249	567.38
412.472	582.38
412.695	586.38
412.919	575.38
413.142	551.38
413.365	543.38
413.589	560.38
413.812	552.38
414.035	543.38
414.258	557.38
414.482	550.38
414.705	529.38
414.928	497.38
415.151	550.38
415.374	554.38
415.597	525.38
415.821	523.38
416.044	527.38
416.267	528.38
416.49	522.38
416.713	521.38
416.936	531.38
417.159	538.38
417.382	543.38
417.605	520.38
417.828	532.38
418.051	539.38
418.274	545.38
418.497	516.38
418.72	541.38
418.943	532.38
419.166	540.38
419.389	595.38
419.611	607.38
419.834	562.38
420.057	589.38
420.28	549.38
420.503	532.38
420.726	552.38
420.948	559.38
421.171	579.38
421.394	601.38
421.617	562.38
421.839	545.38
422.062	554.38
422.285	548.38
422.507	591.38
422.73	636.38
422.953	619.38
423.175	580.38
423.398	559.38
423.621	578.38
423.843	562.38
424.066	580.38
424.288	536.38
424.511	604.38
424.733	616.38
424.956	701.38
425.178	644.38
425.401	628.38
425.623	650.38
425.846	573.38
426.068	562.38
426.291	545.38
426.513	563.38
426.735	565.38
426.958	588.38
427.18	636.38
427.402	713.38
427.625	788.38
427.847	689.38
428.069	609.38
428.292	576.38
428.514	553.38
428.736	534.38
428.958	529.38
429.181	510.38
429.403	530.38
429.625	489.38
429.847	552.38
430.069	589.38
430.292	596.38
430.514	533.38
430.736	531.38
430.958	520.38
431.18	492.38
431.402	493.38
431.624	487.38
431.846	483.38
432.068	502.38
432.29	498.38
432.512	501.38
432.734	515.38
432.956	495.38
433.178	526.38
433.4	512.38
433.622	500.38
433.844	487.38
434.066	511.38
434.287	507.38
434.509	538.38
434.731	526.38
434.953	517.38
435.175	546.38
435.397	539.38
435.618	555.38
435.84	566.38
436.062	642.38
436.284	657.38
436.505	596.38
436.727	540.38
436.949	513.38
437.17	519.38
437.392	514.38
437.614	525.38
437.835	540.38
438.057	602.38
438.278	667.38
438.5	659.38
438.721	758.38
438.943	694.38
439.165	578.38
439.386	549.38
439.608	554.38
439.829	533.38
440.05	556.38
440.272	590.38
440.493	555.38
440.715	546.38
440.936	556.38
441.158	532.38
441.379	534.38
441.6	530.38
441.822	567.38
442.043	568.38
442.264	634.38
442.486	684.38
442.707	581.38
442.928	562.38
443.149	560.38
443.371	583.38
443.592	612.38
443.813	697.38
444.034	726.38
444.255	632.38
444.476	597.38
444.698	580.38
444.919	592.38
445.14	717.38
445.361	618.38
445.582	598.38
445.803	624.38
446.024	678.38
446.245	708.38
446.466	622.38
446.687	561.38
446.908	543.38
447.129	526.38
447.35	516.38
447.571	504.38
447.792	468.38
448.013	514.38
448.234	521.38
448.455	524.38
448.675	608.38
448.896	727.38
449.117	621.38
449.338	574.38
449.559	679.38
449.779	732.38
450	633.38
450.221	542.38
450.442	509.38
450.662	481.38
450.883	477.38
451.104	481.38
451.324	482.38
451.545	483.38
451.766	461.38
451.986	451.38
452.207	462.38
452.428	453.38
452.648	451.38
452.869	445.38
453.089	467.38
453.31	457.38
453.53	474.38
453.751	453.38
453.971	446.38
454.192	453.38
454.412	461.38
454.633	442.38
454.853	443.38
455.073	476.38
455.294	466.38
455.514	494.38
455.734	508.38
455.955	458.38
456.175	440.38
456.395	440.38
456.616	417.38
456.836	430.38
457.056	436.38
457.276	416.38
457.497	444.38
457.717	419.38
457.937	436.38
458.157	437.38
458.377	431.38
458.598	482.38
458.818	492.38
459.038	535.38
459.258	565.38
459.478	504.38
459.698	512.38
459.918	515.38
460.138	536.38
460.358	518.38
460.578	534.38
460.798	521.38
461.018	549.38
461.238	522.38
461.458	540.38
461.678	508.38
461.898	553.38
462.118	534.38
462.338	574.38
462.558	564.38
462.777	598.38
462.997	624.38
463.217	611.38
463.437	630.38
463.657	606.38
463.876	603.38
464.096	599.38
464.316	585.38
464.536	588.38
464.755	579.38
464.975	578.38
465.195	577.38
465.414	580.38
465.634	532.38
465.854	509.38
466.073	506.38
466.293	508.38
466.512	497.38
466.732	487.38
466.951	471.38
467.171	466.38
467.391	486.38
467.61	480.38
467.829	478.38
468.049	485.38
468.268	481.38
468.488	471.38
468.707	450.38
468.927	474.38
469.146	440.38
469.365	468.38
469.585	452.38
469.804	462.38
470.023	490.38
470.243	493.38
470.462	509.38
470.681	485.38
470.901	503.38
471.12	468.38
471.339	500.38
471.558	479.38
471.777	481.38
471.997	467.38
472.216	495.38
472.435	477.38
472.654	480.38
472.873	485.38
473.092	478.38
473.311	449.38
473.53	481.38
473.749	482.38
473.968	505.38
474.187	571.38
474.406	572.38
474.625	508.38
474.844	489.38
475.063	466.38
475.282	483.38
475.501	492.38
475.72	493.38
475.939	488.38
476.158	496.38
476.377	517.38
476.596	489.38
476.814	489.38
477.033	519.38
477.252	509.38
477.471	502.38
477.69	519.38
477.908	526.38
478.127	524.38
478.346	532.38
478.564	542.38
478.783	558.38
479.002	562.38
479.22	564.38
479.439	568.38
479.658	565.38
479.876	587.38
480.095	581.38
480.313	589.38
480.532	603.38
480.751	594.38
480.969	605.38
481.188	632.38
481.406	630.38
481.624	603.38
481.843	558.38
482.061	580.38
482.28	567.38
482.498	537.38
482.717	551.38
482.935	553.38
483.153	527.38
483.372	555.38
483.59	568.38
483.808	551.38
484.027	552.38
484.245	544.38
484.463	563.38
484.681	560.38
484.9	555.38
485.118	571.38
485.336	585.38
485.554	564.38
485.772	570.38
485.99	573.38
486.209	588.38
486.427	597.38
486.645	588.38
486.863	587.38
487.081	600.38
487.299	597.38
487.517	598.38
487.735	604.38
487.953	590.38
488.171	602.38
488.389	561.38
488.607	570.38
488.825	597.38
489.043	586.38
489.261	584.38
489.479	605.38
489.696	601.38
489.914	603.38
490.132	585.38
490.35	587.38
490.568	599.38
490.786	613.38
491.003	617.38
491.221	648.38
491.439	618.38
491.657	664.38
491.874	640.38
492.092	638.38
492.31	640.38
492.527	648.38
492.745	653.38
492.963	631.38
493.18	675.38
493.398	652.38
493.615	688.38
493.833	640.38
494.05	678.38
494.268	660.38
494.485	664.38
494.703	674.38
494.92	672.38
495.138	669.38
495.355	650.38
495.573	667.38
495.79	663.38
496.008	693.38
496.225	700.38
496.442	693.38
496.66	684.38
496.877	679.38
497.094	695.38
497.312	699.38
497.529	731.38
497.746	739.38
497.963	747.38
498.181	780.38
498.398	774.38
498.615	816.38
498.832	822.38
499.049	870.38
499.267	920.38
499.484	931.38
499.701	967.38
499.918	1059.38
500.135	1156.38
500.352	1186.38
500.569	1219.38
500.786	1204.38
501.003	1200.38
501.22	1103.38
501.437	1084.38
501.654	1003.38
501.871	939.38
502.088	893.38
502.305	846.38
502.522	863.38
502.739	810.38
502.956	807.38
503.172	755.38
503.389	734.38
503.606	733.38
503.823	729.38
504.04	693.38
504.256	715.38
504.473	739.38
504.69	725.38
504.907	745.38
505.123	695.38
505.34	685.38
505.557	668.38
505.773	642.38
505.99	652.38
506.207	643.38
506.423	655.38
506.64	648.38
506.856	644.38
507.073	610.38
507.289	624.38
507.506	616.38
507.722	632.38
507.939	612.38
508.155	593.38
508.372	601.38
508.588	575.38
508.805	598.38
509.021	595.38
509.238	594.38
509.454	605.38
509.67	579.38
509.887	598.38
510.103	610.38
510.319	611.38
510.536	642.38
510.752	859.38
510.968	749.38
511.184	571.38
511.401	572.38
511.617	566.38
511.833	561.38
512.049	549.38
512.265	572.38
512.481	574.38
512.698	557.38
512.914	547.38
513.13	536.38
513.346	571.38
513.562	561.38
513.778	565.38
513.994	542.38
514.21	575.38
514.426	566.38
514.642	591.38
514.858	634.38
515.074	634.38
515.29	668.38
515.506	829.38
515.721	746.38
515.937	638.38
516.153	602.38
516.369	580.38
516.585	597.38
516.801	628.38
517.016	624.38
517.232	639.38
517.448	617.38
517.664	652.38
517.879	630.38
518.095	653.38
518.311	645.38
518.527	614.38
518.742	613.38
518.958	636.38
519.173	592.38
519.389	574.38
519.605	580.38
519.82	590.38
520.036	620.38
520.251	554.38
520.467	593.38
520.682	547.38
520.898	557.38
521.113	585.38
521.329	597.38
521.544	618.38
521.76	699.38
521.975	936.38
522.19	934.38
522.406	658.38
522.621	577.38
522.836	540.38
523.052	536.38
523.267	530.38
523.482	513.38
523.698	533.38
523.913	505.38
524.128	507.38
524.343	525.38
524.559	504.38
524.774	500.38
524.989	494.38
525.204	523.38
525.419	498.38
525.634	493.38
525.849	500.38
526.064	492.38
526.28	474.38
526.495	512.38
526.71	501.38
526.925	505.38
527.14	493.38
527.355	490.38
527.57	476.38
527.785	472.38
527.999	470.38
528.214	470.38
528.429	468.38
528.644	463.38
528.859	493.38
529.074	461.38
529.289	465.38
529.503	485.38
529.718	511.38
529.933	487.38
530.148	505.38
530.363	497.38
530.577	467.38
530.792	478.38
531.007	463.38
531.221	470.38
531.436	469.38
531.651	468.38
531.865	468.38
532.08	472.38
532.295	466.38
532.509	467.38
532.724	477.38
532.938	496.38
533.153	455.38
533.367	472.38
533.582	473.38
533.796	475.38
534.011	468.38
534.225	464.38
534.44	459.38
534.654	484.38
534.868	427.38
535.083	466.38
535.297	466.38
535.511	454.38
535.726	456.38
535.94	457.38
536.154	462.38
536.369	470.38
536.583	449.38
536.797	469.38
537.011	444.38
537.225	448.38
537.44	457.38
537.654	459.38
537.868	432.38
538.082	436.38
538.296	442.38
538.51	462.38
538.724	444.38
538.938	429.38
539.153	443.38
539.367	466.38
539.581	446.38
539.795	458.38
540.009	432.38
540.222	435.38
540.436	464.38
540.65	451.38
540.864	449.38
541.078	425.38
541.292	439.38
541.506	429.38
541.72	452.38
541.934	429.38
542.147	446.38
542.361	452.38
542.575	460.38
542.789	444.38
543.002	426.38
543.216	435.38
543.43	444.38
543.644	446.38
543.857	447.38
544.071	459.38
544.285	455.38
544.498	447.38
544.712	444.38
544.925	417.38
545.139	428.38
545.352	440.38
545.566	437.38
545.779	453.38
545.993	459.38
546.206	457.38
546.42	446.38
546.633	420.38
546.847	438.38
547.06	430.38
547.274	434.38
547.487	427.38
547.7	442.38
547.914	435.38
548.127	426.38
548.34	434.38
548.554	444.38
548.767	441.38
548.98	444.38
549.193	450.38
549.407	443.38
549.62	430.38
549.833	451.38
550.046	432.38
550.259	436.38
550.473	454.38
550.686	449.38
550.899	440.38
551.112	433.38
551.325	423.38
551.538	428.38
551.751	434.38
551.964	430.38
552.177	428.38
552.39	428.38
552.603	446.38
552.816	450.38
553.029	459.38
553.242	449.38
553.455	432.38
553.667	465.38
553.88	459.38
554.093	444.38
554.306	451.38
554.519	439.38
554.732	430.38
554.944	436.38
555.157	421.38
555.37	416.38
555.583	418.38
555.795	417.38
556.008	418.38
556.221	392.38
556.433	409.38
556.646	418.38
556.859	401.38
557.071	397.38
557.284	377.38
557.496	401.38
557.709	395.38
557.921	387.38
558.134	384.38
558.346	362.38
558.559	400.38
558.771	398.38
558.984	389.38
559.196	384.38
559.409	374.38
559.621	369.38
559.833	371.38
560.046	377.38
560.258	397.38
560.47	385.38
560.683	405.38
560.895	378.38
561.107	383.38
561.32	384.38
561.532	382.38
561.744	384.38
561.956	379.38
562.168	379.38
562.381	380.38
562.593	371.38
562.805	411.38
563.017	388.38
563.229	386.38
563.441	385.38
563.653	396.38
563.865	389.38
564.077	393.38
564.289	381.38
564.501	419.38
564.713	416.38
564.925	419.38
565.137	418.38
565.349	436.38
565.561	454.38
565.773	445.38
565.985	481.38
566.197	468.38
566.408	498.38
566.62	517.38
566.832	542.38
567.044	547.38
567.255	541.38
567.467	545.38
567.679	571.38
567.891	581.38
568.102	566.38
568.314	573.38
568.526	547.38
568.737	502.38
568.949	488.38
569.161	465.38
569.372	450.38
569.584	437.38
569.795	440.38
570.007	425.38
570.218	404.38
570.43	426.38
570.641	392.38
570.853	409.38
571.064	404.38
571.276	399.38
571.487	377.38
571.698	375.38
571.91	386.38
572.121	378.38
572.333	362.38
572.544	340.38
572.755	368.38
572.966	356.38
573.178	349.38
573.389	360.38
573.6	358.38
573.811	345.38
574.023	358.38
574.234	353.38
574.445	341.38
574.656	345.38
574.867	339.38
575.078	312.38
575.289	345.38
575.501	338.38
575.712	318.38
575.923	328.38
576.134	337.38
576.345	335.38
576.556	346.38
576.767	333.38
576.978	328.38
577.188	315.38
577.399	334.38
577.61	344.38
577.821	334.38
578.032	315.38
578.243	317.38
578.454	427.38
578.665	367.38
578.875	316.38
579.086	329.38
579.297	328.38
579.508	309.38
579.718	328.38
579.929	328.38
580.14	311.38
580.35	318.38
580.561	305.38
580.772	293.38
580.982	295.38
581.193	290.38
581.403	300.38
581.614	321.38
581.825	319.38
582.035	297.38
582.246	289.38
582.456	320.38
582.667	297.38
582.877	286.38
583.087	289.38
583.298	287.38
583.508	310.38
583.719	316.38
583.929	318.38
584.139	300.38
584.35	292.38
584.56	306.38
584.77	307.38
584.981	302.38
585.191	312.38
585.401	312.38
585.611	296.38
585.821	316.38
586.032	288.38
586.242	314.38
586.452	292.38
586.662	313.38
586.872	299.38
587.082	315.38
587.292	294.38
587.502	278.38
587.713	284.38
587.923	283.38
588.133	305.38
588.343	291.38
588.553	296.38
588.762	283.38
588.972	297.38
589.182	335.38
589.392	313.38
589.602	302.38
589.812	331.38
590.022	302.38
590.232	282.38
590.441	305.38
590.651	295.38
590.861	306.38
591.071	286.38
591.281	297.38
591.49	301.38
591.7	321.38
591.91	306.38
592.119	294.38
592.329	327.38
592.539	324.38
592.748	350.38
592.958	332.38
593.167	349.38
593.377	331.38
593.587	343.38
593.796	331.38
594.006	318.38
594.215	347.38
594.424	358.38
594.634	332.38
594.843	331.38
595.053	321.38
595.262	289.38
595.472	309.38
595.681	293.38
595.89	331.38
596.1	302.38
596.309	298.38
596.518	285.38
596.727	280.38
596.937	287.38
597.146	287.38
597.355	285.38
597.564	264.38
597.774	274.38
597.983	284.38
598.192	272.38
598.401	268.38
598.61	281.38
598.819	262.38
599.028	262.38
599.237	250.38
599.446	261.38
599.655	276.38
599.864	275.38
600.073	263.38
600.282	267.38
600.491	264.38
600.7	271.38
600.909	254.38
601.118	261.38
601.327	262.38
601.536	244.38
601.745	255.38
601.953	265.38
602.162	264.38
602.371	266.38
602.58	248.38
602.789	274.38
602.997	266.38
603.206	254.38
603.415	263.38
603.623	232.38
603.832	257.38
604.041	243.38
604.249	256.38
604.458	264.38
604.666	247.38
604.875	258.38
605.084	242.38
605.292	229.38
605.501	238.38
605.709	235.38
605.918	241.38
606.126	232.38
606.334	256.38
606.543	232.38
606.751	260.38
606.96	246.38
607.168	237.38
607.376	240.38
607.585	244.38
607.793	229.38
608.001	247.38
608.21	254.38
608.418	248.38
608.626	225.38
608.834	256.38
609.043	235.38
609.251	218.38
609.459	240.38
609.667	221.38
609.875	250.38
610.083	235.38
610.291	256.38
610.499	236.38
610.707	251.38
610.916	250.38
611.124	257.38
611.332	243.38
611.54	234.38
611.748	232.38
611.955	232.38
612.163	238.38
612.371	233.38
612.579	242.38
612.787	233.38
612.995	252.38
613.203	252.38
613.411	252.38
613.618	215.38
613.826	237.38
614.034	227.38
614.242	224.38
614.449	237.38
614.657	229.38
614.865	221.38
615.072	218.38
615.28	232.38
615.488	238.38
615.695	243.38
615.903	252.38
616.111	213.38
616.318	227.38
616.526	226.38
616.733	246.38
616.941	231.38
617.148	226.38
617.356	230.38
617.563	238.38
617.771	260.38
617.978	225.38
618.185	231.38
618.393	222.38
618.6	230.38
618.807	245.38
619.015	222.38
619.222	208.38
619.429	225.38
619.637	223.38
619.844	230.38
620.051	211.38
620.258	214.38
620.466	244.38
620.673	222.38
620.88	218.38
621.087	215.38
621.294	222.38
621.501	219.38
621.708	209.38
621.915	218.38
622.122	216.38
622.329	240.38
622.536	225.38
622.743	212.38
622.95	217.38
623.157	220.38
623.364	212.38
623.571	206.38
623.778	216.38
623.985	196.38
624.192	226.38
624.399	213.38
624.606	219.38
624.812	216.38
625.019	214.38
625.226	208.38
625.433	221.38
625.639	197.38
625.846	219.38
626.053	226.38
626.259	223.38
626.466	199.38
626.673	211.38
626.879	199.38
627.086	202.38
627.293	201.38
627.499	197.38
627.706	203.38
627.912	222.38
628.119	206.38
628.325	197.38
628.532	198.38
628.738	194.38
628.945	196.38
629.151	195.38
629.357	201.38
629.564	198.38
629.77	188.38
629.976	192.38
630.183	201.38
630.389	193.38
630.595	187.38
630.802	185.38
631.008	174.38
631.214	201.38
631.42	197.38
631.627	200.38
631.833	194.38
632.039	192.38
632.245	180.38
632.451	175.38
632.657	181.38
632.863	198.38
633.069	190.38
633.275	187.38
633.481	200.38
633.688	176.38
633.893	186.38
634.099	176.38
634.305	184.38
634.511	188.38
634.717	178.38
634.923	191.38
635.129	186.38
635.335	180.38
635.541	184.38
635.747	184.38
635.952	180.38
636.158	179.38
636.364	182.38
636.57	185.38
636.775	198.38
636.981	184.38
637.187	172.38
637.392	174.38
637.598	174.38
637.804	184.38
638.009	173.38
638.215	169.38
638.421	181.38
638.626	162.38
638.832	184.38
639.037	182.38
639.243	170.38
639.448	187.38
639.654	157.38
639.859	175.38
640.065	175.38
640.27	174.38
640.475	165.38
640.681	162.38
640.886	182.38
641.091	180.38
641.297	172.38
641.502	158.38
641.707	184.38
641.913	165.38
642.118	181.38
642.323	172.38
642.528	173.38
642.733	173.38
642.939	161.38
643.144	155.38
643.349	169.38
643.554	173.38
643.759	178.38
643.964	177.38
644.169	171.38
644.374	159.38
644.579	175.38
644.784	165.38
644.989	183.38
645.194	164.38
645.399	156.38
645.604	154.38
645.809	166.38
646.014	152.38
646.219	163.38
646.423	170.38
646.628	168.38
646.833	172.38
647.038	183.38
647.243	170.38
647.447	181.38
647.652	166.38
647.857	171.38
648.062	163.38
648.266	177.38
648.471	176.38
648.676	174.38
648.88	172.38
649.085	160.38
649.289	178.38
649.494	166.38
649.698	196.38
649.903	178.38
650.107	169.38
650.312	166.38
650.516	161.38
650.721	152.38
650.925	169.38
651.13	154.38
651.334	139.38
651.539	146.38
651.743	168.38
651.947	141.38
652.152	148.38
652.356	142.38
652.56	130.38
652.764	141.38
652.969	133.38
653.173	144.38
653.377	150.38
653.581	147.38
653.785	143.38
653.99	140.38
654.194	133.38
654.398	138.38
654.602	159.38
654.806	143.38
655.01	152.38
655.214	130.38
655.418	152.38
655.622	138.38
655.826	139.38
656.03	132.38
656.234	136.38
656.438	158.38
656.642	154.38
656.846	148.38
657.049	137.38
657.253	134.38
657.457	123.38
657.661	120.38
657.865	125.38
658.068	118.38
658.272	108.38
658.476	123.38
658.68	114.38
658.883	105.38
659.087	95.38
659.291	98.38
659.494	90.38
659.698	100.38
659.901	95.38
660.105	96.38
660.309	101.38
660.512	99.38
660.716	100.38
660.919	89.38
661.123	90.38
661.326	86.38
661.53	90.38
661.733	87.38
661.936	84.38
662.14	85.38
662.343	100.38
662.546	89.38
662.75	86.38
662.953	94.38
663.156	97.38
663.36	88.38
663.563	80.38
663.766	73.38
663.969	92.38
664.173	82.38
664.376	86.38
664.579	84.38
664.782	91.38
664.985	84.38
665.188	78.38
665.391	75.38
665.594	64.38
665.797	89.38
666	90.38
666.203	80.38
666.406	72.38
666.609	92.38
666.812	84.38
667.015	93.38
667.218	92.38
667.421	82.38
667.624	68.38
667.827	79.38
668.03	99.38
668.232	77.38
668.435	87.38
668.638	72.38
668.841	76.38
669.043	72.38
669.246	82.38
669.449	77.38
669.651	84.38
669.854	81.38
670.057	69.38
670.259	82.38
670.462	78.38
670.665	77.38
670.867	87.38
671.07	74.38
671.272	89.38
671.475	77.38
671.677	83.38
671.88	78.38
672.082	75.38
672.284	78.38
672.487	88.38
672.689	77.38
672.892	72.38
