Data from 1962.PennyLincolnUp.Lamp.En5.5.200Scan.071719.P1._HRD10591_13-55-23-061.txt Node
Date: Thu Jul 18 13:55:23 EDT 2019
User: cochatt
Spectrometer: HR+D1059
Trigger mode: 1
Integration Time (sec): 1.000000E-1
Scans to average: 1
Electric dark correction enabled: true
Nonlinearity correction enabled: false
Boxcar width: 0
XAxis mode: Wavelengths
Number of Pixels in Spectrum: 2048
>>>>>Begin Spectral Data<<<<<
223.165	-17.25
223.4	-17.25
223.635	-17.25
223.869	-30.25
224.104	-26.25
224.338	-7.25
224.573	-17.25
224.808	-9.25
225.042	-5.25
225.277	10.75
225.511	-13.25
225.746	12.75
225.98	7.75
226.215	-9.25
226.449	19.75
226.683	15.75
226.918	33.75
227.152	34.75
227.387	21.75
227.621	35.75
227.856	48.75
228.09	47.75
228.324	41.75
228.559	60.75
228.793	67.75
229.027	82.75
229.262	109.75
229.496	106.75
229.73	104.75
229.964	135.75
230.199	112.75
230.433	98.75
230.667	96.75
230.901	99.75
231.136	90.75
231.37	108.75
231.604	99.75
231.838	102.75
232.072	117.75
232.306	121.75
232.541	112.75
232.775	117.75
233.009	109.75
233.243	114.75
233.477	116.75
233.711	131.75
233.945	130.75
234.179	108.75
234.413	116.75
234.647	109.75
234.881	112.75
235.115	122.75
235.349	103.75
235.583	136.75
235.817	113.75
236.051	107.75
236.285	123.75
236.519	121.75
236.753	122.75
236.987	130.75
237.221	162.75
237.455	184.75
237.689	164.75
237.922	128.75
238.156	129.75
238.39	126.75
238.624	113.75
238.858	121.75
239.091	123.75
239.325	121.75
239.559	122.75
239.793	121.75
240.027	137.75
240.26	142.75
240.494	133.75
240.728	129.75
240.961	146.75
241.195	148.75
241.429	132.75
241.662	148.75
241.896	123.75
242.13	136.75
242.363	128.75
242.597	151.75
242.83	129.75
243.064	142.75
243.298	128.75
243.531	138.75
243.765	135.75
243.998	152.75
244.232	128.75
244.465	137.75
244.699	131.75
244.932	160.75
245.166	144.75
245.399	152.75
245.633	150.75
245.866	147.75
246.099	149.75
246.333	133.75
246.566	148.75
246.8	128.75
247.033	155.75
247.266	132.75
247.5	152.75
247.733	165.75
247.966	170.75
248.2	170.75
248.433	182.75
248.666	163.75
248.899	166.75
249.133	166.75
249.366	187.75
249.599	181.75
249.832	154.75
250.066	164.75
250.299	167.75
250.532	166.75
250.765	190.75
250.998	209.75
251.231	190.75
251.465	202.75
251.698	184.75
251.931	189.75
252.164	186.75
252.397	190.75
252.63	180.75
252.863	178.75
253.096	174.75
253.329	216.75
253.562	201.75
253.795	204.75
254.028	213.75
254.261	197.75
254.494	202.75
254.727	242.75
254.96	235.75
255.193	251.75
255.426	228.75
255.659	196.75
255.892	206.75
256.124	207.75
256.357	212.75
256.59	210.75
256.823	212.75
257.056	195.75
257.289	191.75
257.521	202.75
257.754	202.75
257.987	186.75
258.22	189.75
258.452	200.75
258.685	200.75
258.918	204.75
259.151	188.75
259.383	218.75
259.616	200.75
259.849	200.75
260.081	214.75
260.314	235.75
260.547	229.75
260.779	206.75
261.012	212.75
261.244	225.75
261.477	216.75
261.71	211.75
261.942	219.75
262.175	211.75
262.407	216.75
262.64	200.75
262.872	196.75
263.105	209.75
263.337	208.75
263.57	189.75
263.802	212.75
264.035	206.75
264.267	194.75
264.499	221.75
264.732	213.75
264.964	215.75
265.197	185.75
265.429	221.75
265.661	220.75
265.894	220.75
266.126	201.75
266.358	215.75
266.591	216.75
266.823	229.75
267.055	221.75
267.287	206.75
267.52	220.75
267.752	203.75
267.984	212.75
268.216	224.75
268.448	233.75
268.681	225.75
268.913	238.75
269.145	242.75
269.377	248.75
269.609	244.75
269.841	253.75
270.073	253.75
270.306	251.75
270.538	280.75
270.77	280.75
271.002	292.75
271.234	283.75
271.466	280.75
271.698	276.75
271.93	298.75
272.162	299.75
272.394	283.75
272.626	290.75
272.858	276.75
273.09	255.75
273.322	249.75
273.553	256.75
273.785	250.75
274.017	284.75
274.249	258.75
274.481	237.75
274.713	254.75
274.945	256.75
275.176	263.75
275.408	261.75
275.64	260.75
275.872	265.75
276.104	256.75
276.335	269.75
276.567	268.75
276.799	273.75
277.031	290.75
277.262	288.75
277.494	282.75
277.726	283.75
277.957	298.75
278.189	284.75
278.421	269.75
278.652	279.75
278.884	265.75
279.115	268.75
279.347	265.75
279.579	277.75
279.81	284.75
280.042	258.75
280.273	252.75
280.505	265.75
280.736	277.75
280.968	279.75
281.199	271.75
281.431	271.75
281.662	273.75
281.894	281.75
282.125	284.75
282.356	283.75
282.588	299.75
282.819	295.75
283.051	281.75
283.282	276.75
283.513	260.75
283.745	252.75
283.976	285.75
284.207	293.75
284.439	289.75
284.67	295.75
284.901	267.75
285.132	287.75
285.364	281.75
285.595	292.75
285.826	281.75
286.057	298.75
286.288	310.75
286.52	293.75
286.751	280.75
286.982	293.75
287.213	294.75
287.444	288.75
287.675	314.75
287.906	318.75
288.138	283.75
288.369	298.75
288.6	320.75
288.831	314.75
289.062	319.75
289.293	315.75
289.524	287.75
289.755	284.75
289.986	331.75
290.217	306.75
290.448	302.75
290.679	306.75
290.91	296.75
291.141	304.75
291.371	293.75
291.602	301.75
291.833	313.75
292.064	308.75
292.295	304.75
292.526	323.75
292.757	322.75
292.987	302.75
293.218	307.75
293.449	313.75
293.68	309.75
293.91	309.75
294.141	292.75
294.372	302.75
294.603	299.75
294.833	306.75
295.064	296.75
295.295	314.75
295.525	317.75
295.756	311.75
295.987	309.75
296.217	326.75
296.448	326.75
296.679	306.75
296.909	302.75
297.14	314.75
297.37	300.75
297.601	311.75
297.831	311.75
298.062	318.75
298.292	301.75
298.523	305.75
298.753	328.75
298.984	320.75
299.214	320.75
299.445	325.75
299.675	342.75
299.905	313.75
300.136	320.75
300.366	323.75
300.597	313.75
300.827	327.75
301.057	348.75
301.288	339.75
301.518	336.75
301.748	336.75
301.979	358.75
302.209	341.75
302.439	334.75
302.669	334.75
302.9	334.75
303.13	356.75
303.36	348.75
303.59	334.75
303.82	356.75
304.051	350.75
304.281	348.75
304.511	352.75
304.741	340.75
304.971	334.75
305.201	341.75
305.431	328.75
305.661	365.75
305.891	333.75
306.121	351.75
306.352	334.75
306.582	352.75
306.812	325.75
307.042	328.75
307.272	327.75
307.502	346.75
307.731	342.75
307.961	349.75
308.191	338.75
308.421	335.75
308.651	346.75
308.881	344.75
309.111	345.75
309.341	342.75
309.571	340.75
309.8	365.75
310.03	355.75
310.26	365.75
310.49	368.75
310.72	384.75
310.949	382.75
311.179	388.75
311.409	384.75
311.639	381.75
311.868	380.75
312.098	371.75
312.328	381.75
312.557	381.75
312.787	395.75
313.017	408.75
313.246	392.75
313.476	372.75
313.706	374.75
313.935	384.75
314.165	406.75
314.394	378.75
314.624	386.75
314.853	390.75
315.083	395.75
315.312	362.75
315.542	381.75
315.771	364.75
316.001	376.75
316.23	361.75
316.46	375.75
316.689	380.75
316.919	410.75
317.148	381.75
317.377	389.75
317.607	378.75
317.836	372.75
318.065	396.75
318.295	371.75
318.524	366.75
318.753	390.75
318.983	376.75
319.212	369.75
319.441	391.75
319.67	385.75
319.9	373.75
320.129	386.75
320.358	406.75
320.587	384.75
320.816	392.75
321.046	410.75
321.275	409.75
321.504	403.75
321.733	434.75
321.962	402.75
322.191	399.75
322.42	422.75
322.649	412.75
322.878	382.75
323.108	419.75
323.337	424.75
323.566	452.75
323.795	489.75
324.024	482.75
324.253	565.75
324.482	768.75
324.71	1054.75
324.939	1563.75
325.168	1354.75
325.397	754.75
325.626	554.75
325.855	485.75
326.084	461.75
326.313	481.75
326.542	458.75
326.77	495.75
326.999	550.75
327.228	694.75
327.457	987.75
327.686	1192.75
327.914	837.75
328.143	608.75
328.372	546.75
328.6	525.75
328.829	499.75
329.058	496.75
329.287	513.75
329.515	487.75
329.744	466.75
329.972	466.75
330.201	486.75
330.43	517.75
330.658	526.75
330.887	521.75
331.115	522.75
331.344	482.75
331.572	484.75
331.801	475.75
332.03	470.75
332.258	475.75
332.486	465.75
332.715	465.75
332.943	468.75
333.172	496.75
333.4	510.75
333.629	489.75
333.857	505.75
334.085	489.75
334.314	525.75
334.542	528.75
334.771	538.75
334.999	499.75
335.227	501.75
335.455	473.75
335.684	480.75
335.912	466.75
336.14	467.75
336.369	465.75
336.597	478.75
336.825	471.75
337.053	458.75
337.281	461.75
337.51	448.75
337.738	464.75
337.966	451.75
338.194	465.75
338.422	459.75
338.65	446.75
338.878	444.75
339.106	453.75
339.334	458.75
339.562	441.75
339.79	439.75
340.018	433.75
340.246	433.75
340.474	436.75
340.702	433.75
340.93	445.75
341.158	450.75
341.386	431.75
341.614	437.75
341.842	442.75
342.07	424.75
342.298	425.75
342.526	428.75
342.754	421.75
342.981	433.75
343.209	427.75
343.437	425.75
343.665	461.75
343.893	473.75
344.12	465.75
344.348	487.75
344.576	456.75
344.804	440.75
345.031	437.75
345.259	454.75
345.487	434.75
345.714	432.75
345.942	425.75
346.17	437.75
346.397	403.75
346.625	430.75
346.853	417.75
347.08	400.75
347.308	415.75
347.535	421.75
347.763	426.75
347.99	418.75
348.218	421.75
348.445	412.75
348.673	414.75
348.9	415.75
349.128	401.75
349.355	402.75
349.583	398.75
349.81	391.75
350.037	408.75
350.265	410.75
350.492	408.75
350.72	405.75
350.947	412.75
351.174	402.75
351.402	409.75
351.629	397.75
351.856	411.75
352.083	419.75
352.311	427.75
352.538	416.75
352.765	423.75
352.992	414.75
353.22	418.75
353.447	412.75
353.674	410.75
353.901	387.75
354.128	390.75
354.355	405.75
354.583	395.75
354.81	428.75
355.037	395.75
355.264	405.75
355.491	387.75
355.718	394.75
355.945	388.75
356.172	402.75
356.399	422.75
356.626	398.75
356.853	398.75
357.08	383.75
357.307	398.75
357.534	399.75
357.761	397.75
357.988	399.75
358.215	400.75
358.441	403.75
358.668	406.75
358.895	398.75
359.122	405.75
359.349	404.75
359.576	423.75
359.802	416.75
360.029	421.75
360.256	418.75
360.483	427.75
360.709	400.75
360.936	424.75
361.163	418.75
361.39	409.75
361.616	398.75
361.843	420.75
362.07	402.75
362.296	440.75
362.523	425.75
362.749	413.75
362.976	401.75
363.203	411.75
363.429	392.75
363.656	393.75
363.882	387.75
364.109	389.75
364.335	376.75
364.562	417.75
364.788	395.75
365.015	398.75
365.241	404.75
365.468	414.75
365.694	406.75
365.92	415.75
366.147	408.75
366.373	408.75
366.599	394.75
366.826	398.75
367.052	397.75
367.278	379.75
367.505	386.75
367.731	417.75
367.957	405.75
368.184	397.75
368.41	421.75
368.636	413.75
368.862	441.75
369.089	418.75
369.315	399.75
369.541	397.75
369.767	402.75
369.993	402.75
370.219	421.75
370.445	415.75
370.672	397.75
370.898	391.75
371.124	420.75
371.35	403.75
371.576	423.75
371.802	394.75
372.028	391.75
372.254	422.75
372.48	416.75
372.706	437.75
372.932	406.75
373.158	416.75
373.384	424.75
373.61	419.75
373.835	410.75
374.061	410.75
374.287	417.75
374.513	397.75
374.739	420.75
374.965	437.75
375.191	454.75
375.416	441.75
375.642	440.75
375.868	438.75
376.094	404.75
376.319	408.75
376.545	421.75
376.771	396.75
376.997	418.75
377.222	386.75
377.448	404.75
377.674	422.75
377.899	417.75
378.125	410.75
378.35	387.75
378.576	412.75
378.802	400.75
379.027	418.75
379.253	413.75
379.478	414.75
379.704	427.75
379.929	408.75
380.155	389.75
380.38	404.75
380.606	401.75
380.831	406.75
381.057	404.75
381.282	428.75
381.507	434.75
381.733	423.75
381.958	405.75
382.184	407.75
382.409	422.75
382.634	425.75
382.86	402.75
383.085	459.75
383.31	426.75
383.535	416.75
383.761	438.75
383.986	445.75
384.211	457.75
384.436	448.75
384.662	451.75
384.887	461.75
385.112	460.75
385.337	452.75
385.562	471.75
385.787	429.75
386.013	470.75
386.238	484.75
386.463	467.75
386.688	457.75
386.913	472.75
387.138	471.75
387.363	464.75
387.588	472.75
387.813	472.75
388.038	445.75
388.263	469.75
388.488	436.75
388.713	452.75
388.938	466.75
389.163	491.75
389.387	441.75
389.612	472.75
389.837	476.75
390.062	448.75
390.287	484.75
390.512	460.75
390.736	480.75
390.961	486.75
391.186	458.75
391.411	484.75
391.636	475.75
391.86	494.75
392.085	504.75
392.31	510.75
392.534	496.75
392.759	513.75
392.984	468.75
393.208	468.75
393.433	498.75
393.658	497.75
393.882	473.75
394.107	497.75
394.331	474.75
394.556	473.75
394.78	485.75
395.005	488.75
395.229	480.75
395.454	497.75
395.678	518.75
395.903	496.75
396.127	518.75
396.352	524.75
396.576	476.75
396.801	477.75
397.025	512.75
397.249	512.75
397.474	496.75
397.698	530.75
397.922	553.75
398.147	534.75
398.371	542.75
398.595	537.75
398.82	532.75
399.044	560.75
399.268	584.75
399.492	644.75
399.717	683.75
399.941	732.75
400.165	692.75
400.389	702.75
400.613	648.75
400.837	580.75
401.062	570.75
401.286	564.75
401.51	557.75
401.734	555.75
401.958	578.75
402.182	557.75
402.406	555.75
402.63	583.75
402.854	568.75
403.078	572.75
403.302	572.75
403.526	570.75
403.75	576.75
403.974	594.75
404.198	590.75
404.422	578.75
404.645	598.75
404.869	595.75
405.093	641.75
405.317	640.75
405.541	679.75
405.765	646.75
405.988	574.75
406.212	614.75
406.436	636.75
406.66	632.75
406.883	634.75
407.107	664.75
407.331	693.75
407.555	734.75
407.778	731.75
408.002	666.75
408.226	672.75
408.449	638.75
408.673	628.75
408.896	646.75
409.12	655.75
409.344	635.75
409.567	616.75
409.791	610.75
410.014	609.75
410.238	578.75
410.461	573.75
410.685	571.75
410.908	594.75
411.132	617.75
411.355	642.75
411.578	614.75
411.802	572.75
412.025	580.75
412.249	562.75
412.472	605.75
412.695	624.75
412.919	608.75
413.142	565.75
413.365	549.75
413.589	546.75
413.812	570.75
414.035	533.75
414.258	548.75
414.482	531.75
414.705	546.75
414.928	540.75
415.151	543.75
415.374	549.75
415.597	540.75
415.821	538.75
416.044	548.75
416.267	537.75
416.49	534.75
416.713	530.75
416.936	545.75
417.159	522.75
417.382	540.75
417.605	568.75
417.828	566.75
418.051	556.75
418.274	553.75
418.497	562.75
418.72	554.75
418.943	562.75
419.166	561.75
419.389	572.75
419.611	587.75
419.834	597.75
420.057	598.75
420.28	572.75
420.503	552.75
420.726	554.75
420.948	546.75
421.171	581.75
421.394	625.75
421.617	556.75
421.839	553.75
422.062	562.75
422.285	548.75
422.507	630.75
422.73	678.75
422.953	660.75
423.175	597.75
423.398	592.75
423.621	566.75
423.843	599.75
424.066	602.75
424.288	582.75
424.511	606.75
424.733	636.75
424.956	708.75
425.178	681.75
425.401	683.75
425.623	694.75
425.846	592.75
426.068	573.75
426.291	566.75
426.513	554.75
426.735	606.75
426.958	629.75
427.18	669.75
427.402	787.75
427.625	870.75
427.847	704.75
428.069	632.75
428.292	597.75
428.514	548.75
428.736	557.75
428.958	549.75
429.181	533.75
429.403	503.75
429.625	523.75
429.847	553.75
430.069	600.75
430.292	626.75
430.514	534.75
430.736	535.75
430.958	520.75
431.18	512.75
431.402	518.75
431.624	503.75
431.846	504.75
432.068	531.75
432.29	518.75
432.512	528.75
432.734	512.75
432.956	518.75
433.178	516.75
433.4	518.75
433.622	519.75
433.844	516.75
434.066	513.75
434.287	512.75
434.509	534.75
434.731	516.75
434.953	558.75
435.175	576.75
435.397	590.75
435.618	557.75
435.84	611.75
436.062	673.75
436.284	708.75
436.505	604.75
436.727	556.75
436.949	536.75
437.17	544.75
437.392	531.75
437.614	521.75
437.835	562.75
438.057	629.75
438.278	686.75
438.5	707.75
438.721	761.75
438.943	777.75
439.165	607.75
439.386	565.75
439.608	573.75
439.829	580.75
440.05	574.75
440.272	591.75
440.493	605.75
440.715	569.75
440.936	556.75
441.158	511.75
441.379	532.75
441.6	548.75
441.822	578.75
442.043	615.75
442.264	658.75
442.486	688.75
442.707	626.75
442.928	586.75
443.149	564.75
443.371	603.75
443.592	625.75
443.813	710.75
444.034	757.75
444.255	664.75
444.476	615.75
444.698	597.75
444.919	630.75
445.14	728.75
445.361	635.75
445.582	632.75
445.803	662.75
446.024	729.75
446.245	711.75
446.466	668.75
446.687	593.75
446.908	581.75
447.129	552.75
447.35	540.75
447.571	516.75
447.792	516.75
448.013	532.75
448.234	538.75
448.455	569.75
448.675	629.75
448.896	755.75
449.117	628.75
449.338	581.75
449.559	711.75
449.779	759.75
450	654.75
450.221	548.75
450.442	521.75
450.662	515.75
450.883	524.75
451.104	528.75
451.324	503.75
451.545	509.75
451.766	493.75
451.986	462.75
452.207	452.75
452.428	473.75
452.648	460.75
452.869	466.75
453.089	438.75
453.31	470.75
453.53	469.75
453.751	469.75
453.971	457.75
454.192	476.75
454.412	490.75
454.633	453.75
454.853	461.75
455.073	435.75
455.294	490.75
455.514	536.75
455.734	518.75
455.955	485.75
456.175	451.75
456.395	428.75
456.616	451.75
456.836	444.75
457.056	462.75
457.276	447.75
457.497	464.75
457.717	442.75
457.937	441.75
458.157	463.75
458.377	446.75
458.598	469.75
458.818	501.75
459.038	577.75
459.258	586.75
459.478	544.75
459.698	512.75
459.918	526.75
460.138	538.75
460.358	537.75
460.578	549.75
460.798	581.75
461.018	556.75
461.238	560.75
461.458	562.75
461.678	537.75
461.898	552.75
462.118	553.75
462.338	553.75
462.558	572.75
462.777	590.75
462.997	644.75
463.217	648.75
463.437	645.75
463.657	609.75
463.876	619.75
464.096	621.75
464.316	589.75
464.536	608.75
464.755	590.75
464.975	587.75
465.195	610.75
465.414	604.75
465.634	568.75
465.854	519.75
466.073	554.75
466.293	505.75
466.512	500.75
466.732	504.75
466.951	485.75
467.171	462.75
467.391	500.75
467.61	496.75
467.829	509.75
468.049	498.75
468.268	483.75
468.488	467.75
468.707	460.75
468.927	484.75
469.146	463.75
469.365	481.75
469.585	499.75
469.804	478.75
470.023	472.75
470.243	482.75
470.462	512.75
470.681	518.75
470.901	513.75
471.12	510.75
471.339	475.75
471.558	515.75
471.777	504.75
471.997	501.75
472.216	514.75
472.435	521.75
472.654	491.75
472.873	500.75
473.092	479.75
473.311	479.75
473.53	492.75
473.749	510.75
473.968	528.75
474.187	588.75
474.406	612.75
474.625	541.75
474.844	492.75
475.063	504.75
475.282	505.75
475.501	481.75
475.72	502.75
475.939	508.75
476.158	505.75
476.377	515.75
476.596	485.75
476.814	506.75
477.033	514.75
477.252	499.75
477.471	524.75
477.69	538.75
477.908	534.75
478.127	561.75
478.346	564.75
478.564	562.75
478.783	557.75
479.002	570.75
479.22	584.75
479.439	573.75
479.658	586.75
479.876	597.75
480.095	618.75
480.313	640.75
480.532	624.75
480.751	629.75
480.969	613.75
481.188	624.75
481.406	630.75
481.624	601.75
481.843	604.75
482.061	586.75
482.28	584.75
482.498	567.75
482.717	590.75
482.935	539.75
483.153	565.75
483.372	571.75
483.59	568.75
483.808	562.75
484.027	580.75
484.245	570.75
484.463	577.75
484.681	586.75
484.9	563.75
485.118	577.75
485.336	598.75
485.554	586.75
485.772	618.75
485.99	611.75
486.209	577.75
486.427	600.75
486.645	586.75
486.863	587.75
487.081	628.75
487.299	603.75
487.517	593.75
487.735	589.75
487.953	598.75
488.171	594.75
488.389	598.75
488.607	580.75
488.825	599.75
489.043	618.75
489.261	623.75
489.479	622.75
489.696	589.75
489.914	629.75
490.132	634.75
490.35	631.75
490.568	628.75
490.786	628.75
491.003	636.75
491.221	642.75
491.439	671.75
491.657	644.75
491.874	666.75
492.092	655.75
492.31	677.75
492.527	684.75
492.745	668.75
492.963	682.75
493.18	684.75
493.398	710.75
493.615	695.75
493.833	674.75
494.05	709.75
494.268	701.75
494.485	685.75
494.703	645.75
494.92	690.75
495.138	684.75
495.355	701.75
495.573	702.75
495.79	711.75
496.008	716.75
496.225	715.75
496.442	721.75
496.66	685.75
496.877	696.75
497.094	728.75
497.312	716.75
497.529	749.75
497.746	756.75
497.963	770.75
498.181	805.75
498.398	810.75
498.615	811.75
498.832	870.75
499.049	896.75
499.267	878.75
499.484	960.75
499.701	1035.75
499.918	1102.75
500.135	1129.75
500.352	1241.75
500.569	1280.75
500.786	1262.75
501.003	1210.75
501.22	1163.75
501.437	1096.75
501.654	1043.75
501.871	951.75
502.088	971.75
502.305	918.75
502.522	852.75
502.739	841.75
502.956	813.75
503.172	795.75
503.389	774.75
503.606	767.75
503.823	736.75
504.04	707.75
504.256	761.75
504.473	758.75
504.69	756.75
504.907	740.75
505.123	711.75
505.34	698.75
505.557	684.75
505.773	682.75
505.99	672.75
506.207	646.75
506.423	654.75
506.64	644.75
506.856	608.75
507.073	651.75
507.289	637.75
507.506	645.75
507.722	651.75
507.939	648.75
508.155	621.75
508.372	648.75
508.588	605.75
508.805	613.75
509.021	622.75
509.238	639.75
509.454	638.75
509.67	602.75
509.887	616.75
510.103	630.75
510.319	606.75
510.536	661.75
510.752	908.75
510.968	778.75
511.184	619.75
511.401	585.75
511.617	595.75
511.833	579.75
512.049	581.75
512.265	572.75
512.481	587.75
512.698	560.75
512.914	583.75
513.13	576.75
513.346	595.75
513.562	598.75
513.778	581.75
513.994	586.75
514.21	584.75
514.426	572.75
514.642	613.75
514.858	608.75
515.074	666.75
515.29	722.75
515.506	890.75
515.721	776.75
515.937	666.75
516.153	648.75
516.369	649.75
516.585	628.75
516.801	630.75
517.016	643.75
517.232	648.75
517.448	652.75
517.664	673.75
517.879	678.75
518.095	675.75
518.311	644.75
518.527	654.75
518.742	603.75
518.958	608.75
519.173	610.75
519.389	609.75
519.605	589.75
519.82	581.75
520.036	578.75
520.251	599.75
520.467	611.75
520.682	602.75
520.898	600.75
521.113	604.75
521.329	609.75
521.544	661.75
521.76	743.75
521.975	1020.75
522.19	1014.75
522.406	678.75
522.621	597.75
522.836	568.75
523.052	572.75
523.267	551.75
523.482	543.75
523.698	533.75
523.913	553.75
524.128	522.75
524.343	533.75
524.559	538.75
524.774	533.75
524.989	496.75
525.204	501.75
525.419	494.75
525.634	506.75
525.849	506.75
526.064	484.75
526.28	520.75
526.495	500.75
526.71	517.75
526.925	493.75
527.14	501.75
527.355	496.75
527.57	500.75
527.785	492.75
527.999	492.75
528.214	477.75
528.429	508.75
528.644	499.75
528.859	486.75
529.074	483.75
529.289	500.75
529.503	530.75
529.718	516.75
529.933	502.75
530.148	502.75
530.363	478.75
530.577	486.75
530.792	493.75
531.007	497.75
531.221	482.75
531.436	474.75
531.651	496.75
531.865	458.75
532.08	487.75
532.295	493.75
532.509	485.75
532.724	474.75
532.938	479.75
533.153	473.75
533.367	496.75
533.582	477.75
533.796	480.75
534.011	476.75
534.225	473.75
534.44	459.75
534.654	475.75
534.868	472.75
535.083	453.75
535.297	470.75
535.511	488.75
535.726	461.75
535.94	481.75
536.154	460.75
536.369	455.75
536.583	468.75
536.797	457.75
537.011	460.75
537.225	480.75
537.44	457.75
537.654	443.75
537.868	469.75
538.082	457.75
538.296	453.75
538.51	470.75
538.724	468.75
538.938	455.75
539.153	453.75
539.367	454.75
539.581	459.75
539.795	460.75
540.009	440.75
540.222	463.75
540.436	434.75
540.65	441.75
540.864	459.75
541.078	471.75
541.292	451.75
541.506	465.75
541.72	425.75
541.934	446.75
542.147	456.75
542.361	463.75
542.575	456.75
542.789	462.75
543.002	443.75
543.216	465.75
543.43	466.75
543.644	450.75
543.857	459.75
544.071	449.75
544.285	444.75
544.498	459.75
544.712	441.75
544.925	445.75
545.139	448.75
545.352	463.75
545.566	453.75
545.779	457.75
545.993	434.75
546.206	447.75
546.42	451.75
546.633	447.75
546.847	456.75
547.06	458.75
547.274	448.75
547.487	445.75
547.7	449.75
547.914	439.75
548.127	463.75
548.34	450.75
548.554	451.75
548.767	454.75
548.98	468.75
549.193	453.75
549.407	460.75
549.62	446.75
549.833	441.75
550.046	469.75
550.259	462.75
550.473	441.75
550.686	453.75
550.899	449.75
551.112	448.75
551.325	447.75
551.538	432.75
551.751	438.75
551.964	428.75
552.177	449.75
552.39	432.75
552.603	449.75
552.816	445.75
553.029	460.75
553.242	454.75
553.455	463.75
553.667	466.75
553.88	448.75
554.093	457.75
554.306	451.75
554.519	474.75
554.732	451.75
554.944	440.75
555.157	438.75
555.37	420.75
555.583	423.75
555.795	419.75
556.008	423.75
556.221	414.75
556.433	425.75
556.646	401.75
556.859	421.75
557.071	414.75
557.284	412.75
557.496	416.75
557.709	415.75
557.921	404.75
558.134	407.75
558.346	405.75
558.559	410.75
558.771	413.75
558.984	383.75
559.196	408.75
559.409	384.75
559.621	410.75
559.833	402.75
560.046	407.75
560.258	393.75
560.47	402.75
560.683	407.75
560.895	392.75
561.107	401.75
561.32	386.75
561.532	399.75
561.744	373.75
561.956	393.75
562.168	380.75
562.381	388.75
562.593	398.75
562.805	405.75
563.017	378.75
563.229	394.75
563.441	395.75
563.653	388.75
563.865	396.75
564.077	410.75
564.289	399.75
564.501	408.75
564.713	409.75
564.925	413.75
565.137	449.75
565.349	456.75
565.561	447.75
565.773	445.75
565.985	466.75
566.197	485.75
566.408	506.75
566.62	543.75
566.832	525.75
567.044	575.75
567.255	557.75
567.467	544.75
567.679	569.75
567.891	573.75
568.102	588.75
568.314	578.75
568.526	566.75
568.737	533.75
568.949	508.75
569.161	476.75
569.372	470.75
569.584	441.75
569.795	434.75
570.007	430.75
570.218	428.75
570.43	420.75
570.641	423.75
570.853	411.75
571.064	406.75
571.276	394.75
571.487	384.75
571.698	398.75
571.91	388.75
572.121	378.75
572.333	362.75
572.544	379.75
572.755	369.75
572.966	368.75
573.178	365.75
573.389	372.75
573.6	344.75
573.811	349.75
574.023	352.75
574.234	351.75
574.445	348.75
574.656	355.75
574.867	329.75
575.078	328.75
575.289	325.75
575.501	338.75
575.712	333.75
575.923	350.75
576.134	353.75
576.345	334.75
576.556	340.75
576.767	336.75
576.978	327.75
577.188	337.75
577.399	335.75
577.61	324.75
577.821	334.75
578.032	312.75
578.243	360.75
578.454	449.75
578.665	383.75
578.875	351.75
579.086	317.75
579.297	328.75
579.508	320.75
579.718	324.75
579.929	324.75
580.14	314.75
580.35	324.75
580.561	324.75
580.772	312.75
580.982	304.75
581.193	314.75
581.403	311.75
581.614	308.75
581.825	321.75
582.035	306.75
582.246	320.75
582.456	300.75
582.667	309.75
582.877	308.75
583.087	322.75
583.298	314.75
583.508	300.75
583.719	306.75
583.929	328.75
584.139	311.75
584.35	302.75
584.56	309.75
584.77	312.75
584.981	311.75
585.191	295.75
585.401	297.75
585.611	288.75
585.821	304.75
586.032	317.75
586.242	277.75
586.452	306.75
586.662	294.75
586.872	305.75
587.082	299.75
587.292	322.75
587.502	299.75
587.713	312.75
587.923	290.75
588.133	292.75
588.343	281.75
588.553	299.75
588.762	315.75
588.972	299.75
589.182	332.75
589.392	315.75
589.602	308.75
589.812	309.75
590.022	316.75
590.232	301.75
590.441	318.75
590.651	315.75
590.861	307.75
591.071	312.75
591.281	309.75
591.49	312.75
591.7	315.75
591.91	308.75
592.119	317.75
592.329	326.75
592.539	333.75
592.748	327.75
592.958	346.75
593.167	338.75
593.377	345.75
593.587	355.75
593.796	337.75
594.006	360.75
594.215	354.75
594.424	357.75
594.634	352.75
594.843	339.75
595.053	344.75
595.262	346.75
595.472	319.75
595.681	321.75
595.89	308.75
596.1	291.75
596.309	292.75
596.518	299.75
596.727	301.75
596.937	298.75
597.146	304.75
597.355	301.75
597.564	300.75
597.774	265.75
597.983	279.75
598.192	265.75
598.401	284.75
598.61	284.75
598.819	260.75
599.028	252.75
599.237	268.75
599.446	297.75
599.655	248.75
599.864	262.75
600.073	254.75
600.282	258.75
600.491	269.75
600.7	271.75
600.909	266.75
601.118	269.75
601.327	240.75
601.536	259.75
601.745	263.75
601.953	269.75
602.162	241.75
602.371	257.75
602.58	265.75
602.789	254.75
602.997	273.75
603.206	239.75
603.415	271.75
603.623	270.75
603.832	258.75
604.041	233.75
604.249	249.75
604.458	249.75
604.666	250.75
604.875	264.75
605.084	244.75
605.292	254.75
605.501	255.75
605.709	237.75
605.918	269.75
606.126	244.75
606.334	241.75
606.543	219.75
606.751	245.75
606.96	238.75
607.168	260.75
607.376	238.75
607.585	248.75
607.793	250.75
608.001	245.75
608.21	253.75
608.418	249.75
608.626	235.75
608.834	241.75
609.043	237.75
609.251	256.75
609.459	235.75
609.667	248.75
609.875	248.75
610.083	225.75
610.291	240.75
610.499	228.75
610.707	228.75
610.916	233.75
611.124	238.75
611.332	259.75
611.54	240.75
611.748	241.75
611.955	259.75
612.163	227.75
612.371	239.75
612.579	243.75
612.787	237.75
612.995	234.75
613.203	248.75
613.411	240.75
613.618	246.75
613.826	242.75
614.034	228.75
614.242	217.75
614.449	219.75
614.657	222.75
614.865	236.75
615.072	236.75
615.28	243.75
615.488	230.75
615.695	248.75
615.903	247.75
616.111	256.75
616.318	238.75
616.526	229.75
616.733	241.75
616.941	236.75
617.148	229.75
617.356	257.75
617.563	218.75
617.771	243.75
617.978	245.75
618.185	230.75
618.393	246.75
618.6	241.75
618.807	226.75
619.015	214.75
619.222	241.75
619.429	229.75
619.637	226.75
619.844	228.75
620.051	224.75
620.258	231.75
620.466	217.75
620.673	229.75
620.88	235.75
621.087	221.75
621.294	217.75
621.501	215.75
621.708	218.75
621.915	228.75
622.122	226.75
622.329	222.75
622.536	230.75
622.743	218.75
622.95	221.75
623.157	246.75
623.364	222.75
623.571	214.75
623.778	209.75
623.985	228.75
624.192	216.75
624.399	227.75
624.606	213.75
624.812	217.75
625.019	220.75
625.226	219.75
625.433	213.75
625.639	227.75
625.846	210.75
626.053	214.75
626.259	211.75
626.466	219.75
626.673	208.75
626.879	208.75
627.086	202.75
627.293	196.75
627.499	212.75
627.706	222.75
627.912	210.75
628.119	224.75
628.325	193.75
628.532	202.75
628.738	220.75
628.945	205.75
629.151	213.75
629.357	196.75
629.564	194.75
629.77	204.75
629.976	198.75
630.183	199.75
630.389	196.75
630.595	173.75
630.802	192.75
631.008	184.75
631.214	198.75
631.42	203.75
631.627	193.75
631.833	183.75
632.039	177.75
632.245	191.75
632.451	198.75
632.657	190.75
632.863	200.75
633.069	183.75
633.275	192.75
633.481	196.75
633.688	183.75
633.893	195.75
634.099	196.75
634.305	192.75
634.511	191.75
634.717	181.75
634.923	194.75
635.129	188.75
635.335	179.75
635.541	183.75
635.747	186.75
635.952	173.75
636.158	171.75
636.364	176.75
636.57	176.75
636.775	176.75
636.981	193.75
637.187	167.75
637.392	180.75
637.598	176.75
637.804	185.75
638.009	184.75
638.215	179.75
638.421	187.75
638.626	161.75
638.832	178.75
639.037	194.75
639.243	194.75
639.448	174.75
639.654	178.75
639.859	168.75
640.065	171.75
640.27	187.75
640.475	182.75
640.681	168.75
640.886	168.75
641.091	170.75
641.297	168.75
641.502	165.75
641.707	165.75
641.913	187.75
642.118	182.75
642.323	162.75
642.528	165.75
642.733	172.75
642.939	161.75
643.144	173.75
643.349	177.75
643.554	144.75
643.759	161.75
643.964	176.75
644.169	169.75
644.374	157.75
644.579	177.75
644.784	180.75
644.989	153.75
645.194	158.75
645.399	160.75
645.604	176.75
645.809	165.75
646.014	161.75
646.219	176.75
646.423	168.75
646.628	180.75
646.833	174.75
647.038	161.75
647.243	181.75
647.447	167.75
647.652	158.75
647.857	163.75
648.062	171.75
648.266	182.75
648.471	157.75
648.676	171.75
648.88	176.75
649.085	183.75
649.289	165.75
649.494	156.75
649.698	182.75
649.903	173.75
650.107	169.75
650.312	164.75
650.516	163.75
650.721	159.75
650.925	155.75
651.13	163.75
651.334	165.75
651.539	150.75
651.743	160.75
651.947	155.75
652.152	159.75
652.356	156.75
652.56	138.75
652.764	145.75
652.969	147.75
653.173	148.75
653.377	146.75
653.581	161.75
653.785	141.75
653.99	131.75
654.194	130.75
654.398	130.75
654.602	124.75
654.806	130.75
655.01	138.75
655.214	132.75
655.418	152.75
655.622	145.75
655.826	140.75
656.03	146.75
656.234	155.75
656.438	140.75
656.642	121.75
656.846	143.75
657.049	139.75
657.253	135.75
657.457	117.75
657.661	117.75
657.865	113.75
658.068	116.75
658.272	103.75
658.476	121.75
658.68	105.75
658.883	101.75
659.087	94.75
659.291	105.75
659.494	117.75
659.698	96.75
659.901	96.75
660.105	99.75
660.309	106.75
660.512	99.75
660.716	97.75
660.919	98.75
661.123	94.75
661.326	90.75
661.53	87.75
661.733	91.75
661.936	100.75
662.14	89.75
662.343	81.75
662.546	90.75
662.75	87.75
662.953	90.75
663.156	93.75
663.36	95.75
663.563	84.75
663.766	84.75
663.969	86.75
664.173	81.75
664.376	85.75
664.579	80.75
664.782	75.75
664.985	89.75
665.188	73.75
665.391	85.75
665.594	84.75
665.797	88.75
666	79.75
666.203	62.75
666.406	81.75
666.609	88.75
666.812	76.75
667.015	85.75
667.218	89.75
667.421	82.75
667.624	90.75
667.827	69.75
668.03	83.75
668.232	72.75
668.435	84.75
668.638	91.75
668.841	77.75
669.043	91.75
669.246	75.75
669.449	86.75
669.651	83.75
669.854	90.75
670.057	101.75
670.259	95.75
670.462	96.75
670.665	76.75
670.867	68.75
671.07	83.75
671.272	87.75
671.475	80.75
671.677	92.75
671.88	77.75
672.082	78.75
672.284	92.75
672.487	98.75
672.689	78.75
672.892	75.75
