Data from 1962.PennyLincolnUp.Lamp.En5.5.200Scan.071719.P1._HRD10591_13-53-41-060.txt Node
Date: Thu Jul 18 13:53:41 EDT 2019
User: cochatt
Spectrometer: HR+D1059
Trigger mode: 1
Integration Time (sec): 1.000000E-1
Scans to average: 1
Electric dark correction enabled: true
Nonlinearity correction enabled: false
Boxcar width: 0
XAxis mode: Wavelengths
Number of Pixels in Spectrum: 2048
>>>>>Begin Spectral Data<<<<<
223.165	-6.94
223.4	-6.94
223.635	-6.94
223.869	-19.94
224.104	-18.94
224.338	-21.94
224.573	-14.94
224.808	-8.94
225.042	-12.94
225.277	4.06
225.511	3.06
225.746	5.06
225.98	8.06
226.215	12.06
226.449	11.06
226.683	14.06
226.918	23.06
227.152	24.06
227.387	28.06
227.621	40.06
227.856	41.06
228.09	58.06
228.324	60.06
228.559	64.06
228.793	76.06
229.027	86.06
229.262	75.06
229.496	94.06
229.73	116.06
229.964	120.06
230.199	111.06
230.433	109.06
230.667	108.06
230.901	88.06
231.136	104.06
231.37	106.06
231.604	126.06
231.838	109.06
232.072	96.06
232.306	122.06
232.541	126.06
232.775	117.06
233.009	120.06
233.243	109.06
233.477	121.06
233.711	121.06
233.945	126.06
234.179	118.06
234.413	116.06
234.647	105.06
234.881	132.06
235.115	105.06
235.349	120.06
235.583	120.06
235.817	121.06
236.051	111.06
236.285	121.06
236.519	114.06
236.753	128.06
236.987	126.06
237.221	133.06
237.455	175.06
237.689	175.06
237.922	125.06
238.156	139.06
238.39	123.06
238.624	119.06
238.858	116.06
239.091	129.06
239.325	116.06
239.559	118.06
239.793	109.06
240.027	112.06
240.26	123.06
240.494	143.06
240.728	134.06
240.961	129.06
241.195	134.06
241.429	120.06
241.662	128.06
241.896	122.06
242.13	131.06
242.363	112.06
242.597	128.06
242.83	131.06
243.064	135.06
243.298	136.06
243.531	133.06
243.765	136.06
243.998	142.06
244.232	145.06
244.465	139.06
244.699	147.06
244.932	144.06
245.166	141.06
245.399	139.06
245.633	144.06
245.866	131.06
246.099	140.06
246.333	135.06
246.566	155.06
246.8	137.06
247.033	154.06
247.266	138.06
247.5	145.06
247.733	154.06
247.966	180.06
248.2	159.06
248.433	160.06
248.666	172.06
248.899	173.06
249.133	178.06
249.366	184.06
249.599	162.06
249.832	175.06
250.066	166.06
250.299	158.06
250.532	172.06
250.765	157.06
250.998	186.06
251.231	208.06
251.465	191.06
251.698	190.06
251.931	176.06
252.164	173.06
252.397	175.06
252.63	166.06
252.863	184.06
253.096	178.06
253.329	198.06
253.562	196.06
253.795	203.06
254.028	193.06
254.261	195.06
254.494	203.06
254.727	204.06
254.96	217.06
255.193	226.06
255.426	206.06
255.659	201.06
255.892	206.06
256.124	216.06
256.357	218.06
256.59	203.06
256.823	200.06
257.056	187.06
257.289	202.06
257.521	184.06
257.754	187.06
257.987	190.06
258.22	196.06
258.452	185.06
258.685	189.06
258.918	204.06
259.151	202.06
259.383	191.06
259.616	200.06
259.849	222.06
260.081	209.06
260.314	199.06
260.547	227.06
260.779	208.06
261.012	197.06
261.244	201.06
261.477	216.06
261.71	208.06
261.942	198.06
262.175	187.06
262.407	208.06
262.64	206.06
262.872	203.06
263.105	208.06
263.337	194.06
263.57	201.06
263.802	200.06
264.035	197.06
264.267	192.06
264.499	198.06
264.732	212.06
264.964	196.06
265.197	205.06
265.429	209.06
265.661	204.06
265.894	213.06
266.126	200.06
266.358	209.06
266.591	202.06
266.823	218.06
267.055	219.06
267.287	200.06
267.52	223.06
267.752	217.06
267.984	210.06
268.216	219.06
268.448	216.06
268.681	220.06
268.913	231.06
269.145	228.06
269.377	231.06
269.609	241.06
269.841	253.06
270.073	244.06
270.306	266.06
270.538	251.06
270.77	266.06
271.002	267.06
271.234	255.06
271.466	255.06
271.698	269.06
271.93	273.06
272.162	281.06
272.394	281.06
272.626	262.06
272.858	237.06
273.09	248.06
273.322	237.06
273.553	250.06
273.785	254.06
274.017	238.06
274.249	277.06
274.481	256.06
274.713	246.06
274.945	257.06
275.176	258.06
275.408	245.06
275.64	237.06
275.872	256.06
276.104	254.06
276.335	251.06
276.567	256.06
276.799	250.06
277.031	251.06
277.262	271.06
277.494	268.06
277.726	259.06
277.957	272.06
278.189	257.06
278.421	263.06
278.652	261.06
278.884	263.06
279.115	265.06
279.347	252.06
279.579	251.06
279.81	264.06
280.042	242.06
280.273	265.06
280.505	300.06
280.736	267.06
280.968	248.06
281.199	256.06
281.431	257.06
281.662	267.06
281.894	257.06
282.125	252.06
282.356	261.06
282.588	284.06
282.819	284.06
283.051	271.06
283.282	253.06
283.513	267.06
283.745	271.06
283.976	277.06
284.207	281.06
284.439	285.06
284.67	273.06
284.901	264.06
285.132	270.06
285.364	267.06
285.595	277.06
285.826	259.06
286.057	289.06
286.288	265.06
286.52	274.06
286.751	264.06
286.982	286.06
287.213	290.06
287.444	296.06
287.675	284.06
287.906	279.06
288.138	297.06
288.369	290.06
288.6	295.06
288.831	286.06
289.062	287.06
289.293	287.06
289.524	283.06
289.755	299.06
289.986	300.06
290.217	277.06
290.448	278.06
290.679	297.06
290.91	286.06
291.141	288.06
291.371	295.06
291.602	285.06
291.833	296.06
292.064	269.06
292.295	282.06
292.526	291.06
292.757	290.06
292.987	287.06
293.218	282.06
293.449	297.06
293.68	277.06
293.91	301.06
294.141	285.06
294.372	295.06
294.603	283.06
294.833	310.06
295.064	294.06
295.295	303.06
295.525	301.06
295.756	309.06
295.987	314.06
296.217	321.06
296.448	316.06
296.679	311.06
296.909	299.06
297.14	305.06
297.37	310.06
297.601	311.06
297.831	313.06
298.062	316.06
298.292	309.06
298.523	306.06
298.753	304.06
298.984	315.06
299.214	305.06
299.445	328.06
299.675	318.06
299.905	330.06
300.136	301.06
300.366	293.06
300.597	319.06
300.827	302.06
301.057	320.06
301.288	331.06
301.518	315.06
301.748	324.06
301.979	322.06
302.209	316.06
302.439	317.06
302.669	340.06
302.9	329.06
303.13	314.06
303.36	334.06
303.59	328.06
303.82	328.06
304.051	333.06
304.281	346.06
304.511	334.06
304.741	339.06
304.971	302.06
305.201	320.06
305.431	317.06
305.661	332.06
305.891	326.06
306.121	329.06
306.352	326.06
306.582	343.06
306.812	338.06
307.042	333.06
307.272	329.06
307.502	306.06
307.731	334.06
307.961	325.06
308.191	329.06
308.421	332.06
308.651	334.06
308.881	320.06
309.111	323.06
309.341	315.06
309.571	336.06
309.8	330.06
310.03	319.06
310.26	358.06
310.49	348.06
310.72	342.06
310.949	365.06
311.179	361.06
311.409	352.06
311.639	347.06
311.868	351.06
312.098	352.06
312.328	353.06
312.557	364.06
312.787	368.06
313.017	364.06
313.246	363.06
313.476	339.06
313.706	349.06
313.935	333.06
314.165	361.06
314.394	358.06
314.624	370.06
314.853	362.06
315.083	376.06
315.312	356.06
315.542	350.06
315.771	340.06
316.001	350.06
316.23	360.06
316.46	334.06
316.689	346.06
316.919	354.06
317.148	384.06
317.377	354.06
317.607	358.06
317.836	353.06
318.065	366.06
318.295	361.06
318.524	377.06
318.753	360.06
318.983	360.06
319.212	369.06
319.441	342.06
319.67	369.06
319.9	355.06
320.129	375.06
320.358	362.06
320.587	367.06
320.816	360.06
321.046	360.06
321.275	357.06
321.504	379.06
321.733	366.06
321.962	384.06
322.191	384.06
322.42	385.06
322.649	382.06
322.878	373.06
323.108	398.06
323.337	399.06
323.566	404.06
323.795	420.06
324.024	434.06
324.253	506.06
324.482	641.06
324.71	901.06
324.939	1218.06
325.168	1078.06
325.397	640.06
325.626	472.06
325.855	453.06
326.084	431.06
326.313	441.06
326.542	421.06
326.77	455.06
326.999	495.06
327.228	617.06
327.457	826.06
327.686	953.06
327.914	685.06
328.143	518.06
328.372	486.06
328.6	455.06
328.829	454.06
329.058	452.06
329.287	449.06
329.515	454.06
329.744	428.06
329.972	420.06
330.201	435.06
330.43	444.06
330.658	476.06
330.887	485.06
331.115	477.06
331.344	443.06
331.572	431.06
331.801	452.06
332.03	452.06
332.258	419.06
332.486	425.06
332.715	436.06
332.943	442.06
333.172	430.06
333.4	425.06
333.629	452.06
333.857	461.06
334.085	484.06
334.314	482.06
334.542	492.06
334.771	482.06
334.999	479.06
335.227	458.06
335.455	476.06
335.684	445.06
335.912	447.06
336.14	454.06
336.369	435.06
336.597	444.06
336.825	440.06
337.053	428.06
337.281	446.06
337.51	433.06
337.738	414.06
337.966	414.06
338.194	410.06
338.422	423.06
338.65	422.06
338.878	439.06
339.106	419.06
339.334	417.06
339.562	419.06
339.79	429.06
340.018	415.06
340.246	428.06
340.474	428.06
340.702	416.06
340.93	424.06
341.158	416.06
341.386	406.06
341.614	406.06
341.842	402.06
342.07	396.06
342.298	410.06
342.526	410.06
342.754	402.06
342.981	395.06
343.209	401.06
343.437	410.06
343.665	420.06
343.893	443.06
344.12	474.06
344.348	458.06
344.576	448.06
344.804	428.06
345.031	442.06
345.259	434.06
345.487	421.06
345.714	403.06
345.942	388.06
346.17	398.06
346.397	388.06
346.625	398.06
346.853	375.06
347.08	377.06
347.308	396.06
347.535	396.06
347.763	415.06
347.99	401.06
348.218	409.06
348.445	391.06
348.673	399.06
348.9	390.06
349.128	418.06
349.355	379.06
349.583	384.06
349.81	390.06
350.037	368.06
350.265	377.06
350.492	390.06
350.72	388.06
350.947	403.06
351.174	380.06
351.402	398.06
351.629	419.06
351.856	393.06
352.083	386.06
352.311	396.06
352.538	387.06
352.765	410.06
352.992	405.06
353.22	398.06
353.447	381.06
353.674	369.06
353.901	387.06
354.128	389.06
354.355	355.06
354.583	377.06
354.81	360.06
355.037	380.06
355.264	372.06
355.491	377.06
355.718	368.06
355.945	368.06
356.172	380.06
356.399	374.06
356.626	378.06
356.853	378.06
357.08	357.06
357.307	382.06
357.534	377.06
357.761	382.06
357.988	386.06
358.215	364.06
358.441	392.06
358.668	389.06
358.895	379.06
359.122	376.06
359.349	381.06
359.576	383.06
359.802	398.06
360.029	414.06
360.256	421.06
360.483	401.06
360.709	393.06
360.936	399.06
361.163	370.06
361.39	391.06
361.616	405.06
361.843	394.06
362.07	384.06
362.296	392.06
362.523	409.06
362.749	398.06
362.976	379.06
363.203	415.06
363.429	381.06
363.656	378.06
363.882	408.06
364.109	385.06
364.335	386.06
364.562	386.06
364.788	377.06
365.015	377.06
365.241	375.06
365.468	386.06
365.694	392.06
365.92	398.06
366.147	376.06
366.373	380.06
366.599	386.06
366.826	402.06
367.052	381.06
367.278	375.06
367.505	378.06
367.731	377.06
367.957	392.06
368.184	406.06
368.41	376.06
368.636	388.06
368.862	388.06
369.089	388.06
369.315	384.06
369.541	374.06
369.767	386.06
369.993	376.06
370.219	389.06
370.445	396.06
370.672	384.06
370.898	386.06
371.124	390.06
371.35	378.06
371.576	380.06
371.802	395.06
372.028	396.06
372.254	400.06
372.48	402.06
372.706	400.06
372.932	410.06
373.158	385.06
373.384	390.06
373.61	409.06
373.835	420.06
374.061	385.06
374.287	399.06
374.513	407.06
374.739	414.06
374.965	416.06
375.191	414.06
375.416	401.06
375.642	402.06
375.868	396.06
376.094	383.06
376.319	406.06
376.545	397.06
376.771	376.06
376.997	384.06
377.222	400.06
377.448	390.06
377.674	400.06
377.899	372.06
378.125	380.06
378.35	385.06
378.576	381.06
378.802	401.06
379.027	395.06
379.253	386.06
379.478	365.06
379.704	399.06
379.929	387.06
380.155	402.06
380.38	394.06
380.606	402.06
380.831	385.06
381.057	410.06
381.282	385.06
381.507	389.06
381.733	405.06
381.958	402.06
382.184	415.06
382.409	390.06
382.634	410.06
382.86	410.06
383.085	423.06
383.31	418.06
383.535	440.06
383.761	423.06
383.986	438.06
384.211	410.06
384.436	433.06
384.662	444.06
384.887	434.06
385.112	460.06
385.337	436.06
385.562	445.06
385.787	460.06
386.013	446.06
386.238	458.06
386.463	457.06
386.688	440.06
386.913	456.06
387.138	440.06
387.363	419.06
387.588	453.06
387.813	429.06
388.038	433.06
388.263	438.06
388.488	436.06
388.713	441.06
388.938	447.06
389.163	435.06
389.387	459.06
389.612	426.06
389.837	440.06
390.062	446.06
390.287	422.06
390.512	431.06
390.736	438.06
390.961	450.06
391.186	430.06
391.411	446.06
391.636	459.06
391.86	454.06
392.085	473.06
392.31	488.06
392.534	470.06
392.759	486.06
392.984	455.06
393.208	470.06
393.433	472.06
393.658	471.06
393.882	460.06
394.107	447.06
394.331	457.06
394.556	471.06
394.78	460.06
395.005	465.06
395.229	454.06
395.454	470.06
395.678	477.06
395.903	492.06
396.127	492.06
396.352	482.06
396.576	480.06
396.801	456.06
397.025	487.06
397.249	479.06
397.474	480.06
397.698	486.06
397.922	499.06
398.147	518.06
398.371	504.06
398.595	529.06
398.82	540.06
399.044	548.06
399.268	571.06
399.492	600.06
399.717	653.06
399.941	705.06
400.165	668.06
400.389	636.06
400.613	599.06
400.837	574.06
401.062	551.06
401.286	554.06
401.51	522.06
401.734	535.06
401.958	536.06
402.182	536.06
402.406	534.06
402.63	520.06
402.854	549.06
403.078	548.06
403.302	559.06
403.526	538.06
403.75	573.06
403.974	561.06
404.198	583.06
404.422	574.06
404.645	535.06
404.869	553.06
405.093	572.06
405.317	615.06
405.541	635.06
405.765	601.06
405.988	570.06
406.212	570.06
406.436	577.06
406.66	592.06
406.883	579.06
407.107	616.06
407.331	656.06
407.555	697.06
407.778	686.06
408.002	632.06
408.226	608.06
408.449	586.06
408.673	610.06
408.896	599.06
409.12	629.06
409.344	632.06
409.567	556.06
409.791	576.06
410.014	546.06
410.238	548.06
410.461	546.06
410.685	547.06
410.908	576.06
411.132	578.06
411.355	578.06
411.578	588.06
411.802	558.06
412.025	548.06
412.249	561.06
412.472	548.06
412.695	602.06
412.919	571.06
413.142	530.06
413.365	550.06
413.589	524.06
413.812	500.06
414.035	524.06
414.258	493.06
414.482	511.06
414.705	518.06
414.928	510.06
415.151	532.06
415.374	517.06
415.597	508.06
415.821	499.06
416.044	497.06
416.267	503.06
416.49	508.06
416.713	497.06
416.936	496.06
417.159	512.06
417.382	502.06
417.605	515.06
417.828	496.06
418.051	529.06
418.274	517.06
418.497	516.06
418.72	526.06
418.943	519.06
419.166	544.06
419.389	560.06
419.611	545.06
419.834	554.06
420.057	548.06
420.28	538.06
420.503	512.06
420.726	513.06
420.948	522.06
421.171	554.06
421.394	553.06
421.617	530.06
421.839	535.06
422.062	534.06
422.285	525.06
422.507	569.06
422.73	628.06
422.953	611.06
423.175	575.06
423.398	554.06
423.621	548.06
423.843	542.06
424.066	568.06
424.288	543.06
424.511	564.06
424.733	603.06
424.956	652.06
425.178	623.06
425.401	617.06
425.623	643.06
425.846	534.06
426.068	548.06
426.291	535.06
426.513	506.06
426.735	551.06
426.958	568.06
427.18	584.06
427.402	711.06
427.625	739.06
427.847	630.06
428.069	563.06
428.292	540.06
428.514	520.06
428.736	496.06
428.958	512.06
429.181	510.06
429.403	518.06
429.625	491.06
429.847	522.06
430.069	550.06
430.292	544.06
430.514	517.06
430.736	487.06
430.958	500.06
431.18	469.06
431.402	483.06
431.624	496.06
431.846	476.06
432.068	487.06
432.29	466.06
432.512	489.06
432.734	482.06
432.956	479.06
433.178	508.06
433.4	494.06
433.622	486.06
433.844	496.06
434.066	492.06
434.287	489.06
434.509	480.06
434.731	520.06
434.953	518.06
435.175	522.06
435.397	563.06
435.618	545.06
435.84	564.06
436.062	601.06
436.284	648.06
436.505	563.06
436.727	540.06
436.949	520.06
437.17	502.06
437.392	492.06
437.614	512.06
437.835	525.06
438.057	566.06
438.278	646.06
438.5	648.06
438.721	674.06
438.943	672.06
439.165	554.06
439.386	517.06
439.608	522.06
439.829	542.06
440.05	510.06
440.272	564.06
440.493	544.06
440.715	509.06
440.936	524.06
441.158	497.06
441.379	529.06
441.6	528.06
441.822	566.06
442.043	557.06
442.264	613.06
442.486	619.06
442.707	560.06
442.928	563.06
443.149	542.06
443.371	535.06
443.592	580.06
443.813	649.06
444.034	704.06
444.255	588.06
444.476	568.06
444.698	569.06
444.919	592.06
445.14	664.06
445.361	630.06
445.582	579.06
445.803	600.06
446.024	653.06
446.245	650.06
446.466	617.06
446.687	543.06
446.908	542.06
447.129	504.06
447.35	501.06
447.571	484.06
447.792	475.06
448.013	477.06
448.234	488.06
448.455	518.06
448.675	605.06
448.896	671.06
449.117	588.06
449.338	568.06
449.559	628.06
449.779	705.06
450	587.06
450.221	505.06
450.442	492.06
450.662	459.06
450.883	463.06
451.104	466.06
451.324	474.06
451.545	457.06
451.766	467.06
451.986	465.06
452.207	442.06
452.428	458.06
452.648	448.06
452.869	440.06
453.089	450.06
453.31	443.06
453.53	450.06
453.751	452.06
453.971	448.06
454.192	455.06
454.412	440.06
454.633	435.06
454.853	447.06
455.073	434.06
455.294	460.06
455.514	497.06
455.734	464.06
455.955	425.06
456.175	418.06
456.395	409.06
456.616	420.06
456.836	418.06
457.056	424.06
457.276	432.06
457.497	420.06
457.717	430.06
457.937	437.06
458.157	449.06
458.377	436.06
458.598	465.06
458.818	490.06
459.038	546.06
459.258	548.06
459.478	524.06
459.698	496.06
459.918	469.06
460.138	494.06
460.358	514.06
460.578	519.06
460.798	517.06
461.018	549.06
461.238	537.06
461.458	555.06
461.678	512.06
461.898	527.06
462.118	542.06
462.338	545.06
462.558	587.06
462.777	553.06
462.997	560.06
463.217	605.06
463.437	617.06
463.657	612.06
463.876	580.06
464.096	560.06
464.316	582.06
464.536	580.06
464.755	555.06
464.975	559.06
465.195	574.06
465.414	559.06
465.634	529.06
465.854	519.06
466.073	501.06
466.293	493.06
466.512	477.06
466.732	472.06
466.951	471.06
467.171	455.06
467.391	462.06
467.61	476.06
467.829	455.06
468.049	463.06
468.268	454.06
468.488	453.06
468.707	424.06
468.927	440.06
469.146	454.06
469.365	468.06
469.585	465.06
469.804	479.06
470.023	484.06
470.243	470.06
470.462	476.06
470.681	480.06
470.901	477.06
471.12	452.06
471.339	470.06
471.558	467.06
471.777	472.06
471.997	469.06
472.216	468.06
472.435	479.06
472.654	467.06
472.873	460.06
473.092	457.06
473.311	462.06
473.53	470.06
473.749	461.06
473.968	480.06
474.187	544.06
474.406	548.06
474.625	497.06
474.844	478.06
475.063	460.06
475.282	476.06
475.501	472.06
475.72	464.06
475.939	483.06
476.158	478.06
476.377	473.06
476.596	485.06
476.814	483.06
477.033	478.06
477.252	496.06
477.471	511.06
477.69	487.06
477.908	487.06
478.127	513.06
478.346	538.06
478.564	532.06
478.783	546.06
479.002	536.06
479.22	551.06
479.439	542.06
479.658	559.06
479.876	538.06
480.095	580.06
480.313	593.06
480.532	593.06
480.751	594.06
480.969	593.06
481.188	602.06
481.406	592.06
481.624	557.06
481.843	566.06
482.061	554.06
482.28	544.06
482.498	536.06
482.717	522.06
482.935	530.06
483.153	534.06
483.372	523.06
483.59	562.06
483.808	527.06
484.027	553.06
484.245	545.06
484.463	550.06
484.681	555.06
484.9	542.06
485.118	561.06
485.336	567.06
485.554	586.06
485.772	558.06
485.99	585.06
486.209	566.06
486.427	553.06
486.645	553.06
486.863	569.06
487.081	560.06
487.299	570.06
487.517	570.06
487.735	562.06
487.953	589.06
488.171	563.06
488.389	574.06
488.607	555.06
488.825	578.06
489.043	565.06
489.261	565.06
489.479	586.06
489.696	580.06
489.914	562.06
490.132	597.06
490.35	596.06
490.568	575.06
490.786	570.06
491.003	597.06
491.221	613.06
491.439	597.06
491.657	617.06
491.874	632.06
492.092	602.06
492.31	621.06
492.527	638.06
492.745	605.06
492.963	616.06
493.18	619.06
493.398	649.06
493.615	623.06
493.833	640.06
494.05	640.06
494.268	650.06
494.485	630.06
494.703	644.06
494.92	621.06
495.138	658.06
495.355	650.06
495.573	665.06
495.79	646.06
496.008	654.06
496.225	648.06
496.442	671.06
496.66	668.06
496.877	652.06
497.094	668.06
497.312	653.06
497.529	692.06
497.746	694.06
497.963	717.06
498.181	728.06
498.398	756.06
498.615	783.06
498.832	794.06
499.049	840.06
499.267	874.06
499.484	896.06
499.701	948.06
499.918	1016.06
500.135	1076.06
500.352	1148.06
500.569	1184.06
500.786	1170.06
501.003	1160.06
501.22	1074.06
501.437	1001.06
501.654	961.06
501.871	922.06
502.088	897.06
502.305	839.06
502.522	784.06
502.739	807.06
502.956	762.06
503.172	732.06
503.389	744.06
503.606	739.06
503.823	721.06
504.04	728.06
504.256	695.06
504.473	698.06
504.69	692.06
504.907	707.06
505.123	674.06
505.34	667.06
505.557	628.06
505.773	632.06
505.99	637.06
506.207	619.06
506.423	625.06
506.64	608.06
506.856	588.06
507.073	623.06
507.289	604.06
507.506	586.06
507.722	594.06
507.939	580.06
508.155	573.06
508.372	578.06
508.588	552.06
508.805	592.06
509.021	588.06
509.238	575.06
509.454	564.06
509.67	591.06
509.887	555.06
510.103	570.06
510.319	577.06
510.536	605.06
510.752	809.06
510.968	711.06
511.184	580.06
511.401	536.06
511.617	531.06
511.833	531.06
512.049	544.06
512.265	557.06
512.481	531.06
512.698	536.06
512.914	531.06
513.13	544.06
513.346	548.06
513.562	529.06
513.778	548.06
513.994	557.06
514.21	546.06
514.426	558.06
514.642	550.06
514.858	574.06
515.074	588.06
515.29	649.06
515.506	800.06
515.721	729.06
515.937	598.06
516.153	597.06
516.369	588.06
516.585	590.06
516.801	599.06
517.016	603.06
517.232	614.06
517.448	618.06
517.664	612.06
517.879	636.06
518.095	636.06
518.311	625.06
518.527	609.06
518.742	590.06
518.958	589.06
519.173	555.06
519.389	559.06
519.605	556.06
519.82	566.06
520.036	544.06
520.251	545.06
520.467	552.06
520.682	556.06
520.898	559.06
521.113	584.06
521.329	544.06
521.544	609.06
521.76	671.06
521.975	892.06
522.19	871.06
522.406	623.06
522.621	565.06
522.836	541.06
523.052	517.06
523.267	504.06
523.482	486.06
523.698	488.06
523.913	491.06
524.128	489.06
524.343	493.06
524.559	494.06
524.774	484.06
524.989	500.06
525.204	501.06
525.419	487.06
525.634	482.06
525.849	486.06
526.064	460.06
526.28	507.06
526.495	480.06
526.71	486.06
526.925	490.06
527.14	478.06
527.355	457.06
527.57	453.06
527.785	448.06
527.999	476.06
528.214	447.06
528.429	468.06
528.644	475.06
528.859	485.06
529.074	464.06
529.289	480.06
529.503	478.06
529.718	485.06
529.933	475.06
530.148	472.06
530.363	480.06
530.577	476.06
530.792	455.06
531.007	464.06
531.221	472.06
531.436	457.06
531.651	465.06
531.865	437.06
532.08	460.06
532.295	460.06
532.509	449.06
532.724	449.06
532.938	446.06
533.153	463.06
533.367	436.06
533.582	454.06
533.796	440.06
534.011	457.06
534.225	461.06
534.44	463.06
534.654	466.06
534.868	457.06
535.083	453.06
535.297	460.06
535.511	454.06
535.726	437.06
535.94	469.06
536.154	438.06
536.369	456.06
536.583	429.06
536.797	448.06
537.011	430.06
537.225	436.06
537.44	442.06
537.654	439.06
537.868	443.06
538.082	440.06
538.296	464.06
538.51	446.06
538.724	434.06
538.938	440.06
539.153	433.06
539.367	423.06
539.581	426.06
539.795	406.06
540.009	431.06
540.222	431.06
540.436	441.06
540.65	436.06
540.864	415.06
541.078	444.06
541.292	448.06
541.506	415.06
541.72	415.06
541.934	429.06
542.147	436.06
542.361	462.06
542.575	433.06
542.789	410.06
543.002	421.06
543.216	444.06
543.43	465.06
543.644	434.06
543.857	433.06
544.071	436.06
544.285	434.06
544.498	428.06
544.712	424.06
544.925	437.06
545.139	433.06
545.352	429.06
545.566	420.06
545.779	417.06
545.993	430.06
546.206	417.06
546.42	444.06
546.633	436.06
546.847	421.06
547.06	426.06
547.274	439.06
547.487	427.06
547.7	426.06
547.914	428.06
548.127	433.06
548.34	426.06
548.554	415.06
548.767	430.06
548.98	450.06
549.193	438.06
549.407	440.06
549.62	438.06
549.833	437.06
550.046	425.06
550.259	419.06
550.473	436.06
550.686	436.06
550.899	420.06
551.112	426.06
551.325	438.06
551.538	428.06
551.751	422.06
551.964	423.06
552.177	426.06
552.39	433.06
552.603	447.06
552.816	423.06
553.029	448.06
553.242	449.06
553.455	455.06
553.667	441.06
553.88	432.06
554.093	442.06
554.306	463.06
554.519	422.06
554.732	413.06
554.944	429.06
555.157	408.06
555.37	413.06
555.583	402.06
555.795	400.06
556.008	402.06
556.221	391.06
556.433	401.06
556.646	402.06
556.859	397.06
557.071	378.06
557.284	386.06
557.496	396.06
557.709	394.06
557.921	372.06
558.134	391.06
558.346	390.06
558.559	384.06
558.771	395.06
558.984	384.06
559.196	363.06
559.409	392.06
559.621	392.06
559.833	369.06
560.046	372.06
560.258	383.06
560.47	381.06
560.683	367.06
560.895	373.06
561.107	388.06
561.32	381.06
561.532	383.06
561.744	398.06
561.956	388.06
562.168	399.06
562.381	407.06
562.593	400.06
562.805	383.06
563.017	396.06
563.229	376.06
563.441	375.06
563.653	400.06
563.865	402.06
564.077	408.06
564.289	401.06
564.501	393.06
564.713	402.06
564.925	390.06
565.137	417.06
565.349	423.06
565.561	432.06
565.773	461.06
565.985	448.06
566.197	473.06
566.408	475.06
566.62	500.06
566.832	512.06
567.044	527.06
567.255	527.06
567.467	546.06
567.679	557.06
567.891	576.06
568.102	571.06
568.314	552.06
568.526	530.06
568.737	520.06
568.949	483.06
569.161	470.06
569.372	432.06
569.584	415.06
569.795	413.06
570.007	414.06
570.218	434.06
570.43	428.06
570.641	416.06
570.853	390.06
571.064	395.06
571.276	393.06
571.487	376.06
571.698	384.06
571.91	374.06
572.121	384.06
572.333	360.06
572.544	352.06
572.755	353.06
572.966	344.06
573.178	349.06
573.389	357.06
573.6	342.06
573.811	358.06
574.023	343.06
574.234	338.06
574.445	350.06
574.656	336.06
574.867	334.06
575.078	334.06
575.289	331.06
575.501	317.06
575.712	347.06
575.923	330.06
576.134	331.06
576.345	330.06
576.556	342.06
576.767	320.06
576.978	328.06
577.188	329.06
577.399	302.06
577.61	314.06
577.821	348.06
578.032	314.06
578.243	358.06
578.454	422.06
578.665	361.06
578.875	320.06
579.086	298.06
579.297	306.06
579.508	313.06
579.718	310.06
579.929	314.06
580.14	310.06
580.35	296.06
580.561	314.06
580.772	292.06
580.982	296.06
581.193	310.06
581.403	292.06
581.614	305.06
581.825	316.06
582.035	310.06
582.246	304.06
582.456	296.06
582.667	321.06
582.877	314.06
583.087	307.06
583.298	300.06
583.508	297.06
583.719	320.06
583.929	297.06
584.139	288.06
584.35	293.06
584.56	310.06
584.77	305.06
584.981	289.06
585.191	294.06
585.401	281.06
585.611	285.06
585.821	309.06
586.032	305.06
586.242	291.06
586.452	280.06
586.662	287.06
586.872	300.06
587.082	295.06
587.292	319.06
587.502	293.06
587.713	275.06
587.923	301.06
588.133	281.06
588.343	307.06
588.553	300.06
588.762	305.06
588.972	297.06
589.182	329.06
589.392	334.06
589.602	309.06
589.812	331.06
590.022	312.06
590.232	303.06
590.441	301.06
590.651	273.06
590.861	282.06
591.071	293.06
591.281	297.06
591.49	291.06
591.7	308.06
591.91	296.06
592.119	303.06
592.329	304.06
592.539	339.06
592.748	336.06
592.958	328.06
593.167	335.06
593.377	329.06
593.587	345.06
593.796	333.06
594.006	321.06
594.215	326.06
594.424	349.06
594.634	359.06
594.843	350.06
595.053	321.06
595.262	327.06
595.472	305.06
595.681	304.06
595.89	302.06
596.1	279.06
596.309	312.06
596.518	285.06
596.727	291.06
596.937	278.06
597.146	279.06
597.355	278.06
597.564	268.06
597.774	264.06
597.983	272.06
598.192	280.06
598.401	278.06
598.61	265.06
598.819	262.06
599.028	266.06
599.237	268.06
599.446	249.06
599.655	256.06
599.864	267.06
600.073	265.06
600.282	270.06
600.491	254.06
600.7	263.06
600.909	252.06
601.118	258.06
601.327	243.06
601.536	264.06
601.745	258.06
601.953	258.06
602.162	245.06
602.371	263.06
602.58	254.06
602.789	265.06
602.997	271.06
603.206	252.06
603.415	251.06
603.623	236.06
603.832	239.06
604.041	237.06
604.249	260.06
604.458	226.06
604.666	242.06
604.875	223.06
605.084	249.06
605.292	245.06
605.501	246.06
605.709	232.06
605.918	253.06
606.126	244.06
606.334	253.06
606.543	248.06
606.751	254.06
606.96	253.06
607.168	263.06
607.376	241.06
607.585	255.06
607.793	254.06
608.001	248.06
608.21	242.06
608.418	251.06
608.626	229.06
608.834	239.06
609.043	251.06
609.251	248.06
609.459	217.06
609.667	240.06
609.875	220.06
610.083	238.06
610.291	245.06
610.499	205.06
610.707	230.06
610.916	225.06
611.124	258.06
611.332	257.06
611.54	255.06
611.748	244.06
611.955	244.06
612.163	237.06
612.371	217.06
612.579	202.06
612.787	225.06
612.995	230.06
613.203	237.06
613.411	214.06
613.618	239.06
613.826	231.06
614.034	240.06
614.242	250.06
614.449	241.06
614.657	210.06
614.865	229.06
615.072	218.06
615.28	241.06
615.488	231.06
615.695	226.06
615.903	224.06
616.111	241.06
616.318	223.06
616.526	205.06
616.733	235.06
616.941	234.06
617.148	239.06
617.356	223.06
617.563	242.06
617.771	247.06
617.978	230.06
618.185	245.06
618.393	230.06
618.6	220.06
618.807	231.06
619.015	230.06
619.222	220.06
619.429	226.06
619.637	238.06
619.844	231.06
620.051	219.06
620.258	195.06
620.466	218.06
620.673	224.06
620.88	221.06
621.087	208.06
621.294	209.06
621.501	221.06
621.708	209.06
621.915	233.06
622.122	226.06
622.329	203.06
622.536	210.06
622.743	211.06
622.95	221.06
623.157	209.06
623.364	213.06
623.571	211.06
623.778	215.06
623.985	203.06
624.192	221.06
624.399	195.06
624.606	223.06
624.812	217.06
625.019	209.06
625.226	208.06
625.433	223.06
625.639	202.06
625.846	208.06
626.053	221.06
626.259	198.06
626.466	197.06
626.673	204.06
626.879	209.06
627.086	202.06
627.293	222.06
627.499	206.06
627.706	192.06
627.912	210.06
628.119	193.06
628.325	205.06
628.532	216.06
628.738	201.06
628.945	196.06
629.151	186.06
629.357	215.06
629.564	189.06
629.77	181.06
629.976	204.06
630.183	195.06
630.389	205.06
630.595	200.06
630.802	192.06
631.008	184.06
631.214	195.06
631.42	178.06
631.627	208.06
631.833	184.06
632.039	196.06
632.245	201.06
632.451	183.06
632.657	185.06
632.863	187.06
633.069	189.06
633.275	191.06
633.481	188.06
633.688	197.06
633.893	190.06
634.099	197.06
634.305	180.06
634.511	187.06
634.717	176.06
634.923	174.06
635.129	189.06
635.335	189.06
635.541	180.06
635.747	180.06
635.952	192.06
636.158	200.06
636.364	182.06
636.57	175.06
636.775	176.06
636.981	185.06
637.187	186.06
637.392	177.06
637.598	182.06
637.804	165.06
638.009	173.06
638.215	172.06
638.421	170.06
638.626	176.06
638.832	164.06
639.037	162.06
639.243	177.06
639.448	172.06
639.654	180.06
639.859	182.06
640.065	167.06
640.27	176.06
640.475	180.06
640.681	162.06
640.886	181.06
641.091	168.06
641.297	164.06
641.502	168.06
641.707	156.06
641.913	174.06
642.118	162.06
642.323	160.06
642.528	177.06
642.733	183.06
642.939	175.06
643.144	167.06
643.349	164.06
643.554	169.06
643.759	155.06
643.964	166.06
644.169	176.06
644.374	153.06
644.579	168.06
644.784	171.06
644.989	171.06
645.194	169.06
645.399	171.06
645.604	164.06
645.809	175.06
646.014	172.06
646.219	168.06
646.423	168.06
646.628	176.06
646.833	164.06
647.038	161.06
647.243	156.06
647.447	164.06
647.652	177.06
647.857	171.06
648.062	189.06
648.266	174.06
648.471	168.06
648.676	193.06
648.88	184.06
649.085	158.06
649.289	170.06
649.494	170.06
649.698	181.06
649.903	171.06
650.107	189.06
650.312	179.06
650.516	172.06
650.721	167.06
650.925	161.06
651.13	154.06
651.334	168.06
651.539	158.06
651.743	151.06
651.947	154.06
652.152	160.06
652.356	150.06
652.56	152.06
652.764	156.06
652.969	155.06
653.173	134.06
653.377	148.06
653.581	155.06
653.785	138.06
653.99	153.06
654.194	144.06
654.398	144.06
654.602	129.06
654.806	134.06
655.01	118.06
655.214	140.06
655.418	153.06
655.622	142.06
655.826	143.06
656.03	144.06
656.234	153.06
656.438	146.06
656.642	158.06
656.846	143.06
657.049	132.06
657.253	138.06
657.457	136.06
657.661	130.06
657.865	120.06
658.068	126.06
658.272	113.06
658.476	118.06
658.68	110.06
658.883	107.06
659.087	129.06
659.291	122.06
659.494	107.06
659.698	103.06
659.901	104.06
660.105	101.06
660.309	94.06
660.512	98.06
660.716	86.06
660.919	74.06
661.123	110.06
661.326	105.06
661.53	96.06
661.733	94.06
661.936	97.06
662.14	105.06
662.343	96.06
662.546	87.06
662.75	87.06
662.953	75.06
663.156	78.06
663.36	101.06
663.563	100.06
663.766	93.06
663.969	89.06
664.173	92.06
664.376	88.06
664.579	96.06
664.782	87.06
664.985	85.06
665.188	90.06
665.391	81.06
665.594	100.06
665.797	93.06
666	87.06
666.203	90.06
666.406	102.06
666.609	91.06
666.812	90.06
667.015	82.06
667.218	92.06
667.421	91.06
667.624	82.06
667.827	85.06
668.03	89.06
668.232	83.06
668.435	102.06
668.638	81.06
668.841	82.06
669.043	88.06
669.246	88.06
669.449	91.06
669.651	82.06
669.854	74.06
670.057	85.06
670.259	80.06
670.462	84.06
670.665	73.06
670.867	91.06
671.07	90.06
671.272	90.06
671.475	92.06
671.677	100.06
671.88	71.06
672.082	78.06
672.284	89.06
672.487	82.06
672.689	87.06
672.892	74.06
