Data from 1962.PennyLincolnUp.Lamp.En5.5.200Scan.071719.P1._HRD10591_13-55-21-062.txt Node
Date: Thu Jul 18 13:55:21 EDT 2019
User: cochatt
Spectrometer: HR+D1059
Trigger mode: 1
Integration Time (sec): 1.000000E-1
Scans to average: 1
Electric dark correction enabled: true
Nonlinearity correction enabled: false
Boxcar width: 0
XAxis mode: Wavelengths
Number of Pixels in Spectrum: 2048
>>>>>Begin Spectral Data<<<<<
223.165	-3.31
223.4	-3.31
223.635	-3.31
223.869	-13.31
224.104	-19.31
224.338	-8.31
224.573	-0.31
224.808	-18.31
225.042	-11.31
225.277	-2.31
225.511	-9.31
225.746	14.69
225.98	6.69
226.215	5.69
226.449	3.69
226.683	16.69
226.918	22.69
227.152	15.69
227.387	47.69
227.621	36.69
227.856	48.69
228.09	43.69
228.324	44.69
228.559	52.69
228.793	70.69
229.027	97.69
229.262	102.69
229.496	109.69
229.73	115.69
229.964	140.69
230.199	102.69
230.433	102.69
230.667	116.69
230.901	105.69
231.136	101.69
231.37	109.69
231.604	99.69
231.838	104.69
232.072	109.69
232.306	107.69
232.541	100.69
232.775	105.69
233.009	114.69
233.243	118.69
233.477	122.69
233.711	120.69
233.945	116.69
234.179	108.69
234.413	113.69
234.647	124.69
234.881	122.69
235.115	118.69
235.349	109.69
235.583	97.69
235.817	104.69
236.051	126.69
236.285	114.69
236.519	122.69
236.753	125.69
236.987	140.69
237.221	170.69
237.455	197.69
237.689	158.69
237.922	122.69
238.156	122.69
238.39	124.69
238.624	116.69
238.858	126.69
239.091	110.69
239.325	122.69
239.559	120.69
239.793	132.69
240.027	123.69
240.26	128.69
240.494	148.69
240.728	140.69
240.961	131.69
241.195	136.69
241.429	132.69
241.662	138.69
241.896	125.69
242.13	129.69
242.363	118.69
242.597	132.69
242.83	123.69
243.064	137.69
243.298	122.69
243.531	137.69
243.765	144.69
243.998	142.69
244.232	132.69
244.465	134.69
244.699	145.69
244.932	120.69
245.166	135.69
245.399	140.69
245.633	141.69
245.866	139.69
246.099	128.69
246.333	156.69
246.566	154.69
246.8	138.69
247.033	147.69
247.266	162.69
247.5	138.69
247.733	163.69
247.966	168.69
248.2	184.69
248.433	152.69
248.666	163.69
248.899	167.69
249.133	184.69
249.366	198.69
249.599	167.69
249.832	170.69
250.066	178.69
250.299	166.69
250.532	172.69
250.765	176.69
250.998	192.69
251.231	210.69
251.465	191.69
251.698	163.69
251.931	176.69
252.164	173.69
252.397	188.69
252.63	200.69
252.863	192.69
253.096	190.69
253.329	191.69
253.562	201.69
253.795	212.69
254.028	207.69
254.261	176.69
254.494	201.69
254.727	218.69
254.96	234.69
255.193	227.69
255.426	219.69
255.659	216.69
255.892	200.69
256.124	218.69
256.357	205.69
256.59	204.69
256.823	209.69
257.056	199.69
257.289	191.69
257.521	190.69
257.754	210.69
257.987	212.69
258.22	200.69
258.452	194.69
258.685	190.69
258.918	198.69
259.151	194.69
259.383	204.69
259.616	209.69
259.849	204.69
260.081	209.69
260.314	218.69
260.547	237.69
260.779	224.69
261.012	224.69
261.244	216.69
261.477	205.69
261.71	202.69
261.942	224.69
262.175	221.69
262.407	225.69
262.64	214.69
262.872	197.69
263.105	196.69
263.337	202.69
263.57	190.69
263.802	194.69
264.035	212.69
264.267	209.69
264.499	206.69
264.732	206.69
264.964	196.69
265.197	202.69
265.429	202.69
265.661	204.69
265.894	214.69
266.126	212.69
266.358	203.69
266.591	206.69
266.823	225.69
267.055	225.69
267.287	247.69
267.52	233.69
267.752	218.69
267.984	218.69
268.216	216.69
268.448	205.69
268.681	210.69
268.913	220.69
269.145	248.69
269.377	269.69
269.609	260.69
269.841	260.69
270.073	237.69
270.306	258.69
270.538	284.69
270.77	280.69
271.002	281.69
271.234	281.69
271.466	268.69
271.698	261.69
271.93	285.69
272.162	279.69
272.394	292.69
272.626	272.69
272.858	260.69
273.09	279.69
273.322	238.69
273.553	262.69
273.785	259.69
274.017	256.69
274.249	242.69
274.481	245.69
274.713	259.69
274.945	248.69
275.176	253.69
275.408	250.69
275.64	269.69
275.872	255.69
276.104	286.69
276.335	248.69
276.567	270.69
276.799	266.69
277.031	299.69
277.262	290.69
277.494	289.69
277.726	276.69
277.957	276.69
278.189	266.69
278.421	267.69
278.652	282.69
278.884	263.69
279.115	274.69
279.347	272.69
279.579	252.69
279.81	261.69
280.042	270.69
280.273	273.69
280.505	262.69
280.736	276.69
280.968	265.69
281.199	270.69
281.431	265.69
281.662	271.69
281.894	276.69
282.125	293.69
282.356	292.69
282.588	302.69
282.819	286.69
283.051	275.69
283.282	264.69
283.513	280.69
283.745	296.69
283.976	284.69
284.207	288.69
284.439	268.69
284.67	260.69
284.901	277.69
285.132	267.69
285.364	281.69
285.595	283.69
285.826	284.69
286.057	289.69
286.288	282.69
286.52	276.69
286.751	271.69
286.982	284.69
287.213	296.69
287.444	272.69
287.675	270.69
287.906	295.69
288.138	310.69
288.369	309.69
288.6	282.69
288.831	296.69
289.062	308.69
289.293	310.69
289.524	306.69
289.755	307.69
289.986	297.69
290.217	311.69
290.448	308.69
290.679	299.69
290.91	288.69
291.141	292.69
291.371	292.69
291.602	307.69
291.833	294.69
292.064	296.69
292.295	283.69
292.526	301.69
292.757	290.69
292.987	288.69
293.218	288.69
293.449	288.69
293.68	296.69
293.91	322.69
294.141	298.69
294.372	292.69
294.603	314.69
294.833	298.69
295.064	320.69
295.295	294.69
295.525	309.69
295.756	301.69
295.987	300.69
296.217	316.69
296.448	321.69
296.679	288.69
296.909	310.69
297.14	304.69
297.37	300.69
297.601	301.69
297.831	310.69
298.062	320.69
298.292	314.69
298.523	313.69
298.753	312.69
298.984	319.69
299.214	324.69
299.445	298.69
299.675	308.69
299.905	322.69
300.136	318.69
300.366	316.69
300.597	301.69
300.827	331.69
301.057	325.69
301.288	329.69
301.518	340.69
301.748	340.69
301.979	342.69
302.209	341.69
302.439	352.69
302.669	324.69
302.9	325.69
303.13	339.69
303.36	341.69
303.59	318.69
303.82	334.69
304.051	347.69
304.281	330.69
304.511	336.69
304.741	340.69
304.971	324.69
305.201	331.69
305.431	329.69
305.661	347.69
305.891	321.69
306.121	328.69
306.352	330.69
306.582	329.69
306.812	321.69
307.042	341.69
307.272	355.69
307.502	338.69
307.731	337.69
307.961	333.69
308.191	334.69
308.421	344.69
308.651	330.69
308.881	324.69
309.111	360.69
309.341	350.69
309.571	344.69
309.8	379.69
310.03	351.69
310.26	352.69
310.49	359.69
310.72	373.69
310.949	379.69
311.179	395.69
311.409	372.69
311.639	356.69
311.868	384.69
312.098	364.69
312.328	376.69
312.557	386.69
312.787	382.69
313.017	389.69
313.246	377.69
313.476	370.69
313.706	381.69
313.935	377.69
314.165	378.69
314.394	405.69
314.624	380.69
314.853	386.69
315.083	382.69
315.312	380.69
315.542	357.69
315.771	350.69
316.001	357.69
316.23	372.69
316.46	379.69
316.689	363.69
316.919	363.69
317.148	362.69
317.377	375.69
317.607	380.69
317.836	368.69
318.065	374.69
318.295	368.69
318.524	369.69
318.753	364.69
318.983	374.69
319.212	368.69
319.441	385.69
319.67	373.69
319.9	388.69
320.129	378.69
320.358	384.69
320.587	345.69
320.816	378.69
321.046	382.69
321.275	347.69
321.504	388.69
321.733	394.69
321.962	408.69
322.191	392.69
322.42	412.69
322.649	389.69
322.878	415.69
323.108	418.69
323.337	438.69
323.566	437.69
323.795	473.69
324.024	483.69
324.253	577.69
324.482	738.69
324.71	1085.69
324.939	1524.69
325.168	1330.69
325.397	741.69
325.626	566.69
325.855	476.69
326.084	440.69
326.313	465.69
326.542	458.69
326.77	477.69
326.999	535.69
327.228	679.69
327.457	971.69
327.686	1172.69
327.914	828.69
328.143	596.69
328.372	528.69
328.6	480.69
328.829	485.69
329.058	485.69
329.287	490.69
329.515	497.69
329.744	476.69
329.972	467.69
330.201	465.69
330.43	514.69
330.658	519.69
330.887	529.69
331.115	519.69
331.344	482.69
331.572	462.69
331.801	469.69
332.03	468.69
332.258	466.69
332.486	461.69
332.715	474.69
332.943	459.69
333.172	475.69
333.4	474.69
333.629	471.69
333.857	482.69
334.085	504.69
334.314	501.69
334.542	508.69
334.771	543.69
334.999	484.69
335.227	479.69
335.455	470.69
335.684	462.69
335.912	435.69
336.14	445.69
336.369	474.69
336.597	428.69
336.825	482.69
337.053	450.69
337.281	446.69
337.51	456.69
337.738	438.69
337.966	443.69
338.194	447.69
338.422	434.69
338.65	446.69
338.878	448.69
339.106	414.69
339.334	418.69
339.562	426.69
339.79	418.69
340.018	435.69
340.246	412.69
340.474	426.69
340.702	441.69
340.93	411.69
341.158	412.69
341.386	417.69
341.614	434.69
341.842	418.69
342.07	422.69
342.298	431.69
342.526	420.69
342.754	421.69
342.981	418.69
343.209	436.69
343.437	420.69
343.665	419.69
343.893	438.69
344.12	482.69
344.348	454.69
344.576	459.69
344.804	454.69
345.031	442.69
345.259	441.69
345.487	437.69
345.714	423.69
345.942	421.69
346.17	420.69
346.397	425.69
346.625	415.69
346.853	414.69
347.08	398.69
347.308	417.69
347.535	399.69
347.763	397.69
347.99	428.69
348.218	421.69
348.445	415.69
348.673	419.69
348.9	412.69
349.128	400.69
349.355	390.69
349.583	406.69
349.81	393.69
350.037	401.69
350.265	408.69
350.492	383.69
350.72	395.69
350.947	413.69
351.174	400.69
351.402	407.69
351.629	396.69
351.856	394.69
352.083	392.69
352.311	405.69
352.538	408.69
352.765	394.69
352.992	412.69
353.22	407.69
353.447	404.69
353.674	391.69
353.901	399.69
354.128	357.69
354.355	392.69
354.583	380.69
354.81	388.69
355.037	397.69
355.264	400.69
355.491	388.69
355.718	382.69
355.945	391.69
356.172	388.69
356.399	396.69
356.626	381.69
356.853	386.69
357.08	369.69
357.307	387.69
357.534	399.69
357.761	389.69
357.988	390.69
358.215	372.69
358.441	388.69
358.668	394.69
358.895	386.69
359.122	377.69
359.349	403.69
359.576	404.69
359.802	417.69
360.029	434.69
360.256	415.69
360.483	420.69
360.709	404.69
360.936	398.69
361.163	409.69
361.39	390.69
361.616	429.69
361.843	394.69
362.07	410.69
362.296	403.69
362.523	365.69
362.749	405.69
362.976	392.69
363.203	386.69
363.429	386.69
363.656	387.69
363.882	392.69
364.109	402.69
364.335	402.69
364.562	383.69
364.788	388.69
365.015	396.69
365.241	386.69
365.468	382.69
365.694	396.69
365.92	404.69
366.147	396.69
366.373	380.69
366.599	387.69
366.826	392.69
367.052	384.69
367.278	388.69
367.505	400.69
367.731	411.69
367.957	389.69
368.184	390.69
368.41	389.69
368.636	412.69
368.862	399.69
369.089	396.69
369.315	409.69
369.541	405.69
369.767	384.69
369.993	402.69
370.219	376.69
370.445	401.69
370.672	401.69
370.898	389.69
371.124	393.69
371.35	413.69
371.576	396.69
371.802	396.69
372.028	407.69
372.254	424.69
372.48	408.69
372.706	390.69
372.932	412.69
373.158	414.69
373.384	379.69
373.61	413.69
373.835	408.69
374.061	400.69
374.287	405.69
374.513	406.69
374.739	396.69
374.965	426.69
375.191	427.69
375.416	434.69
375.642	415.69
375.868	411.69
376.094	397.69
376.319	412.69
376.545	412.69
376.771	387.69
376.997	398.69
377.222	412.69
377.448	403.69
377.674	396.69
377.899	399.69
378.125	398.69
378.35	393.69
378.576	413.69
378.802	385.69
379.027	408.69
379.253	415.69
379.478	378.69
379.704	386.69
379.929	406.69
380.155	404.69
380.38	396.69
380.606	408.69
380.831	400.69
381.057	396.69
381.282	392.69
381.507	439.69
381.733	405.69
381.958	413.69
382.184	394.69
382.409	442.69
382.634	429.69
382.86	396.69
383.085	418.69
383.31	442.69
383.535	424.69
383.761	412.69
383.986	427.69
384.211	441.69
384.436	418.69
384.662	427.69
384.887	429.69
385.112	437.69
385.337	460.69
385.562	447.69
385.787	440.69
386.013	452.69
386.238	443.69
386.463	474.69
386.688	463.69
386.913	439.69
387.138	463.69
387.363	458.69
387.588	462.69
387.813	456.69
388.038	442.69
388.263	449.69
388.488	475.69
388.713	466.69
388.938	459.69
389.163	458.69
389.387	447.69
389.612	452.69
389.837	444.69
390.062	457.69
390.287	446.69
390.512	441.69
390.736	460.69
390.961	466.69
391.186	472.69
391.411	486.69
391.636	483.69
391.86	456.69
392.085	493.69
392.31	479.69
392.534	480.69
392.759	477.69
392.984	471.69
393.208	475.69
393.433	470.69
393.658	469.69
393.882	472.69
394.107	461.69
394.331	470.69
394.556	482.69
394.78	493.69
395.005	468.69
395.229	478.69
395.454	513.69
395.678	490.69
395.903	489.69
396.127	534.69
396.352	476.69
396.576	478.69
396.801	466.69
397.025	484.69
397.249	498.69
397.474	483.69
397.698	504.69
397.922	506.69
398.147	530.69
398.371	529.69
398.595	545.69
398.82	536.69
399.044	568.69
399.268	589.69
399.492	613.69
399.717	707.69
399.941	705.69
400.165	697.69
400.389	662.69
400.613	614.69
400.837	541.69
401.062	584.69
401.286	564.69
401.51	553.69
401.734	553.69
401.958	525.69
402.182	535.69
402.406	570.69
402.63	532.69
402.854	552.69
403.078	569.69
403.302	563.69
403.526	575.69
403.75	568.69
403.974	564.69
404.198	592.69
404.422	576.69
404.645	590.69
404.869	573.69
405.093	594.69
405.317	628.69
405.541	663.69
405.765	626.69
405.988	575.69
406.212	610.69
406.436	610.69
406.66	629.69
406.883	612.69
407.107	635.69
407.331	654.69
407.555	713.69
407.778	721.69
408.002	700.69
408.226	628.69
408.449	618.69
408.673	603.69
408.896	608.69
409.12	654.69
409.344	633.69
409.567	592.69
409.791	568.69
410.014	558.69
410.238	560.69
410.461	588.69
410.685	569.69
410.908	564.69
411.132	570.69
411.355	614.69
411.578	612.69
411.802	536.69
412.025	550.69
412.249	538.69
412.472	576.69
412.695	601.69
412.919	582.69
413.142	569.69
413.365	556.69
413.589	562.69
413.812	546.69
414.035	524.69
414.258	540.69
414.482	536.69
414.705	526.69
414.928	526.69
415.151	526.69
415.374	520.69
415.597	503.69
415.821	508.69
416.044	531.69
416.267	538.69
416.49	512.69
416.713	513.69
416.936	522.69
417.159	549.69
417.382	539.69
417.605	526.69
417.828	563.69
418.051	527.69
418.274	546.69
418.497	523.69
418.72	530.69
418.943	538.69
419.166	550.69
419.389	584.69
419.611	569.69
419.834	545.69
420.057	561.69
420.28	539.69
420.503	545.69
420.726	540.69
420.948	548.69
421.171	588.69
421.394	598.69
421.617	551.69
421.839	532.69
422.062	537.69
422.285	537.69
422.507	601.69
422.73	658.69
422.953	631.69
423.175	572.69
423.398	545.69
423.621	566.69
423.843	579.69
424.066	601.69
424.288	581.69
424.511	594.69
424.733	639.69
424.956	661.69
425.178	639.69
425.401	646.69
425.623	675.69
425.846	598.69
426.068	557.69
426.291	550.69
426.513	562.69
426.735	551.69
426.958	568.69
427.18	648.69
427.402	742.69
427.625	810.69
427.847	718.69
428.069	628.69
428.292	566.69
428.514	533.69
428.736	507.69
428.958	527.69
429.181	520.69
429.403	499.69
429.625	533.69
429.847	520.69
430.069	590.69
430.292	582.69
430.514	528.69
430.736	525.69
430.958	500.69
431.18	481.69
431.402	493.69
431.624	507.69
431.846	493.69
432.068	506.69
432.29	521.69
432.512	522.69
432.734	510.69
432.956	501.69
433.178	515.69
433.4	515.69
433.622	493.69
433.844	493.69
434.066	499.69
434.287	511.69
434.509	526.69
434.731	527.69
434.953	530.69
435.175	535.69
435.397	584.69
435.618	558.69
435.84	584.69
436.062	669.69
436.284	706.69
436.505	593.69
436.727	580.69
436.949	528.69
437.17	530.69
437.392	506.69
437.614	524.69
437.835	529.69
438.057	602.69
438.278	680.69
438.5	677.69
438.721	750.69
438.943	711.69
439.165	578.69
439.386	566.69
439.608	550.69
439.829	540.69
440.05	570.69
440.272	587.69
440.493	600.69
440.715	564.69
440.936	546.69
441.158	516.69
441.379	524.69
441.6	576.69
441.822	531.69
442.043	589.69
442.264	638.69
442.486	658.69
442.707	625.69
442.928	545.69
443.149	575.69
443.371	583.69
443.592	616.69
443.813	704.69
444.034	754.69
444.255	666.69
444.476	630.69
444.698	602.69
444.919	613.69
445.14	701.69
445.361	644.69
445.582	599.69
445.803	631.69
446.024	697.69
446.245	711.69
446.466	646.69
446.687	572.69
446.908	551.69
447.129	542.69
447.35	508.69
447.571	510.69
447.792	500.69
448.013	495.69
448.234	522.69
448.455	541.69
448.675	637.69
448.896	733.69
449.117	636.69
449.338	584.69
449.559	690.69
449.779	775.69
450	634.69
450.221	561.69
450.442	527.69
450.662	499.69
450.883	485.69
451.104	506.69
451.324	486.69
451.545	483.69
451.766	471.69
451.986	462.69
452.207	451.69
452.428	464.69
452.648	468.69
452.869	465.69
453.089	451.69
453.31	478.69
453.53	485.69
453.751	458.69
453.971	449.69
454.192	455.69
454.412	448.69
454.633	456.69
454.853	451.69
455.073	454.69
455.294	462.69
455.514	523.69
455.734	509.69
455.955	473.69
456.175	458.69
456.395	441.69
456.616	429.69
456.836	436.69
457.056	453.69
457.276	438.69
457.497	448.69
457.717	437.69
457.937	462.69
458.157	440.69
458.377	442.69
458.598	496.69
458.818	524.69
459.038	555.69
459.258	604.69
459.478	526.69
459.698	506.69
459.918	516.69
460.138	505.69
460.358	543.69
460.578	553.69
460.798	550.69
461.018	547.69
461.238	531.69
461.458	529.69
461.678	544.69
461.898	544.69
462.118	560.69
462.338	557.69
462.558	587.69
462.777	564.69
462.997	621.69
463.217	632.69
463.437	660.69
463.657	628.69
463.876	600.69
464.096	619.69
464.316	606.69
464.536	595.69
464.755	575.69
464.975	590.69
465.195	571.69
465.414	582.69
465.634	560.69
465.854	525.69
466.073	528.69
466.293	489.69
466.512	483.69
466.732	486.69
466.951	486.69
467.171	482.69
467.391	488.69
467.61	480.69
467.829	487.69
468.049	502.69
468.268	483.69
468.488	490.69
468.707	469.69
468.927	465.69
469.146	468.69
469.365	466.69
469.585	446.69
469.804	482.69
470.023	490.69
470.243	493.69
470.462	496.69
470.681	486.69
470.901	481.69
471.12	510.69
471.339	471.69
471.558	492.69
471.777	474.69
471.997	485.69
472.216	493.69
472.435	481.69
472.654	515.69
472.873	479.69
473.092	473.69
473.311	462.69
473.53	477.69
473.749	492.69
473.968	515.69
474.187	577.69
474.406	566.69
474.625	520.69
474.844	481.69
475.063	480.69
475.282	479.69
475.501	486.69
475.72	493.69
475.939	490.69
476.158	501.69
476.377	491.69
476.596	481.69
476.814	502.69
477.033	512.69
477.252	518.69
477.471	502.69
477.69	526.69
477.908	543.69
478.127	546.69
478.346	544.69
478.564	553.69
478.783	569.69
479.002	560.69
479.22	552.69
479.439	576.69
479.658	564.69
479.876	591.69
480.095	582.69
480.313	627.69
480.532	596.69
480.751	611.69
480.969	632.69
481.188	613.69
481.406	640.69
481.624	579.69
481.843	556.69
482.061	561.69
482.28	541.69
482.498	557.69
482.717	580.69
482.935	560.69
483.153	564.69
483.372	539.69
483.59	544.69
483.808	546.69
484.027	544.69
484.245	568.69
484.463	548.69
484.681	568.69
484.9	582.69
485.118	587.69
485.336	585.69
485.554	565.69
485.772	590.69
485.99	570.69
486.209	601.69
486.427	583.69
486.645	591.69
486.863	580.69
487.081	602.69
487.299	578.69
487.517	611.69
487.735	583.69
487.953	600.69
488.171	571.69
488.389	588.69
488.607	600.69
488.825	596.69
489.043	587.69
489.261	602.69
489.479	580.69
489.696	613.69
489.914	626.69
490.132	611.69
490.35	630.69
490.568	610.69
490.786	626.69
491.003	641.69
491.221	620.69
491.439	636.69
491.657	620.69
491.874	638.69
492.092	660.69
492.31	643.69
492.527	652.69
492.745	673.69
492.963	668.69
493.18	704.69
493.398	688.69
493.615	657.69
493.833	677.69
494.05	685.69
494.268	682.69
494.485	665.69
494.703	677.69
494.92	676.69
495.138	688.69
495.355	681.69
495.573	681.69
495.79	700.69
496.008	689.69
496.225	663.69
496.442	678.69
496.66	684.69
496.877	689.69
497.094	710.69
497.312	743.69
497.529	718.69
497.746	760.69
497.963	740.69
498.181	782.69
498.398	794.69
498.615	831.69
498.832	844.69
499.049	852.69
499.267	936.69
499.484	948.69
499.701	993.69
499.918	1048.69
500.135	1124.69
500.352	1161.69
500.569	1248.69
500.786	1239.69
501.003	1206.69
501.22	1159.69
501.437	1071.69
501.654	1015.69
501.871	961.69
502.088	940.69
502.305	872.69
502.522	865.69
502.739	796.69
502.956	788.69
503.172	755.69
503.389	755.69
503.606	733.69
503.823	733.69
504.04	723.69
504.256	733.69
504.473	728.69
504.69	710.69
504.907	718.69
505.123	704.69
505.34	690.69
505.557	674.69
505.773	680.69
505.99	646.69
506.207	652.69
506.423	660.69
506.64	650.69
506.856	626.69
507.073	618.69
507.289	630.69
507.506	616.69
507.722	637.69
507.939	626.69
508.155	643.69
508.372	593.69
508.588	594.69
508.805	617.69
509.021	606.69
509.238	627.69
509.454	588.69
509.67	626.69
509.887	615.69
510.103	603.69
510.319	590.69
510.536	668.69
510.752	910.69
510.968	764.69
511.184	608.69
511.401	599.69
511.617	572.69
511.833	568.69
512.049	569.69
512.265	554.69
512.481	563.69
512.698	562.69
512.914	566.69
513.13	561.69
513.346	555.69
513.562	582.69
513.778	564.69
513.994	579.69
514.21	578.69
514.426	576.69
514.642	599.69
514.858	615.69
515.074	652.69
515.29	698.69
515.506	892.69
515.721	750.69
515.937	644.69
516.153	596.69
516.369	611.69
516.585	597.69
516.801	612.69
517.016	623.69
517.232	646.69
517.448	664.69
517.664	670.69
517.879	657.69
518.095	655.69
518.311	634.69
518.527	634.69
518.742	637.69
518.958	630.69
519.173	605.69
519.389	596.69
519.605	582.69
519.82	589.69
520.036	589.69
520.251	603.69
520.467	606.69
520.682	617.69
520.898	581.69
521.113	611.69
521.329	599.69
521.544	637.69
521.76	726.69
521.975	1002.69
522.19	1017.69
522.406	682.69
522.621	591.69
522.836	564.69
523.052	521.69
523.267	530.69
523.482	546.69
523.698	537.69
523.913	511.69
524.128	528.69
524.343	500.69
524.559	517.69
524.774	499.69
524.989	501.69
525.204	504.69
525.419	510.69
525.634	532.69
525.849	513.69
526.064	496.69
526.28	509.69
526.495	466.69
526.71	489.69
526.925	497.69
527.14	458.69
527.355	489.69
527.57	475.69
527.785	481.69
527.999	470.69
528.214	478.69
528.429	470.69
528.644	500.69
528.859	489.69
529.074	487.69
529.289	497.69
529.503	515.69
529.718	533.69
529.933	496.69
530.148	483.69
530.363	477.69
530.577	484.69
530.792	480.69
531.007	488.69
531.221	478.69
531.436	471.69
531.651	458.69
531.865	456.69
532.08	476.69
532.295	486.69
532.509	467.69
532.724	496.69
532.938	478.69
533.153	451.69
533.367	459.69
533.582	465.69
533.796	434.69
534.011	454.69
534.225	460.69
534.44	466.69
534.654	459.69
534.868	480.69
535.083	441.69
535.297	474.69
535.511	479.69
535.726	455.69
535.94	488.69
536.154	471.69
536.369	452.69
536.583	462.69
536.797	454.69
537.011	458.69
537.225	455.69
537.44	481.69
537.654	433.69
537.868	442.69
538.082	436.69
538.296	439.69
538.51	449.69
538.724	456.69
538.938	437.69
539.153	450.69
539.367	454.69
539.581	453.69
539.795	449.69
540.009	436.69
540.222	445.69
540.436	455.69
540.65	440.69
540.864	430.69
541.078	461.69
541.292	438.69
541.506	442.69
541.72	461.69
541.934	446.69
542.147	443.69
542.361	424.69
542.575	424.69
542.789	436.69
543.002	438.69
543.216	470.69
543.43	460.69
543.644	449.69
543.857	446.69
544.071	456.69
544.285	448.69
544.498	432.69
544.712	468.69
544.925	427.69
545.139	442.69
545.352	452.69
545.566	442.69
545.779	452.69
545.993	437.69
546.206	434.69
546.42	445.69
546.633	418.69
546.847	443.69
547.06	434.69
547.274	448.69
547.487	423.69
547.7	453.69
547.914	437.69
548.127	429.69
548.34	427.69
548.554	449.69
548.767	421.69
548.98	452.69
549.193	437.69
549.407	443.69
549.62	439.69
549.833	441.69
550.046	429.69
550.259	445.69
550.473	432.69
550.686	424.69
550.899	434.69
551.112	424.69
551.325	445.69
551.538	433.69
551.751	440.69
551.964	423.69
552.177	450.69
552.39	424.69
552.603	437.69
552.816	446.69
553.029	455.69
553.242	461.69
553.455	448.69
553.667	461.69
553.88	453.69
554.093	454.69
554.306	452.69
554.519	444.69
554.732	445.69
554.944	429.69
555.157	424.69
555.37	444.69
555.583	424.69
555.795	426.69
556.008	411.69
556.221	413.69
556.433	410.69
556.646	404.69
556.859	412.69
557.071	381.69
557.284	396.69
557.496	397.69
557.709	391.69
557.921	386.69
558.134	404.69
558.346	380.69
558.559	391.69
558.771	393.69
558.984	406.69
559.196	401.69
559.409	390.69
559.621	370.69
559.833	374.69
560.046	377.69
560.258	385.69
560.47	381.69
560.683	387.69
560.895	390.69
561.107	369.69
561.32	388.69
561.532	378.69
561.744	396.69
561.956	392.69
562.168	376.69
562.381	388.69
562.593	399.69
562.805	388.69
563.017	396.69
563.229	388.69
563.441	389.69
563.653	390.69
563.865	406.69
564.077	401.69
564.289	414.69
564.501	432.69
564.713	404.69
564.925	416.69
565.137	434.69
565.349	438.69
565.561	434.69
565.773	447.69
565.985	444.69
566.197	473.69
566.408	491.69
566.62	513.69
566.832	525.69
567.044	540.69
567.255	544.69
567.467	545.69
567.679	554.69
567.891	584.69
568.102	582.69
568.314	565.69
568.526	545.69
568.737	498.69
568.949	479.69
569.161	472.69
569.372	441.69
569.584	408.69
569.795	432.69
570.007	410.69
570.218	440.69
570.43	414.69
570.641	388.69
570.853	408.69
571.064	413.69
571.276	402.69
571.487	394.69
571.698	383.69
571.91	377.69
572.121	384.69
572.333	360.69
572.544	372.69
572.755	364.69
572.966	337.69
573.178	347.69
573.389	363.69
573.6	366.69
573.811	354.69
574.023	349.69
574.234	350.69
574.445	352.69
574.656	347.69
574.867	326.69
575.078	339.69
575.289	349.69
575.501	332.69
575.712	336.69
575.923	341.69
576.134	346.69
576.345	339.69
576.556	316.69
576.767	306.69
576.978	337.69
577.188	346.69
577.399	330.69
577.61	330.69
577.821	336.69
578.032	334.69
578.243	366.69
578.454	452.69
578.665	388.69
578.875	325.69
579.086	324.69
579.297	286.69
579.508	312.69
579.718	310.69
579.929	321.69
580.14	292.69
580.35	296.69
580.561	293.69
580.772	313.69
580.982	306.69
581.193	301.69
581.403	306.69
581.614	300.69
581.825	312.69
582.035	306.69
582.246	313.69
582.456	290.69
582.667	298.69
582.877	304.69
583.087	297.69
583.298	290.69
583.508	306.69
583.719	314.69
583.929	295.69
584.139	302.69
584.35	278.69
584.56	299.69
584.77	288.69
584.981	305.69
585.191	306.69
585.401	308.69
585.611	286.69
585.821	287.69
586.032	288.69
586.242	306.69
586.452	295.69
586.662	299.69
586.872	303.69
587.082	303.69
587.292	309.69
587.502	302.69
587.713	294.69
587.923	288.69
588.133	280.69
588.343	296.69
588.553	290.69
588.762	310.69
588.972	326.69
589.182	310.69
589.392	309.69
589.602	312.69
589.812	308.69
590.022	319.69
590.232	304.69
590.441	328.69
590.651	296.69
590.861	283.69
591.071	304.69
591.281	312.69
591.49	321.69
591.7	314.69
591.91	310.69
592.119	321.69
592.329	310.69
592.539	317.69
592.748	315.69
592.958	332.69
593.167	333.69
593.377	321.69
593.587	331.69
593.796	333.69
594.006	340.69
594.215	362.69
594.424	365.69
594.634	322.69
594.843	338.69
595.053	324.69
595.262	297.69
595.472	316.69
595.681	325.69
595.89	309.69
596.1	298.69
596.309	297.69
596.518	308.69
596.727	284.69
596.937	297.69
597.146	275.69
597.355	281.69
597.564	287.69
597.774	269.69
597.983	272.69
598.192	296.69
598.401	277.69
598.61	267.69
598.819	266.69
599.028	276.69
599.237	263.69
599.446	260.69
599.655	268.69
599.864	270.69
600.073	248.69
600.282	268.69
600.491	270.69
600.7	262.69
600.909	279.69
601.118	284.69
601.327	259.69
601.536	263.69
601.745	252.69
601.953	256.69
602.162	257.69
602.371	249.69
602.58	260.69
602.789	259.69
602.997	264.69
603.206	256.69
603.415	229.69
603.623	240.69
603.832	251.69
604.041	254.69
604.249	246.69
604.458	237.69
604.666	251.69
604.875	240.69
605.084	245.69
605.292	233.69
605.501	247.69
605.709	257.69
605.918	238.69
606.126	240.69
606.334	246.69
606.543	242.69
606.751	240.69
606.96	231.69
607.168	225.69
607.376	249.69
607.585	233.69
607.793	260.69
608.001	233.69
608.21	236.69
608.418	218.69
608.626	244.69
608.834	256.69
609.043	248.69
609.251	247.69
609.459	233.69
609.667	234.69
609.875	221.69
610.083	246.69
610.291	226.69
610.499	235.69
610.707	226.69
610.916	224.69
611.124	243.69
611.332	230.69
611.54	241.69
611.748	237.69
611.955	256.69
612.163	233.69
612.371	223.69
612.579	242.69
612.787	229.69
612.995	242.69
613.203	247.69
613.411	248.69
613.618	231.69
613.826	223.69
614.034	219.69
614.242	224.69
614.449	223.69
614.657	238.69
614.865	229.69
615.072	234.69
615.28	233.69
615.488	230.69
615.695	233.69
615.903	219.69
616.111	229.69
616.318	227.69
616.526	244.69
616.733	233.69
616.941	232.69
617.148	244.69
617.356	234.69
617.563	233.69
617.771	234.69
617.978	228.69
618.185	226.69
618.393	212.69
618.6	219.69
618.807	226.69
619.015	228.69
619.222	232.69
619.429	252.69
619.637	233.69
619.844	234.69
620.051	215.69
620.258	210.69
620.466	214.69
620.673	219.69
620.88	223.69
621.087	214.69
621.294	219.69
621.501	224.69
621.708	220.69
621.915	215.69
622.122	225.69
622.329	213.69
622.536	205.69
622.743	212.69
622.95	216.69
623.157	223.69
623.364	218.69
623.571	211.69
623.778	213.69
623.985	217.69
624.192	214.69
624.399	206.69
624.606	215.69
624.812	206.69
625.019	199.69
625.226	222.69
625.433	207.69
625.639	230.69
625.846	209.69
626.053	199.69
626.259	209.69
626.466	199.69
626.673	202.69
626.879	206.69
627.086	195.69
627.293	212.69
627.499	211.69
627.706	206.69
627.912	205.69
628.119	211.69
628.325	224.69
628.532	201.69
628.738	206.69
628.945	190.69
629.151	217.69
629.357	206.69
629.564	194.69
629.77	194.69
629.976	202.69
630.183	198.69
630.389	196.69
630.595	185.69
630.802	184.69
631.008	196.69
631.214	197.69
631.42	184.69
631.627	182.69
631.833	189.69
632.039	188.69
632.245	189.69
632.451	202.69
632.657	186.69
632.863	194.69
633.069	176.69
633.275	173.69
633.481	194.69
633.688	194.69
633.893	189.69
634.099	199.69
634.305	174.69
634.511	192.69
634.717	195.69
634.923	173.69
635.129	167.69
635.335	183.69
635.541	177.69
635.747	182.69
635.952	177.69
636.158	180.69
636.364	170.69
636.57	187.69
636.775	169.69
636.981	174.69
637.187	171.69
637.392	180.69
637.598	171.69
637.804	183.69
638.009	173.69
638.215	167.69
638.421	167.69
638.626	165.69
638.832	194.69
639.037	170.69
639.243	177.69
639.448	178.69
639.654	170.69
639.859	184.69
640.065	160.69
640.27	176.69
640.475	156.69
640.681	173.69
640.886	178.69
641.091	167.69
641.297	180.69
641.502	176.69
641.707	174.69
641.913	175.69
642.118	165.69
642.323	172.69
642.528	184.69
642.733	172.69
642.939	174.69
643.144	176.69
643.349	163.69
643.554	184.69
643.759	169.69
643.964	170.69
644.169	164.69
644.374	146.69
644.579	156.69
644.784	150.69
644.989	166.69
645.194	171.69
645.399	163.69
645.604	168.69
645.809	158.69
646.014	157.69
646.219	172.69
646.423	184.69
646.628	180.69
646.833	165.69
647.038	164.69
647.243	167.69
647.447	168.69
647.652	180.69
647.857	178.69
648.062	188.69
648.266	168.69
648.471	165.69
648.676	171.69
648.88	163.69
649.085	159.69
649.289	174.69
649.494	177.69
649.698	184.69
649.903	183.69
650.107	169.69
650.312	152.69
650.516	159.69
650.721	156.69
650.925	154.69
651.13	144.69
651.334	153.69
651.539	141.69
651.743	150.69
651.947	142.69
652.152	131.69
652.356	148.69
652.56	144.69
652.764	149.69
652.969	143.69
653.173	146.69
653.377	134.69
653.581	142.69
653.785	142.69
653.99	152.69
654.194	148.69
654.398	128.69
654.602	134.69
654.806	146.69
655.01	148.69
655.214	148.69
655.418	145.69
655.622	148.69
655.826	142.69
656.03	141.69
656.234	143.69
656.438	139.69
656.642	136.69
656.846	151.69
657.049	129.69
657.253	146.69
657.457	123.69
657.661	109.69
657.865	121.69
658.068	113.69
658.272	109.69
658.476	102.69
658.68	97.69
658.883	108.69
659.087	100.69
659.291	92.69
659.494	92.69
659.698	97.69
659.901	109.69
660.105	93.69
660.309	97.69
660.512	98.69
660.716	90.69
660.919	107.69
661.123	90.69
661.326	92.69
661.53	75.69
661.733	92.69
661.936	91.69
662.14	80.69
662.343	104.69
662.546	87.69
662.75	85.69
662.953	89.69
663.156	88.69
663.36	93.69
663.563	85.69
663.766	81.69
663.969	88.69
664.173	76.69
664.376	81.69
664.579	86.69
664.782	89.69
664.985	85.69
665.188	84.69
665.391	85.69
665.594	86.69
665.797	88.69
666	78.69
666.203	74.69
666.406	84.69
666.609	68.69
666.812	75.69
667.015	84.69
667.218	76.69
667.421	84.69
667.624	83.69
667.827	79.69
668.03	86.69
668.232	88.69
668.435	89.69
668.638	81.69
668.841	78.69
669.043	91.69
669.246	78.69
669.449	85.69
669.651	89.69
669.854	98.69
670.057	71.69
670.259	84.69
670.462	81.69
670.665	73.69
670.867	83.69
671.07	85.69
671.272	94.69
671.475	89.69
671.677	83.69
671.88	74.69
672.082	86.69
672.284	92.69
672.487	75.69
672.689	64.69
672.892	67.69
