Data from 1962.PennyLincolnUp.Lamp.En5.5.200Scan.071719.P1._HRD10591_13-53-22-061.txt Node
Date: Thu Jul 18 13:53:22 EDT 2019
User: cochatt
Spectrometer: HR+D1059
Trigger mode: 1
Integration Time (sec): 1.000000E-1
Scans to average: 1
Electric dark correction enabled: true
Nonlinearity correction enabled: false
Boxcar width: 0
XAxis mode: Wavelengths
Number of Pixels in Spectrum: 2048
>>>>>Begin Spectral Data<<<<<
223.165	-16.62
223.4	-16.62
223.635	-16.62
223.869	-24.62
224.104	-22.62
224.338	-10.62
224.573	-5.62
224.808	-24.62
225.042	-9.62
225.277	-4.62
225.511	-5.62
225.746	3.38
225.98	2.38
226.215	21.38
226.449	11.38
226.683	24.38
226.918	29.38
227.152	32.38
227.387	33.38
227.621	40.38
227.856	31.38
228.09	40.38
228.324	45.38
228.559	53.38
228.793	61.38
229.027	91.38
229.262	83.38
229.496	77.38
229.73	112.38
229.964	117.38
230.199	109.38
230.433	111.38
230.667	99.38
230.901	103.38
231.136	111.38
231.37	88.38
231.604	111.38
231.838	101.38
232.072	114.38
232.306	107.38
232.541	124.38
232.775	88.38
233.009	101.38
233.243	107.38
233.477	101.38
233.711	119.38
233.945	104.38
234.179	111.38
234.413	105.38
234.647	121.38
234.881	135.38
235.115	114.38
235.349	104.38
235.583	107.38
235.817	109.38
236.051	112.38
236.285	108.38
236.519	117.38
236.753	113.38
236.987	127.38
237.221	137.38
237.455	171.38
237.689	143.38
237.922	132.38
238.156	117.38
238.39	118.38
238.624	120.38
238.858	123.38
239.091	106.38
239.325	103.38
239.559	118.38
239.793	109.38
240.027	101.38
240.26	140.38
240.494	139.38
240.728	133.38
240.961	124.38
241.195	125.38
241.429	122.38
241.662	132.38
241.896	123.38
242.13	127.38
242.363	122.38
242.597	114.38
242.83	121.38
243.064	115.38
243.298	139.38
243.531	116.38
243.765	120.38
243.998	124.38
244.232	125.38
244.465	132.38
244.699	123.38
244.932	132.38
245.166	130.38
245.399	154.38
245.633	138.38
245.866	135.38
246.099	124.38
246.333	135.38
246.566	138.38
246.8	137.38
247.033	149.38
247.266	132.38
247.5	151.38
247.733	166.38
247.966	141.38
248.2	146.38
248.433	150.38
248.666	155.38
248.899	162.38
249.133	155.38
249.366	167.38
249.599	164.38
249.832	141.38
250.066	161.38
250.299	159.38
250.532	171.38
250.765	168.38
250.998	182.38
251.231	169.38
251.465	176.38
251.698	171.38
251.931	156.38
252.164	163.38
252.397	173.38
252.63	170.38
252.863	181.38
253.096	181.38
253.329	189.38
253.562	179.38
253.795	184.38
254.028	173.38
254.261	183.38
254.494	187.38
254.727	204.38
254.96	204.38
255.193	218.38
255.426	210.38
255.659	175.38
255.892	187.38
256.124	190.38
256.357	196.38
256.59	186.38
256.823	204.38
257.056	180.38
257.289	186.38
257.521	178.38
257.754	174.38
257.987	165.38
258.22	179.38
258.452	181.38
258.685	180.38
258.918	196.38
259.151	197.38
259.383	177.38
259.616	176.38
259.849	195.38
260.081	195.38
260.314	208.38
260.547	213.38
260.779	188.38
261.012	207.38
261.244	191.38
261.477	196.38
261.71	209.38
261.942	202.38
262.175	201.38
262.407	201.38
262.64	194.38
262.872	190.38
263.105	180.38
263.337	196.38
263.57	205.38
263.802	185.38
264.035	203.38
264.267	191.38
264.499	205.38
264.732	187.38
264.964	215.38
265.197	197.38
265.429	191.38
265.661	191.38
265.894	196.38
266.126	210.38
266.358	205.38
266.591	204.38
266.823	208.38
267.055	194.38
267.287	213.38
267.52	201.38
267.752	223.38
267.984	208.38
268.216	213.38
268.448	212.38
268.681	213.38
268.913	225.38
269.145	228.38
269.377	238.38
269.609	243.38
269.841	239.38
270.073	245.38
270.306	246.38
270.538	249.38
270.77	265.38
271.002	255.38
271.234	249.38
271.466	252.38
271.698	261.38
271.93	249.38
272.162	265.38
272.394	273.38
272.626	261.38
272.858	244.38
273.09	247.38
273.322	225.38
273.553	226.38
273.785	238.38
274.017	242.38
274.249	222.38
274.481	221.38
274.713	231.38
274.945	227.38
275.176	240.38
275.408	231.38
275.64	216.38
275.872	255.38
276.104	237.38
276.335	255.38
276.567	237.38
276.799	260.38
277.031	273.38
277.262	269.38
277.494	285.38
277.726	264.38
277.957	255.38
278.189	254.38
278.421	258.38
278.652	253.38
278.884	241.38
279.115	244.38
279.347	259.38
279.579	246.38
279.81	253.38
280.042	250.38
280.273	264.38
280.505	261.38
280.736	255.38
280.968	249.38
281.199	248.38
281.431	261.38
281.662	265.38
281.894	255.38
282.125	235.38
282.356	247.38
282.588	273.38
282.819	284.38
283.051	270.38
283.282	263.38
283.513	250.38
283.745	250.38
283.976	252.38
284.207	267.38
284.439	278.38
284.67	266.38
284.901	259.38
285.132	276.38
285.364	277.38
285.595	260.38
285.826	274.38
286.057	263.38
286.288	288.38
286.52	268.38
286.751	271.38
286.982	279.38
287.213	283.38
287.444	276.38
287.675	291.38
287.906	279.38
288.138	281.38
288.369	283.38
288.6	279.38
288.831	296.38
289.062	284.38
289.293	270.38
289.524	283.38
289.755	275.38
289.986	273.38
290.217	279.38
290.448	279.38
290.679	293.38
290.91	283.38
291.141	280.38
291.371	267.38
291.602	269.38
291.833	296.38
292.064	287.38
292.295	288.38
292.526	300.38
292.757	292.38
292.987	273.38
293.218	278.38
293.449	276.38
293.68	296.38
293.91	304.38
294.141	288.38
294.372	278.38
294.603	274.38
294.833	285.38
295.064	270.38
295.295	294.38
295.525	262.38
295.756	286.38
295.987	307.38
296.217	303.38
296.448	308.38
296.679	289.38
296.909	286.38
297.14	296.38
297.37	287.38
297.601	287.38
297.831	294.38
298.062	280.38
298.292	297.38
298.523	310.38
298.753	305.38
298.984	283.38
299.214	287.38
299.445	303.38
299.675	299.38
299.905	306.38
300.136	300.38
300.366	300.38
300.597	322.38
300.827	295.38
301.057	311.38
301.288	310.38
301.518	310.38
301.748	313.38
301.979	337.38
302.209	329.38
302.439	325.38
302.669	319.38
302.9	309.38
303.13	321.38
303.36	327.38
303.59	327.38
303.82	332.38
304.051	329.38
304.281	319.38
304.511	323.38
304.741	313.38
304.971	323.38
305.201	321.38
305.431	315.38
305.661	314.38
305.891	304.38
306.121	308.38
306.352	336.38
306.582	324.38
306.812	309.38
307.042	298.38
307.272	318.38
307.502	323.38
307.731	328.38
307.961	325.38
308.191	314.38
308.421	321.38
308.651	328.38
308.881	335.38
309.111	326.38
309.341	324.38
309.571	337.38
309.8	327.38
310.03	316.38
310.26	342.38
310.49	337.38
310.72	341.38
310.949	345.38
311.179	360.38
311.409	346.38
311.639	331.38
311.868	368.38
312.098	336.38
312.328	360.38
312.557	357.38
312.787	364.38
313.017	344.38
313.246	353.38
313.476	333.38
313.706	340.38
313.935	345.38
314.165	358.38
314.394	343.38
314.624	356.38
314.853	354.38
315.083	375.38
315.312	351.38
315.542	365.38
315.771	360.38
316.001	367.38
316.23	356.38
316.46	346.38
316.689	337.38
316.919	343.38
317.148	367.38
317.377	357.38
317.607	358.38
317.836	334.38
318.065	335.38
318.295	335.38
318.524	352.38
318.753	343.38
318.983	338.38
319.212	368.38
319.441	344.38
319.67	354.38
319.9	338.38
320.129	337.38
320.358	357.38
320.587	364.38
320.816	374.38
321.046	359.38
321.275	371.38
321.504	341.38
321.733	374.38
321.962	362.38
322.191	340.38
322.42	362.38
322.649	383.38
322.878	384.38
323.108	389.38
323.337	384.38
323.566	395.38
323.795	408.38
324.024	434.38
324.253	484.38
324.482	614.38
324.71	835.38
324.939	1153.38
325.168	1023.38
325.397	616.38
325.626	471.38
325.855	410.38
326.084	405.38
326.313	425.38
326.542	391.38
326.77	435.38
326.999	469.38
327.228	595.38
327.457	788.38
327.686	918.38
327.914	669.38
328.143	508.38
328.372	465.38
328.6	434.38
328.829	436.38
329.058	444.38
329.287	456.38
329.515	435.38
329.744	417.38
329.972	412.38
330.201	424.38
330.43	440.38
330.658	470.38
330.887	443.38
331.115	444.38
331.344	436.38
331.572	445.38
331.801	430.38
332.03	415.38
332.258	424.38
332.486	436.38
332.715	418.38
332.943	427.38
333.172	433.38
333.4	449.38
333.629	459.38
333.857	453.38
334.085	453.38
334.314	467.38
334.542	464.38
334.771	483.38
334.999	452.38
335.227	458.38
335.455	436.38
335.684	449.38
335.912	440.38
336.14	443.38
336.369	424.38
336.597	420.38
336.825	417.38
337.053	419.38
337.281	402.38
337.51	438.38
337.738	432.38
337.966	400.38
338.194	403.38
338.422	418.38
338.65	411.38
338.878	393.38
339.106	393.38
339.334	417.38
339.562	405.38
339.79	412.38
340.018	403.38
340.246	404.38
340.474	418.38
340.702	417.38
340.93	415.38
341.158	395.38
341.386	389.38
341.614	403.38
341.842	377.38
342.07	379.38
342.298	391.38
342.526	380.38
342.754	399.38
342.981	375.38
343.209	393.38
343.437	419.38
343.665	424.38
343.893	444.38
344.12	425.38
344.348	412.38
344.576	425.38
344.804	410.38
345.031	447.38
345.259	416.38
345.487	396.38
345.714	374.38
345.942	405.38
346.17	389.38
346.397	398.38
346.625	381.38
346.853	375.38
347.08	378.38
347.308	389.38
347.535	375.38
347.763	362.38
347.99	377.38
348.218	387.38
348.445	390.38
348.673	386.38
348.9	390.38
349.128	386.38
349.355	380.38
349.583	365.38
349.81	371.38
350.037	378.38
350.265	386.38
350.492	384.38
350.72	378.38
350.947	362.38
351.174	381.38
351.402	379.38
351.629	386.38
351.856	389.38
352.083	376.38
352.311	388.38
352.538	375.38
352.765	375.38
352.992	358.38
353.22	367.38
353.447	363.38
353.674	379.38
353.901	375.38
354.128	377.38
354.355	368.38
354.583	379.38
354.81	347.38
355.037	369.38
355.264	339.38
355.491	363.38
355.718	341.38
355.945	377.38
356.172	388.38
356.399	385.38
356.626	373.38
356.853	357.38
357.08	372.38
357.307	364.38
357.534	352.38
357.761	363.38
357.988	361.38
358.215	383.38
358.441	355.38
358.668	383.38
358.895	375.38
359.122	386.38
359.349	374.38
359.576	389.38
359.802	371.38
360.029	378.38
360.256	395.38
360.483	388.38
360.709	368.38
360.936	409.38
361.163	385.38
361.39	376.38
361.616	379.38
361.843	379.38
362.07	378.38
362.296	369.38
362.523	383.38
362.749	380.38
362.976	373.38
363.203	347.38
363.429	371.38
363.656	372.38
363.882	376.38
364.109	368.38
364.335	369.38
364.562	357.38
364.788	375.38
365.015	384.38
365.241	359.38
365.468	369.38
365.694	379.38
365.92	383.38
366.147	374.38
366.373	358.38
366.599	359.38
366.826	358.38
367.052	374.38
367.278	388.38
367.505	375.38
367.731	364.38
367.957	375.38
368.184	373.38
368.41	385.38
368.636	398.38
368.862	382.38
369.089	374.38
369.315	375.38
369.541	379.38
369.767	384.38
369.993	375.38
370.219	373.38
370.445	389.38
370.672	368.38
370.898	370.38
371.124	377.38
371.35	397.38
371.576	373.38
371.802	373.38
372.028	405.38
372.254	396.38
372.48	394.38
372.706	388.38
372.932	385.38
373.158	392.38
373.384	391.38
373.61	372.38
373.835	389.38
374.061	387.38
374.287	415.38
374.513	409.38
374.739	395.38
374.965	415.38
375.191	412.38
375.416	406.38
375.642	403.38
375.868	377.38
376.094	407.38
376.319	383.38
376.545	372.38
376.771	391.38
376.997	379.38
377.222	389.38
377.448	387.38
377.674	397.38
377.899	376.38
378.125	381.38
378.35	367.38
378.576	395.38
378.802	380.38
379.027	370.38
379.253	378.38
379.478	390.38
379.704	370.38
379.929	372.38
380.155	383.38
380.38	380.38
380.606	377.38
380.831	380.38
381.057	380.38
381.282	377.38
381.507	374.38
381.733	412.38
381.958	405.38
382.184	400.38
382.409	403.38
382.634	405.38
382.86	393.38
383.085	411.38
383.31	400.38
383.535	403.38
383.761	401.38
383.986	393.38
384.211	433.38
384.436	400.38
384.662	427.38
384.887	438.38
385.112	447.38
385.337	419.38
385.562	412.38
385.787	419.38
386.013	425.38
386.238	439.38
386.463	436.38
386.688	451.38
386.913	426.38
387.138	439.38
387.363	413.38
387.588	435.38
387.813	443.38
388.038	409.38
388.263	424.38
388.488	435.38
388.713	415.38
388.938	427.38
389.163	443.38
389.387	449.38
389.612	452.38
389.837	439.38
390.062	425.38
390.287	449.38
390.512	422.38
390.736	432.38
390.961	446.38
391.186	452.38
391.411	452.38
391.636	457.38
391.86	463.38
392.085	456.38
392.31	466.38
392.534	464.38
392.759	474.38
392.984	456.38
393.208	452.38
393.433	457.38
393.658	454.38
393.882	439.38
394.107	458.38
394.331	433.38
394.556	455.38
394.78	454.38
395.005	439.38
395.229	439.38
395.454	449.38
395.678	475.38
395.903	468.38
396.127	482.38
396.352	464.38
396.576	459.38
396.801	457.38
397.025	483.38
397.249	488.38
397.474	483.38
397.698	460.38
397.922	483.38
398.147	484.38
398.371	469.38
398.595	500.38
398.82	531.38
399.044	541.38
399.268	572.38
399.492	618.38
399.717	647.38
399.941	651.38
400.165	643.38
400.389	644.38
400.613	586.38
400.837	533.38
401.062	522.38
401.286	500.38
401.51	521.38
401.734	514.38
401.958	519.38
402.182	527.38
402.406	541.38
402.63	533.38
402.854	525.38
403.078	539.38
403.302	535.38
403.526	538.38
403.75	531.38
403.974	541.38
404.198	555.38
404.422	560.38
404.645	542.38
404.869	542.38
405.093	553.38
405.317	595.38
405.541	612.38
405.765	594.38
405.988	563.38
406.212	582.38
406.436	561.38
406.66	571.38
406.883	569.38
407.107	583.38
407.331	608.38
407.555	674.38
407.778	671.38
408.002	635.38
408.226	604.38
408.449	565.38
408.673	564.38
408.896	625.38
409.12	602.38
409.344	572.38
409.567	548.38
409.791	557.38
410.014	534.38
410.238	531.38
410.461	533.38
410.685	533.38
410.908	537.38
411.132	567.38
411.355	583.38
411.578	551.38
411.802	531.38
412.025	541.38
412.249	537.38
412.472	563.38
412.695	575.38
412.919	543.38
413.142	525.38
413.365	517.38
413.589	527.38
413.812	517.38
414.035	516.38
414.258	499.38
414.482	523.38
414.705	513.38
414.928	515.38
415.151	504.38
415.374	507.38
415.597	529.38
415.821	502.38
416.044	510.38
416.267	473.38
416.49	503.38
416.713	496.38
416.936	476.38
417.159	487.38
417.382	497.38
417.605	501.38
417.828	512.38
418.051	495.38
418.274	495.38
418.497	504.38
418.72	523.38
418.943	500.38
419.166	523.38
419.389	548.38
419.611	545.38
419.834	518.38
420.057	546.38
420.28	509.38
420.503	507.38
420.726	525.38
420.948	500.38
421.171	555.38
421.394	565.38
421.617	541.38
421.839	507.38
422.062	516.38
422.285	516.38
422.507	519.38
422.73	594.38
422.953	583.38
423.175	554.38
423.398	514.38
423.621	529.38
423.843	561.38
424.066	547.38
424.288	551.38
424.511	550.38
424.733	579.38
424.956	631.38
425.178	591.38
425.401	601.38
425.623	630.38
425.846	575.38
426.068	523.38
426.291	499.38
426.513	550.38
426.735	559.38
426.958	551.38
427.18	585.38
427.402	677.38
427.625	728.38
427.847	624.38
428.069	588.38
428.292	538.38
428.514	495.38
428.736	506.38
428.958	510.38
429.181	451.38
429.403	450.38
429.625	498.38
429.847	509.38
430.069	552.38
430.292	565.38
430.514	479.38
430.736	465.38
430.958	463.38
431.18	462.38
431.402	481.38
431.624	469.38
431.846	467.38
432.068	476.38
432.29	500.38
432.512	474.38
432.734	494.38
432.956	466.38
433.178	475.38
433.4	467.38
433.622	470.38
433.844	479.38
434.066	481.38
434.287	482.38
434.509	475.38
434.731	498.38
434.953	497.38
435.175	521.38
435.397	518.38
435.618	514.38
435.84	545.38
436.062	597.38
436.284	619.38
436.505	550.38
436.727	519.38
436.949	486.38
437.17	472.38
437.392	489.38
437.614	479.38
437.835	503.38
438.057	544.38
438.278	596.38
438.5	619.38
438.721	662.38
438.943	655.38
439.165	535.38
439.386	503.38
439.608	505.38
439.829	495.38
440.05	533.38
440.272	537.38
440.493	526.38
440.715	521.38
440.936	507.38
441.158	495.38
441.379	500.38
441.6	502.38
441.822	532.38
442.043	548.38
442.264	584.38
442.486	616.38
442.707	561.38
442.928	529.38
443.149	532.38
443.371	513.38
443.592	567.38
443.813	619.38
444.034	680.38
444.255	583.38
444.476	543.38
444.698	570.38
444.919	589.38
445.14	645.38
445.361	599.38
445.582	559.38
445.803	571.38
446.024	660.38
446.245	647.38
446.466	588.38
446.687	548.38
446.908	517.38
447.129	466.38
447.35	486.38
447.571	498.38
447.792	462.38
448.013	460.38
448.234	477.38
448.455	511.38
448.675	570.38
448.896	660.38
449.117	563.38
449.338	527.38
449.559	617.38
449.779	676.38
450	556.38
450.221	474.38
450.442	474.38
450.662	453.38
450.883	465.38
451.104	454.38
451.324	456.38
451.545	451.38
451.766	443.38
451.986	428.38
452.207	442.38
452.428	427.38
452.648	420.38
452.869	435.38
453.089	440.38
453.31	447.38
453.53	431.38
453.751	421.38
453.971	446.38
454.192	439.38
454.412	420.38
454.633	415.38
454.853	433.38
455.073	432.38
455.294	451.38
455.514	464.38
455.734	457.38
455.955	421.38
456.175	434.38
456.395	420.38
456.616	417.38
456.836	413.38
457.056	408.38
457.276	405.38
457.497	401.38
457.717	420.38
457.937	406.38
458.157	411.38
458.377	444.38
458.598	425.38
458.818	464.38
459.038	500.38
459.258	509.38
459.478	502.38
459.698	483.38
459.918	491.38
460.138	489.38
460.358	519.38
460.578	513.38
460.798	519.38
461.018	517.38
461.238	510.38
461.458	527.38
461.678	519.38
461.898	509.38
462.118	525.38
462.338	545.38
462.558	536.38
462.777	572.38
462.997	562.38
463.217	576.38
463.437	599.38
463.657	604.38
463.876	572.38
464.096	571.38
464.316	573.38
464.536	561.38
464.755	559.38
464.975	544.38
465.195	531.38
465.414	539.38
465.634	535.38
465.854	492.38
466.073	483.38
466.293	460.38
466.512	454.38
466.732	434.38
466.951	467.38
467.171	468.38
467.391	451.38
467.61	457.38
467.829	443.38
468.049	451.38
468.268	448.38
468.488	447.38
468.707	464.38
468.927	475.38
469.146	430.38
469.365	436.38
469.585	442.38
469.804	464.38
470.023	457.38
470.243	452.38
470.462	481.38
470.681	466.38
470.901	476.38
471.12	459.38
471.339	454.38
471.558	458.38
471.777	459.38
471.997	461.38
472.216	462.38
472.435	476.38
472.654	450.38
472.873	440.38
473.092	446.38
473.311	451.38
473.53	443.38
473.749	454.38
473.968	478.38
474.187	518.38
474.406	537.38
474.625	502.38
474.844	467.38
475.063	461.38
475.282	451.38
475.501	457.38
475.72	452.38
475.939	457.38
476.158	449.38
476.377	470.38
476.596	459.38
476.814	479.38
477.033	480.38
477.252	497.38
477.471	482.38
477.69	503.38
477.908	486.38
478.127	491.38
478.346	506.38
478.564	529.38
478.783	513.38
479.002	557.38
479.22	524.38
479.439	512.38
479.658	550.38
479.876	540.38
480.095	539.38
480.313	575.38
480.532	569.38
480.751	552.38
480.969	584.38
481.188	563.38
481.406	581.38
481.624	545.38
481.843	576.38
482.061	517.38
482.28	527.38
482.498	530.38
482.717	500.38
482.935	509.38
483.153	539.38
483.372	544.38
483.59	521.38
483.808	501.38
484.027	497.38
484.245	527.38
484.463	533.38
484.681	524.38
484.9	531.38
485.118	551.38
485.336	542.38
485.554	535.38
485.772	553.38
485.99	560.38
486.209	551.38
486.427	551.38
486.645	565.38
486.863	578.38
487.081	551.38
487.299	567.38
487.517	560.38
487.735	549.38
487.953	549.38
488.171	553.38
488.389	555.38
488.607	561.38
488.825	543.38
489.043	537.38
489.261	560.38
489.479	541.38
489.696	567.38
489.914	557.38
490.132	573.38
490.35	568.38
490.568	547.38
490.786	578.38
491.003	565.38
491.221	581.38
491.439	598.38
491.657	592.38
491.874	610.38
492.092	590.38
492.31	613.38
492.527	600.38
492.745	614.38
492.963	614.38
493.18	635.38
493.398	620.38
493.615	615.38
493.833	642.38
494.05	604.38
494.268	602.38
494.485	605.38
494.703	612.38
494.92	605.38
495.138	629.38
495.355	627.38
495.573	630.38
495.79	634.38
496.008	664.38
496.225	623.38
496.442	637.38
496.66	650.38
496.877	639.38
497.094	645.38
497.312	636.38
497.529	652.38
497.746	674.38
497.963	699.38
498.181	714.38
498.398	739.38
498.615	744.38
498.832	796.38
499.049	810.38
499.267	837.38
499.484	893.38
499.701	932.38
499.918	963.38
500.135	1070.38
500.352	1126.38
500.569	1178.38
500.786	1143.38
501.003	1140.38
501.22	1048.38
501.437	1043.38
501.654	971.38
501.871	903.38
502.088	880.38
502.305	819.38
502.522	807.38
502.739	775.38
502.956	746.38
503.172	717.38
503.389	708.38
503.606	676.38
503.823	698.38
504.04	675.38
504.256	653.38
504.473	677.38
504.69	686.38
504.907	692.38
505.123	671.38
505.34	637.38
505.557	651.38
505.773	639.38
505.99	620.38
506.207	584.38
506.423	593.38
506.64	589.38
506.856	612.38
507.073	569.38
507.289	583.38
507.506	570.38
507.722	563.38
507.939	579.38
508.155	563.38
508.372	548.38
508.588	537.38
508.805	539.38
509.021	570.38
509.238	555.38
509.454	538.38
509.67	553.38
509.887	563.38
510.103	553.38
510.319	529.38
510.536	596.38
510.752	773.38
510.968	675.38
511.184	555.38
511.401	543.38
511.617	523.38
511.833	543.38
512.049	515.38
512.265	517.38
512.481	534.38
512.698	539.38
512.914	529.38
513.13	544.38
513.346	527.38
513.562	536.38
513.778	528.38
513.994	541.38
514.21	533.38
514.426	543.38
514.642	552.38
514.858	555.38
515.074	591.38
515.29	605.38
515.506	736.38
515.721	671.38
515.937	601.38
516.153	590.38
516.369	564.38
516.585	590.38
516.801	563.38
517.016	595.38
517.232	601.38
517.448	606.38
517.664	610.38
517.879	626.38
518.095	612.38
518.311	609.38
518.527	594.38
518.742	587.38
518.958	566.38
519.173	572.38
519.389	552.38
519.605	523.38
519.82	552.38
520.036	576.38
520.251	561.38
520.467	560.38
520.682	535.38
520.898	534.38
521.113	530.38
521.329	548.38
521.544	568.38
521.76	633.38
521.975	849.38
522.19	841.38
522.406	591.38
522.621	517.38
522.836	482.38
523.052	504.38
523.267	492.38
523.482	489.38
523.698	470.38
523.913	484.38
524.128	473.38
524.343	472.38
524.559	488.38
524.774	481.38
524.989	460.38
525.204	463.38
525.419	469.38
525.634	459.38
525.849	471.38
526.064	460.38
526.28	465.38
526.495	448.38
526.71	447.38
526.925	460.38
527.14	474.38
527.355	444.38
527.57	464.38
527.785	474.38
527.999	440.38
528.214	457.38
528.429	456.38
528.644	450.38
528.859	447.38
529.074	455.38
529.289	472.38
529.503	468.38
529.718	465.38
529.933	456.38
530.148	449.38
530.363	457.38
530.577	468.38
530.792	455.38
531.007	453.38
531.221	439.38
531.436	424.38
531.651	450.38
531.865	448.38
532.08	457.38
532.295	456.38
532.509	451.38
532.724	448.38
532.938	442.38
533.153	454.38
533.367	443.38
533.582	445.38
533.796	461.38
534.011	448.38
534.225	445.38
534.44	427.38
534.654	444.38
534.868	439.38
535.083	431.38
535.297	430.38
535.511	445.38
535.726	435.38
535.94	416.38
536.154	438.38
536.369	432.38
536.583	439.38
536.797	429.38
537.011	441.38
537.225	437.38
537.44	431.38
537.654	428.38
537.868	415.38
538.082	420.38
538.296	413.38
538.51	416.38
538.724	403.38
538.938	406.38
539.153	433.38
539.367	417.38
539.581	414.38
539.795	421.38
540.009	425.38
540.222	408.38
540.436	393.38
540.65	407.38
540.864	443.38
541.078	423.38
541.292	423.38
541.506	412.38
541.72	413.38
541.934	410.38
542.147	435.38
542.361	428.38
542.575	405.38
542.789	406.38
543.002	416.38
543.216	414.38
543.43	427.38
543.644	415.38
543.857	432.38
544.071	412.38
544.285	405.38
544.498	411.38
544.712	394.38
544.925	421.38
545.139	407.38
545.352	405.38
545.566	424.38
545.779	408.38
545.993	429.38
546.206	431.38
546.42	428.38
546.633	437.38
546.847	425.38
547.06	405.38
547.274	407.38
547.487	425.38
547.7	405.38
547.914	420.38
548.127	408.38
548.34	415.38
548.554	427.38
548.767	416.38
548.98	417.38
549.193	448.38
549.407	418.38
549.62	410.38
549.833	435.38
550.046	428.38
550.259	404.38
550.473	404.38
550.686	430.38
550.899	443.38
551.112	399.38
551.325	420.38
551.538	435.38
551.751	398.38
551.964	408.38
552.177	432.38
552.39	424.38
552.603	433.38
552.816	410.38
553.029	424.38
553.242	431.38
553.455	438.38
553.667	435.38
553.88	443.38
554.093	424.38
554.306	438.38
554.519	417.38
554.732	416.38
554.944	400.38
555.157	404.38
555.37	388.38
555.583	391.38
555.795	402.38
556.008	385.38
556.221	393.38
556.433	395.38
556.646	393.38
556.859	381.38
557.071	375.38
557.284	380.38
557.496	357.38
557.709	367.38
557.921	357.38
558.134	367.38
558.346	361.38
558.559	357.38
558.771	379.38
558.984	384.38
559.196	358.38
559.409	361.38
559.621	355.38
559.833	355.38
560.046	374.38
560.258	369.38
560.47	363.38
560.683	375.38
560.895	359.38
561.107	359.38
561.32	362.38
561.532	370.38
561.744	383.38
561.956	364.38
562.168	360.38
562.381	369.38
562.593	362.38
562.805	393.38
563.017	370.38
563.229	376.38
563.441	381.38
563.653	383.38
563.865	373.38
564.077	390.38
564.289	398.38
564.501	375.38
564.713	395.38
564.925	393.38
565.137	420.38
565.349	424.38
565.561	406.38
565.773	420.38
565.985	449.38
566.197	454.38
566.408	454.38
566.62	473.38
566.832	502.38
567.044	519.38
567.255	531.38
567.467	517.38
567.679	576.38
567.891	572.38
568.102	568.38
568.314	554.38
568.526	519.38
568.737	497.38
568.949	460.38
569.161	447.38
569.372	407.38
569.584	410.38
569.795	411.38
570.007	408.38
570.218	394.38
570.43	393.38
570.641	391.38
570.853	388.38
571.064	380.38
571.276	395.38
571.487	375.38
571.698	357.38
571.91	361.38
572.121	356.38
572.333	369.38
572.544	360.38
572.755	359.38
572.966	352.38
573.178	344.38
573.389	327.38
573.6	339.38
573.811	340.38
574.023	338.38
574.234	322.38
574.445	342.38
574.656	320.38
574.867	311.38
575.078	335.38
575.289	337.38
575.501	323.38
575.712	319.38
575.923	324.38
576.134	332.38
576.345	315.38
576.556	330.38
576.767	303.38
576.978	305.38
577.188	313.38
577.399	317.38
577.61	335.38
577.821	307.38
578.032	299.38
578.243	326.38
578.454	383.38
578.665	346.38
578.875	319.38
579.086	295.38
579.297	303.38
579.508	301.38
579.718	319.38
579.929	298.38
580.14	305.38
580.35	308.38
580.561	319.38
580.772	307.38
580.982	287.38
581.193	284.38
581.403	293.38
581.614	292.38
581.825	284.38
582.035	289.38
582.246	285.38
582.456	297.38
582.667	281.38
582.877	287.38
583.087	291.38
583.298	286.38
583.508	291.38
583.719	303.38
583.929	287.38
584.139	296.38
584.35	295.38
584.56	289.38
584.77	299.38
584.981	269.38
585.191	272.38
585.401	277.38
585.611	282.38
585.821	270.38
586.032	288.38
586.242	284.38
586.452	294.38
586.662	281.38
586.872	285.38
587.082	272.38
587.292	283.38
587.502	297.38
587.713	305.38
587.923	291.38
588.133	308.38
588.343	295.38
588.553	287.38
588.762	284.38
588.972	285.38
589.182	330.38
589.392	353.38
589.602	293.38
589.812	342.38
590.022	326.38
590.232	287.38
590.441	289.38
590.651	292.38
590.861	274.38
591.071	291.38
591.281	300.38
591.49	309.38
591.7	284.38
591.91	309.38
592.119	295.38
592.329	310.38
592.539	321.38
592.748	337.38
592.958	327.38
593.167	316.38
593.377	332.38
593.587	345.38
593.796	333.38
594.006	328.38
594.215	323.38
594.424	324.38
594.634	333.38
594.843	321.38
595.053	294.38
595.262	348.38
595.472	311.38
595.681	297.38
595.89	285.38
596.1	287.38
596.309	278.38
596.518	274.38
596.727	273.38
596.937	261.38
597.146	275.38
597.355	280.38
597.564	255.38
597.774	284.38
597.983	269.38
598.192	262.38
598.401	250.38
598.61	250.38
598.819	263.38
599.028	253.38
599.237	266.38
599.446	258.38
599.655	252.38
599.864	255.38
600.073	277.38
600.282	259.38
600.491	257.38
600.7	247.38
600.909	249.38
601.118	243.38
601.327	242.38
601.536	239.38
601.745	244.38
601.953	257.38
602.162	236.38
602.371	255.38
602.58	241.38
602.789	251.38
602.997	238.38
603.206	247.38
603.415	259.38
603.623	233.38
603.832	241.38
604.041	234.38
604.249	248.38
604.458	216.38
604.666	239.38
604.875	231.38
605.084	239.38
605.292	220.38
605.501	246.38
605.709	241.38
605.918	241.38
606.126	222.38
606.334	240.38
606.543	210.38
606.751	233.38
606.96	208.38
607.168	228.38
607.376	224.38
607.585	239.38
607.793	216.38
608.001	232.38
608.21	224.38
608.418	228.38
608.626	227.38
608.834	233.38
609.043	220.38
609.251	244.38
609.459	224.38
609.667	224.38
609.875	227.38
610.083	226.38
610.291	243.38
610.499	210.38
610.707	237.38
610.916	221.38
611.124	227.38
611.332	254.38
611.54	233.38
611.748	230.38
611.955	229.38
612.163	236.38
612.371	229.38
612.579	225.38
612.787	228.38
612.995	223.38
613.203	232.38
613.411	216.38
613.618	230.38
613.826	241.38
614.034	244.38
614.242	216.38
614.449	228.38
614.657	231.38
614.865	211.38
615.072	239.38
615.28	220.38
615.488	222.38
615.695	224.38
615.903	228.38
616.111	217.38
616.318	251.38
616.526	230.38
616.733	227.38
616.941	226.38
617.148	224.38
617.356	228.38
617.563	233.38
617.771	219.38
617.978	209.38
618.185	236.38
618.393	235.38
618.6	237.38
618.807	218.38
619.015	197.38
619.222	204.38
619.429	227.38
619.637	213.38
619.844	237.38
620.051	216.38
620.258	222.38
620.466	211.38
620.673	204.38
620.88	201.38
621.087	199.38
621.294	207.38
621.501	208.38
621.708	217.38
621.915	215.38
622.122	204.38
622.329	216.38
622.536	211.38
622.743	231.38
622.95	225.38
623.157	210.38
623.364	217.38
623.571	205.38
623.778	197.38
623.985	205.38
624.192	207.38
624.399	203.38
624.606	186.38
624.812	200.38
625.019	193.38
625.226	213.38
625.433	220.38
625.639	219.38
625.846	216.38
626.053	207.38
626.259	202.38
626.466	204.38
626.673	208.38
626.879	186.38
627.086	211.38
627.293	197.38
627.499	184.38
627.706	207.38
627.912	200.38
628.119	195.38
628.325	188.38
628.532	185.38
628.738	187.38
628.945	196.38
629.151	183.38
629.357	175.38
629.564	176.38
629.77	192.38
629.976	190.38
630.183	193.38
630.389	194.38
630.595	193.38
630.802	194.38
631.008	196.38
631.214	180.38
631.42	190.38
631.627	191.38
631.833	185.38
632.039	189.38
632.245	189.38
632.451	179.38
632.657	167.38
632.863	183.38
633.069	174.38
633.275	186.38
633.481	181.38
633.688	167.38
633.893	181.38
634.099	183.38
634.305	165.38
634.511	172.38
634.717	190.38
634.923	193.38
635.129	187.38
635.335	181.38
635.541	163.38
635.747	185.38
635.952	185.38
636.158	164.38
636.364	175.38
636.57	169.38
636.775	173.38
636.981	164.38
637.187	183.38
637.392	162.38
637.598	194.38
637.804	169.38
638.009	189.38
638.215	177.38
638.421	181.38
638.626	170.38
638.832	163.38
639.037	177.38
639.243	161.38
639.448	160.38
639.654	160.38
639.859	160.38
640.065	165.38
640.27	155.38
640.475	159.38
640.681	173.38
640.886	169.38
641.091	163.38
641.297	161.38
641.502	163.38
641.707	177.38
641.913	170.38
642.118	156.38
642.323	165.38
642.528	165.38
642.733	148.38
642.939	159.38
643.144	164.38
643.349	159.38
643.554	169.38
643.759	146.38
643.964	163.38
644.169	167.38
644.374	154.38
644.579	161.38
644.784	150.38
644.989	149.38
645.194	156.38
645.399	156.38
645.604	149.38
645.809	152.38
646.014	163.38
646.219	159.38
646.423	166.38
646.628	165.38
646.833	164.38
647.038	178.38
647.243	163.38
647.447	147.38
647.652	163.38
647.857	155.38
648.062	171.38
648.266	165.38
648.471	183.38
648.676	175.38
648.88	161.38
649.085	171.38
649.289	172.38
649.494	152.38
649.698	181.38
649.903	178.38
650.107	165.38
650.312	171.38
650.516	167.38
650.721	165.38
650.925	173.38
651.13	145.38
651.334	152.38
651.539	148.38
651.743	130.38
651.947	157.38
652.152	145.38
652.356	139.38
652.56	148.38
652.764	141.38
652.969	141.38
653.173	123.38
653.377	142.38
653.581	138.38
653.785	123.38
653.99	136.38
654.194	133.38
654.398	141.38
654.602	131.38
654.806	145.38
655.01	153.38
655.214	147.38
655.418	147.38
655.622	148.38
655.826	147.38
656.03	139.38
656.234	151.38
656.438	152.38
656.642	153.38
656.846	138.38
657.049	135.38
657.253	140.38
657.457	128.38
657.661	120.38
657.865	122.38
658.068	107.38
658.272	115.38
658.476	124.38
658.68	96.38
658.883	104.38
659.087	92.38
659.291	120.38
659.494	92.38
659.698	103.38
659.901	95.38
660.105	90.38
660.309	88.38
660.512	107.38
660.716	85.38
660.919	92.38
661.123	86.38
661.326	82.38
661.53	95.38
661.733	98.38
661.936	87.38
662.14	86.38
662.343	87.38
662.546	89.38
662.75	82.38
662.953	94.38
663.156	82.38
663.36	82.38
663.563	80.38
663.766	76.38
663.969	77.38
664.173	75.38
664.376	79.38
664.579	83.38
664.782	84.38
664.985	85.38
665.188	92.38
665.391	82.38
665.594	71.38
665.797	87.38
666	83.38
666.203	79.38
666.406	84.38
666.609	87.38
666.812	73.38
667.015	80.38
667.218	79.38
667.421	82.38
667.624	78.38
667.827	75.38
668.03	100.38
668.232	97.38
668.435	82.38
668.638	84.38
668.841	77.38
669.043	84.38
669.246	79.38
669.449	91.38
669.651	84.38
669.854	80.38
670.057	81.38
670.259	82.38
670.462	82.38
670.665	73.38
670.867	76.38
671.07	77.38
671.272	91.38
671.475	89.38
671.677	77.38
671.88	98.38
672.082	79.38
672.284	91.38
672.487	86.38
672.689	81.38
672.892	93.38
