Data from 1962.PennyLincolnUp.Lamp.En5.5.200Scan.071719.P1._HRD10591_13-53-24-060.txt Node
Date: Thu Jul 18 13:53:24 EDT 2019
User: cochatt
Spectrometer: HR+D1059
Trigger mode: 1
Integration Time (sec): 1.000000E-1
Scans to average: 1
Electric dark correction enabled: true
Nonlinearity correction enabled: false
Boxcar width: 0
XAxis mode: Wavelengths
Number of Pixels in Spectrum: 2048
>>>>>Begin Spectral Data<<<<<
223.165	-14.94
223.4	-14.94
223.635	-14.94
223.869	-11.94
224.104	-7.94
224.338	-24.94
224.573	-5.94
224.808	-9.94
225.042	0.06
225.277	-7.94
225.511	0.06
225.746	8.06
225.98	6.06
226.215	14.06
226.449	8.06
226.683	8.06
226.918	16.06
227.152	23.06
227.387	37.06
227.621	38.06
227.856	51.06
228.09	58.06
228.324	52.06
228.559	71.06
228.793	66.06
229.027	84.06
229.262	97.06
229.496	114.06
229.73	102.06
229.964	128.06
230.199	102.06
230.433	118.06
230.667	97.06
230.901	104.06
231.136	112.06
231.37	101.06
231.604	112.06
231.838	106.06
232.072	94.06
232.306	110.06
232.541	105.06
232.775	114.06
233.009	99.06
233.243	113.06
233.477	118.06
233.711	107.06
233.945	124.06
234.179	114.06
234.413	113.06
234.647	109.06
234.881	119.06
235.115	102.06
235.349	107.06
235.583	105.06
235.817	113.06
236.051	123.06
236.285	122.06
236.519	112.06
236.753	102.06
236.987	135.06
237.221	147.06
237.455	185.06
237.689	168.06
237.922	129.06
238.156	123.06
238.39	112.06
238.624	107.06
238.858	121.06
239.091	118.06
239.325	118.06
239.559	109.06
239.793	108.06
240.027	120.06
240.26	130.06
240.494	131.06
240.728	122.06
240.961	147.06
241.195	128.06
241.429	133.06
241.662	130.06
241.896	126.06
242.13	134.06
242.363	115.06
242.597	134.06
242.83	125.06
243.064	125.06
243.298	123.06
243.531	136.06
243.765	134.06
243.998	137.06
244.232	150.06
244.465	130.06
244.699	134.06
244.932	130.06
245.166	141.06
245.399	155.06
245.633	139.06
245.866	141.06
246.099	132.06
246.333	138.06
246.566	143.06
246.8	148.06
247.033	143.06
247.266	156.06
247.5	136.06
247.733	157.06
247.966	148.06
248.2	161.06
248.433	162.06
248.666	164.06
248.899	169.06
249.133	176.06
249.366	180.06
249.599	182.06
249.832	155.06
250.066	169.06
250.299	151.06
250.532	161.06
250.765	179.06
250.998	188.06
251.231	181.06
251.465	176.06
251.698	192.06
251.931	159.06
252.164	180.06
252.397	166.06
252.63	176.06
252.863	173.06
253.096	185.06
253.329	190.06
253.562	191.06
253.795	191.06
254.028	193.06
254.261	195.06
254.494	192.06
254.727	194.06
254.96	213.06
255.193	211.06
255.426	214.06
255.659	190.06
255.892	200.06
256.124	182.06
256.357	209.06
256.59	221.06
256.823	185.06
257.056	173.06
257.289	202.06
257.521	186.06
257.754	183.06
257.987	188.06
258.22	200.06
258.452	203.06
258.685	185.06
258.918	190.06
259.151	175.06
259.383	197.06
259.616	196.06
259.849	188.06
260.081	206.06
260.314	217.06
260.547	210.06
260.779	216.06
261.012	206.06
261.244	206.06
261.477	193.06
261.71	187.06
261.942	199.06
262.175	208.06
262.407	199.06
262.64	214.06
262.872	212.06
263.105	195.06
263.337	210.06
263.57	201.06
263.802	206.06
264.035	190.06
264.267	201.06
264.499	215.06
264.732	208.06
264.964	200.06
265.197	203.06
265.429	208.06
265.661	204.06
265.894	204.06
266.126	219.06
266.358	200.06
266.591	206.06
266.823	218.06
267.055	213.06
267.287	232.06
267.52	225.06
267.752	216.06
267.984	216.06
268.216	205.06
268.448	224.06
268.681	236.06
268.913	216.06
269.145	236.06
269.377	235.06
269.609	232.06
269.841	251.06
270.073	246.06
270.306	256.06
270.538	247.06
270.77	263.06
271.002	280.06
271.234	256.06
271.466	263.06
271.698	276.06
271.93	266.06
272.162	270.06
272.394	298.06
272.626	260.06
272.858	242.06
273.09	254.06
273.322	246.06
273.553	253.06
273.785	250.06
274.017	232.06
274.249	237.06
274.481	277.06
274.713	250.06
274.945	246.06
275.176	231.06
275.408	236.06
275.64	246.06
275.872	257.06
276.104	251.06
276.335	246.06
276.567	256.06
276.799	256.06
277.031	285.06
277.262	271.06
277.494	292.06
277.726	269.06
277.957	277.06
278.189	271.06
278.421	259.06
278.652	257.06
278.884	259.06
279.115	260.06
279.347	249.06
279.579	265.06
279.81	249.06
280.042	257.06
280.273	252.06
280.505	278.06
280.736	261.06
280.968	262.06
281.199	267.06
281.431	255.06
281.662	273.06
281.894	284.06
282.125	258.06
282.356	270.06
282.588	280.06
282.819	272.06
283.051	255.06
283.282	259.06
283.513	271.06
283.745	274.06
283.976	283.06
284.207	275.06
284.439	277.06
284.67	289.06
284.901	281.06
285.132	276.06
285.364	270.06
285.595	271.06
285.826	280.06
286.057	261.06
286.288	274.06
286.52	269.06
286.751	294.06
286.982	276.06
287.213	292.06
287.444	288.06
287.675	295.06
287.906	302.06
288.138	304.06
288.369	296.06
288.6	279.06
288.831	295.06
289.062	287.06
289.293	290.06
289.524	270.06
289.755	284.06
289.986	284.06
290.217	295.06
290.448	292.06
290.679	311.06
290.91	290.06
291.141	278.06
291.371	302.06
291.602	293.06
291.833	277.06
292.064	300.06
292.295	307.06
292.526	294.06
292.757	286.06
292.987	292.06
293.218	292.06
293.449	310.06
293.68	303.06
293.91	307.06
294.141	290.06
294.372	298.06
294.603	300.06
294.833	298.06
295.064	314.06
295.295	300.06
295.525	294.06
295.756	291.06
295.987	290.06
296.217	312.06
296.448	337.06
296.679	330.06
296.909	298.06
297.14	296.06
297.37	305.06
297.601	311.06
297.831	301.06
298.062	299.06
298.292	304.06
298.523	308.06
298.753	309.06
298.984	310.06
299.214	321.06
299.445	315.06
299.675	320.06
299.905	314.06
300.136	328.06
300.366	304.06
300.597	316.06
300.827	319.06
301.057	316.06
301.288	342.06
301.518	314.06
301.748	325.06
301.979	339.06
302.209	320.06
302.439	331.06
302.669	307.06
302.9	320.06
303.13	318.06
303.36	343.06
303.59	324.06
303.82	341.06
304.051	333.06
304.281	336.06
304.511	317.06
304.741	318.06
304.971	318.06
305.201	340.06
305.431	326.06
305.661	347.06
305.891	328.06
306.121	319.06
306.352	341.06
306.582	326.06
306.812	340.06
307.042	348.06
307.272	350.06
307.502	338.06
307.731	351.06
307.961	326.06
308.191	315.06
308.421	320.06
308.651	337.06
308.881	333.06
309.111	337.06
309.341	339.06
309.571	336.06
309.8	342.06
310.03	332.06
310.26	358.06
310.49	343.06
310.72	347.06
310.949	365.06
311.179	377.06
311.409	355.06
311.639	357.06
311.868	357.06
312.098	381.06
312.328	362.06
312.557	371.06
312.787	368.06
313.017	370.06
313.246	381.06
313.476	345.06
313.706	366.06
313.935	362.06
314.165	342.06
314.394	369.06
314.624	362.06
314.853	382.06
315.083	381.06
315.312	372.06
315.542	356.06
315.771	359.06
316.001	364.06
316.23	348.06
316.46	350.06
316.689	368.06
316.919	352.06
317.148	357.06
317.377	375.06
317.607	366.06
317.836	373.06
318.065	366.06
318.295	378.06
318.524	362.06
318.753	364.06
318.983	364.06
319.212	355.06
319.441	346.06
319.67	372.06
319.9	361.06
320.129	372.06
320.358	378.06
320.587	369.06
320.816	350.06
321.046	365.06
321.275	382.06
321.504	376.06
321.733	381.06
321.962	390.06
322.191	380.06
322.42	386.06
322.649	406.06
322.878	387.06
323.108	387.06
323.337	375.06
323.566	419.06
323.795	427.06
324.024	443.06
324.253	516.06
324.482	636.06
324.71	917.06
324.939	1259.06
325.168	1130.06
325.397	648.06
325.626	503.06
325.855	460.06
326.084	444.06
326.313	408.06
326.542	425.06
326.77	445.06
326.999	499.06
327.228	588.06
327.457	838.06
327.686	993.06
327.914	729.06
328.143	533.06
328.372	502.06
328.6	457.06
328.829	440.06
329.058	445.06
329.287	463.06
329.515	439.06
329.744	425.06
329.972	444.06
330.201	441.06
330.43	450.06
330.658	461.06
330.887	482.06
331.115	477.06
331.344	438.06
331.572	442.06
331.801	454.06
332.03	438.06
332.258	442.06
332.486	432.06
332.715	441.06
332.943	444.06
333.172	465.06
333.4	467.06
333.629	466.06
333.857	496.06
334.085	480.06
334.314	502.06
334.542	488.06
334.771	510.06
334.999	482.06
335.227	465.06
335.455	481.06
335.684	463.06
335.912	458.06
336.14	456.06
336.369	443.06
336.597	445.06
336.825	434.06
337.053	453.06
337.281	434.06
337.51	424.06
337.738	439.06
337.966	454.06
338.194	455.06
338.422	432.06
338.65	436.06
338.878	419.06
339.106	427.06
339.334	410.06
339.562	438.06
339.79	416.06
340.018	422.06
340.246	425.06
340.474	400.06
340.702	423.06
340.93	414.06
341.158	413.06
341.386	416.06
341.614	416.06
341.842	409.06
342.07	408.06
342.298	410.06
342.526	395.06
342.754	413.06
342.981	418.06
343.209	413.06
343.437	430.06
343.665	425.06
343.893	453.06
344.12	465.06
344.348	444.06
344.576	449.06
344.804	415.06
345.031	418.06
345.259	428.06
345.487	409.06
345.714	411.06
345.942	417.06
346.17	409.06
346.397	406.06
346.625	399.06
346.853	394.06
347.08	375.06
347.308	403.06
347.535	394.06
347.763	392.06
347.99	390.06
348.218	396.06
348.445	426.06
348.673	405.06
348.9	380.06
349.128	399.06
349.355	396.06
349.583	388.06
349.81	381.06
350.037	401.06
350.265	395.06
350.492	388.06
350.72	391.06
350.947	387.06
351.174	412.06
351.402	407.06
351.629	386.06
351.856	391.06
352.083	394.06
352.311	422.06
352.538	379.06
352.765	382.06
352.992	379.06
353.22	378.06
353.447	387.06
353.674	375.06
353.901	371.06
354.128	374.06
354.355	384.06
354.583	386.06
354.81	363.06
355.037	376.06
355.264	380.06
355.491	375.06
355.718	385.06
355.945	388.06
356.172	378.06
356.399	383.06
356.626	379.06
356.853	386.06
357.08	381.06
357.307	378.06
357.534	382.06
357.761	385.06
357.988	394.06
358.215	395.06
358.441	358.06
358.668	386.06
358.895	362.06
359.122	396.06
359.349	381.06
359.576	391.06
359.802	396.06
360.029	406.06
360.256	398.06
360.483	420.06
360.709	392.06
360.936	388.06
361.163	386.06
361.39	379.06
361.616	412.06
361.843	373.06
362.07	385.06
362.296	382.06
362.523	425.06
362.749	391.06
362.976	381.06
363.203	387.06
363.429	391.06
363.656	393.06
363.882	391.06
364.109	392.06
364.335	382.06
364.562	379.06
364.788	368.06
365.015	383.06
365.241	381.06
365.468	378.06
365.694	402.06
365.92	372.06
366.147	382.06
366.373	392.06
366.599	402.06
366.826	382.06
367.052	390.06
367.278	383.06
367.505	388.06
367.731	401.06
367.957	367.06
368.184	381.06
368.41	397.06
368.636	391.06
368.862	396.06
369.089	382.06
369.315	383.06
369.541	381.06
369.767	384.06
369.993	389.06
370.219	373.06
370.445	362.06
370.672	386.06
370.898	380.06
371.124	398.06
371.35	410.06
371.576	387.06
371.802	386.06
372.028	396.06
372.254	404.06
372.48	401.06
372.706	418.06
372.932	381.06
373.158	427.06
373.384	398.06
373.61	409.06
373.835	410.06
374.061	408.06
374.287	392.06
374.513	406.06
374.739	411.06
374.965	396.06
375.191	407.06
375.416	395.06
375.642	404.06
375.868	416.06
376.094	399.06
376.319	406.06
376.545	405.06
376.771	395.06
376.997	396.06
377.222	398.06
377.448	409.06
377.674	379.06
377.899	400.06
378.125	392.06
378.35	397.06
378.576	389.06
378.802	405.06
379.027	400.06
379.253	392.06
379.478	389.06
379.704	395.06
379.929	396.06
380.155	388.06
380.38	387.06
380.606	382.06
380.831	395.06
381.057	410.06
381.282	403.06
381.507	382.06
381.733	408.06
381.958	404.06
382.184	416.06
382.409	428.06
382.634	421.06
382.86	412.06
383.085	422.06
383.31	409.06
383.535	421.06
383.761	423.06
383.986	421.06
384.211	433.06
384.436	434.06
384.662	433.06
384.887	449.06
385.112	449.06
385.337	441.06
385.562	449.06
385.787	452.06
386.013	454.06
386.238	446.06
386.463	438.06
386.688	452.06
386.913	438.06
387.138	451.06
387.363	456.06
387.588	435.06
387.813	451.06
388.038	450.06
388.263	455.06
388.488	444.06
388.713	431.06
388.938	458.06
389.163	439.06
389.387	460.06
389.612	461.06
389.837	462.06
390.062	460.06
390.287	465.06
390.512	471.06
390.736	442.06
390.961	454.06
391.186	454.06
391.411	478.06
391.636	456.06
391.86	466.06
392.085	471.06
392.31	484.06
392.534	464.06
392.759	454.06
392.984	456.06
393.208	460.06
393.433	449.06
393.658	458.06
393.882	461.06
394.107	461.06
394.331	480.06
394.556	457.06
394.78	476.06
395.005	471.06
395.229	499.06
395.454	480.06
395.678	498.06
395.903	492.06
396.127	498.06
396.352	477.06
396.576	497.06
396.801	468.06
397.025	462.06
397.249	483.06
397.474	499.06
397.698	509.06
397.922	516.06
398.147	509.06
398.371	517.06
398.595	522.06
398.82	538.06
399.044	544.06
399.268	586.06
399.492	633.06
399.717	665.06
399.941	677.06
400.165	685.06
400.389	645.06
400.613	609.06
400.837	550.06
401.062	523.06
401.286	541.06
401.51	520.06
401.734	566.06
401.958	525.06
402.182	533.06
402.406	531.06
402.63	534.06
402.854	549.06
403.078	547.06
403.302	555.06
403.526	560.06
403.75	569.06
403.974	560.06
404.198	576.06
404.422	562.06
404.645	574.06
404.869	572.06
405.093	577.06
405.317	602.06
405.541	635.06
405.765	597.06
405.988	565.06
406.212	579.06
406.436	579.06
406.66	573.06
406.883	589.06
407.107	610.06
407.331	660.06
407.555	702.06
407.778	690.06
408.002	638.06
408.226	620.06
408.449	618.06
408.673	597.06
408.896	624.06
409.12	642.06
409.344	635.06
409.567	587.06
409.791	579.06
410.014	553.06
410.238	558.06
410.461	547.06
410.685	562.06
410.908	580.06
411.132	586.06
411.355	597.06
411.578	583.06
411.802	549.06
412.025	552.06
412.249	540.06
412.472	562.06
412.695	606.06
412.919	586.06
413.142	560.06
413.365	558.06
413.589	558.06
413.812	573.06
414.035	517.06
414.258	523.06
414.482	548.06
414.705	531.06
414.928	523.06
415.151	547.06
415.374	543.06
415.597	509.06
415.821	506.06
416.044	526.06
416.267	521.06
416.49	520.06
416.713	521.06
416.936	519.06
417.159	516.06
417.382	518.06
417.605	531.06
417.828	515.06
418.051	558.06
418.274	538.06
418.497	535.06
418.72	502.06
418.943	520.06
419.166	557.06
419.389	583.06
419.611	573.06
419.834	562.06
420.057	533.06
420.28	529.06
420.503	519.06
420.726	520.06
420.948	525.06
421.171	576.06
421.394	589.06
421.617	556.06
421.839	528.06
422.062	507.06
422.285	540.06
422.507	572.06
422.73	629.06
422.953	587.06
423.175	560.06
423.398	551.06
423.621	564.06
423.843	536.06
424.066	569.06
424.288	568.06
424.511	587.06
424.733	604.06
424.956	661.06
425.178	622.06
425.401	617.06
425.623	647.06
425.846	573.06
426.068	538.06
426.291	550.06
426.513	551.06
426.735	534.06
426.958	578.06
427.18	612.06
427.402	706.06
427.625	736.06
427.847	651.06
428.069	610.06
428.292	562.06
428.514	542.06
428.736	514.06
428.958	506.06
429.181	474.06
429.403	508.06
429.625	500.06
429.847	532.06
430.069	566.06
430.292	578.06
430.514	515.06
430.736	518.06
430.958	484.06
431.18	489.06
431.402	494.06
431.624	488.06
431.846	505.06
432.068	492.06
432.29	499.06
432.512	499.06
432.734	480.06
432.956	503.06
433.178	500.06
433.4	489.06
433.622	493.06
433.844	488.06
434.066	493.06
434.287	516.06
434.509	505.06
434.731	501.06
434.953	526.06
435.175	551.06
435.397	534.06
435.618	543.06
435.84	566.06
436.062	635.06
436.284	675.06
436.505	572.06
436.727	526.06
436.949	507.06
437.17	496.06
437.392	509.06
437.614	488.06
437.835	518.06
438.057	582.06
438.278	633.06
438.5	639.06
438.721	701.06
438.943	679.06
439.165	546.06
439.386	515.06
439.608	526.06
439.829	523.06
440.05	546.06
440.272	550.06
440.493	530.06
440.715	503.06
440.936	522.06
441.158	527.06
441.379	519.06
441.6	530.06
441.822	541.06
442.043	554.06
442.264	617.06
442.486	636.06
442.707	581.06
442.928	544.06
443.149	560.06
443.371	544.06
443.592	586.06
443.813	656.06
444.034	725.06
444.255	618.06
444.476	584.06
444.698	595.06
444.919	589.06
445.14	660.06
445.361	614.06
445.582	580.06
445.803	588.06
446.024	650.06
446.245	662.06
446.466	617.06
446.687	561.06
446.908	554.06
447.129	520.06
447.35	499.06
447.571	490.06
447.792	486.06
448.013	501.06
448.234	506.06
448.455	516.06
448.675	619.06
448.896	684.06
449.117	574.06
449.338	555.06
449.559	626.06
449.779	714.06
450	611.06
450.221	512.06
450.442	496.06
450.662	480.06
450.883	478.06
451.104	486.06
451.324	472.06
451.545	467.06
451.766	464.06
451.986	446.06
452.207	441.06
452.428	434.06
452.648	448.06
452.869	472.06
453.089	445.06
453.31	460.06
453.53	455.06
453.751	444.06
453.971	436.06
454.192	439.06
454.412	442.06
454.633	442.06
454.853	427.06
455.073	446.06
455.294	438.06
455.514	472.06
455.734	498.06
455.955	425.06
456.175	458.06
456.395	433.06
456.616	435.06
456.836	422.06
457.056	408.06
457.276	434.06
457.497	436.06
457.717	424.06
457.937	456.06
458.157	442.06
458.377	460.06
458.598	476.06
458.818	491.06
459.038	526.06
459.258	545.06
459.478	505.06
459.698	504.06
459.918	491.06
460.138	475.06
460.358	505.06
460.578	530.06
460.798	548.06
461.018	545.06
461.238	515.06
461.458	531.06
461.678	524.06
461.898	531.06
462.118	522.06
462.338	536.06
462.558	557.06
462.777	552.06
462.997	612.06
463.217	625.06
463.437	616.06
463.657	603.06
463.876	606.06
464.096	569.06
464.316	578.06
464.536	580.06
464.755	552.06
464.975	566.06
465.195	563.06
465.414	566.06
465.634	523.06
465.854	532.06
466.073	509.06
466.293	499.06
466.512	469.06
466.732	495.06
466.951	470.06
467.171	464.06
467.391	484.06
467.61	468.06
467.829	466.06
468.049	465.06
468.268	476.06
468.488	461.06
468.707	461.06
468.927	452.06
469.146	459.06
469.365	473.06
469.585	468.06
469.804	475.06
470.023	478.06
470.243	461.06
470.462	474.06
470.681	498.06
470.901	485.06
471.12	482.06
471.339	484.06
471.558	466.06
471.777	471.06
471.997	458.06
472.216	461.06
472.435	485.06
472.654	469.06
472.873	470.06
473.092	461.06
473.311	466.06
473.53	470.06
473.749	472.06
473.968	496.06
474.187	530.06
474.406	551.06
474.625	487.06
474.844	485.06
475.063	465.06
475.282	471.06
475.501	500.06
475.72	480.06
475.939	465.06
476.158	483.06
476.377	498.06
476.596	471.06
476.814	500.06
477.033	467.06
477.252	487.06
477.471	517.06
477.69	533.06
477.908	496.06
478.127	501.06
478.346	539.06
478.564	537.06
478.783	555.06
479.002	532.06
479.22	564.06
479.439	576.06
479.658	561.06
479.876	564.06
480.095	577.06
480.313	587.06
480.532	587.06
480.751	584.06
480.969	605.06
481.188	598.06
481.406	607.06
481.624	563.06
481.843	566.06
482.061	543.06
482.28	560.06
482.498	541.06
482.717	555.06
482.935	544.06
483.153	541.06
483.372	538.06
483.59	548.06
483.808	547.06
484.027	537.06
484.245	539.06
484.463	540.06
484.681	560.06
484.9	568.06
485.118	534.06
485.336	561.06
485.554	566.06
485.772	564.06
485.99	557.06
486.209	548.06
486.427	551.06
486.645	600.06
486.863	596.06
487.081	597.06
487.299	589.06
487.517	553.06
487.735	554.06
487.953	580.06
488.171	573.06
488.389	564.06
488.607	557.06
488.825	570.06
489.043	594.06
489.261	590.06
489.479	597.06
489.696	583.06
489.914	599.06
490.132	578.06
490.35	588.06
490.568	584.06
490.786	585.06
491.003	596.06
491.221	609.06
491.439	600.06
491.657	637.06
491.874	616.06
492.092	636.06
492.31	628.06
492.527	622.06
492.745	638.06
492.963	626.06
493.18	627.06
493.398	650.06
493.615	629.06
493.833	646.06
494.05	636.06
494.268	643.06
494.485	646.06
494.703	636.06
494.92	652.06
495.138	645.06
495.355	651.06
495.573	651.06
495.79	646.06
496.008	653.06
496.225	663.06
496.442	687.06
496.66	680.06
496.877	694.06
497.094	688.06
497.312	677.06
497.529	710.06
497.746	696.06
497.963	729.06
498.181	755.06
498.398	731.06
498.615	789.06
498.832	833.06
499.049	819.06
499.267	876.06
499.484	945.06
499.701	972.06
499.918	1032.06
500.135	1085.06
500.352	1175.06
500.569	1190.06
500.786	1216.06
501.003	1190.06
501.22	1101.06
501.437	1062.06
501.654	1002.06
501.871	940.06
502.088	900.06
502.305	846.06
502.522	825.06
502.739	791.06
502.956	787.06
503.172	744.06
503.389	731.06
503.606	740.06
503.823	730.06
504.04	695.06
504.256	692.06
504.473	702.06
504.69	730.06
504.907	715.06
505.123	677.06
505.34	648.06
505.557	642.06
505.773	638.06
505.99	655.06
506.207	640.06
506.423	613.06
506.64	636.06
506.856	596.06
507.073	588.06
507.289	626.06
507.506	618.06
507.722	631.06
507.939	605.06
508.155	599.06
508.372	609.06
508.588	579.06
508.805	597.06
509.021	596.06
509.238	596.06
509.454	566.06
509.67	576.06
509.887	550.06
510.103	563.06
510.319	575.06
510.536	611.06
510.752	843.06
510.968	718.06
511.184	574.06
511.401	582.06
511.617	542.06
511.833	560.06
512.049	554.06
512.265	560.06
512.481	534.06
512.698	536.06
512.914	558.06
513.13	560.06
513.346	549.06
513.562	540.06
513.778	553.06
513.994	542.06
514.21	546.06
514.426	561.06
514.642	574.06
514.858	557.06
515.074	584.06
515.29	647.06
515.506	788.06
515.721	717.06
515.937	596.06
516.153	581.06
516.369	583.06
516.585	630.06
516.801	603.06
517.016	600.06
517.232	606.06
517.448	617.06
517.664	624.06
517.879	635.06
518.095	652.06
518.311	620.06
518.527	598.06
518.742	599.06
518.958	613.06
519.173	602.06
519.389	570.06
519.605	552.06
519.82	593.06
520.036	572.06
520.251	554.06
520.467	587.06
520.682	572.06
520.898	567.06
521.113	574.06
521.329	581.06
521.544	610.06
521.76	700.06
521.975	914.06
522.19	904.06
522.406	620.06
522.621	558.06
522.836	527.06
523.052	520.06
523.267	518.06
523.482	526.06
523.698	518.06
523.913	509.06
524.128	502.06
524.343	502.06
524.559	486.06
524.774	460.06
524.989	478.06
525.204	491.06
525.419	484.06
525.634	498.06
525.849	490.06
526.064	481.06
526.28	488.06
526.495	498.06
526.71	496.06
526.925	497.06
527.14	491.06
527.355	477.06
527.57	461.06
527.785	471.06
527.999	463.06
528.214	474.06
528.429	473.06
528.644	481.06
528.859	459.06
529.074	473.06
529.289	471.06
529.503	517.06
529.718	499.06
529.933	465.06
530.148	480.06
530.363	468.06
530.577	442.06
530.792	451.06
531.007	454.06
531.221	469.06
531.436	466.06
531.651	469.06
531.865	467.06
532.08	480.06
532.295	479.06
532.509	452.06
532.724	453.06
532.938	471.06
533.153	480.06
533.367	450.06
533.582	458.06
533.796	456.06
534.011	463.06
534.225	459.06
534.44	470.06
534.654	429.06
534.868	450.06
535.083	454.06
535.297	446.06
535.511	461.06
535.726	456.06
535.94	447.06
536.154	452.06
536.369	458.06
536.583	430.06
536.797	455.06
537.011	434.06
537.225	451.06
537.44	429.06
537.654	439.06
537.868	425.06
538.082	421.06
538.296	452.06
538.51	446.06
538.724	432.06
538.938	438.06
539.153	460.06
539.367	451.06
539.581	424.06
539.795	467.06
540.009	446.06
540.222	440.06
540.436	440.06
540.65	435.06
540.864	440.06
541.078	461.06
541.292	428.06
541.506	438.06
541.72	437.06
541.934	433.06
542.147	437.06
542.361	450.06
542.575	418.06
542.789	414.06
543.002	436.06
543.216	432.06
543.43	449.06
543.644	433.06
543.857	427.06
544.071	439.06
544.285	428.06
544.498	442.06
544.712	432.06
544.925	417.06
545.139	438.06
545.352	418.06
545.566	421.06
545.779	426.06
545.993	451.06
546.206	474.06
546.42	440.06
546.633	444.06
546.847	424.06
547.06	420.06
547.274	426.06
547.487	419.06
547.7	413.06
547.914	435.06
548.127	422.06
548.34	434.06
548.554	438.06
548.767	449.06
548.98	423.06
549.193	419.06
549.407	439.06
549.62	423.06
549.833	427.06
550.046	432.06
550.259	426.06
550.473	435.06
550.686	432.06
550.899	441.06
551.112	414.06
551.325	446.06
551.538	439.06
551.751	416.06
551.964	433.06
552.177	436.06
552.39	410.06
552.603	437.06
552.816	457.06
553.029	465.06
553.242	456.06
553.455	463.06
553.667	461.06
553.88	451.06
554.093	448.06
554.306	458.06
554.519	438.06
554.732	440.06
554.944	427.06
555.157	418.06
555.37	437.06
555.583	417.06
555.795	413.06
556.008	396.06
556.221	381.06
556.433	393.06
556.646	410.06
556.859	388.06
557.071	376.06
557.284	388.06
557.496	381.06
557.709	376.06
557.921	389.06
558.134	384.06
558.346	382.06
558.559	380.06
558.771	376.06
558.984	374.06
559.196	380.06
559.409	366.06
559.621	371.06
559.833	380.06
560.046	375.06
560.258	381.06
560.47	388.06
560.683	384.06
560.895	389.06
561.107	362.06
561.32	384.06
561.532	393.06
561.744	393.06
561.956	392.06
562.168	366.06
562.381	391.06
562.593	392.06
562.805	377.06
563.017	380.06
563.229	375.06
563.441	387.06
563.653	396.06
563.865	380.06
564.077	386.06
564.289	417.06
564.501	396.06
564.713	401.06
564.925	410.06
565.137	396.06
565.349	420.06
565.561	427.06
565.773	442.06
565.985	443.06
566.197	463.06
566.408	485.06
566.62	498.06
566.832	517.06
567.044	553.06
567.255	543.06
567.467	545.06
567.679	563.06
567.891	586.06
568.102	604.06
568.314	557.06
568.526	533.06
568.737	500.06
568.949	487.06
569.161	450.06
569.372	444.06
569.584	443.06
569.795	435.06
570.007	406.06
570.218	420.06
570.43	417.06
570.641	382.06
570.853	391.06
571.064	392.06
571.276	403.06
571.487	385.06
571.698	377.06
571.91	389.06
572.121	383.06
572.333	362.06
572.544	379.06
572.755	359.06
572.966	364.06
573.178	345.06
573.389	368.06
573.6	335.06
573.811	341.06
574.023	331.06
574.234	338.06
574.445	351.06
574.656	340.06
574.867	325.06
575.078	329.06
575.289	334.06
575.501	331.06
575.712	323.06
575.923	336.06
576.134	324.06
576.345	330.06
576.556	334.06
576.767	300.06
576.978	326.06
577.188	331.06
577.399	324.06
577.61	341.06
577.821	322.06
578.032	330.06
578.243	334.06
578.454	429.06
578.665	346.06
578.875	317.06
579.086	313.06
579.297	318.06
579.508	308.06
579.718	318.06
579.929	315.06
580.14	288.06
580.35	319.06
580.561	318.06
580.772	306.06
580.982	306.06
581.193	321.06
581.403	312.06
581.614	301.06
581.825	307.06
582.035	326.06
582.246	319.06
582.456	293.06
582.667	309.06
582.877	304.06
583.087	305.06
583.298	287.06
583.508	289.06
583.719	310.06
583.929	295.06
584.139	318.06
584.35	301.06
584.56	286.06
584.77	304.06
584.981	311.06
585.191	308.06
585.401	284.06
585.611	294.06
585.821	299.06
586.032	296.06
586.242	295.06
586.452	292.06
586.662	296.06
586.872	297.06
587.082	285.06
587.292	289.06
587.502	294.06
587.713	292.06
587.923	286.06
588.133	297.06
588.343	276.06
588.553	275.06
588.762	302.06
588.972	299.06
589.182	324.06
589.392	355.06
589.602	310.06
589.812	340.06
590.022	306.06
590.232	295.06
590.441	289.06
590.651	295.06
590.861	287.06
591.071	294.06
591.281	299.06
591.49	301.06
591.7	310.06
591.91	308.06
592.119	320.06
592.329	310.06
592.539	316.06
592.748	317.06
592.958	322.06
593.167	349.06
593.377	354.06
593.587	341.06
593.796	337.06
594.006	348.06
594.215	327.06
594.424	348.06
594.634	324.06
594.843	340.06
595.053	321.06
595.262	333.06
595.472	323.06
595.681	305.06
595.89	292.06
596.1	293.06
596.309	284.06
596.518	294.06
596.727	294.06
596.937	288.06
597.146	280.06
597.355	275.06
597.564	289.06
597.774	292.06
597.983	293.06
598.192	249.06
598.401	258.06
598.61	256.06
598.819	264.06
599.028	262.06
599.237	284.06
599.446	276.06
599.655	279.06
599.864	258.06
600.073	269.06
600.282	264.06
600.491	265.06
600.7	262.06
600.909	269.06
601.118	268.06
601.327	244.06
601.536	243.06
601.745	244.06
601.953	237.06
602.162	234.06
602.371	251.06
602.58	257.06
602.789	251.06
602.997	247.06
603.206	250.06
603.415	247.06
603.623	244.06
603.832	245.06
604.041	232.06
604.249	236.06
604.458	215.06
604.666	237.06
604.875	240.06
605.084	229.06
605.292	242.06
605.501	242.06
605.709	250.06
605.918	245.06
606.126	242.06
606.334	247.06
606.543	250.06
606.751	228.06
606.96	221.06
607.168	228.06
607.376	254.06
607.585	236.06
607.793	241.06
608.001	235.06
608.21	240.06
608.418	240.06
608.626	241.06
608.834	244.06
609.043	241.06
609.251	233.06
609.459	236.06
609.667	242.06
609.875	240.06
610.083	256.06
610.291	237.06
610.499	231.06
610.707	235.06
610.916	225.06
611.124	244.06
611.332	223.06
611.54	230.06
611.748	235.06
611.955	241.06
612.163	229.06
612.371	249.06
612.579	232.06
612.787	242.06
612.995	218.06
613.203	232.06
613.411	222.06
613.618	225.06
613.826	229.06
614.034	230.06
614.242	237.06
614.449	238.06
614.657	243.06
614.865	226.06
615.072	228.06
615.28	238.06
615.488	240.06
615.695	228.06
615.903	244.06
616.111	246.06
616.318	221.06
616.526	248.06
616.733	218.06
616.941	226.06
617.148	249.06
617.356	231.06
617.563	242.06
617.771	219.06
617.978	230.06
618.185	235.06
618.393	227.06
618.6	232.06
618.807	228.06
619.015	230.06
619.222	226.06
619.429	228.06
619.637	225.06
619.844	219.06
620.051	230.06
620.258	221.06
620.466	193.06
620.673	205.06
620.88	212.06
621.087	211.06
621.294	226.06
621.501	229.06
621.708	217.06
621.915	220.06
622.122	206.06
622.329	206.06
622.536	226.06
622.743	211.06
622.95	215.06
623.157	202.06
623.364	228.06
623.571	207.06
623.778	206.06
623.985	219.06
624.192	214.06
624.399	216.06
624.606	214.06
624.812	196.06
625.019	209.06
625.226	206.06
625.433	202.06
625.639	208.06
625.846	196.06
626.053	220.06
626.259	220.06
626.466	181.06
626.673	202.06
626.879	211.06
627.086	210.06
627.293	196.06
627.499	196.06
627.706	205.06
627.912	195.06
628.119	191.06
628.325	190.06
628.532	213.06
628.738	194.06
628.945	189.06
629.151	196.06
629.357	207.06
629.564	192.06
629.77	200.06
629.976	187.06
630.183	186.06
630.389	199.06
630.595	200.06
630.802	195.06
631.008	195.06
631.214	198.06
631.42	200.06
631.627	186.06
631.833	206.06
632.039	173.06
632.245	190.06
632.451	195.06
632.657	193.06
632.863	188.06
633.069	185.06
633.275	182.06
633.481	196.06
633.688	181.06
633.893	176.06
634.099	181.06
634.305	180.06
634.511	177.06
634.717	186.06
634.923	190.06
635.129	171.06
635.335	164.06
635.541	190.06
635.747	178.06
635.952	187.06
636.158	175.06
636.364	203.06
636.57	196.06
636.775	180.06
636.981	185.06
637.187	178.06
637.392	169.06
637.598	176.06
637.804	168.06
638.009	174.06
638.215	173.06
638.421	189.06
638.626	162.06
638.832	195.06
639.037	167.06
639.243	180.06
639.448	164.06
639.654	167.06
639.859	157.06
640.065	176.06
640.27	184.06
640.475	165.06
640.681	173.06
640.886	173.06
641.091	170.06
641.297	161.06
641.502	159.06
641.707	169.06
641.913	171.06
642.118	166.06
642.323	170.06
642.528	158.06
642.733	176.06
642.939	163.06
643.144	169.06
643.349	169.06
643.554	172.06
643.759	157.06
643.964	165.06
644.169	182.06
644.374	148.06
644.579	160.06
644.784	165.06
644.989	163.06
645.194	161.06
645.399	152.06
645.604	161.06
645.809	174.06
646.014	176.06
646.219	164.06
646.423	158.06
646.628	168.06
646.833	170.06
647.038	167.06
647.243	144.06
647.447	162.06
647.652	180.06
647.857	181.06
648.062	173.06
648.266	142.06
648.471	173.06
648.676	177.06
648.88	172.06
649.085	180.06
649.289	165.06
649.494	164.06
649.698	201.06
649.903	192.06
650.107	163.06
650.312	155.06
650.516	172.06
650.721	152.06
650.925	150.06
651.13	156.06
651.334	132.06
651.539	163.06
651.743	165.06
651.947	146.06
652.152	152.06
652.356	162.06
652.56	136.06
652.764	149.06
652.969	150.06
653.173	126.06
653.377	150.06
653.581	145.06
653.785	137.06
653.99	148.06
654.194	152.06
654.398	126.06
654.602	128.06
654.806	128.06
655.01	147.06
655.214	160.06
655.418	144.06
655.622	143.06
655.826	142.06
656.03	138.06
656.234	149.06
656.438	154.06
656.642	163.06
656.846	160.06
657.049	146.06
657.253	135.06
657.457	130.06
657.661	141.06
657.865	130.06
658.068	117.06
658.272	103.06
658.476	105.06
658.68	106.06
658.883	109.06
659.087	104.06
659.291	110.06
659.494	94.06
659.698	85.06
659.901	101.06
660.105	100.06
660.309	99.06
660.512	100.06
660.716	94.06
660.919	91.06
661.123	96.06
661.326	79.06
661.53	75.06
661.733	91.06
661.936	82.06
662.14	82.06
662.343	77.06
662.546	86.06
662.75	86.06
662.953	100.06
663.156	87.06
663.36	86.06
663.563	77.06
663.766	80.06
663.969	76.06
664.173	83.06
664.376	91.06
664.579	93.06
664.782	84.06
664.985	79.06
665.188	77.06
665.391	79.06
665.594	82.06
665.797	83.06
666	89.06
666.203	87.06
666.406	99.06
666.609	86.06
666.812	76.06
667.015	75.06
667.218	78.06
667.421	67.06
667.624	76.06
667.827	88.06
668.03	81.06
668.232	77.06
668.435	74.06
668.638	86.06
668.841	78.06
669.043	75.06
669.246	74.06
669.449	72.06
669.651	71.06
669.854	72.06
670.057	86.06
670.259	83.06
670.462	92.06
670.665	73.06
670.867	86.06
671.07	88.06
671.272	92.06
671.475	75.06
671.677	87.06
671.88	78.06
672.082	85.06
672.284	92.06
672.487	89.06
672.689	79.06
672.892	82.06
