Data from 1962.PennyLincolnUp.Lamp.En5.5.200Scan.071719.P1._HRD10591_13-53-42-060.txt Node
Date: Thu Jul 18 13:53:42 EDT 2019
User: cochatt
Spectrometer: HR+D1059
Trigger mode: 1
Integration Time (sec): 1.000000E-1
Scans to average: 1
Electric dark correction enabled: true
Nonlinearity correction enabled: false
Boxcar width: 0
XAxis mode: Wavelengths
Number of Pixels in Spectrum: 2048
>>>>>Begin Spectral Data<<<<<
223.165	-12.12
223.4	-12.12
223.635	-12.12
223.869	-24.12
224.104	-17.12
224.338	-11.12
224.573	-13.12
224.808	-15.12
225.042	-13.12
225.277	-6.12
225.511	0.88
225.746	12.88
225.98	-5.12
226.215	9.88
226.449	13.88
226.683	21.88
226.918	19.88
227.152	37.88
227.387	43.88
227.621	42.88
227.856	48.88
228.09	53.88
228.324	46.88
228.559	54.88
228.793	69.88
229.027	68.88
229.262	94.88
229.496	94.88
229.73	123.88
229.964	122.88
230.199	104.88
230.433	96.88
230.667	114.88
230.901	98.88
231.136	100.88
231.37	123.88
231.604	107.88
231.838	100.88
232.072	110.88
232.306	119.88
232.541	113.88
232.775	112.88
233.009	109.88
233.243	120.88
233.477	119.88
233.711	108.88
233.945	111.88
234.179	119.88
234.413	121.88
234.647	116.88
234.881	123.88
235.115	128.88
235.349	124.88
235.583	118.88
235.817	113.88
236.051	115.88
236.285	125.88
236.519	118.88
236.753	126.88
236.987	140.88
237.221	153.88
237.455	176.88
237.689	151.88
237.922	134.88
238.156	120.88
238.39	105.88
238.624	120.88
238.858	122.88
239.091	118.88
239.325	112.88
239.559	123.88
239.793	128.88
240.027	142.88
240.26	132.88
240.494	154.88
240.728	139.88
240.961	138.88
241.195	132.88
241.429	130.88
241.662	133.88
241.896	126.88
242.13	124.88
242.363	124.88
242.597	123.88
242.83	129.88
243.064	122.88
243.298	133.88
243.531	133.88
243.765	136.88
243.998	144.88
244.232	138.88
244.465	121.88
244.699	148.88
244.932	146.88
245.166	145.88
245.399	143.88
245.633	138.88
245.866	151.88
246.099	145.88
246.333	158.88
246.566	127.88
246.8	141.88
247.033	137.88
247.266	143.88
247.5	144.88
247.733	159.88
247.966	142.88
248.2	150.88
248.433	143.88
248.666	158.88
248.899	180.88
249.133	170.88
249.366	175.88
249.599	181.88
249.832	175.88
250.066	162.88
250.299	168.88
250.532	155.88
250.765	182.88
250.998	198.88
251.231	190.88
251.465	176.88
251.698	194.88
251.931	187.88
252.164	179.88
252.397	196.88
252.63	186.88
252.863	188.88
253.096	171.88
253.329	191.88
253.562	191.88
253.795	196.88
254.028	180.88
254.261	194.88
254.494	181.88
254.727	196.88
254.96	220.88
255.193	218.88
255.426	204.88
255.659	207.88
255.892	191.88
256.124	203.88
256.357	191.88
256.59	195.88
256.823	190.88
257.056	195.88
257.289	199.88
257.521	192.88
257.754	178.88
257.987	192.88
258.22	215.88
258.452	190.88
258.685	205.88
258.918	192.88
259.151	190.88
259.383	206.88
259.616	192.88
259.849	211.88
260.081	184.88
260.314	221.88
260.547	223.88
260.779	222.88
261.012	198.88
261.244	195.88
261.477	207.88
261.71	190.88
261.942	217.88
262.175	215.88
262.407	212.88
262.64	190.88
262.872	208.88
263.105	194.88
263.337	202.88
263.57	200.88
263.802	204.88
264.035	203.88
264.267	216.88
264.499	204.88
264.732	209.88
264.964	192.88
265.197	200.88
265.429	204.88
265.661	206.88
265.894	217.88
266.126	214.88
266.358	205.88
266.591	226.88
266.823	225.88
267.055	220.88
267.287	238.88
267.52	222.88
267.752	217.88
267.984	207.88
268.216	220.88
268.448	217.88
268.681	248.88
268.913	260.88
269.145	243.88
269.377	234.88
269.609	234.88
269.841	236.88
270.073	255.88
270.306	266.88
270.538	274.88
270.77	271.88
271.002	264.88
271.234	246.88
271.466	270.88
271.698	260.88
271.93	283.88
272.162	278.88
272.394	265.88
272.626	273.88
272.858	265.88
273.09	258.88
273.322	246.88
273.553	262.88
273.785	235.88
274.017	247.88
274.249	252.88
274.481	235.88
274.713	259.88
274.945	253.88
275.176	267.88
275.408	250.88
275.64	253.88
275.872	247.88
276.104	272.88
276.335	250.88
276.567	260.88
276.799	260.88
277.031	286.88
277.262	271.88
277.494	290.88
277.726	282.88
277.957	271.88
278.189	261.88
278.421	248.88
278.652	254.88
278.884	274.88
279.115	253.88
279.347	268.88
279.579	260.88
279.81	267.88
280.042	270.88
280.273	286.88
280.505	250.88
280.736	262.88
280.968	257.88
281.199	261.88
281.431	252.88
281.662	264.88
281.894	262.88
282.125	276.88
282.356	288.88
282.588	287.88
282.819	270.88
283.051	279.88
283.282	274.88
283.513	287.88
283.745	279.88
283.976	270.88
284.207	271.88
284.439	280.88
284.67	290.88
284.901	284.88
285.132	268.88
285.364	285.88
285.595	283.88
285.826	297.88
286.057	273.88
286.288	278.88
286.52	284.88
286.751	272.88
286.982	275.88
287.213	276.88
287.444	298.88
287.675	283.88
287.906	286.88
288.138	292.88
288.369	310.88
288.6	306.88
288.831	290.88
289.062	276.88
289.293	277.88
289.524	288.88
289.755	306.88
289.986	297.88
290.217	294.88
290.448	257.88
290.679	287.88
290.91	289.88
291.141	276.88
291.371	294.88
291.602	285.88
291.833	282.88
292.064	299.88
292.295	284.88
292.526	302.88
292.757	289.88
292.987	285.88
293.218	296.88
293.449	314.88
293.68	292.88
293.91	309.88
294.141	291.88
294.372	279.88
294.603	298.88
294.833	313.88
295.064	293.88
295.295	306.88
295.525	311.88
295.756	316.88
295.987	293.88
296.217	323.88
296.448	323.88
296.679	303.88
296.909	299.88
297.14	290.88
297.37	292.88
297.601	303.88
297.831	310.88
298.062	298.88
298.292	294.88
298.523	325.88
298.753	308.88
298.984	312.88
299.214	308.88
299.445	328.88
299.675	321.88
299.905	307.88
300.136	313.88
300.366	328.88
300.597	320.88
300.827	318.88
301.057	327.88
301.288	324.88
301.518	335.88
301.748	340.88
301.979	317.88
302.209	326.88
302.439	323.88
302.669	343.88
302.9	350.88
303.13	334.88
303.36	314.88
303.59	335.88
303.82	335.88
304.051	328.88
304.281	332.88
304.511	326.88
304.741	331.88
304.971	341.88
305.201	334.88
305.431	330.88
305.661	350.88
305.891	333.88
306.121	336.88
306.352	330.88
306.582	340.88
306.812	332.88
307.042	328.88
307.272	325.88
307.502	327.88
307.731	319.88
307.961	334.88
308.191	319.88
308.421	334.88
308.651	340.88
308.881	339.88
309.111	338.88
309.341	351.88
309.571	339.88
309.8	347.88
310.03	344.88
310.26	336.88
310.49	350.88
310.72	355.88
310.949	356.88
311.179	371.88
311.409	359.88
311.639	346.88
311.868	363.88
312.098	354.88
312.328	350.88
312.557	386.88
312.787	358.88
313.017	364.88
313.246	354.88
313.476	350.88
313.706	354.88
313.935	370.88
314.165	374.88
314.394	360.88
314.624	380.88
314.853	376.88
315.083	359.88
315.312	384.88
315.542	341.88
315.771	363.88
316.001	366.88
316.23	374.88
316.46	356.88
316.689	366.88
316.919	357.88
317.148	370.88
317.377	371.88
317.607	364.88
317.836	352.88
318.065	359.88
318.295	375.88
318.524	365.88
318.753	359.88
318.983	367.88
319.212	378.88
319.441	372.88
319.67	373.88
319.9	366.88
320.129	371.88
320.358	358.88
320.587	372.88
320.816	352.88
321.046	372.88
321.275	376.88
321.504	385.88
321.733	382.88
321.962	386.88
322.191	372.88
322.42	382.88
322.649	397.88
322.878	411.88
323.108	416.88
323.337	422.88
323.566	426.88
323.795	429.88
324.024	442.88
324.253	494.88
324.482	652.88
324.71	922.88
324.939	1300.88
325.168	1145.88
325.397	642.88
325.626	497.88
325.855	464.88
326.084	440.88
326.313	447.88
326.542	442.88
326.77	445.88
326.999	518.88
327.228	644.88
327.457	875.88
327.686	1035.88
327.914	721.88
328.143	569.88
328.372	484.88
328.6	485.88
328.829	442.88
329.058	437.88
329.287	471.88
329.515	455.88
329.744	442.88
329.972	436.88
330.201	448.88
330.43	467.88
330.658	461.88
330.887	479.88
331.115	480.88
331.344	456.88
331.572	443.88
331.801	432.88
332.03	445.88
332.258	454.88
332.486	450.88
332.715	446.88
332.943	444.88
333.172	462.88
333.4	455.88
333.629	472.88
333.857	482.88
334.085	479.88
334.314	489.88
334.542	489.88
334.771	512.88
334.999	474.88
335.227	456.88
335.455	453.88
335.684	470.88
335.912	431.88
336.14	462.88
336.369	464.88
336.597	461.88
336.825	451.88
337.053	421.88
337.281	429.88
337.51	412.88
337.738	446.88
337.966	426.88
338.194	420.88
338.422	428.88
338.65	435.88
338.878	433.88
339.106	417.88
339.334	417.88
339.562	424.88
339.79	432.88
340.018	414.88
340.246	430.88
340.474	419.88
340.702	423.88
340.93	414.88
341.158	412.88
341.386	431.88
341.614	422.88
341.842	424.88
342.07	405.88
342.298	411.88
342.526	409.88
342.754	423.88
342.981	396.88
343.209	411.88
343.437	452.88
343.665	440.88
343.893	442.88
344.12	471.88
344.348	461.88
344.576	446.88
344.804	428.88
345.031	440.88
345.259	435.88
345.487	420.88
345.714	395.88
345.942	405.88
346.17	397.88
346.397	411.88
346.625	395.88
346.853	404.88
347.08	392.88
347.308	415.88
347.535	393.88
347.763	393.88
347.99	398.88
348.218	409.88
348.445	406.88
348.673	408.88
348.9	404.88
349.128	396.88
349.355	420.88
349.583	409.88
349.81	378.88
350.037	378.88
350.265	395.88
350.492	382.88
350.72	412.88
350.947	398.88
351.174	380.88
351.402	394.88
351.629	395.88
351.856	394.88
352.083	407.88
352.311	401.88
352.538	407.88
352.765	396.88
352.992	416.88
353.22	387.88
353.447	404.88
353.674	398.88
353.901	376.88
354.128	362.88
354.355	378.88
354.583	362.88
354.81	377.88
355.037	366.88
355.264	388.88
355.491	381.88
355.718	371.88
355.945	396.88
356.172	398.88
356.399	382.88
356.626	389.88
356.853	371.88
357.08	394.88
357.307	382.88
357.534	376.88
357.761	373.88
357.988	395.88
358.215	401.88
358.441	375.88
358.668	410.88
358.895	397.88
359.122	406.88
359.349	410.88
359.576	375.88
359.802	391.88
360.029	404.88
360.256	408.88
360.483	438.88
360.709	386.88
360.936	403.88
361.163	408.88
361.39	387.88
361.616	379.88
361.843	398.88
362.07	392.88
362.296	382.88
362.523	395.88
362.749	400.88
362.976	380.88
363.203	396.88
363.429	398.88
363.656	418.88
363.882	370.88
364.109	394.88
364.335	394.88
364.562	364.88
364.788	400.88
365.015	391.88
365.241	408.88
365.468	400.88
365.694	391.88
365.92	380.88
366.147	382.88
366.373	391.88
366.599	377.88
366.826	379.88
367.052	389.88
367.278	374.88
367.505	387.88
367.731	382.88
367.957	398.88
368.184	382.88
368.41	396.88
368.636	380.88
368.862	398.88
369.089	399.88
369.315	388.88
369.541	395.88
369.767	393.88
369.993	389.88
370.219	393.88
370.445	408.88
370.672	374.88
370.898	388.88
371.124	389.88
371.35	413.88
371.576	406.88
371.802	412.88
372.028	404.88
372.254	417.88
372.48	404.88
372.706	404.88
372.932	387.88
373.158	390.88
373.384	371.88
373.61	397.88
373.835	401.88
374.061	389.88
374.287	398.88
374.513	405.88
374.739	416.88
374.965	424.88
375.191	421.88
375.416	426.88
375.642	415.88
375.868	393.88
376.094	409.88
376.319	398.88
376.545	399.88
376.771	392.88
376.997	398.88
377.222	396.88
377.448	397.88
377.674	399.88
377.899	393.88
378.125	410.88
378.35	407.88
378.576	395.88
378.802	384.88
379.027	383.88
379.253	384.88
379.478	399.88
379.704	403.88
379.929	400.88
380.155	414.88
380.38	381.88
380.606	399.88
380.831	418.88
381.057	402.88
381.282	379.88
381.507	406.88
381.733	397.88
381.958	415.88
382.184	387.88
382.409	401.88
382.634	395.88
382.86	408.88
383.085	431.88
383.31	413.88
383.535	418.88
383.761	435.88
383.986	444.88
384.211	422.88
384.436	447.88
384.662	460.88
384.887	464.88
385.112	444.88
385.337	445.88
385.562	449.88
385.787	441.88
386.013	455.88
386.238	457.88
386.463	468.88
386.688	468.88
386.913	456.88
387.138	450.88
387.363	453.88
387.588	443.88
387.813	454.88
388.038	447.88
388.263	439.88
388.488	474.88
388.713	439.88
388.938	443.88
389.163	471.88
389.387	453.88
389.612	452.88
389.837	454.88
390.062	431.88
390.287	446.88
390.512	458.88
390.736	444.88
390.961	443.88
391.186	456.88
391.411	454.88
391.636	472.88
391.86	462.88
392.085	484.88
392.31	494.88
392.534	482.88
392.759	473.88
392.984	472.88
393.208	468.88
393.433	485.88
393.658	473.88
393.882	456.88
394.107	466.88
394.331	465.88
394.556	460.88
394.78	479.88
395.005	470.88
395.229	475.88
395.454	481.88
395.678	463.88
395.903	473.88
396.127	484.88
396.352	489.88
396.576	496.88
396.801	470.88
397.025	486.88
397.249	491.88
397.474	504.88
397.698	484.88
397.922	498.88
398.147	508.88
398.371	506.88
398.595	492.88
398.82	524.88
399.044	572.88
399.268	584.88
399.492	614.88
399.717	656.88
399.941	669.88
400.165	682.88
400.389	651.88
400.613	611.88
400.837	580.88
401.062	571.88
401.286	542.88
401.51	527.88
401.734	514.88
401.958	537.88
402.182	551.88
402.406	557.88
402.63	549.88
402.854	552.88
403.078	570.88
403.302	558.88
403.526	552.88
403.75	551.88
403.974	566.88
404.198	572.88
404.422	585.88
404.645	557.88
404.869	587.88
405.093	569.88
405.317	638.88
405.541	638.88
405.765	607.88
405.988	578.88
406.212	583.88
406.436	579.88
406.66	614.88
406.883	599.88
407.107	637.88
407.331	654.88
407.555	708.88
407.778	683.88
408.002	666.88
408.226	613.88
408.449	597.88
408.673	610.88
408.896	598.88
409.12	622.88
409.344	618.88
409.567	575.88
409.791	583.88
410.014	561.88
410.238	552.88
410.461	562.88
410.685	584.88
410.908	550.88
411.132	572.88
411.355	600.88
411.578	576.88
411.802	563.88
412.025	539.88
412.249	551.88
412.472	580.88
412.695	608.88
412.919	588.88
413.142	551.88
413.365	552.88
413.589	536.88
413.812	519.88
414.035	537.88
414.258	520.88
414.482	530.88
414.705	539.88
414.928	517.88
415.151	508.88
415.374	528.88
415.597	546.88
415.821	536.88
416.044	507.88
416.267	511.88
416.49	506.88
416.713	511.88
416.936	540.88
417.159	520.88
417.382	528.88
417.605	528.88
417.828	520.88
418.051	521.88
418.274	532.88
418.497	515.88
418.72	503.88
418.943	523.88
419.166	557.88
419.389	570.88
419.611	548.88
419.834	546.88
420.057	538.88
420.28	542.88
420.503	540.88
420.726	536.88
420.948	523.88
421.171	575.88
421.394	589.88
421.617	551.88
421.839	548.88
422.062	527.88
422.285	546.88
422.507	572.88
422.73	640.88
422.953	622.88
423.175	560.88
423.398	585.88
423.621	569.88
423.843	569.88
424.066	564.88
424.288	570.88
424.511	574.88
424.733	610.88
424.956	665.88
425.178	656.88
425.401	647.88
425.623	658.88
425.846	578.88
426.068	554.88
426.291	559.88
426.513	559.88
426.735	542.88
426.958	574.88
427.18	616.88
427.402	719.88
427.625	762.88
427.847	678.88
428.069	586.88
428.292	546.88
428.514	541.88
428.736	517.88
428.958	521.88
429.181	502.88
429.403	485.88
429.625	504.88
429.847	532.88
430.069	580.88
430.292	581.88
430.514	514.88
430.736	512.88
430.958	517.88
431.18	490.88
431.402	495.88
431.624	487.88
431.846	484.88
432.068	505.88
432.29	498.88
432.512	487.88
432.734	513.88
432.956	511.88
433.178	486.88
433.4	489.88
433.622	477.88
433.844	496.88
434.066	523.88
434.287	500.88
434.509	514.88
434.731	537.88
434.953	529.88
435.175	554.88
435.397	546.88
435.618	547.88
435.84	571.88
436.062	619.88
436.284	682.88
436.505	574.88
436.727	543.88
436.949	509.88
437.17	510.88
437.392	503.88
437.614	495.88
437.835	510.88
438.057	560.88
438.278	661.88
438.5	632.88
438.721	716.88
438.943	684.88
439.165	575.88
439.386	537.88
439.608	540.88
439.829	527.88
440.05	543.88
440.272	572.88
440.493	555.88
440.715	524.88
440.936	538.88
441.158	511.88
441.379	500.88
441.6	503.88
441.822	544.88
442.043	552.88
442.264	625.88
442.486	644.88
442.707	583.88
442.928	562.88
443.149	556.88
443.371	575.88
443.592	602.88
443.813	634.88
444.034	710.88
444.255	622.88
444.476	582.88
444.698	562.88
444.919	573.88
445.14	694.88
445.361	630.88
445.582	577.88
445.803	617.88
446.024	667.88
446.245	684.88
446.466	618.88
446.687	558.88
446.908	530.88
447.129	515.88
447.35	500.88
447.571	488.88
447.792	496.88
448.013	525.88
448.234	493.88
448.455	540.88
448.675	607.88
448.896	692.88
449.117	578.88
449.338	564.88
449.559	650.88
449.779	737.88
450	611.88
450.221	535.88
450.442	510.88
450.662	496.88
450.883	484.88
451.104	498.88
451.324	482.88
451.545	484.88
451.766	465.88
451.986	466.88
452.207	432.88
452.428	454.88
452.648	451.88
452.869	441.88
453.089	431.88
453.31	462.88
453.53	445.88
453.751	437.88
453.971	439.88
454.192	466.88
454.412	459.88
454.633	434.88
454.853	436.88
455.073	410.88
455.294	438.88
455.514	491.88
455.734	473.88
455.955	451.88
456.175	436.88
456.395	421.88
456.616	418.88
456.836	430.88
457.056	437.88
457.276	421.88
457.497	438.88
457.717	436.88
457.937	440.88
458.157	470.88
458.377	462.88
458.598	446.88
458.818	490.88
459.038	539.88
459.258	548.88
459.478	533.88
459.698	500.88
459.918	496.88
460.138	518.88
460.358	531.88
460.578	541.88
460.798	540.88
461.018	555.88
461.238	536.88
461.458	549.88
461.678	529.88
461.898	547.88
462.118	538.88
462.338	570.88
462.558	565.88
462.777	578.88
462.997	599.88
463.217	610.88
463.437	636.88
463.657	588.88
463.876	588.88
464.096	593.88
464.316	586.88
464.536	588.88
464.755	571.88
464.975	580.88
465.195	562.88
465.414	583.88
465.634	554.88
465.854	519.88
466.073	524.88
466.293	488.88
466.512	486.88
466.732	481.88
466.951	485.88
467.171	473.88
467.391	475.88
467.61	498.88
467.829	468.88
468.049	462.88
468.268	474.88
468.488	458.88
468.707	473.88
468.927	461.88
469.146	470.88
469.365	453.88
469.585	454.88
469.804	483.88
470.023	462.88
470.243	486.88
470.462	464.88
470.681	472.88
470.901	471.88
471.12	490.88
471.339	477.88
471.558	476.88
471.777	484.88
471.997	481.88
472.216	477.88
472.435	504.88
472.654	468.88
472.873	469.88
473.092	455.88
473.311	458.88
473.53	435.88
473.749	474.88
473.968	490.88
474.187	557.88
474.406	563.88
474.625	508.88
474.844	483.88
475.063	468.88
475.282	492.88
475.501	471.88
475.72	470.88
475.939	482.88
476.158	491.88
476.377	490.88
476.596	507.88
476.814	503.88
477.033	476.88
477.252	494.88
477.471	494.88
477.69	503.88
477.908	522.88
478.127	540.88
478.346	548.88
478.564	532.88
478.783	540.88
479.002	578.88
479.22	543.88
479.439	552.88
479.658	580.88
479.876	555.88
480.095	564.88
480.313	590.88
480.532	601.88
480.751	597.88
480.969	584.88
481.188	617.88
481.406	615.88
481.624	588.88
481.843	549.88
482.061	552.88
482.28	536.88
482.498	554.88
482.717	546.88
482.935	531.88
483.153	548.88
483.372	531.88
483.59	547.88
483.808	549.88
484.027	556.88
484.245	538.88
484.463	530.88
484.681	553.88
484.9	567.88
485.118	562.88
485.336	550.88
485.554	553.88
485.772	563.88
485.99	566.88
486.209	558.88
486.427	581.88
486.645	587.88
486.863	582.88
487.081	572.88
487.299	611.88
487.517	592.88
487.735	593.88
487.953	582.88
488.171	564.88
488.389	591.88
488.607	565.88
488.825	591.88
489.043	563.88
489.261	589.88
489.479	587.88
489.696	589.88
489.914	588.88
490.132	595.88
490.35	590.88
490.568	575.88
490.786	611.88
491.003	625.88
491.221	628.88
491.439	604.88
491.657	618.88
491.874	589.88
492.092	632.88
492.31	631.88
492.527	628.88
492.745	640.88
492.963	657.88
493.18	651.88
493.398	644.88
493.615	640.88
493.833	670.88
494.05	647.88
494.268	638.88
494.485	639.88
494.703	657.88
494.92	670.88
495.138	632.88
495.355	664.88
495.573	641.88
495.79	660.88
496.008	660.88
496.225	663.88
496.442	683.88
496.66	675.88
496.877	679.88
497.094	696.88
497.312	705.88
497.529	710.88
497.746	715.88
497.963	758.88
498.181	767.88
498.398	778.88
498.615	788.88
498.832	843.88
499.049	859.88
499.267	875.88
499.484	918.88
499.701	966.88
499.918	1022.88
500.135	1094.88
500.352	1197.88
500.569	1203.88
500.786	1190.88
501.003	1159.88
501.22	1124.88
501.437	1054.88
501.654	979.88
501.871	961.88
502.088	898.88
502.305	870.88
502.522	830.88
502.739	783.88
502.956	775.88
503.172	742.88
503.389	726.88
503.606	723.88
503.823	737.88
504.04	720.88
504.256	713.88
504.473	719.88
504.69	719.88
504.907	684.88
505.123	657.88
505.34	668.88
505.557	642.88
505.773	635.88
505.99	672.88
506.207	622.88
506.423	639.88
506.64	636.88
506.856	604.88
507.073	610.88
507.289	609.88
507.506	604.88
507.722	581.88
507.939	591.88
508.155	622.88
508.372	599.88
508.588	571.88
508.805	603.88
509.021	577.88
509.238	560.88
509.454	586.88
509.67	619.88
509.887	571.88
510.103	576.88
510.319	571.88
510.536	623.88
510.752	840.88
510.968	743.88
511.184	548.88
511.401	563.88
511.617	570.88
511.833	548.88
512.049	539.88
512.265	560.88
512.481	574.88
512.698	548.88
512.914	525.88
513.13	528.88
513.346	558.88
513.562	540.88
513.778	538.88
513.994	541.88
514.21	570.88
514.426	554.88
514.642	588.88
514.858	619.88
515.074	627.88
515.29	667.88
515.506	799.88
515.721	722.88
515.937	612.88
516.153	616.88
516.369	606.88
516.585	624.88
516.801	611.88
517.016	604.88
517.232	613.88
517.448	626.88
517.664	651.88
517.879	644.88
518.095	655.88
518.311	629.88
518.527	632.88
518.742	608.88
518.958	614.88
519.173	579.88
519.389	556.88
519.605	543.88
519.82	575.88
520.036	573.88
520.251	583.88
520.467	564.88
520.682	564.88
520.898	592.88
521.113	560.88
521.329	599.88
521.544	618.88
521.76	666.88
521.975	918.88
522.19	921.88
522.406	639.88
522.621	549.88
522.836	529.88
523.052	541.88
523.267	520.88
523.482	518.88
523.698	509.88
523.913	536.88
524.128	483.88
524.343	473.88
524.559	519.88
524.774	506.88
524.989	513.88
525.204	488.88
525.419	492.88
525.634	475.88
525.849	484.88
526.064	489.88
526.28	496.88
526.495	473.88
526.71	467.88
526.925	472.88
527.14	477.88
527.355	445.88
527.57	472.88
527.785	472.88
527.999	469.88
528.214	470.88
528.429	469.88
528.644	475.88
528.859	489.88
529.074	476.88
529.289	498.88
529.503	522.88
529.718	503.88
529.933	510.88
530.148	466.88
530.363	467.88
530.577	472.88
530.792	464.88
531.007	464.88
531.221	471.88
531.436	472.88
531.651	448.88
531.865	454.88
532.08	459.88
532.295	456.88
532.509	452.88
532.724	466.88
532.938	452.88
533.153	460.88
533.367	458.88
533.582	462.88
533.796	444.88
534.011	446.88
534.225	463.88
534.44	433.88
534.654	471.88
534.868	474.88
535.083	443.88
535.297	448.88
535.511	461.88
535.726	460.88
535.94	461.88
536.154	436.88
536.369	448.88
536.583	439.88
536.797	461.88
537.011	475.88
537.225	438.88
537.44	442.88
537.654	470.88
537.868	455.88
538.082	451.88
538.296	444.88
538.51	450.88
538.724	443.88
538.938	425.88
539.153	443.88
539.367	450.88
539.581	429.88
539.795	438.88
540.009	434.88
540.222	428.88
540.436	439.88
540.65	442.88
540.864	428.88
541.078	439.88
541.292	455.88
541.506	445.88
541.72	455.88
541.934	428.88
542.147	453.88
542.361	454.88
542.575	427.88
542.789	445.88
543.002	422.88
543.216	414.88
543.43	470.88
543.644	437.88
543.857	427.88
544.071	427.88
544.285	455.88
544.498	430.88
544.712	431.88
544.925	436.88
545.139	450.88
545.352	436.88
545.566	435.88
545.779	454.88
545.993	445.88
546.206	436.88
546.42	445.88
546.633	430.88
546.847	422.88
547.06	437.88
547.274	438.88
547.487	410.88
547.7	438.88
547.914	420.88
548.127	419.88
548.34	414.88
548.554	423.88
548.767	446.88
548.98	411.88
549.193	450.88
549.407	449.88
549.62	459.88
549.833	440.88
550.046	428.88
550.259	427.88
550.473	437.88
550.686	423.88
550.899	442.88
551.112	440.88
551.325	413.88
551.538	438.88
551.751	440.88
551.964	428.88
552.177	432.88
552.39	427.88
552.603	448.88
552.816	438.88
553.029	456.88
553.242	463.88
553.455	457.88
553.667	463.88
553.88	476.88
554.093	430.88
554.306	440.88
554.519	439.88
554.732	435.88
554.944	443.88
555.157	400.88
555.37	409.88
555.583	412.88
555.795	415.88
556.008	392.88
556.221	393.88
556.433	409.88
556.646	407.88
556.859	391.88
557.071	392.88
557.284	370.88
557.496	375.88
557.709	389.88
557.921	365.88
558.134	396.88
558.346	382.88
558.559	371.88
558.771	398.88
558.984	379.88
559.196	378.88
559.409	379.88
559.621	387.88
559.833	379.88
560.046	389.88
560.258	378.88
560.47	407.88
560.683	380.88
560.895	388.88
561.107	391.88
561.32	395.88
561.532	385.88
561.744	391.88
561.956	379.88
562.168	371.88
562.381	389.88
562.593	367.88
562.805	376.88
563.017	384.88
563.229	391.88
563.441	381.88
563.653	388.88
563.865	387.88
564.077	415.88
564.289	400.88
564.501	402.88
564.713	400.88
564.925	434.88
565.137	399.88
565.349	430.88
565.561	422.88
565.773	433.88
565.985	456.88
566.197	458.88
566.408	476.88
566.62	518.88
566.832	553.88
567.044	526.88
567.255	558.88
567.467	537.88
567.679	559.88
567.891	593.88
568.102	588.88
568.314	549.88
568.526	527.88
568.737	512.88
568.949	461.88
569.161	475.88
569.372	434.88
569.584	428.88
569.795	434.88
570.007	418.88
570.218	416.88
570.43	430.88
570.641	393.88
570.853	389.88
571.064	397.88
571.276	390.88
571.487	396.88
571.698	387.88
571.91	369.88
572.121	348.88
572.333	371.88
572.544	352.88
572.755	360.88
572.966	364.88
573.178	371.88
573.389	349.88
573.6	340.88
573.811	342.88
574.023	336.88
574.234	344.88
574.445	343.88
574.656	329.88
574.867	342.88
575.078	333.88
575.289	340.88
575.501	325.88
575.712	331.88
575.923	326.88
576.134	335.88
576.345	329.88
576.556	347.88
576.767	314.88
576.978	323.88
577.188	306.88
577.399	317.88
577.61	311.88
577.821	317.88
578.032	325.88
578.243	327.88
578.454	423.88
578.665	371.88
578.875	312.88
579.086	325.88
579.297	326.88
579.508	308.88
579.718	304.88
579.929	314.88
580.14	304.88
580.35	313.88
580.561	326.88
580.772	306.88
580.982	301.88
581.193	293.88
581.403	299.88
581.614	300.88
581.825	294.88
582.035	314.88
582.246	296.88
582.456	312.88
582.667	300.88
582.877	296.88
583.087	298.88
583.298	286.88
583.508	328.88
583.719	319.88
583.929	290.88
584.139	284.88
584.35	303.88
584.56	280.88
584.77	301.88
584.981	293.88
585.191	294.88
585.401	314.88
585.611	292.88
585.821	298.88
586.032	309.88
586.242	297.88
586.452	279.88
586.662	294.88
586.872	310.88
587.082	298.88
587.292	313.88
587.502	299.88
587.713	293.88
587.923	304.88
588.133	284.88
588.343	294.88
588.553	315.88
588.762	298.88
588.972	310.88
589.182	324.88
589.392	334.88
589.602	293.88
589.812	348.88
590.022	309.88
590.232	304.88
590.441	303.88
590.651	294.88
590.861	289.88
591.071	308.88
591.281	285.88
591.49	301.88
591.7	300.88
591.91	320.88
592.119	324.88
592.329	321.88
592.539	322.88
592.748	337.88
592.958	346.88
593.167	336.88
593.377	318.88
593.587	367.88
593.796	334.88
594.006	349.88
594.215	347.88
594.424	342.88
594.634	335.88
594.843	321.88
595.053	326.88
595.262	312.88
595.472	326.88
595.681	304.88
595.89	311.88
596.1	283.88
596.309	284.88
596.518	288.88
596.727	311.88
596.937	308.88
597.146	272.88
597.355	276.88
597.564	265.88
597.774	292.88
597.983	281.88
598.192	253.88
598.401	256.88
598.61	271.88
598.819	295.88
599.028	277.88
599.237	271.88
599.446	284.88
599.655	262.88
599.864	264.88
600.073	256.88
600.282	268.88
600.491	275.88
600.7	270.88
600.909	245.88
601.118	266.88
601.327	255.88
601.536	272.88
601.745	263.88
601.953	254.88
602.162	259.88
602.371	252.88
602.58	246.88
602.789	267.88
602.997	245.88
603.206	265.88
603.415	229.88
603.623	233.88
603.832	267.88
604.041	262.88
604.249	250.88
604.458	248.88
604.666	222.88
604.875	235.88
605.084	228.88
605.292	252.88
605.501	222.88
605.709	236.88
605.918	245.88
606.126	231.88
606.334	247.88
606.543	255.88
606.751	243.88
606.96	237.88
607.168	234.88
607.376	233.88
607.585	246.88
607.793	255.88
608.001	238.88
608.21	244.88
608.418	246.88
608.626	237.88
608.834	246.88
609.043	238.88
609.251	223.88
609.459	236.88
609.667	240.88
609.875	226.88
610.083	239.88
610.291	227.88
610.499	255.88
610.707	258.88
610.916	240.88
611.124	255.88
611.332	246.88
611.54	248.88
611.748	235.88
611.955	232.88
612.163	239.88
612.371	239.88
612.579	230.88
612.787	224.88
612.995	227.88
613.203	234.88
613.411	224.88
613.618	231.88
613.826	224.88
614.034	233.88
614.242	250.88
614.449	220.88
614.657	247.88
614.865	223.88
615.072	243.88
615.28	237.88
615.488	236.88
615.695	229.88
615.903	224.88
616.111	244.88
616.318	231.88
616.526	244.88
616.733	253.88
616.941	224.88
617.148	223.88
617.356	239.88
617.563	222.88
617.771	239.88
617.978	224.88
618.185	234.88
618.393	234.88
618.6	240.88
618.807	242.88
619.015	223.88
619.222	249.88
619.429	236.88
619.637	221.88
619.844	228.88
620.051	204.88
620.258	221.88
620.466	227.88
620.673	222.88
620.88	244.88
621.087	214.88
621.294	221.88
621.501	227.88
621.708	223.88
621.915	222.88
622.122	221.88
622.329	227.88
622.536	221.88
622.743	223.88
622.95	222.88
623.157	207.88
623.364	196.88
623.571	222.88
623.778	217.88
623.985	221.88
624.192	208.88
624.399	208.88
624.606	219.88
624.812	212.88
625.019	213.88
625.226	215.88
625.433	206.88
625.639	227.88
625.846	197.88
626.053	188.88
626.259	198.88
626.466	204.88
626.673	204.88
626.879	205.88
627.086	233.88
627.293	211.88
627.499	206.88
627.706	218.88
627.912	216.88
628.119	204.88
628.325	206.88
628.532	216.88
628.738	209.88
628.945	205.88
629.151	205.88
629.357	203.88
629.564	179.88
629.77	198.88
629.976	190.88
630.183	198.88
630.389	194.88
630.595	197.88
630.802	208.88
631.008	194.88
631.214	186.88
631.42	192.88
631.627	189.88
631.833	198.88
632.039	180.88
632.245	188.88
632.451	190.88
632.657	187.88
632.863	176.88
633.069	174.88
633.275	179.88
633.481	178.88
633.688	213.88
633.893	190.88
634.099	190.88
634.305	187.88
634.511	176.88
634.717	192.88
634.923	188.88
635.129	188.88
635.335	186.88
635.541	177.88
635.747	194.88
635.952	186.88
636.158	188.88
636.364	176.88
636.57	171.88
636.775	196.88
636.981	159.88
637.187	183.88
637.392	160.88
637.598	174.88
637.804	182.88
638.009	183.88
638.215	185.88
638.421	167.88
638.626	179.88
638.832	174.88
639.037	180.88
639.243	178.88
639.448	178.88
639.654	181.88
639.859	183.88
640.065	166.88
640.27	186.88
640.475	158.88
640.681	169.88
640.886	178.88
641.091	174.88
641.297	167.88
641.502	159.88
641.707	165.88
641.913	169.88
642.118	169.88
642.323	170.88
642.528	188.88
642.733	182.88
642.939	170.88
643.144	178.88
643.349	164.88
643.554	166.88
643.759	187.88
643.964	162.88
644.169	166.88
644.374	168.88
644.579	183.88
644.784	168.88
644.989	166.88
645.194	162.88
645.399	164.88
645.604	174.88
645.809	158.88
646.014	161.88
646.219	182.88
646.423	167.88
646.628	164.88
646.833	183.88
647.038	174.88
647.243	173.88
647.447	178.88
647.652	175.88
647.857	176.88
648.062	171.88
648.266	174.88
648.471	168.88
648.676	173.88
648.88	168.88
649.085	188.88
649.289	163.88
649.494	166.88
649.698	177.88
649.903	176.88
650.107	160.88
650.312	171.88
650.516	162.88
650.721	152.88
650.925	153.88
651.13	152.88
651.334	138.88
651.539	146.88
651.743	152.88
651.947	158.88
652.152	145.88
652.356	155.88
652.56	154.88
652.764	146.88
652.969	148.88
653.173	150.88
653.377	147.88
653.581	159.88
653.785	144.88
653.99	141.88
654.194	172.88
654.398	140.88
654.602	147.88
654.806	148.88
655.01	144.88
655.214	152.88
655.418	152.88
655.622	159.88
655.826	144.88
656.03	157.88
656.234	141.88
656.438	150.88
656.642	142.88
656.846	134.88
657.049	136.88
657.253	149.88
657.457	127.88
657.661	123.88
657.865	138.88
658.068	115.88
658.272	114.88
658.476	119.88
658.68	110.88
658.883	116.88
659.087	108.88
659.291	115.88
659.494	115.88
659.698	103.88
659.901	108.88
660.105	88.88
660.309	92.88
660.512	99.88
660.716	110.88
660.919	86.88
661.123	91.88
661.326	89.88
661.53	101.88
661.733	93.88
661.936	90.88
662.14	98.88
662.343	82.88
662.546	82.88
662.75	83.88
662.953	79.88
663.156	90.88
663.36	102.88
663.563	82.88
663.766	95.88
663.969	84.88
664.173	86.88
664.376	81.88
664.579	77.88
664.782	93.88
664.985	77.88
665.188	84.88
665.391	92.88
665.594	86.88
665.797	88.88
666	80.88
666.203	87.88
666.406	80.88
666.609	83.88
666.812	98.88
667.015	102.88
667.218	75.88
667.421	87.88
667.624	89.88
667.827	75.88
668.03	88.88
668.232	76.88
668.435	86.88
668.638	84.88
668.841	83.88
669.043	79.88
669.246	85.88
669.449	89.88
669.651	77.88
669.854	83.88
670.057	76.88
670.259	99.88
670.462	99.88
670.665	69.88
670.867	87.88
671.07	90.88
671.272	92.88
671.475	87.88
671.677	84.88
671.88	86.88
672.082	91.88
672.284	80.88
672.487	80.88
672.689	87.88
672.892	76.88
