Data from 1962.PennyLincolnUp.Lamp.En5.5.200Scan.071719.P1._HRD10591_13-53-16-060.txt Node
Date: Thu Jul 18 13:53:16 EDT 2019
User: cochatt
Spectrometer: HR+D1059
Trigger mode: 1
Integration Time (sec): 1.000000E-1
Scans to average: 1
Electric dark correction enabled: true
Nonlinearity correction enabled: false
Boxcar width: 0
XAxis mode: Wavelengths
Number of Pixels in Spectrum: 2048
>>>>>Begin Spectral Data<<<<<
223.165	-5.25
223.4	-5.25
223.635	-5.25
223.869	-14.25
224.104	-18.25
224.338	-3.25
224.573	-15.25
224.808	-17.25
225.042	-11.25
225.277	-9.25
225.511	-8.25
225.746	-16.25
225.98	-1.25
226.215	17.75
226.449	15.75
226.683	29.75
226.918	31.75
227.152	24.75
227.387	41.75
227.621	36.75
227.856	40.75
228.09	46.75
228.324	46.75
228.559	53.75
228.793	63.75
229.027	85.75
229.262	102.75
229.496	115.75
229.73	103.75
229.964	126.75
230.199	112.75
230.433	115.75
230.667	115.75
230.901	118.75
231.136	109.75
231.37	112.75
231.604	118.75
231.838	97.75
232.072	106.75
232.306	115.75
232.541	117.75
232.775	104.75
233.009	110.75
233.243	110.75
233.477	113.75
233.711	107.75
233.945	100.75
234.179	113.75
234.413	104.75
234.647	112.75
234.881	118.75
235.115	128.75
235.349	112.75
235.583	127.75
235.817	125.75
236.051	112.75
236.285	117.75
236.519	119.75
236.753	122.75
236.987	134.75
237.221	144.75
237.455	169.75
237.689	157.75
237.922	121.75
238.156	129.75
238.39	136.75
238.624	115.75
238.858	121.75
239.091	103.75
239.325	119.75
239.559	125.75
239.793	128.75
240.027	120.75
240.26	137.75
240.494	138.75
240.728	125.75
240.961	140.75
241.195	141.75
241.429	139.75
241.662	135.75
241.896	124.75
242.13	126.75
242.363	121.75
242.597	130.75
242.83	147.75
243.064	136.75
243.298	127.75
243.531	149.75
243.765	138.75
243.998	124.75
244.232	138.75
244.465	134.75
244.699	126.75
244.932	145.75
245.166	130.75
245.399	140.75
245.633	140.75
245.866	134.75
246.099	139.75
246.333	158.75
246.566	130.75
246.8	140.75
247.033	142.75
247.266	169.75
247.5	160.75
247.733	149.75
247.966	157.75
248.2	153.75
248.433	160.75
248.666	157.75
248.899	171.75
249.133	189.75
249.366	182.75
249.599	161.75
249.832	169.75
250.066	165.75
250.299	191.75
250.532	153.75
250.765	179.75
250.998	191.75
251.231	172.75
251.465	194.75
251.698	173.75
251.931	159.75
252.164	167.75
252.397	185.75
252.63	186.75
252.863	168.75
253.096	200.75
253.329	185.75
253.562	182.75
253.795	188.75
254.028	193.75
254.261	192.75
254.494	195.75
254.727	194.75
254.96	216.75
255.193	209.75
255.426	203.75
255.659	206.75
255.892	191.75
256.124	192.75
256.357	212.75
256.59	206.75
256.823	206.75
257.056	205.75
257.289	202.75
257.521	199.75
257.754	195.75
257.987	190.75
258.22	197.75
258.452	202.75
258.685	192.75
258.918	181.75
259.151	196.75
259.383	197.75
259.616	208.75
259.849	204.75
260.081	210.75
260.314	206.75
260.547	215.75
260.779	229.75
261.012	202.75
261.244	192.75
261.477	202.75
261.71	202.75
261.942	197.75
262.175	203.75
262.407	215.75
262.64	204.75
262.872	205.75
263.105	191.75
263.337	198.75
263.57	202.75
263.802	210.75
264.035	206.75
264.267	222.75
264.499	209.75
264.732	204.75
264.964	204.75
265.197	194.75
265.429	214.75
265.661	203.75
265.894	200.75
266.126	194.75
266.358	196.75
266.591	208.75
266.823	220.75
267.055	217.75
267.287	217.75
267.52	227.75
267.752	192.75
267.984	190.75
268.216	218.75
268.448	244.75
268.681	214.75
268.913	229.75
269.145	234.75
269.377	244.75
269.609	250.75
269.841	236.75
270.073	234.75
270.306	257.75
270.538	260.75
270.77	280.75
271.002	267.75
271.234	262.75
271.466	264.75
271.698	274.75
271.93	267.75
272.162	260.75
272.394	265.75
272.626	272.75
272.858	263.75
273.09	253.75
273.322	268.75
273.553	245.75
273.785	236.75
274.017	231.75
274.249	240.75
274.481	243.75
274.713	245.75
274.945	246.75
275.176	253.75
275.408	238.75
275.64	241.75
275.872	249.75
276.104	247.75
276.335	260.75
276.567	259.75
276.799	253.75
277.031	271.75
277.262	268.75
277.494	263.75
277.726	280.75
277.957	271.75
278.189	251.75
278.421	261.75
278.652	269.75
278.884	262.75
279.115	256.75
279.347	254.75
279.579	276.75
279.81	264.75
280.042	250.75
280.273	272.75
280.505	262.75
280.736	264.75
280.968	255.75
281.199	275.75
281.431	256.75
281.662	283.75
281.894	252.75
282.125	254.75
282.356	269.75
282.588	264.75
282.819	270.75
283.051	260.75
283.282	260.75
283.513	270.75
283.745	265.75
283.976	285.75
284.207	269.75
284.439	259.75
284.67	273.75
284.901	281.75
285.132	276.75
285.364	282.75
285.595	277.75
285.826	277.75
286.057	280.75
286.288	285.75
286.52	296.75
286.751	297.75
286.982	281.75
287.213	271.75
287.444	279.75
287.675	308.75
287.906	284.75
288.138	300.75
288.369	296.75
288.6	295.75
288.831	281.75
289.062	307.75
289.293	298.75
289.524	290.75
289.755	291.75
289.986	295.75
290.217	280.75
290.448	285.75
290.679	284.75
290.91	305.75
291.141	293.75
291.371	282.75
291.602	283.75
291.833	288.75
292.064	290.75
292.295	284.75
292.526	297.75
292.757	283.75
292.987	297.75
293.218	308.75
293.449	297.75
293.68	289.75
293.91	286.75
294.141	297.75
294.372	293.75
294.603	277.75
294.833	297.75
295.064	311.75
295.295	278.75
295.525	296.75
295.756	294.75
295.987	302.75
296.217	300.75
296.448	312.75
296.679	310.75
296.909	291.75
297.14	312.75
297.37	324.75
297.601	310.75
297.831	301.75
298.062	294.75
298.292	310.75
298.523	317.75
298.753	301.75
298.984	301.75
299.214	318.75
299.445	315.75
299.675	309.75
299.905	317.75
300.136	315.75
300.366	327.75
300.597	312.75
300.827	310.75
301.057	341.75
301.288	335.75
301.518	318.75
301.748	326.75
301.979	326.75
302.209	326.75
302.439	339.75
302.669	326.75
302.9	331.75
303.13	340.75
303.36	312.75
303.59	326.75
303.82	325.75
304.051	338.75
304.281	334.75
304.511	339.75
304.741	314.75
304.971	333.75
305.201	314.75
305.431	343.75
305.661	333.75
305.891	324.75
306.121	317.75
306.352	331.75
306.582	326.75
306.812	325.75
307.042	318.75
307.272	313.75
307.502	326.75
307.731	327.75
307.961	338.75
308.191	324.75
308.421	322.75
308.651	349.75
308.881	318.75
309.111	312.75
309.341	344.75
309.571	339.75
309.8	348.75
310.03	342.75
310.26	361.75
310.49	341.75
310.72	346.75
310.949	375.75
311.179	354.75
311.409	346.75
311.639	356.75
311.868	341.75
312.098	377.75
312.328	345.75
312.557	367.75
312.787	383.75
313.017	360.75
313.246	369.75
313.476	370.75
313.706	353.75
313.935	365.75
314.165	361.75
314.394	368.75
314.624	374.75
314.853	369.75
315.083	362.75
315.312	371.75
315.542	344.75
315.771	357.75
316.001	344.75
316.23	362.75
316.46	378.75
316.689	364.75
316.919	378.75
317.148	370.75
317.377	349.75
317.607	358.75
317.836	373.75
318.065	380.75
318.295	350.75
318.524	364.75
318.753	352.75
318.983	375.75
319.212	346.75
319.441	363.75
319.67	358.75
319.9	372.75
320.129	380.75
320.358	381.75
320.587	365.75
320.816	364.75
321.046	364.75
321.275	380.75
321.504	354.75
321.733	388.75
321.962	380.75
322.191	377.75
322.42	395.75
322.649	382.75
322.878	397.75
323.108	384.75
323.337	409.75
323.566	412.75
323.795	438.75
324.024	448.75
324.253	501.75
324.482	630.75
324.71	873.75
324.939	1226.75
325.168	1103.75
325.397	624.75
325.626	483.75
325.855	448.75
326.084	445.75
326.313	440.75
326.542	422.75
326.77	436.75
326.999	502.75
327.228	619.75
327.457	833.75
327.686	980.75
327.914	699.75
328.143	533.75
328.372	490.75
328.6	462.75
328.829	468.75
329.058	451.75
329.287	466.75
329.515	448.75
329.744	420.75
329.972	444.75
330.201	467.75
330.43	445.75
330.658	488.75
330.887	464.75
331.115	468.75
331.344	447.75
331.572	443.75
331.801	438.75
332.03	458.75
332.258	434.75
332.486	442.75
332.715	428.75
332.943	456.75
333.172	451.75
333.4	469.75
333.629	478.75
333.857	460.75
334.085	462.75
334.314	479.75
334.542	512.75
334.771	506.75
334.999	459.75
335.227	478.75
335.455	447.75
335.684	443.75
335.912	460.75
336.14	461.75
336.369	433.75
336.597	457.75
336.825	437.75
337.053	433.75
337.281	428.75
337.51	444.75
337.738	408.75
337.966	414.75
338.194	441.75
338.422	441.75
338.65	426.75
338.878	416.75
339.106	446.75
339.334	405.75
339.562	412.75
339.79	419.75
340.018	404.75
340.246	404.75
340.474	419.75
340.702	412.75
340.93	413.75
341.158	429.75
341.386	409.75
341.614	401.75
341.842	405.75
342.07	417.75
342.298	430.75
342.526	401.75
342.754	392.75
342.981	396.75
343.209	404.75
343.437	406.75
343.665	430.75
343.893	450.75
344.12	448.75
344.348	451.75
344.576	427.75
344.804	411.75
345.031	424.75
345.259	428.75
345.487	410.75
345.714	412.75
345.942	416.75
346.17	402.75
346.397	417.75
346.625	405.75
346.853	375.75
347.08	384.75
347.308	381.75
347.535	407.75
347.763	406.75
347.99	397.75
348.218	404.75
348.445	403.75
348.673	401.75
348.9	404.75
349.128	387.75
349.355	389.75
349.583	387.75
349.81	400.75
350.037	387.75
350.265	402.75
350.492	378.75
350.72	384.75
350.947	394.75
351.174	404.75
351.402	388.75
351.629	416.75
351.856	401.75
352.083	391.75
352.311	403.75
352.538	389.75
352.765	399.75
352.992	391.75
353.22	390.75
353.447	410.75
353.674	380.75
353.901	393.75
354.128	372.75
354.355	375.75
354.583	379.75
354.81	389.75
355.037	383.75
355.264	378.75
355.491	389.75
355.718	396.75
355.945	357.75
356.172	367.75
356.399	370.75
356.626	353.75
356.853	376.75
357.08	390.75
357.307	386.75
357.534	377.75
357.761	378.75
357.988	377.75
358.215	379.75
358.441	387.75
358.668	396.75
358.895	365.75
359.122	376.75
359.349	374.75
359.576	402.75
359.802	392.75
360.029	401.75
360.256	419.75
360.483	407.75
360.709	400.75
360.936	410.75
361.163	378.75
361.39	382.75
361.616	418.75
361.843	404.75
362.07	386.75
362.296	392.75
362.523	386.75
362.749	385.75
362.976	384.75
363.203	412.75
363.429	382.75
363.656	380.75
363.882	397.75
364.109	406.75
364.335	381.75
364.562	398.75
364.788	377.75
365.015	394.75
365.241	384.75
365.468	387.75
365.694	388.75
365.92	395.75
366.147	394.75
366.373	374.75
366.599	375.75
366.826	380.75
367.052	376.75
367.278	382.75
367.505	391.75
367.731	383.75
367.957	393.75
368.184	365.75
368.41	379.75
368.636	384.75
368.862	396.75
369.089	398.75
369.315	402.75
369.541	402.75
369.767	391.75
369.993	380.75
370.219	373.75
370.445	394.75
370.672	392.75
370.898	404.75
371.124	387.75
371.35	388.75
371.576	384.75
371.802	402.75
372.028	374.75
372.254	410.75
372.48	409.75
372.706	412.75
372.932	430.75
373.158	413.75
373.384	421.75
373.61	393.75
373.835	406.75
374.061	385.75
374.287	375.75
374.513	397.75
374.739	399.75
374.965	406.75
375.191	418.75
375.416	418.75
375.642	398.75
375.868	397.75
376.094	421.75
376.319	394.75
376.545	392.75
376.771	376.75
376.997	387.75
377.222	389.75
377.448	379.75
377.674	392.75
377.899	376.75
378.125	404.75
378.35	400.75
378.576	396.75
378.802	392.75
379.027	399.75
379.253	383.75
379.478	387.75
379.704	385.75
379.929	408.75
380.155	388.75
380.38	386.75
380.606	401.75
380.831	404.75
381.057	417.75
381.282	389.75
381.507	400.75
381.733	406.75
381.958	397.75
382.184	404.75
382.409	408.75
382.634	427.75
382.86	387.75
383.085	429.75
383.31	424.75
383.535	423.75
383.761	423.75
383.986	425.75
384.211	438.75
384.436	446.75
384.662	446.75
384.887	444.75
385.112	455.75
385.337	452.75
385.562	467.75
385.787	448.75
386.013	453.75
386.238	450.75
386.463	451.75
386.688	456.75
386.913	443.75
387.138	439.75
387.363	427.75
387.588	453.75
387.813	444.75
388.038	454.75
388.263	433.75
388.488	452.75
388.713	453.75
388.938	466.75
389.163	442.75
389.387	455.75
389.612	446.75
389.837	455.75
390.062	452.75
390.287	436.75
390.512	413.75
390.736	438.75
390.961	455.75
391.186	464.75
391.411	438.75
391.636	448.75
391.86	472.75
392.085	501.75
392.31	469.75
392.534	450.75
392.759	476.75
392.984	466.75
393.208	465.75
393.433	490.75
393.658	473.75
393.882	469.75
394.107	473.75
394.331	459.75
394.556	470.75
394.78	454.75
395.005	468.75
395.229	483.75
395.454	463.75
395.678	500.75
395.903	483.75
396.127	514.75
396.352	506.75
396.576	480.75
396.801	477.75
397.025	487.75
397.249	498.75
397.474	497.75
397.698	491.75
397.922	516.75
398.147	504.75
398.371	512.75
398.595	520.75
398.82	519.75
399.044	538.75
399.268	574.75
399.492	631.75
399.717	668.75
399.941	681.75
400.165	660.75
400.389	648.75
400.613	601.75
400.837	563.75
401.062	548.75
401.286	546.75
401.51	554.75
401.734	546.75
401.958	546.75
402.182	539.75
402.406	557.75
402.63	542.75
402.854	550.75
403.078	565.75
403.302	553.75
403.526	556.75
403.75	548.75
403.974	576.75
404.198	547.75
404.422	600.75
404.645	566.75
404.869	580.75
405.093	580.75
405.317	611.75
405.541	646.75
405.765	598.75
405.988	585.75
406.212	577.75
406.436	573.75
406.66	588.75
406.883	588.75
407.107	615.75
407.331	648.75
407.555	708.75
407.778	709.75
408.002	635.75
408.226	621.75
408.449	584.75
408.673	601.75
408.896	630.75
409.12	630.75
409.344	629.75
409.567	578.75
409.791	562.75
410.014	549.75
410.238	555.75
410.461	567.75
410.685	564.75
410.908	574.75
411.132	599.75
411.355	598.75
411.578	589.75
411.802	554.75
412.025	570.75
412.249	568.75
412.472	587.75
412.695	592.75
412.919	590.75
413.142	552.75
413.365	544.75
413.589	539.75
413.812	523.75
414.035	521.75
414.258	528.75
414.482	520.75
414.705	534.75
414.928	524.75
415.151	538.75
415.374	522.75
415.597	521.75
415.821	502.75
416.044	501.75
416.267	516.75
416.49	520.75
416.713	525.75
416.936	506.75
417.159	521.75
417.382	531.75
417.605	512.75
417.828	513.75
418.051	534.75
418.274	532.75
418.497	512.75
418.72	518.75
418.943	510.75
419.166	572.75
419.389	575.75
419.611	564.75
419.834	561.75
420.057	546.75
420.28	564.75
420.503	538.75
420.726	557.75
420.948	535.75
421.171	566.75
421.394	581.75
421.617	528.75
421.839	537.75
422.062	533.75
422.285	548.75
422.507	564.75
422.73	616.75
422.953	626.75
423.175	563.75
423.398	576.75
423.621	544.75
423.843	566.75
424.066	579.75
424.288	578.75
424.511	568.75
424.733	599.75
424.956	628.75
425.178	622.75
425.401	616.75
425.623	631.75
425.846	587.75
426.068	573.75
426.291	544.75
426.513	541.75
426.735	547.75
426.958	585.75
427.18	628.75
427.402	718.75
427.625	750.75
427.847	633.75
428.069	611.75
428.292	555.75
428.514	531.75
428.736	517.75
428.958	511.75
429.181	512.75
429.403	495.75
429.625	489.75
429.847	514.75
430.069	551.75
430.292	562.75
430.514	493.75
430.736	506.75
430.958	515.75
431.18	489.75
431.402	479.75
431.624	470.75
431.846	491.75
432.068	477.75
432.29	506.75
432.512	496.75
432.734	487.75
432.956	512.75
433.178	496.75
433.4	510.75
433.622	482.75
433.844	486.75
434.066	499.75
434.287	498.75
434.509	519.75
434.731	512.75
434.953	512.75
435.175	524.75
435.397	536.75
435.618	525.75
435.84	530.75
436.062	616.75
436.284	693.75
436.505	596.75
436.727	530.75
436.949	527.75
437.17	492.75
437.392	500.75
437.614	510.75
437.835	532.75
438.057	582.75
438.278	653.75
438.5	641.75
438.721	698.75
438.943	683.75
439.165	582.75
439.386	512.75
439.608	517.75
439.829	522.75
440.05	541.75
440.272	548.75
440.493	530.75
440.715	506.75
440.936	515.75
441.158	497.75
441.379	532.75
441.6	550.75
441.822	515.75
442.043	574.75
442.264	628.75
442.486	636.75
442.707	564.75
442.928	551.75
443.149	545.75
443.371	565.75
443.592	588.75
443.813	652.75
444.034	713.75
444.255	597.75
444.476	568.75
444.698	587.75
444.919	603.75
445.14	721.75
445.361	630.75
445.582	576.75
445.803	589.75
446.024	658.75
446.245	674.75
446.466	621.75
446.687	539.75
446.908	548.75
447.129	514.75
447.35	506.75
447.571	499.75
447.792	480.75
448.013	493.75
448.234	492.75
448.455	521.75
448.675	607.75
448.896	675.75
449.117	583.75
449.338	570.75
449.559	646.75
449.779	726.75
450	591.75
450.221	500.75
450.442	501.75
450.662	487.75
450.883	452.75
451.104	470.75
451.324	465.75
451.545	468.75
451.766	445.75
451.986	450.75
452.207	456.75
452.428	458.75
452.648	451.75
452.869	439.75
453.089	440.75
453.31	460.75
453.53	449.75
453.751	450.75
453.971	460.75
454.192	456.75
454.412	433.75
454.633	436.75
454.853	443.75
455.073	436.75
455.294	440.75
455.514	483.75
455.734	486.75
455.955	446.75
456.175	425.75
456.395	434.75
456.616	429.75
456.836	425.75
457.056	443.75
457.276	414.75
457.497	439.75
457.717	433.75
457.937	437.75
458.157	449.75
458.377	455.75
458.598	454.75
458.818	470.75
459.038	541.75
459.258	548.75
459.478	502.75
459.698	519.75
459.918	491.75
460.138	513.75
460.358	520.75
460.578	537.75
460.798	520.75
461.018	548.75
461.238	521.75
461.458	544.75
461.678	518.75
461.898	526.75
462.118	543.75
462.338	565.75
462.558	546.75
462.777	573.75
462.997	589.75
463.217	605.75
463.437	606.75
463.657	602.75
463.876	583.75
464.096	579.75
464.316	572.75
464.536	594.75
464.755	574.75
464.975	578.75
465.195	562.75
465.414	569.75
465.634	534.75
465.854	519.75
466.073	505.75
466.293	508.75
466.512	471.75
466.732	468.75
466.951	468.75
467.171	468.75
467.391	500.75
467.61	460.75
467.829	463.75
468.049	468.75
468.268	493.75
468.488	466.75
468.707	445.75
468.927	458.75
469.146	449.75
469.365	464.75
469.585	469.75
469.804	488.75
470.023	514.75
470.243	473.75
470.462	489.75
470.681	473.75
470.901	470.75
471.12	482.75
471.339	469.75
471.558	453.75
471.777	477.75
471.997	473.75
472.216	469.75
472.435	472.75
472.654	495.75
472.873	455.75
473.092	468.75
473.311	450.75
473.53	461.75
473.749	473.75
473.968	487.75
474.187	545.75
474.406	553.75
474.625	493.75
474.844	460.75
475.063	475.75
475.282	482.75
475.501	478.75
475.72	470.75
475.939	461.75
476.158	484.75
476.377	501.75
476.596	476.75
476.814	482.75
477.033	491.75
477.252	508.75
477.471	516.75
477.69	518.75
477.908	498.75
478.127	547.75
478.346	520.75
478.564	535.75
478.783	528.75
479.002	541.75
479.22	532.75
479.439	566.75
479.658	543.75
479.876	567.75
480.095	576.75
480.313	602.75
480.532	580.75
480.751	588.75
480.969	588.75
481.188	625.75
481.406	602.75
481.624	588.75
481.843	568.75
482.061	558.75
482.28	566.75
482.498	536.75
482.717	554.75
482.935	553.75
483.153	560.75
483.372	523.75
483.59	541.75
483.808	554.75
484.027	562.75
484.245	570.75
484.463	556.75
484.681	551.75
484.9	552.75
485.118	557.75
485.336	556.75
485.554	571.75
485.772	555.75
485.99	573.75
486.209	568.75
486.427	579.75
486.645	567.75
486.863	586.75
487.081	601.75
487.299	606.75
487.517	596.75
487.735	593.75
487.953	592.75
488.171	582.75
488.389	574.75
488.607	573.75
488.825	568.75
489.043	570.75
489.261	584.75
489.479	574.75
489.696	589.75
489.914	601.75
490.132	598.75
490.35	593.75
490.568	573.75
490.786	593.75
491.003	599.75
491.221	617.75
491.439	630.75
491.657	614.75
491.874	617.75
492.092	627.75
492.31	621.75
492.527	616.75
492.745	633.75
492.963	631.75
493.18	643.75
493.398	643.75
493.615	657.75
493.833	619.75
494.05	643.75
494.268	633.75
494.485	655.75
494.703	644.75
494.92	640.75
495.138	645.75
495.355	628.75
495.573	659.75
495.79	655.75
496.008	664.75
496.225	660.75
496.442	674.75
496.66	661.75
496.877	686.75
497.094	684.75
497.312	715.75
497.529	722.75
497.746	711.75
497.963	713.75
498.181	757.75
498.398	740.75
498.615	786.75
498.832	816.75
499.049	829.75
499.267	886.75
499.484	935.75
499.701	987.75
499.918	1037.75
500.135	1073.75
500.352	1174.75
500.569	1225.75
500.786	1220.75
501.003	1152.75
501.22	1117.75
501.437	1057.75
501.654	976.75
501.871	934.75
502.088	900.75
502.305	833.75
502.522	801.75
502.739	813.75
502.956	769.75
503.172	742.75
503.389	756.75
503.606	715.75
503.823	726.75
504.04	715.75
504.256	709.75
504.473	697.75
504.69	704.75
504.907	709.75
505.123	688.75
505.34	650.75
505.557	661.75
505.773	625.75
505.99	617.75
506.207	617.75
506.423	631.75
506.64	606.75
506.856	609.75
507.073	592.75
507.289	595.75
507.506	584.75
507.722	614.75
507.939	603.75
508.155	616.75
508.372	580.75
508.588	585.75
508.805	578.75
509.021	577.75
509.238	566.75
509.454	587.75
509.67	573.75
509.887	585.75
510.103	584.75
510.319	585.75
510.536	624.75
510.752	829.75
510.968	716.75
511.184	564.75
511.401	562.75
511.617	562.75
511.833	532.75
512.049	542.75
512.265	528.75
512.481	563.75
512.698	551.75
512.914	542.75
513.13	565.75
513.346	541.75
513.562	541.75
513.778	545.75
513.994	542.75
514.21	535.75
514.426	571.75
514.642	579.75
514.858	584.75
515.074	580.75
515.29	647.75
515.506	767.75
515.721	709.75
515.937	605.75
516.153	586.75
516.369	577.75
516.585	586.75
516.801	581.75
517.016	597.75
517.232	615.75
517.448	618.75
517.664	619.75
517.879	613.75
518.095	648.75
518.311	624.75
518.527	609.75
518.742	595.75
518.958	606.75
519.173	593.75
519.389	583.75
519.605	562.75
519.82	568.75
520.036	556.75
520.251	564.75
520.467	584.75
520.682	597.75
520.898	566.75
521.113	564.75
521.329	586.75
521.544	589.75
521.76	677.75
521.975	852.75
522.19	838.75
522.406	630.75
522.621	581.75
522.836	523.75
523.052	540.75
523.267	512.75
523.482	511.75
523.698	483.75
523.913	528.75
524.128	496.75
524.343	496.75
524.559	477.75
524.774	490.75
524.989	486.75
525.204	496.75
525.419	484.75
525.634	478.75
525.849	505.75
526.064	473.75
526.28	488.75
526.495	476.75
526.71	471.75
526.925	473.75
527.14	471.75
527.355	449.75
527.57	463.75
527.785	469.75
527.999	452.75
528.214	472.75
528.429	469.75
528.644	462.75
528.859	486.75
529.074	481.75
529.289	489.75
529.503	486.75
529.718	487.75
529.933	478.75
530.148	481.75
530.363	453.75
530.577	447.75
530.792	461.75
531.007	462.75
531.221	492.75
531.436	481.75
531.651	472.75
531.865	467.75
532.08	465.75
532.295	465.75
532.509	461.75
532.724	449.75
532.938	443.75
533.153	453.75
533.367	472.75
533.582	468.75
533.796	470.75
534.011	459.75
534.225	460.75
534.44	455.75
534.654	437.75
534.868	449.75
535.083	458.75
535.297	450.75
535.511	464.75
535.726	463.75
535.94	468.75
536.154	446.75
536.369	444.75
536.583	452.75
536.797	429.75
537.011	424.75
537.225	433.75
537.44	435.75
537.654	444.75
537.868	455.75
538.082	446.75
538.296	431.75
538.51	434.75
538.724	425.75
538.938	456.75
539.153	434.75
539.367	444.75
539.581	459.75
539.795	441.75
540.009	437.75
540.222	414.75
540.436	434.75
540.65	448.75
540.864	436.75
541.078	421.75
541.292	427.75
541.506	432.75
541.72	449.75
541.934	447.75
542.147	456.75
542.361	438.75
542.575	418.75
542.789	439.75
543.002	442.75
543.216	448.75
543.43	452.75
543.644	440.75
543.857	437.75
544.071	453.75
544.285	442.75
544.498	437.75
544.712	433.75
544.925	442.75
545.139	427.75
545.352	423.75
545.566	412.75
545.779	437.75
545.993	425.75
546.206	453.75
546.42	441.75
546.633	450.75
546.847	437.75
547.06	436.75
547.274	436.75
547.487	429.75
547.7	417.75
547.914	446.75
548.127	437.75
548.34	409.75
548.554	435.75
548.767	436.75
548.98	438.75
549.193	465.75
549.407	437.75
549.62	437.75
549.833	447.75
550.046	446.75
550.259	445.75
550.473	429.75
550.686	442.75
550.899	427.75
551.112	437.75
551.325	453.75
551.538	444.75
551.751	420.75
551.964	424.75
552.177	425.75
552.39	445.75
552.603	454.75
552.816	476.75
553.029	447.75
553.242	461.75
553.455	428.75
553.667	453.75
553.88	476.75
554.093	448.75
554.306	448.75
554.519	461.75
554.732	443.75
554.944	429.75
555.157	428.75
555.37	413.75
555.583	387.75
555.795	402.75
556.008	402.75
556.221	403.75
556.433	405.75
556.646	402.75
556.859	402.75
557.071	396.75
557.284	378.75
557.496	394.75
557.709	390.75
557.921	366.75
558.134	396.75
558.346	382.75
558.559	394.75
558.771	376.75
558.984	384.75
559.196	387.75
559.409	365.75
559.621	365.75
559.833	380.75
560.046	364.75
560.258	377.75
560.47	384.75
560.683	388.75
560.895	387.75
561.107	397.75
561.32	397.75
561.532	394.75
561.744	376.75
561.956	379.75
562.168	371.75
562.381	393.75
562.593	390.75
562.805	372.75
563.017	382.75
563.229	395.75
563.441	390.75
563.653	380.75
563.865	397.75
564.077	397.75
564.289	422.75
564.501	396.75
564.713	391.75
564.925	430.75
565.137	421.75
565.349	394.75
565.561	451.75
565.773	450.75
565.985	443.75
566.197	450.75
566.408	474.75
566.62	508.75
566.832	521.75
567.044	559.75
567.255	555.75
567.467	540.75
567.679	553.75
567.891	607.75
568.102	602.75
568.314	557.75
568.526	536.75
568.737	508.75
568.949	488.75
569.161	459.75
569.372	454.75
569.584	442.75
569.795	425.75
570.007	410.75
570.218	417.75
570.43	426.75
570.641	395.75
570.853	404.75
571.064	408.75
571.276	384.75
571.487	389.75
571.698	392.75
571.91	384.75
572.121	360.75
572.333	366.75
572.544	347.75
572.755	359.75
572.966	378.75
573.178	358.75
573.389	362.75
573.6	341.75
573.811	346.75
574.023	348.75
574.234	340.75
574.445	313.75
574.656	345.75
574.867	335.75
575.078	342.75
575.289	350.75
575.501	334.75
575.712	319.75
575.923	331.75
576.134	329.75
576.345	333.75
576.556	336.75
576.767	324.75
576.978	313.75
577.188	320.75
577.399	312.75
577.61	327.75
577.821	336.75
578.032	318.75
578.243	337.75
578.454	414.75
578.665	364.75
578.875	329.75
579.086	320.75
579.297	322.75
579.508	307.75
579.718	297.75
579.929	294.75
580.14	306.75
580.35	312.75
580.561	336.75
580.772	310.75
580.982	309.75
581.193	309.75
581.403	314.75
581.614	306.75
581.825	314.75
582.035	287.75
582.246	312.75
582.456	326.75
582.667	312.75
582.877	302.75
583.087	318.75
583.298	302.75
583.508	291.75
583.719	317.75
583.929	296.75
584.139	302.75
584.35	309.75
584.56	310.75
584.77	294.75
584.981	296.75
585.191	293.75
585.401	292.75
585.611	289.75
585.821	293.75
586.032	318.75
586.242	306.75
586.452	308.75
586.662	286.75
586.872	310.75
587.082	291.75
587.292	296.75
587.502	307.75
587.713	300.75
587.923	303.75
588.133	301.75
588.343	291.75
588.553	289.75
588.762	297.75
588.972	319.75
589.182	386.75
589.392	349.75
589.602	316.75
589.812	342.75
590.022	335.75
590.232	293.75
590.441	299.75
590.651	294.75
590.861	289.75
591.071	316.75
591.281	304.75
591.49	305.75
591.7	305.75
591.91	297.75
592.119	315.75
592.329	313.75
592.539	315.75
592.748	338.75
592.958	342.75
593.167	330.75
593.377	329.75
593.587	348.75
593.796	354.75
594.006	339.75
594.215	342.75
594.424	337.75
594.634	343.75
594.843	337.75
595.053	305.75
595.262	318.75
595.472	309.75
595.681	302.75
595.89	311.75
596.1	291.75
596.309	288.75
596.518	274.75
596.727	293.75
596.937	290.75
597.146	296.75
597.355	274.75
597.564	281.75
597.774	284.75
597.983	263.75
598.192	279.75
598.401	269.75
598.61	280.75
598.819	278.75
599.028	249.75
599.237	289.75
599.446	278.75
599.655	258.75
599.864	258.75
600.073	277.75
600.282	268.75
600.491	259.75
600.7	271.75
600.909	258.75
601.118	254.75
601.327	258.75
601.536	250.75
601.745	242.75
601.953	241.75
602.162	261.75
602.371	277.75
602.58	247.75
602.789	264.75
602.997	257.75
603.206	248.75
603.415	238.75
603.623	270.75
603.832	247.75
604.041	242.75
604.249	239.75
604.458	238.75
604.666	234.75
604.875	235.75
605.084	232.75
605.292	236.75
605.501	244.75
605.709	242.75
605.918	244.75
606.126	238.75
606.334	254.75
606.543	231.75
606.751	268.75
606.96	228.75
607.168	214.75
607.376	221.75
607.585	245.75
607.793	228.75
608.001	230.75
608.21	232.75
608.418	251.75
608.626	226.75
608.834	233.75
609.043	244.75
609.251	238.75
609.459	224.75
609.667	256.75
609.875	241.75
610.083	233.75
610.291	225.75
610.499	224.75
610.707	230.75
610.916	237.75
611.124	250.75
611.332	246.75
611.54	246.75
611.748	232.75
611.955	249.75
612.163	235.75
612.371	235.75
612.579	226.75
612.787	231.75
612.995	242.75
613.203	235.75
613.411	221.75
613.618	227.75
613.826	248.75
614.034	236.75
614.242	221.75
614.449	235.75
614.657	237.75
614.865	229.75
615.072	237.75
615.28	253.75
615.488	232.75
615.695	253.75
615.903	215.75
616.111	219.75
616.318	252.75
616.526	227.75
616.733	240.75
616.941	231.75
617.148	234.75
617.356	228.75
617.563	231.75
617.771	235.75
617.978	229.75
618.185	238.75
618.393	233.75
618.6	216.75
618.807	244.75
619.015	243.75
619.222	235.75
619.429	211.75
619.637	228.75
619.844	243.75
620.051	219.75
620.258	222.75
620.466	231.75
620.673	223.75
620.88	231.75
621.087	221.75
621.294	217.75
621.501	225.75
621.708	220.75
621.915	212.75
622.122	224.75
622.329	229.75
622.536	207.75
622.743	212.75
622.95	224.75
623.157	213.75
623.364	221.75
623.571	230.75
623.778	222.75
623.985	230.75
624.192	212.75
624.399	206.75
624.606	218.75
624.812	237.75
625.019	214.75
625.226	210.75
625.433	196.75
625.639	211.75
625.846	200.75
626.053	205.75
626.259	202.75
626.466	209.75
626.673	210.75
626.879	225.75
627.086	206.75
627.293	203.75
627.499	204.75
627.706	224.75
627.912	214.75
628.119	206.75
628.325	207.75
628.532	194.75
628.738	209.75
628.945	189.75
629.151	210.75
629.357	182.75
629.564	203.75
629.77	209.75
629.976	205.75
630.183	195.75
630.389	195.75
630.595	196.75
630.802	194.75
631.008	201.75
631.214	188.75
631.42	188.75
631.627	210.75
631.833	197.75
632.039	190.75
632.245	184.75
632.451	196.75
632.657	191.75
632.863	194.75
633.069	186.75
633.275	200.75
633.481	182.75
633.688	208.75
633.893	188.75
634.099	188.75
634.305	188.75
634.511	182.75
634.717	189.75
634.923	195.75
635.129	179.75
635.335	163.75
635.541	186.75
635.747	179.75
635.952	170.75
636.158	186.75
636.364	189.75
636.57	179.75
636.775	166.75
636.981	186.75
637.187	178.75
637.392	174.75
637.598	169.75
637.804	177.75
638.009	171.75
638.215	176.75
638.421	162.75
638.626	189.75
638.832	162.75
639.037	176.75
639.243	167.75
639.448	174.75
639.654	182.75
639.859	172.75
640.065	170.75
640.27	164.75
640.475	166.75
640.681	178.75
640.886	173.75
641.091	168.75
641.297	166.75
641.502	184.75
641.707	171.75
641.913	184.75
642.118	159.75
642.323	179.75
642.528	169.75
642.733	170.75
642.939	156.75
643.144	152.75
643.349	166.75
643.554	177.75
643.759	168.75
643.964	165.75
644.169	148.75
644.374	151.75
644.579	173.75
644.784	159.75
644.989	172.75
645.194	177.75
645.399	173.75
645.604	164.75
645.809	156.75
646.014	178.75
646.219	167.75
646.423	168.75
646.628	174.75
646.833	176.75
647.038	194.75
647.243	168.75
647.447	163.75
647.652	173.75
647.857	149.75
648.062	191.75
648.266	187.75
648.471	168.75
648.676	172.75
648.88	170.75
649.085	165.75
649.289	162.75
649.494	185.75
649.698	169.75
649.903	186.75
650.107	171.75
650.312	160.75
650.516	155.75
650.721	151.75
650.925	168.75
651.13	154.75
651.334	161.75
651.539	161.75
651.743	144.75
651.947	136.75
652.152	141.75
652.356	154.75
652.56	143.75
652.764	148.75
652.969	151.75
653.173	142.75
653.377	152.75
653.581	143.75
653.785	145.75
653.99	153.75
654.194	152.75
654.398	145.75
654.602	145.75
654.806	141.75
655.01	161.75
655.214	140.75
655.418	145.75
655.622	134.75
655.826	146.75
656.03	163.75
656.234	143.75
656.438	146.75
656.642	161.75
656.846	143.75
657.049	152.75
657.253	122.75
657.457	141.75
657.661	126.75
657.865	108.75
658.068	132.75
658.272	116.75
658.476	115.75
658.68	124.75
658.883	106.75
659.087	106.75
659.291	103.75
659.494	99.75
659.698	97.75
659.901	93.75
660.105	105.75
660.309	88.75
660.512	98.75
660.716	91.75
660.919	90.75
661.123	104.75
661.326	86.75
661.53	78.75
661.733	101.75
661.936	92.75
662.14	88.75
662.343	95.75
662.546	91.75
662.75	83.75
662.953	92.75
663.156	96.75
663.36	70.75
663.563	92.75
663.766	84.75
663.969	85.75
664.173	88.75
664.376	94.75
664.579	93.75
664.782	78.75
664.985	83.75
665.188	84.75
665.391	68.75
665.594	88.75
665.797	80.75
666	92.75
666.203	81.75
666.406	83.75
666.609	83.75
666.812	76.75
667.015	92.75
667.218	97.75
667.421	90.75
667.624	92.75
667.827	82.75
668.03	88.75
668.232	88.75
668.435	83.75
668.638	78.75
668.841	98.75
669.043	86.75
669.246	83.75
669.449	87.75
669.651	90.75
669.854	89.75
670.057	85.75
670.259	79.75
670.462	79.75
670.665	80.75
670.867	77.75
671.07	82.75
671.272	88.75
671.475	85.75
671.677	89.75
671.88	62.75
672.082	77.75
672.284	82.75
672.487	88.75
672.689	87.75
672.892	88.75
