Data from 1962.PennyLincolnUp.Lamp.En5.5.200Scan.071719.P1._HRD10591_13-54-53-061.txt Node
Date: Thu Jul 18 13:54:53 EDT 2019
User: cochatt
Spectrometer: HR+D1059
Trigger mode: 1
Integration Time (sec): 1.000000E-1
Scans to average: 1
Electric dark correction enabled: true
Nonlinearity correction enabled: false
Boxcar width: 0
XAxis mode: Wavelengths
Number of Pixels in Spectrum: 2048
>>>>>Begin Spectral Data<<<<<
223.165	-18.62
223.4	-18.62
223.635	-18.62
223.869	-9.62
224.104	-13.62
224.338	-0.62
224.573	-11.62
224.808	-12.62
225.042	-15.62
225.277	0.38
225.511	-4.62
225.746	7.38
225.98	9.38
226.215	7.38
226.449	20.38
226.683	18.38
226.918	7.38
227.152	16.38
227.387	36.38
227.621	32.38
227.856	33.38
228.09	33.38
228.324	54.38
228.559	44.38
228.793	53.38
229.027	69.38
229.262	98.38
229.496	88.38
229.73	122.38
229.964	124.38
230.199	112.38
230.433	109.38
230.667	88.38
230.901	95.38
231.136	109.38
231.37	104.38
231.604	105.38
231.838	109.38
232.072	110.38
232.306	113.38
232.541	102.38
232.775	114.38
233.009	116.38
233.243	102.38
233.477	120.38
233.711	101.38
233.945	103.38
234.179	120.38
234.413	119.38
234.647	129.38
234.881	114.38
235.115	121.38
235.349	101.38
235.583	109.38
235.817	101.38
236.051	112.38
236.285	113.38
236.519	127.38
236.753	136.38
236.987	134.38
237.221	163.38
237.455	176.38
237.689	158.38
237.922	124.38
238.156	119.38
238.39	122.38
238.624	124.38
238.858	119.38
239.091	125.38
239.325	125.38
239.559	126.38
239.793	117.38
240.027	120.38
240.26	124.38
240.494	128.38
240.728	140.38
240.961	135.38
241.195	133.38
241.429	138.38
241.662	128.38
241.896	132.38
242.13	129.38
242.363	128.38
242.597	121.38
242.83	138.38
243.064	128.38
243.298	139.38
243.531	134.38
243.765	132.38
243.998	146.38
244.232	141.38
244.465	143.38
244.699	126.38
244.932	132.38
245.166	128.38
245.399	149.38
245.633	150.38
245.866	123.38
246.099	134.38
246.333	140.38
246.566	149.38
246.8	153.38
247.033	144.38
247.266	142.38
247.5	155.38
247.733	166.38
247.966	165.38
248.2	166.38
248.433	162.38
248.666	160.38
248.899	180.38
249.133	165.38
249.366	190.38
249.599	167.38
249.832	184.38
250.066	174.38
250.299	166.38
250.532	168.38
250.765	195.38
250.998	206.38
251.231	194.38
251.465	193.38
251.698	168.38
251.931	187.38
252.164	182.38
252.397	200.38
252.63	201.38
252.863	180.38
253.096	191.38
253.329	200.38
253.562	195.38
253.795	190.38
254.028	182.38
254.261	187.38
254.494	190.38
254.727	215.38
254.96	250.38
255.193	216.38
255.426	204.38
255.659	199.38
255.892	190.38
256.124	208.38
256.357	215.38
256.59	194.38
256.823	201.38
257.056	185.38
257.289	198.38
257.521	190.38
257.754	208.38
257.987	195.38
258.22	197.38
258.452	189.38
258.685	199.38
258.918	188.38
259.151	194.38
259.383	197.38
259.616	198.38
259.849	195.38
260.081	235.38
260.314	217.38
260.547	210.38
260.779	229.38
261.012	235.38
261.244	215.38
261.477	205.38
261.71	205.38
261.942	204.38
262.175	209.38
262.407	222.38
262.64	201.38
262.872	205.38
263.105	200.38
263.337	208.38
263.57	212.38
263.802	215.38
264.035	236.38
264.267	197.38
264.499	205.38
264.732	201.38
264.964	204.38
265.197	215.38
265.429	219.38
265.661	216.38
265.894	218.38
266.126	197.38
266.358	226.38
266.591	230.38
266.823	223.38
267.055	216.38
267.287	237.38
267.52	219.38
267.752	225.38
267.984	219.38
268.216	216.38
268.448	244.38
268.681	236.38
268.913	228.38
269.145	250.38
269.377	262.38
269.609	246.38
269.841	258.38
270.073	248.38
270.306	273.38
270.538	270.38
270.77	277.38
271.002	278.38
271.234	288.38
271.466	276.38
271.698	277.38
271.93	295.38
272.162	292.38
272.394	280.38
272.626	270.38
272.858	272.38
273.09	280.38
273.322	261.38
273.553	247.38
273.785	241.38
274.017	258.38
274.249	264.38
274.481	244.38
274.713	265.38
274.945	261.38
275.176	249.38
275.408	270.38
275.64	252.38
275.872	274.38
276.104	259.38
276.335	281.38
276.567	278.38
276.799	249.38
277.031	274.38
277.262	273.38
277.494	285.38
277.726	299.38
277.957	292.38
278.189	273.38
278.421	267.38
278.652	253.38
278.884	268.38
279.115	258.38
279.347	270.38
279.579	260.38
279.81	266.38
280.042	267.38
280.273	288.38
280.505	279.38
280.736	275.38
280.968	253.38
281.199	274.38
281.431	247.38
281.662	262.38
281.894	284.38
282.125	269.38
282.356	284.38
282.588	312.38
282.819	305.38
283.051	283.38
283.282	302.38
283.513	281.38
283.745	271.38
283.976	285.38
284.207	291.38
284.439	281.38
284.67	262.38
284.901	284.38
285.132	292.38
285.364	279.38
285.595	296.38
285.826	273.38
286.057	290.38
286.288	284.38
286.52	286.38
286.751	278.38
286.982	295.38
287.213	280.38
287.444	308.38
287.675	302.38
287.906	287.38
288.138	308.38
288.369	306.38
288.6	302.38
288.831	304.38
289.062	297.38
289.293	293.38
289.524	282.38
289.755	312.38
289.986	306.38
290.217	309.38
290.448	314.38
290.679	308.38
290.91	295.38
291.141	295.38
291.371	294.38
291.602	315.38
291.833	306.38
292.064	299.38
292.295	295.38
292.526	292.38
292.757	295.38
292.987	283.38
293.218	285.38
293.449	311.38
293.68	296.38
293.91	302.38
294.141	301.38
294.372	310.38
294.603	314.38
294.833	306.38
295.064	292.38
295.295	308.38
295.525	312.38
295.756	307.38
295.987	300.38
296.217	327.38
296.448	325.38
296.679	294.38
296.909	329.38
297.14	337.38
297.37	315.38
297.601	311.38
297.831	309.38
298.062	322.38
298.292	305.38
298.523	319.38
298.753	330.38
298.984	316.38
299.214	315.38
299.445	339.38
299.675	330.38
299.905	328.38
300.136	345.38
300.366	342.38
300.597	314.38
300.827	334.38
301.057	338.38
301.288	332.38
301.518	341.38
301.748	353.38
301.979	344.38
302.209	354.38
302.439	310.38
302.669	340.38
302.9	326.38
303.13	343.38
303.36	335.38
303.59	337.38
303.82	338.38
304.051	341.38
304.281	356.38
304.511	341.38
304.741	333.38
304.971	344.38
305.201	334.38
305.431	336.38
305.661	354.38
305.891	338.38
306.121	342.38
306.352	338.38
306.582	338.38
306.812	327.38
307.042	340.38
307.272	328.38
307.502	337.38
307.731	343.38
307.961	351.38
308.191	338.38
308.421	325.38
308.651	345.38
308.881	352.38
309.111	335.38
309.341	352.38
309.571	346.38
309.8	355.38
310.03	351.38
310.26	370.38
310.49	352.38
310.72	349.38
310.949	370.38
311.179	376.38
311.409	365.38
311.639	394.38
311.868	382.38
312.098	368.38
312.328	369.38
312.557	379.38
312.787	388.38
313.017	380.38
313.246	374.38
313.476	386.38
313.706	373.38
313.935	378.38
314.165	376.38
314.394	381.38
314.624	404.38
314.853	390.38
315.083	375.38
315.312	384.38
315.542	372.38
315.771	381.38
316.001	379.38
316.23	379.38
316.46	374.38
316.689	390.38
316.919	375.38
317.148	374.38
317.377	380.38
317.607	376.38
317.836	380.38
318.065	376.38
318.295	377.38
318.524	401.38
318.753	371.38
318.983	378.38
319.212	374.38
319.441	371.38
319.67	397.38
319.9	384.38
320.129	381.38
320.358	395.38
320.587	349.38
320.816	382.38
321.046	382.38
321.275	405.38
321.504	381.38
321.733	391.38
321.962	404.38
322.191	400.38
322.42	416.38
322.649	411.38
322.878	412.38
323.108	416.38
323.337	442.38
323.566	434.38
323.795	488.38
324.024	489.38
324.253	546.38
324.482	723.38
324.71	1030.38
324.939	1468.38
325.168	1254.38
325.397	718.38
325.626	548.38
325.855	491.38
326.084	475.38
326.313	457.38
326.542	446.38
326.77	481.38
326.999	516.38
327.228	674.38
327.457	968.38
327.686	1131.38
327.914	804.38
328.143	592.38
328.372	533.38
328.6	503.38
328.829	475.38
329.058	475.38
329.287	483.38
329.515	494.38
329.744	461.38
329.972	461.38
330.201	451.38
330.43	493.38
330.658	470.38
330.887	527.38
331.115	501.38
331.344	459.38
331.572	456.38
331.801	456.38
332.03	475.38
332.258	454.38
332.486	458.38
332.715	461.38
332.943	447.38
333.172	470.38
333.4	482.38
333.629	466.38
333.857	506.38
334.085	497.38
334.314	499.38
334.542	514.38
334.771	526.38
334.999	492.38
335.227	482.38
335.455	483.38
335.684	466.38
335.912	464.38
336.14	461.38
336.369	436.38
336.597	454.38
336.825	483.38
337.053	448.38
337.281	452.38
337.51	461.38
337.738	456.38
337.966	444.38
338.194	441.38
338.422	435.38
338.65	446.38
338.878	445.38
339.106	462.38
339.334	442.38
339.562	441.38
339.79	434.38
340.018	424.38
340.246	442.38
340.474	435.38
340.702	433.38
340.93	428.38
341.158	429.38
341.386	427.38
341.614	432.38
341.842	437.38
342.07	402.38
342.298	406.38
342.526	422.38
342.754	412.38
342.981	427.38
343.209	425.38
343.437	436.38
343.665	441.38
343.893	457.38
344.12	475.38
344.348	454.38
344.576	458.38
344.804	444.38
345.031	438.38
345.259	437.38
345.487	418.38
345.714	435.38
345.942	418.38
346.17	392.38
346.397	412.38
346.625	414.38
346.853	421.38
347.08	406.38
347.308	413.38
347.535	399.38
347.763	409.38
347.99	412.38
348.218	416.38
348.445	416.38
348.673	411.38
348.9	392.38
349.128	412.38
349.355	388.38
349.583	397.38
349.81	380.38
350.037	390.38
350.265	399.38
350.492	421.38
350.72	409.38
350.947	410.38
351.174	413.38
351.402	417.38
351.629	419.38
351.856	404.38
352.083	417.38
352.311	412.38
352.538	422.38
352.765	424.38
352.992	422.38
353.22	410.38
353.447	409.38
353.674	382.38
353.901	387.38
354.128	409.38
354.355	404.38
354.583	399.38
354.81	389.38
355.037	382.38
355.264	382.38
355.491	392.38
355.718	396.38
355.945	366.38
356.172	382.38
356.399	379.38
356.626	392.38
356.853	394.38
357.08	389.38
357.307	377.38
357.534	394.38
357.761	389.38
357.988	391.38
358.215	377.38
358.441	385.38
358.668	402.38
358.895	401.38
359.122	408.38
359.349	410.38
359.576	419.38
359.802	414.38
360.029	406.38
360.256	410.38
360.483	414.38
360.709	414.38
360.936	427.38
361.163	399.38
361.39	404.38
361.616	421.38
361.843	408.38
362.07	413.38
362.296	404.38
362.523	394.38
362.749	392.38
362.976	405.38
363.203	404.38
363.429	371.38
363.656	399.38
363.882	422.38
364.109	408.38
364.335	413.38
364.562	402.38
364.788	390.38
365.015	399.38
365.241	391.38
365.468	397.38
365.694	397.38
365.92	389.38
366.147	406.38
366.373	395.38
366.599	394.38
366.826	397.38
367.052	384.38
367.278	410.38
367.505	401.38
367.731	395.38
367.957	396.38
368.184	402.38
368.41	411.38
368.636	404.38
368.862	411.38
369.089	408.38
369.315	407.38
369.541	397.38
369.767	402.38
369.993	403.38
370.219	391.38
370.445	402.38
370.672	425.38
370.898	388.38
371.124	394.38
371.35	419.38
371.576	416.38
371.802	417.38
372.028	414.38
372.254	405.38
372.48	432.38
372.706	401.38
372.932	406.38
373.158	406.38
373.384	410.38
373.61	411.38
373.835	429.38
374.061	412.38
374.287	414.38
374.513	413.38
374.739	436.38
374.965	411.38
375.191	427.38
375.416	429.38
375.642	420.38
375.868	418.38
376.094	413.38
376.319	416.38
376.545	419.38
376.771	414.38
376.997	410.38
377.222	409.38
377.448	424.38
377.674	405.38
377.899	401.38
378.125	423.38
378.35	394.38
378.576	380.38
378.802	403.38
379.027	404.38
379.253	407.38
379.478	409.38
379.704	385.38
379.929	422.38
380.155	410.38
380.38	407.38
380.606	416.38
380.831	385.38
381.057	426.38
381.282	401.38
381.507	419.38
381.733	420.38
381.958	395.38
382.184	410.38
382.409	411.38
382.634	426.38
382.86	434.38
383.085	434.38
383.31	416.38
383.535	440.38
383.761	450.38
383.986	420.38
384.211	439.38
384.436	439.38
384.662	451.38
384.887	440.38
385.112	455.38
385.337	465.38
385.562	479.38
385.787	473.38
386.013	480.38
386.238	463.38
386.463	466.38
386.688	471.38
386.913	463.38
387.138	474.38
387.363	458.38
387.588	464.38
387.813	459.38
388.038	446.38
388.263	450.38
388.488	468.38
388.713	468.38
388.938	477.38
389.163	463.38
389.387	454.38
389.612	452.38
389.837	432.38
390.062	452.38
390.287	465.38
390.512	454.38
390.736	441.38
390.961	440.38
391.186	458.38
391.411	478.38
391.636	491.38
391.86	497.38
392.085	488.38
392.31	519.38
392.534	494.38
392.759	484.38
392.984	467.38
393.208	491.38
393.433	448.38
393.658	483.38
393.882	496.38
394.107	473.38
394.331	476.38
394.556	472.38
394.78	477.38
395.005	485.38
395.229	496.38
395.454	520.38
395.678	508.38
395.903	490.38
396.127	524.38
396.352	503.38
396.576	481.38
396.801	483.38
397.025	499.38
397.249	498.38
397.474	501.38
397.698	502.38
397.922	505.38
398.147	507.38
398.371	513.38
398.595	521.38
398.82	536.38
399.044	578.38
399.268	599.38
399.492	658.38
399.717	682.38
399.941	678.38
400.165	715.38
400.389	672.38
400.613	617.38
400.837	566.38
401.062	580.38
401.286	557.38
401.51	533.38
401.734	535.38
401.958	547.38
402.182	532.38
402.406	563.38
402.63	562.38
402.854	585.38
403.078	556.38
403.302	585.38
403.526	566.38
403.75	584.38
403.974	585.38
404.198	578.38
404.422	592.38
404.645	587.38
404.869	597.38
405.093	625.38
405.317	636.38
405.541	657.38
405.765	612.38
405.988	587.38
406.212	602.38
406.436	596.38
406.66	628.38
406.883	605.38
407.107	637.38
407.331	674.38
407.555	736.38
407.778	746.38
408.002	677.38
408.226	639.38
408.449	619.38
408.673	620.38
408.896	632.38
409.12	660.38
409.344	639.38
409.567	577.38
409.791	605.38
410.014	575.38
410.238	580.38
410.461	601.38
410.685	564.38
410.908	592.38
411.132	607.38
411.355	633.38
411.578	619.38
411.802	589.38
412.025	546.38
412.249	595.38
412.472	603.38
412.695	600.38
412.919	587.38
413.142	570.38
413.365	542.38
413.589	547.38
413.812	522.38
414.035	531.38
414.258	532.38
414.482	541.38
414.705	546.38
414.928	520.38
415.151	545.38
415.374	539.38
415.597	523.38
415.821	539.38
416.044	521.38
416.267	522.38
416.49	538.38
416.713	526.38
416.936	520.38
417.159	525.38
417.382	547.38
417.605	532.38
417.828	555.38
418.051	552.38
418.274	558.38
418.497	553.38
418.72	534.38
418.943	558.38
419.166	564.38
419.389	599.38
419.611	600.38
419.834	579.38
420.057	576.38
420.28	555.38
420.503	548.38
420.726	557.38
420.948	551.38
421.171	594.38
421.394	608.38
421.617	569.38
421.839	553.38
422.062	547.38
422.285	556.38
422.507	605.38
422.73	658.38
422.953	663.38
423.175	603.38
423.398	568.38
423.621	566.38
423.843	582.38
424.066	599.38
424.288	588.38
424.511	599.38
424.733	635.38
424.956	686.38
425.178	674.38
425.401	668.38
425.623	674.38
425.846	603.38
426.068	575.38
426.291	561.38
426.513	556.38
426.735	570.38
426.958	584.38
427.18	652.38
427.402	741.38
427.625	816.38
427.847	678.38
428.069	654.38
428.292	585.38
428.514	538.38
428.736	532.38
428.958	539.38
429.181	509.38
429.403	514.38
429.625	548.38
429.847	534.38
430.069	599.38
430.292	598.38
430.514	530.38
430.736	511.38
430.958	521.38
431.18	509.38
431.402	500.38
431.624	504.38
431.846	514.38
432.068	499.38
432.29	510.38
432.512	507.38
432.734	505.38
432.956	509.38
433.178	529.38
433.4	511.38
433.622	520.38
433.844	510.38
434.066	514.38
434.287	487.38
434.509	518.38
434.731	532.38
434.953	534.38
435.175	548.38
435.397	563.38
435.618	553.38
435.84	584.38
436.062	666.38
436.284	680.38
436.505	593.38
436.727	578.38
436.949	580.38
437.17	524.38
437.392	515.38
437.614	524.38
437.835	540.38
438.057	599.38
438.278	650.38
438.5	668.38
438.721	750.38
438.943	729.38
439.165	615.38
439.386	548.38
439.608	574.38
439.829	576.38
440.05	575.38
440.272	599.38
440.493	573.38
440.715	553.38
440.936	536.38
441.158	513.38
441.379	528.38
441.6	539.38
441.822	564.38
442.043	607.38
442.264	635.38
442.486	709.38
442.707	615.38
442.928	600.38
443.149	569.38
443.371	585.38
443.592	630.38
443.813	689.38
444.034	755.38
444.255	646.38
444.476	605.38
444.698	612.38
444.919	604.38
445.14	687.38
445.361	644.38
445.582	591.38
445.803	618.38
446.024	689.38
446.245	692.38
446.466	653.38
446.687	577.38
446.908	556.38
447.129	540.38
447.35	536.38
447.571	517.38
447.792	528.38
448.013	512.38
448.234	508.38
448.455	562.38
448.675	645.38
448.896	727.38
449.117	609.38
449.338	607.38
449.559	692.38
449.779	762.38
450	642.38
450.221	548.38
450.442	491.38
450.662	501.38
450.883	492.38
451.104	526.38
451.324	498.38
451.545	479.38
451.766	486.38
451.986	454.38
452.207	469.38
452.428	455.38
452.648	470.38
452.869	457.38
453.089	477.38
453.31	458.38
453.53	466.38
453.751	464.38
453.971	474.38
454.192	477.38
454.412	465.38
454.633	477.38
454.853	469.38
455.073	466.38
455.294	469.38
455.514	516.38
455.734	512.38
455.955	472.38
456.175	468.38
456.395	452.38
456.616	450.38
456.836	457.38
457.056	453.38
457.276	438.38
457.497	438.38
457.717	438.38
457.937	459.38
458.157	434.38
458.377	465.38
458.598	469.38
458.818	509.38
459.038	561.38
459.258	595.38
459.478	528.38
459.698	513.38
459.918	538.38
460.138	534.38
460.358	536.38
460.578	541.38
460.798	549.38
461.018	533.38
461.238	534.38
461.458	536.38
461.678	530.38
461.898	536.38
462.118	565.38
462.338	576.38
462.558	582.38
462.777	604.38
462.997	614.38
463.217	626.38
463.437	636.38
463.657	611.38
463.876	620.38
464.096	579.38
464.316	597.38
464.536	628.38
464.755	590.38
464.975	584.38
465.195	580.38
465.414	589.38
465.634	555.38
465.854	531.38
466.073	524.38
466.293	508.38
466.512	481.38
466.732	488.38
466.951	495.38
467.171	498.38
467.391	492.38
467.61	485.38
467.829	503.38
468.049	498.38
468.268	476.38
468.488	473.38
468.707	455.38
468.927	442.38
469.146	469.38
469.365	473.38
469.585	474.38
469.804	495.38
470.023	468.38
470.243	481.38
470.462	491.38
470.681	502.38
470.901	516.38
471.12	498.38
471.339	490.38
471.558	492.38
471.777	497.38
471.997	496.38
472.216	488.38
472.435	521.38
472.654	477.38
472.873	482.38
473.092	477.38
473.311	459.38
473.53	478.38
473.749	488.38
473.968	507.38
474.187	571.38
474.406	611.38
474.625	521.38
474.844	485.38
475.063	496.38
475.282	504.38
475.501	488.38
475.72	480.38
475.939	510.38
476.158	503.38
476.377	481.38
476.596	514.38
476.814	514.38
477.033	539.38
477.252	533.38
477.471	528.38
477.69	502.38
477.908	532.38
478.127	564.38
478.346	578.38
478.564	547.38
478.783	566.38
479.002	585.38
479.22	568.38
479.439	586.38
479.658	593.38
479.876	576.38
480.095	605.38
480.313	620.38
480.532	605.38
480.751	620.38
480.969	608.38
481.188	620.38
481.406	630.38
481.624	596.38
481.843	587.38
482.061	577.38
482.28	562.38
482.498	549.38
482.717	536.38
482.935	547.38
483.153	581.38
483.372	550.38
483.59	581.38
483.808	561.38
484.027	567.38
484.245	570.38
484.463	561.38
484.681	576.38
484.9	568.38
485.118	577.38
485.336	588.38
485.554	577.38
485.772	591.38
485.99	588.38
486.209	608.38
486.427	606.38
486.645	598.38
486.863	588.38
487.081	597.38
487.299	589.38
487.517	594.38
487.735	572.38
487.953	589.38
488.171	596.38
488.389	615.38
488.607	611.38
488.825	600.38
489.043	595.38
489.261	596.38
489.479	615.38
489.696	620.38
489.914	624.38
490.132	616.38
490.35	633.38
490.568	620.38
490.786	634.38
491.003	638.38
491.221	629.38
491.439	610.38
491.657	654.38
491.874	640.38
492.092	644.38
492.31	653.38
492.527	648.38
492.745	658.38
492.963	669.38
493.18	674.38
493.398	669.38
493.615	688.38
493.833	650.38
494.05	698.38
494.268	676.38
494.485	666.38
494.703	681.38
494.92	705.38
495.138	670.38
495.355	672.38
495.573	664.38
495.79	688.38
496.008	697.38
496.225	691.38
496.442	700.38
496.66	674.38
496.877	696.38
497.094	729.38
497.312	730.38
497.529	730.38
497.746	725.38
497.963	739.38
498.181	775.38
498.398	791.38
498.615	836.38
498.832	822.38
499.049	843.38
499.267	902.38
499.484	980.38
499.701	1013.38
499.918	1077.38
500.135	1141.38
500.352	1222.38
500.569	1236.38
500.786	1239.38
501.003	1174.38
501.22	1149.38
501.437	1072.38
501.654	1032.38
501.871	984.38
502.088	931.38
502.305	890.38
502.522	846.38
502.739	850.38
502.956	821.38
503.172	788.38
503.389	773.38
503.606	786.38
503.823	759.38
504.04	727.38
504.256	740.38
504.473	716.38
504.69	747.38
504.907	723.38
505.123	694.38
505.34	722.38
505.557	676.38
505.773	670.38
505.99	657.38
506.207	639.38
506.423	625.38
506.64	671.38
506.856	640.38
507.073	652.38
507.289	631.38
507.506	606.38
507.722	628.38
507.939	636.38
508.155	618.38
508.372	615.38
508.588	608.38
508.805	618.38
509.021	618.38
509.238	629.38
509.454	626.38
509.67	620.38
509.887	595.38
510.103	587.38
510.319	603.38
510.536	648.38
510.752	890.38
510.968	760.38
511.184	608.38
511.401	557.38
511.617	580.38
511.833	560.38
512.049	583.38
512.265	577.38
512.481	571.38
512.698	572.38
512.914	564.38
513.13	563.38
513.346	570.38
513.562	585.38
513.778	573.38
513.994	572.38
514.21	583.38
514.426	585.38
514.642	585.38
514.858	628.38
515.074	632.38
515.29	683.38
515.506	863.38
515.721	764.38
515.937	638.38
516.153	608.38
516.369	624.38
516.585	611.38
516.801	610.38
517.016	611.38
517.232	634.38
517.448	651.38
517.664	655.38
517.879	648.38
518.095	630.38
518.311	654.38
518.527	637.38
518.742	622.38
518.958	637.38
519.173	626.38
519.389	628.38
519.605	606.38
519.82	590.38
520.036	582.38
520.251	589.38
520.467	595.38
520.682	628.38
520.898	618.38
521.113	602.38
521.329	621.38
521.544	628.38
521.76	712.38
521.975	992.38
522.19	983.38
522.406	672.38
522.621	595.38
522.836	580.38
523.052	563.38
523.267	556.38
523.482	551.38
523.698	530.38
523.913	541.38
524.128	511.38
524.343	530.38
524.559	516.38
524.774	523.38
524.989	524.38
525.204	532.38
525.419	488.38
525.634	495.38
525.849	488.38
526.064	511.38
526.28	497.38
526.495	482.38
526.71	488.38
526.925	467.38
527.14	485.38
527.355	483.38
527.57	490.38
527.785	465.38
527.999	470.38
528.214	479.38
528.429	493.38
528.644	492.38
528.859	490.38
529.074	471.38
529.289	506.38
529.503	512.38
529.718	500.38
529.933	517.38
530.148	492.38
530.363	477.38
530.577	473.38
530.792	461.38
531.007	478.38
531.221	475.38
531.436	474.38
531.651	455.38
531.865	478.38
532.08	472.38
532.295	479.38
532.509	489.38
532.724	489.38
532.938	480.38
533.153	481.38
533.367	481.38
533.582	472.38
533.796	484.38
534.011	469.38
534.225	484.38
534.44	476.38
534.654	460.38
534.868	485.38
535.083	472.38
535.297	464.38
535.511	475.38
535.726	477.38
535.94	456.38
536.154	457.38
536.369	472.38
536.583	467.38
536.797	449.38
537.011	463.38
537.225	439.38
537.44	469.38
537.654	459.38
537.868	457.38
538.082	450.38
538.296	463.38
538.51	463.38
538.724	450.38
538.938	470.38
539.153	451.38
539.367	460.38
539.581	450.38
539.795	454.38
540.009	450.38
540.222	443.38
540.436	441.38
540.65	463.38
540.864	462.38
541.078	457.38
541.292	463.38
541.506	429.38
541.72	465.38
541.934	448.38
542.147	449.38
542.361	455.38
542.575	452.38
542.789	448.38
543.002	446.38
543.216	457.38
543.43	467.38
543.644	455.38
543.857	452.38
544.071	456.38
544.285	457.38
544.498	460.38
544.712	446.38
544.925	455.38
545.139	452.38
545.352	458.38
545.566	446.38
545.779	433.38
545.993	448.38
546.206	461.38
546.42	468.38
546.633	453.38
546.847	439.38
547.06	418.38
547.274	465.38
547.487	456.38
547.7	440.38
547.914	447.38
548.127	458.38
548.34	454.38
548.554	452.38
548.767	442.38
548.98	436.38
549.193	439.38
549.407	444.38
549.62	443.38
549.833	470.38
550.046	456.38
550.259	420.38
550.473	432.38
550.686	446.38
550.899	440.38
551.112	469.38
551.325	441.38
551.538	435.38
551.751	427.38
551.964	425.38
552.177	438.38
552.39	433.38
552.603	468.38
552.816	462.38
553.029	460.38
553.242	457.38
553.455	488.38
553.667	464.38
553.88	474.38
554.093	431.38
554.306	452.38
554.519	443.38
554.732	441.38
554.944	424.38
555.157	415.38
555.37	439.38
555.583	419.38
555.795	399.38
556.008	418.38
556.221	399.38
556.433	412.38
556.646	405.38
556.859	395.38
557.071	392.38
557.284	401.38
557.496	394.38
557.709	385.38
557.921	391.38
558.134	410.38
558.346	391.38
558.559	389.38
558.771	402.38
558.984	393.38
559.196	391.38
559.409	405.38
559.621	374.38
559.833	392.38
560.046	390.38
560.258	390.38
560.47	373.38
560.683	406.38
560.895	391.38
561.107	391.38
561.32	386.38
561.532	391.38
561.744	394.38
561.956	398.38
562.168	419.38
562.381	386.38
562.593	389.38
562.805	405.38
563.017	403.38
563.229	417.38
563.441	402.38
563.653	406.38
563.865	404.38
564.077	384.38
564.289	391.38
564.501	392.38
564.713	432.38
564.925	432.38
565.137	447.38
565.349	459.38
565.561	455.38
565.773	464.38
565.985	471.38
566.197	496.38
566.408	497.38
566.62	540.38
566.832	526.38
567.044	538.38
567.255	562.38
567.467	557.38
567.679	560.38
567.891	588.38
568.102	615.38
568.314	579.38
568.526	529.38
568.737	505.38
568.949	501.38
569.161	454.38
569.372	460.38
569.584	445.38
569.795	425.38
570.007	423.38
570.218	441.38
570.43	446.38
570.641	410.38
570.853	413.38
571.064	416.38
571.276	392.38
571.487	403.38
571.698	394.38
571.91	384.38
572.121	393.38
572.333	357.38
572.544	372.38
572.755	352.38
572.966	384.38
573.178	365.38
573.389	360.38
573.6	346.38
573.811	347.38
574.023	349.38
574.234	358.38
574.445	346.38
574.656	324.38
574.867	335.38
575.078	333.38
575.289	352.38
575.501	339.38
575.712	324.38
575.923	336.38
576.134	350.38
576.345	320.38
576.556	324.38
576.767	317.38
576.978	331.38
577.188	335.38
577.399	342.38
577.61	323.38
577.821	312.38
578.032	317.38
578.243	338.38
578.454	446.38
578.665	364.38
578.875	327.38
579.086	300.38
579.297	327.38
579.508	312.38
579.718	332.38
579.929	317.38
580.14	310.38
580.35	322.38
580.561	301.38
580.772	314.38
580.982	301.38
581.193	301.38
581.403	314.38
581.614	311.38
581.825	301.38
582.035	313.38
582.246	321.38
582.456	314.38
582.667	299.38
582.877	296.38
583.087	302.38
583.298	296.38
583.508	308.38
583.719	299.38
583.929	301.38
584.139	307.38
584.35	284.38
584.56	326.38
584.77	296.38
584.981	321.38
585.191	307.38
585.401	305.38
585.611	292.38
585.821	317.38
586.032	290.38
586.242	314.38
586.452	309.38
586.662	300.38
586.872	296.38
587.082	288.38
587.292	295.38
587.502	313.38
587.713	314.38
587.923	285.38
588.133	308.38
588.343	301.38
588.553	294.38
588.762	290.38
588.972	321.38
589.182	330.38
589.392	331.38
589.602	296.38
589.812	302.38
590.022	316.38
590.232	292.38
590.441	304.38
590.651	313.38
590.861	293.38
591.071	294.38
591.281	333.38
591.49	301.38
591.7	315.38
591.91	336.38
592.119	324.38
592.329	328.38
592.539	329.38
592.748	317.38
592.958	342.38
593.167	330.38
593.377	350.38
593.587	340.38
593.796	324.38
594.006	332.38
594.215	354.38
594.424	348.38
594.634	342.38
594.843	338.38
595.053	317.38
595.262	320.38
595.472	306.38
595.681	307.38
595.89	304.38
596.1	305.38
596.309	311.38
596.518	292.38
596.727	283.38
596.937	289.38
597.146	293.38
597.355	308.38
597.564	292.38
597.774	290.38
597.983	262.38
598.192	266.38
598.401	273.38
598.61	272.38
598.819	274.38
599.028	273.38
599.237	266.38
599.446	275.38
599.655	286.38
599.864	262.38
600.073	260.38
600.282	269.38
600.491	248.38
600.7	260.38
600.909	259.38
601.118	280.38
601.327	269.38
601.536	270.38
601.745	243.38
601.953	257.38
602.162	271.38
602.371	260.38
602.58	254.38
602.789	267.38
602.997	270.38
603.206	265.38
603.415	257.38
603.623	249.38
603.832	253.38
604.041	232.38
604.249	250.38
604.458	246.38
604.666	262.38
604.875	242.38
605.084	249.38
605.292	246.38
605.501	262.38
605.709	249.38
605.918	252.38
606.126	253.38
606.334	236.38
606.543	241.38
606.751	246.38
606.96	260.38
607.168	255.38
607.376	250.38
607.585	246.38
607.793	233.38
608.001	242.38
608.21	235.38
608.418	240.38
608.626	226.38
608.834	236.38
609.043	246.38
609.251	249.38
609.459	230.38
609.667	242.38
609.875	232.38
610.083	225.38
610.291	256.38
610.499	240.38
610.707	228.38
610.916	246.38
611.124	242.38
611.332	251.38
611.54	244.38
611.748	248.38
611.955	246.38
612.163	249.38
612.371	235.38
612.579	236.38
612.787	232.38
612.995	230.38
613.203	239.38
613.411	237.38
613.618	242.38
613.826	229.38
614.034	233.38
614.242	230.38
614.449	225.38
614.657	230.38
614.865	219.38
615.072	234.38
615.28	246.38
615.488	239.38
615.695	247.38
615.903	230.38
616.111	224.38
616.318	256.38
616.526	249.38
616.733	249.38
616.941	237.38
617.148	237.38
617.356	221.38
617.563	237.38
617.771	233.38
617.978	228.38
618.185	238.38
618.393	239.38
618.6	230.38
618.807	234.38
619.015	242.38
619.222	221.38
619.429	222.38
619.637	241.38
619.844	225.38
620.051	221.38
620.258	226.38
620.466	228.38
620.673	210.38
620.88	211.38
621.087	235.38
621.294	227.38
621.501	236.38
621.708	244.38
621.915	226.38
622.122	217.38
622.329	230.38
622.536	234.38
622.743	216.38
622.95	215.38
623.157	217.38
623.364	235.38
623.571	211.38
623.778	220.38
623.985	206.38
624.192	210.38
624.399	208.38
624.606	212.38
624.812	203.38
625.019	195.38
625.226	210.38
625.433	208.38
625.639	206.38
625.846	210.38
626.053	204.38
626.259	203.38
626.466	205.38
626.673	205.38
626.879	195.38
627.086	200.38
627.293	216.38
627.499	204.38
627.706	217.38
627.912	205.38
628.119	205.38
628.325	211.38
628.532	213.38
628.738	190.38
628.945	198.38
629.151	183.38
629.357	193.38
629.564	194.38
629.77	200.38
629.976	212.38
630.183	200.38
630.389	202.38
630.595	212.38
630.802	193.38
631.008	197.38
631.214	194.38
631.42	185.38
631.627	184.38
631.833	195.38
632.039	182.38
632.245	194.38
632.451	196.38
632.657	185.38
632.863	200.38
633.069	188.38
633.275	198.38
633.481	194.38
633.688	183.38
633.893	176.38
634.099	182.38
634.305	165.38
634.511	195.38
634.717	186.38
634.923	178.38
635.129	176.38
635.335	178.38
635.541	178.38
635.747	180.38
635.952	197.38
636.158	174.38
636.364	196.38
636.57	183.38
636.775	195.38
636.981	197.38
637.187	182.38
637.392	187.38
637.598	178.38
637.804	181.38
638.009	180.38
638.215	189.38
638.421	192.38
638.626	175.38
638.832	182.38
639.037	166.38
639.243	162.38
639.448	178.38
639.654	185.38
639.859	186.38
640.065	172.38
640.27	182.38
640.475	162.38
640.681	170.38
640.886	161.38
641.091	156.38
641.297	171.38
641.502	172.38
641.707	170.38
641.913	162.38
642.118	181.38
642.323	164.38
642.528	180.38
642.733	176.38
642.939	167.38
643.144	176.38
643.349	182.38
643.554	180.38
643.759	163.38
643.964	163.38
644.169	158.38
644.374	170.38
644.579	173.38
644.784	163.38
644.989	166.38
645.194	157.38
645.399	149.38
645.604	173.38
645.809	166.38
646.014	155.38
646.219	171.38
646.423	165.38
646.628	150.38
646.833	155.38
647.038	161.38
647.243	158.38
647.447	169.38
647.652	144.38
647.857	171.38
648.062	171.38
648.266	165.38
648.471	163.38
648.676	187.38
648.88	181.38
649.085	171.38
649.289	185.38
649.494	168.38
649.698	179.38
649.903	190.38
650.107	152.38
650.312	164.38
650.516	153.38
650.721	164.38
650.925	166.38
651.13	160.38
651.334	157.38
651.539	146.38
651.743	150.38
651.947	158.38
652.152	173.38
652.356	148.38
652.56	150.38
652.764	145.38
652.969	148.38
653.173	146.38
653.377	138.38
653.581	132.38
653.785	137.38
653.99	139.38
654.194	141.38
654.398	141.38
654.602	140.38
654.806	135.38
655.01	137.38
655.214	137.38
655.418	143.38
655.622	137.38
655.826	148.38
656.03	137.38
656.234	134.38
656.438	156.38
656.642	141.38
656.846	145.38
657.049	142.38
657.253	127.38
657.457	118.38
657.661	117.38
657.865	135.38
658.068	104.38
658.272	110.38
658.476	103.38
658.68	121.38
658.883	116.38
659.087	96.38
659.291	105.38
659.494	108.38
659.698	102.38
659.901	95.38
660.105	102.38
660.309	92.38
660.512	83.38
660.716	90.38
660.919	91.38
661.123	91.38
661.326	99.38
661.53	83.38
661.733	92.38
661.936	84.38
662.14	93.38
662.343	94.38
662.546	85.38
662.75	97.38
662.953	79.38
663.156	71.38
663.36	80.38
663.563	88.38
663.766	67.38
663.969	89.38
664.173	80.38
664.376	81.38
664.579	82.38
664.782	92.38
664.985	80.38
665.188	91.38
665.391	79.38
665.594	84.38
665.797	84.38
666	97.38
666.203	88.38
666.406	69.38
666.609	89.38
666.812	64.38
667.015	88.38
667.218	87.38
667.421	74.38
667.624	94.38
667.827	74.38
668.03	77.38
668.232	78.38
668.435	85.38
668.638	90.38
668.841	77.38
669.043	64.38
669.246	73.38
669.449	89.38
669.651	78.38
669.854	82.38
670.057	96.38
670.259	75.38
670.462	92.38
670.665	66.38
670.867	88.38
671.07	85.38
671.272	77.38
671.475	73.38
671.677	73.38
671.88	73.38
672.082	85.38
672.284	82.38
672.487	81.38
672.689	86.38
672.892	78.38
