Data from 1962.PennyLincolnUp.Lamp.En5.5.200Scan.071719.P1._HRD10591_13-55-41-062.txt Node
Date: Thu Jul 18 13:55:41 EDT 2019
User: cochatt
Spectrometer: HR+D1059
Trigger mode: 1
Integration Time (sec): 1.000000E-1
Scans to average: 1
Electric dark correction enabled: true
Nonlinearity correction enabled: false
Boxcar width: 0
XAxis mode: Wavelengths
Number of Pixels in Spectrum: 2048
>>>>>Begin Spectral Data<<<<<
223.165	-23.94
223.4	-23.94
223.635	-23.94
223.869	-21.94
224.104	-23.94
224.338	-19.94
224.573	-7.94
224.808	-10.94
225.042	-11.94
225.277	-6.94
225.511	4.06
225.746	11.06
225.98	0.06
226.215	22.06
226.449	17.06
226.683	10.06
226.918	19.06
227.152	44.06
227.387	29.06
227.621	35.06
227.856	41.06
228.09	37.06
228.324	39.06
228.559	59.06
228.793	74.06
229.027	83.06
229.262	85.06
229.496	114.06
229.73	117.06
229.964	147.06
230.199	113.06
230.433	109.06
230.667	112.06
230.901	105.06
231.136	104.06
231.37	96.06
231.604	108.06
231.838	116.06
232.072	106.06
232.306	111.06
232.541	115.06
232.775	106.06
233.009	109.06
233.243	119.06
233.477	105.06
233.711	112.06
233.945	109.06
234.179	106.06
234.413	126.06
234.647	99.06
234.881	122.06
235.115	121.06
235.349	127.06
235.583	125.06
235.817	111.06
236.051	126.06
236.285	123.06
236.519	120.06
236.753	122.06
236.987	140.06
237.221	170.06
237.455	198.06
237.689	160.06
237.922	122.06
238.156	129.06
238.39	131.06
238.624	122.06
238.858	115.06
239.091	119.06
239.325	117.06
239.559	131.06
239.793	113.06
240.027	132.06
240.26	139.06
240.494	152.06
240.728	133.06
240.961	128.06
241.195	147.06
241.429	128.06
241.662	150.06
241.896	132.06
242.13	132.06
242.363	124.06
242.597	135.06
242.83	127.06
243.064	142.06
243.298	129.06
243.531	136.06
243.765	111.06
243.998	124.06
244.232	128.06
244.465	156.06
244.699	155.06
244.932	130.06
245.166	141.06
245.399	134.06
245.633	134.06
245.866	149.06
246.099	129.06
246.333	155.06
246.566	151.06
246.8	135.06
247.033	147.06
247.266	153.06
247.5	146.06
247.733	165.06
247.966	159.06
248.2	160.06
248.433	157.06
248.666	155.06
248.899	178.06
249.133	185.06
249.366	190.06
249.599	196.06
249.832	166.06
250.066	161.06
250.299	162.06
250.532	170.06
250.765	185.06
250.998	208.06
251.231	192.06
251.465	207.06
251.698	179.06
251.931	176.06
252.164	175.06
252.397	186.06
252.63	168.06
252.863	178.06
253.096	195.06
253.329	200.06
253.562	195.06
253.795	208.06
254.028	180.06
254.261	210.06
254.494	210.06
254.727	229.06
254.96	260.06
255.193	256.06
255.426	224.06
255.659	215.06
255.892	207.06
256.124	217.06
256.357	220.06
256.59	196.06
256.823	200.06
257.056	196.06
257.289	195.06
257.521	197.06
257.754	214.06
257.987	197.06
258.22	187.06
258.452	203.06
258.685	194.06
258.918	192.06
259.151	187.06
259.383	216.06
259.616	200.06
259.849	223.06
260.081	216.06
260.314	210.06
260.547	228.06
260.779	217.06
261.012	221.06
261.244	230.06
261.477	204.06
261.71	219.06
261.942	191.06
262.175	212.06
262.407	213.06
262.64	213.06
262.872	200.06
263.105	209.06
263.337	207.06
263.57	220.06
263.802	203.06
264.035	220.06
264.267	211.06
264.499	212.06
264.732	198.06
264.964	208.06
265.197	209.06
265.429	215.06
265.661	210.06
265.894	203.06
266.126	200.06
266.358	200.06
266.591	206.06
266.823	214.06
267.055	232.06
267.287	203.06
267.52	211.06
267.752	232.06
267.984	217.06
268.216	220.06
268.448	232.06
268.681	229.06
268.913	228.06
269.145	259.06
269.377	245.06
269.609	261.06
269.841	258.06
270.073	257.06
270.306	278.06
270.538	283.06
270.77	307.06
271.002	282.06
271.234	265.06
271.466	287.06
271.698	295.06
271.93	294.06
272.162	284.06
272.394	313.06
272.626	288.06
272.858	269.06
273.09	261.06
273.322	267.06
273.553	265.06
273.785	274.06
274.017	270.06
274.249	260.06
274.481	276.06
274.713	274.06
274.945	257.06
275.176	252.06
275.408	254.06
275.64	261.06
275.872	263.06
276.104	273.06
276.335	265.06
276.567	263.06
276.799	284.06
277.031	287.06
277.262	293.06
277.494	276.06
277.726	305.06
277.957	282.06
278.189	287.06
278.421	269.06
278.652	269.06
278.884	257.06
279.115	258.06
279.347	274.06
279.579	268.06
279.81	265.06
280.042	247.06
280.273	277.06
280.505	262.06
280.736	275.06
280.968	264.06
281.199	273.06
281.431	280.06
281.662	247.06
281.894	271.06
282.125	258.06
282.356	299.06
282.588	288.06
282.819	295.06
283.051	281.06
283.282	276.06
283.513	297.06
283.745	295.06
283.976	288.06
284.207	293.06
284.439	272.06
284.67	298.06
284.901	278.06
285.132	290.06
285.364	295.06
285.595	276.06
285.826	283.06
286.057	280.06
286.288	295.06
286.52	284.06
286.751	279.06
286.982	277.06
287.213	292.06
287.444	301.06
287.675	297.06
287.906	310.06
288.138	309.06
288.369	300.06
288.6	311.06
288.831	290.06
289.062	290.06
289.293	304.06
289.524	283.06
289.755	299.06
289.986	294.06
290.217	311.06
290.448	305.06
290.679	311.06
290.91	292.06
291.141	282.06
291.371	307.06
291.602	299.06
291.833	309.06
292.064	307.06
292.295	294.06
292.526	282.06
292.757	309.06
292.987	289.06
293.218	283.06
293.449	308.06
293.68	284.06
293.91	297.06
294.141	303.06
294.372	281.06
294.603	307.06
294.833	292.06
295.064	300.06
295.295	289.06
295.525	306.06
295.756	304.06
295.987	300.06
296.217	331.06
296.448	331.06
296.679	311.06
296.909	294.06
297.14	296.06
297.37	298.06
297.601	298.06
297.831	308.06
298.062	312.06
298.292	338.06
298.523	325.06
298.753	316.06
298.984	336.06
299.214	323.06
299.445	294.06
299.675	329.06
299.905	327.06
300.136	323.06
300.366	316.06
300.597	327.06
300.827	339.06
301.057	339.06
301.288	304.06
301.518	328.06
301.748	321.06
301.979	352.06
302.209	344.06
302.439	351.06
302.669	348.06
302.9	331.06
303.13	321.06
303.36	323.06
303.59	311.06
303.82	348.06
304.051	337.06
304.281	327.06
304.511	340.06
304.741	337.06
304.971	346.06
305.201	328.06
305.431	347.06
305.661	348.06
305.891	332.06
306.121	324.06
306.352	344.06
306.582	329.06
306.812	321.06
307.042	335.06
307.272	339.06
307.502	341.06
307.731	345.06
307.961	347.06
308.191	312.06
308.421	333.06
308.651	335.06
308.881	341.06
309.111	337.06
309.341	349.06
309.571	350.06
309.8	329.06
310.03	352.06
310.26	370.06
310.49	341.06
310.72	362.06
310.949	355.06
311.179	385.06
311.409	361.06
311.639	362.06
311.868	365.06
312.098	383.06
312.328	385.06
312.557	389.06
312.787	388.06
313.017	396.06
313.246	383.06
313.476	377.06
313.706	370.06
313.935	357.06
314.165	371.06
314.394	383.06
314.624	388.06
314.853	393.06
315.083	391.06
315.312	357.06
315.542	362.06
315.771	379.06
316.001	357.06
316.23	374.06
316.46	362.06
316.689	373.06
316.919	387.06
317.148	360.06
317.377	369.06
317.607	379.06
317.836	368.06
318.065	385.06
318.295	383.06
318.524	374.06
318.753	374.06
318.983	363.06
319.212	387.06
319.441	375.06
319.67	364.06
319.9	355.06
320.129	379.06
320.358	379.06
320.587	367.06
320.816	378.06
321.046	389.06
321.275	397.06
321.504	404.06
321.733	388.06
321.962	387.06
322.191	411.06
322.42	397.06
322.649	411.06
322.878	406.06
323.108	433.06
323.337	455.06
323.566	440.06
323.795	467.06
324.024	518.06
324.253	565.06
324.482	736.06
324.71	1128.06
324.939	1617.06
325.168	1388.06
325.397	740.06
325.626	575.06
325.855	495.06
326.084	468.06
326.313	450.06
326.542	457.06
326.77	473.06
326.999	539.06
327.228	698.06
327.457	1011.06
327.686	1229.06
327.914	842.06
328.143	616.06
328.372	521.06
328.6	499.06
328.829	477.06
329.058	509.06
329.287	499.06
329.515	501.06
329.744	470.06
329.972	469.06
330.201	503.06
330.43	507.06
330.658	539.06
330.887	525.06
331.115	508.06
331.344	495.06
331.572	467.06
331.801	469.06
332.03	487.06
332.258	472.06
332.486	461.06
332.715	457.06
332.943	455.06
333.172	466.06
333.4	468.06
333.629	475.06
333.857	497.06
334.085	492.06
334.314	479.06
334.542	514.06
334.771	539.06
334.999	492.06
335.227	488.06
335.455	475.06
335.684	468.06
335.912	479.06
336.14	484.06
336.369	484.06
336.597	479.06
336.825	474.06
337.053	467.06
337.281	448.06
337.51	436.06
337.738	458.06
337.966	438.06
338.194	454.06
338.422	451.06
338.65	433.06
338.878	421.06
339.106	441.06
339.334	435.06
339.562	434.06
339.79	426.06
340.018	447.06
340.246	450.06
340.474	436.06
340.702	443.06
340.93	428.06
341.158	424.06
341.386	443.06
341.614	442.06
341.842	452.06
342.07	427.06
342.298	443.06
342.526	425.06
342.754	428.06
342.981	407.06
343.209	435.06
343.437	436.06
343.665	445.06
343.893	458.06
344.12	477.06
344.348	423.06
344.576	441.06
344.804	419.06
345.031	444.06
345.259	429.06
345.487	437.06
345.714	447.06
345.942	428.06
346.17	395.06
346.397	423.06
346.625	415.06
346.853	401.06
347.08	409.06
347.308	428.06
347.535	417.06
347.763	420.06
347.99	415.06
348.218	400.06
348.445	415.06
348.673	427.06
348.9	411.06
349.128	419.06
349.355	409.06
349.583	401.06
349.81	411.06
350.037	410.06
350.265	405.06
350.492	377.06
350.72	406.06
350.947	407.06
351.174	392.06
351.402	414.06
351.629	408.06
351.856	421.06
352.083	405.06
352.311	414.06
352.538	419.06
352.765	420.06
352.992	420.06
353.22	395.06
353.447	389.06
353.674	406.06
353.901	386.06
354.128	391.06
354.355	383.06
354.583	383.06
354.81	387.06
355.037	397.06
355.264	405.06
355.491	412.06
355.718	379.06
355.945	408.06
356.172	400.06
356.399	405.06
356.626	404.06
356.853	393.06
357.08	396.06
357.307	394.06
357.534	388.06
357.761	427.06
357.988	383.06
358.215	396.06
358.441	396.06
358.668	404.06
358.895	409.06
359.122	396.06
359.349	422.06
359.576	398.06
359.802	424.06
360.029	433.06
360.256	448.06
360.483	442.06
360.709	431.06
360.936	421.06
361.163	398.06
361.39	422.06
361.616	406.06
361.843	410.06
362.07	420.06
362.296	405.06
362.523	402.06
362.749	406.06
362.976	423.06
363.203	400.06
363.429	395.06
363.656	390.06
363.882	414.06
364.109	386.06
364.335	392.06
364.562	411.06
364.788	406.06
365.015	395.06
365.241	396.06
365.468	392.06
365.694	415.06
365.92	400.06
366.147	396.06
366.373	398.06
366.599	394.06
366.826	395.06
367.052	379.06
367.278	408.06
367.505	406.06
367.731	384.06
367.957	392.06
368.184	393.06
368.41	387.06
368.636	400.06
368.862	393.06
369.089	417.06
369.315	410.06
369.541	405.06
369.767	406.06
369.993	395.06
370.219	388.06
370.445	422.06
370.672	423.06
370.898	397.06
371.124	406.06
371.35	399.06
371.576	393.06
371.802	413.06
372.028	397.06
372.254	404.06
372.48	406.06
372.706	400.06
372.932	417.06
373.158	418.06
373.384	431.06
373.61	408.06
373.835	417.06
374.061	407.06
374.287	410.06
374.513	404.06
374.739	421.06
374.965	424.06
375.191	417.06
375.416	441.06
375.642	418.06
375.868	408.06
376.094	414.06
376.319	384.06
376.545	400.06
376.771	397.06
376.997	395.06
377.222	391.06
377.448	403.06
377.674	418.06
377.899	418.06
378.125	405.06
378.35	402.06
378.576	405.06
378.802	401.06
379.027	412.06
379.253	409.06
379.478	412.06
379.704	411.06
379.929	400.06
380.155	409.06
380.38	421.06
380.606	393.06
380.831	419.06
381.057	405.06
381.282	411.06
381.507	411.06
381.733	417.06
381.958	428.06
382.184	422.06
382.409	421.06
382.634	417.06
382.86	426.06
383.085	436.06
383.31	428.06
383.535	424.06
383.761	441.06
383.986	444.06
384.211	445.06
384.436	450.06
384.662	441.06
384.887	431.06
385.112	441.06
385.337	445.06
385.562	442.06
385.787	466.06
386.013	461.06
386.238	458.06
386.463	451.06
386.688	466.06
386.913	456.06
387.138	456.06
387.363	473.06
387.588	467.06
387.813	467.06
388.038	453.06
388.263	462.06
388.488	467.06
388.713	478.06
388.938	451.06
389.163	444.06
389.387	472.06
389.612	480.06
389.837	477.06
390.062	447.06
390.287	431.06
390.512	459.06
390.736	464.06
390.961	467.06
391.186	463.06
391.411	441.06
391.636	472.06
391.86	479.06
392.085	488.06
392.31	499.06
392.534	499.06
392.759	493.06
392.984	480.06
393.208	482.06
393.433	458.06
393.658	474.06
393.882	472.06
394.107	479.06
394.331	471.06
394.556	472.06
394.78	466.06
395.005	474.06
395.229	475.06
395.454	465.06
395.678	469.06
395.903	508.06
396.127	513.06
396.352	508.06
396.576	500.06
396.801	491.06
397.025	474.06
397.249	491.06
397.474	505.06
397.698	488.06
397.922	502.06
398.147	501.06
398.371	531.06
398.595	537.06
398.82	538.06
399.044	548.06
399.268	622.06
399.492	660.06
399.717	679.06
399.941	708.06
400.165	674.06
400.389	700.06
400.613	609.06
400.837	582.06
401.062	553.06
401.286	551.06
401.51	565.06
401.734	530.06
401.958	560.06
402.182	569.06
402.406	562.06
402.63	557.06
402.854	548.06
403.078	533.06
403.302	577.06
403.526	586.06
403.75	565.06
403.974	586.06
404.198	563.06
404.422	567.06
404.645	581.06
404.869	582.06
405.093	627.06
405.317	639.06
405.541	663.06
405.765	602.06
405.988	580.06
406.212	577.06
406.436	604.06
406.66	623.06
406.883	571.06
407.107	641.06
407.331	660.06
407.555	725.06
407.778	723.06
408.002	676.06
408.226	635.06
408.449	634.06
408.673	611.06
408.896	627.06
409.12	673.06
409.344	641.06
409.567	598.06
409.791	607.06
410.014	566.06
410.238	567.06
410.461	556.06
410.685	575.06
410.908	593.06
411.132	591.06
411.355	640.06
411.578	623.06
411.802	567.06
412.025	556.06
412.249	571.06
412.472	591.06
412.695	619.06
412.919	623.06
413.142	555.06
413.365	549.06
413.589	547.06
413.812	512.06
414.035	534.06
414.258	553.06
414.482	546.06
414.705	526.06
414.928	554.06
415.151	531.06
415.374	517.06
415.597	552.06
415.821	516.06
416.044	555.06
416.267	533.06
416.49	524.06
416.713	526.06
416.936	547.06
417.159	543.06
417.382	539.06
417.605	543.06
417.828	545.06
418.051	569.06
418.274	547.06
418.497	526.06
418.72	520.06
418.943	526.06
419.166	551.06
419.389	595.06
419.611	598.06
419.834	589.06
420.057	575.06
420.28	568.06
420.503	544.06
420.726	528.06
420.948	561.06
421.171	597.06
421.394	588.06
421.617	553.06
421.839	556.06
422.062	539.06
422.285	554.06
422.507	595.06
422.73	667.06
422.953	660.06
423.175	581.06
423.398	565.06
423.621	578.06
423.843	591.06
424.066	592.06
424.288	564.06
424.511	582.06
424.733	637.06
424.956	672.06
425.178	653.06
425.401	678.06
425.623	697.06
425.846	612.06
426.068	565.06
426.291	556.06
426.513	564.06
426.735	569.06
426.958	614.06
427.18	660.06
427.402	786.06
427.625	841.06
427.847	712.06
428.069	656.06
428.292	596.06
428.514	567.06
428.736	547.06
428.958	543.06
429.181	514.06
429.403	492.06
429.625	505.06
429.847	559.06
430.069	597.06
430.292	591.06
430.514	556.06
430.736	531.06
430.958	519.06
431.18	521.06
431.402	510.06
431.624	481.06
431.846	513.06
432.068	523.06
432.29	520.06
432.512	514.06
432.734	501.06
432.956	523.06
433.178	527.06
433.4	513.06
433.622	521.06
433.844	528.06
434.066	500.06
434.287	507.06
434.509	519.06
434.731	533.06
434.953	558.06
435.175	541.06
435.397	545.06
435.618	553.06
435.84	603.06
436.062	676.06
436.284	727.06
436.505	630.06
436.727	563.06
436.949	531.06
437.17	528.06
437.392	521.06
437.614	527.06
437.835	576.06
438.057	615.06
438.278	698.06
438.5	698.06
438.721	736.06
438.943	748.06
439.165	578.06
439.386	569.06
439.608	564.06
439.829	547.06
440.05	585.06
440.272	592.06
440.493	610.06
440.715	531.06
440.936	534.06
441.158	540.06
441.379	544.06
441.6	546.06
441.822	593.06
442.043	596.06
442.264	647.06
442.486	703.06
442.707	615.06
442.928	583.06
443.149	577.06
443.371	592.06
443.592	618.06
443.813	719.06
444.034	755.06
444.255	644.06
444.476	602.06
444.698	618.06
444.919	591.06
445.14	725.06
445.361	644.06
445.582	598.06
445.803	632.06
446.024	713.06
446.245	725.06
446.466	680.06
446.687	591.06
446.908	547.06
447.129	526.06
447.35	512.06
447.571	525.06
447.792	502.06
448.013	519.06
448.234	520.06
448.455	546.06
448.675	628.06
448.896	759.06
449.117	627.06
449.338	612.06
449.559	685.06
449.779	780.06
450	646.06
450.221	570.06
450.442	499.06
450.662	480.06
450.883	507.06
451.104	499.06
451.324	505.06
451.545	480.06
451.766	482.06
451.986	469.06
452.207	467.06
452.428	448.06
452.648	446.06
452.869	468.06
453.089	475.06
453.31	492.06
453.53	453.06
453.751	477.06
453.971	448.06
454.192	450.06
454.412	468.06
454.633	458.06
454.853	451.06
455.073	459.06
455.294	471.06
455.514	518.06
455.734	514.06
455.955	464.06
456.175	442.06
456.395	442.06
456.616	445.06
456.836	451.06
457.056	470.06
457.276	443.06
457.497	448.06
457.717	447.06
457.937	432.06
458.157	457.06
458.377	449.06
458.598	468.06
458.818	512.06
459.038	560.06
459.258	585.06
459.478	553.06
459.698	508.06
459.918	529.06
460.138	503.06
460.358	554.06
460.578	532.06
460.798	519.06
461.018	534.06
461.238	546.06
461.458	526.06
461.678	530.06
461.898	540.06
462.118	539.06
462.338	563.06
462.558	572.06
462.777	580.06
462.997	596.06
463.217	613.06
463.437	621.06
463.657	625.06
463.876	580.06
464.096	587.06
464.316	587.06
464.536	592.06
464.755	581.06
464.975	587.06
465.195	617.06
465.414	620.06
465.634	568.06
465.854	511.06
466.073	507.06
466.293	505.06
466.512	484.06
466.732	489.06
466.951	467.06
467.171	476.06
467.391	463.06
467.61	483.06
467.829	509.06
468.049	496.06
468.268	508.06
468.488	475.06
468.707	467.06
468.927	460.06
469.146	471.06
469.365	473.06
469.585	461.06
469.804	479.06
470.023	499.06
470.243	481.06
470.462	489.06
470.681	508.06
470.901	517.06
471.12	511.06
471.339	474.06
471.558	504.06
471.777	505.06
471.997	467.06
472.216	495.06
472.435	511.06
472.654	464.06
472.873	502.06
473.092	481.06
473.311	472.06
473.53	460.06
473.749	489.06
473.968	506.06
474.187	589.06
474.406	608.06
474.625	523.06
474.844	499.06
475.063	488.06
475.282	455.06
475.501	480.06
475.72	477.06
475.939	492.06
476.158	506.06
476.377	521.06
476.596	522.06
476.814	492.06
477.033	497.06
477.252	519.06
477.471	518.06
477.69	525.06
477.908	503.06
478.127	529.06
478.346	546.06
478.564	548.06
478.783	569.06
479.002	567.06
479.22	546.06
479.439	567.06
479.658	566.06
479.876	598.06
480.095	572.06
480.313	629.06
480.532	617.06
480.751	610.06
480.969	603.06
481.188	647.06
481.406	649.06
481.624	614.06
481.843	581.06
482.061	578.06
482.28	559.06
482.498	570.06
482.717	551.06
482.935	573.06
483.153	552.06
483.372	552.06
483.59	582.06
483.808	543.06
484.027	569.06
484.245	565.06
484.463	557.06
484.681	559.06
484.9	551.06
485.118	583.06
485.336	595.06
485.554	590.06
485.772	580.06
485.99	585.06
486.209	597.06
486.427	602.06
486.645	594.06
486.863	610.06
487.081	580.06
487.299	615.06
487.517	608.06
487.735	584.06
487.953	593.06
488.171	591.06
488.389	603.06
488.607	589.06
488.825	602.06
489.043	588.06
489.261	570.06
489.479	585.06
489.696	608.06
489.914	604.06
490.132	596.06
490.35	599.06
490.568	623.06
490.786	603.06
491.003	637.06
491.221	600.06
491.439	637.06
491.657	668.06
491.874	657.06
492.092	667.06
492.31	668.06
492.527	668.06
492.745	675.06
492.963	665.06
493.18	648.06
493.398	674.06
493.615	686.06
493.833	674.06
494.05	677.06
494.268	673.06
494.485	680.06
494.703	669.06
494.92	679.06
495.138	665.06
495.355	693.06
495.573	705.06
495.79	702.06
496.008	708.06
496.225	688.06
496.442	683.06
496.66	707.06
496.877	711.06
497.094	686.06
497.312	725.06
497.529	757.06
497.746	743.06
497.963	728.06
498.181	769.06
498.398	789.06
498.615	817.06
498.832	853.06
499.049	882.06
499.267	908.06
499.484	952.06
499.701	1019.06
499.918	1027.06
500.135	1119.06
500.352	1215.06
500.569	1238.06
500.786	1226.06
501.003	1212.06
501.22	1123.06
501.437	1077.06
501.654	1010.06
501.871	996.06
502.088	951.06
502.305	913.06
502.522	869.06
502.739	819.06
502.956	800.06
503.172	774.06
503.389	748.06
503.606	742.06
503.823	733.06
504.04	751.06
504.256	736.06
504.473	751.06
504.69	752.06
504.907	735.06
505.123	703.06
505.34	683.06
505.557	680.06
505.773	652.06
505.99	651.06
506.207	660.06
506.423	672.06
506.64	648.06
506.856	643.06
507.073	644.06
507.289	634.06
507.506	645.06
507.722	640.06
507.939	631.06
508.155	620.06
508.372	643.06
508.588	607.06
508.805	602.06
509.021	616.06
509.238	599.06
509.454	613.06
509.67	616.06
509.887	601.06
510.103	609.06
510.319	611.06
510.536	671.06
510.752	909.06
510.968	771.06
511.184	619.06
511.401	595.06
511.617	595.06
511.833	578.06
512.049	604.06
512.265	561.06
512.481	562.06
512.698	597.06
512.914	577.06
513.13	568.06
513.346	552.06
513.562	577.06
513.778	604.06
513.994	577.06
514.21	600.06
514.426	621.06
514.642	627.06
514.858	634.06
515.074	635.06
515.29	706.06
515.506	888.06
515.721	781.06
515.937	637.06
516.153	630.06
516.369	637.06
516.585	632.06
516.801	621.06
517.016	638.06
517.232	635.06
517.448	663.06
517.664	682.06
517.879	658.06
518.095	647.06
518.311	644.06
518.527	647.06
518.742	637.06
518.958	629.06
519.173	596.06
519.389	596.06
519.605	582.06
519.82	601.06
520.036	588.06
520.251	603.06
520.467	599.06
520.682	597.06
520.898	581.06
521.113	613.06
521.329	613.06
521.544	658.06
521.76	754.06
521.975	1025.06
522.19	1035.06
522.406	677.06
522.621	594.06
522.836	568.06
523.052	556.06
523.267	542.06
523.482	515.06
523.698	498.06
523.913	523.06
524.128	507.06
524.343	520.06
524.559	525.06
524.774	497.06
524.989	516.06
525.204	528.06
525.419	505.06
525.634	506.06
525.849	522.06
526.064	510.06
526.28	499.06
526.495	480.06
526.71	495.06
526.925	468.06
527.14	482.06
527.355	482.06
527.57	493.06
527.785	504.06
527.999	491.06
528.214	499.06
528.429	510.06
528.644	488.06
528.859	473.06
529.074	497.06
529.289	475.06
529.503	539.06
529.718	508.06
529.933	505.06
530.148	511.06
530.363	509.06
530.577	515.06
530.792	486.06
531.007	471.06
531.221	483.06
531.436	477.06
531.651	486.06
531.865	489.06
532.08	472.06
532.295	502.06
532.509	471.06
532.724	473.06
532.938	452.06
533.153	467.06
533.367	477.06
533.582	468.06
533.796	474.06
534.011	486.06
534.225	471.06
534.44	472.06
534.654	475.06
534.868	475.06
535.083	467.06
535.297	468.06
535.511	460.06
535.726	480.06
535.94	484.06
536.154	474.06
536.369	456.06
536.583	446.06
536.797	453.06
537.011	470.06
537.225	458.06
537.44	466.06
537.654	465.06
537.868	426.06
538.082	453.06
538.296	452.06
538.51	466.06
538.724	439.06
538.938	436.06
539.153	443.06
539.367	447.06
539.581	452.06
539.795	449.06
540.009	447.06
540.222	441.06
540.436	452.06
540.65	460.06
540.864	452.06
541.078	473.06
541.292	442.06
541.506	447.06
541.72	439.06
541.934	459.06
542.147	434.06
542.361	451.06
542.575	435.06
542.789	436.06
543.002	457.06
543.216	445.06
543.43	445.06
543.644	454.06
543.857	451.06
544.071	463.06
544.285	455.06
544.498	448.06
544.712	437.06
544.925	439.06
545.139	444.06
545.352	439.06
545.566	474.06
545.779	453.06
545.993	442.06
546.206	439.06
546.42	432.06
546.633	429.06
546.847	424.06
547.06	437.06
547.274	437.06
547.487	448.06
547.7	442.06
547.914	418.06
548.127	438.06
548.34	451.06
548.554	459.06
548.767	455.06
548.98	449.06
549.193	447.06
549.407	448.06
549.62	444.06
549.833	442.06
550.046	441.06
550.259	461.06
550.473	412.06
550.686	424.06
550.899	451.06
551.112	418.06
551.325	431.06
551.538	438.06
551.751	447.06
551.964	427.06
552.177	427.06
552.39	450.06
552.603	441.06
552.816	463.06
553.029	462.06
553.242	469.06
553.455	463.06
553.667	443.06
553.88	459.06
554.093	467.06
554.306	457.06
554.519	459.06
554.732	444.06
554.944	453.06
555.157	444.06
555.37	441.06
555.583	440.06
555.795	410.06
556.008	428.06
556.221	408.06
556.433	413.06
556.646	404.06
556.859	388.06
557.071	393.06
557.284	406.06
557.496	406.06
557.709	416.06
557.921	410.06
558.134	397.06
558.346	382.06
558.559	397.06
558.771	394.06
558.984	381.06
559.196	388.06
559.409	391.06
559.621	423.06
559.833	388.06
560.046	401.06
560.258	391.06
560.47	387.06
560.683	394.06
560.895	379.06
561.107	385.06
561.32	404.06
561.532	400.06
561.744	395.06
561.956	400.06
562.168	383.06
562.381	389.06
562.593	388.06
562.805	377.06
563.017	399.06
563.229	400.06
563.441	397.06
563.653	407.06
563.865	409.06
564.077	419.06
564.289	417.06
564.501	411.06
564.713	407.06
564.925	422.06
565.137	429.06
565.349	424.06
565.561	438.06
565.773	465.06
565.985	460.06
566.197	477.06
566.408	501.06
566.62	495.06
566.832	536.06
567.044	546.06
567.255	551.06
567.467	530.06
567.679	546.06
567.891	592.06
568.102	561.06
568.314	596.06
568.526	535.06
568.737	515.06
568.949	525.06
569.161	480.06
569.372	447.06
569.584	441.06
569.795	444.06
570.007	423.06
570.218	424.06
570.43	413.06
570.641	409.06
570.853	381.06
571.064	410.06
571.276	407.06
571.487	394.06
571.698	411.06
571.91	376.06
572.121	371.06
572.333	371.06
572.544	360.06
572.755	343.06
572.966	359.06
573.178	343.06
573.389	356.06
573.6	341.06
573.811	351.06
574.023	324.06
574.234	339.06
574.445	336.06
574.656	333.06
574.867	330.06
575.078	359.06
575.289	348.06
575.501	325.06
575.712	328.06
575.923	346.06
576.134	331.06
576.345	328.06
576.556	339.06
576.767	355.06
576.978	310.06
577.188	327.06
577.399	316.06
577.61	311.06
577.821	314.06
578.032	323.06
578.243	344.06
578.454	451.06
578.665	361.06
578.875	319.06
579.086	330.06
579.297	321.06
579.508	315.06
579.718	316.06
579.929	324.06
580.14	314.06
580.35	314.06
580.561	324.06
580.772	319.06
580.982	305.06
581.193	321.06
581.403	311.06
581.614	300.06
581.825	295.06
582.035	312.06
582.246	317.06
582.456	315.06
582.667	315.06
582.877	316.06
583.087	310.06
583.298	317.06
583.508	306.06
583.719	312.06
583.929	308.06
584.139	306.06
584.35	283.06
584.56	299.06
584.77	321.06
584.981	296.06
585.191	308.06
585.401	304.06
585.611	298.06
585.821	305.06
586.032	299.06
586.242	304.06
586.452	296.06
586.662	303.06
586.872	304.06
587.082	304.06
587.292	312.06
587.502	303.06
587.713	328.06
587.923	306.06
588.133	291.06
588.343	305.06
588.553	296.06
588.762	303.06
588.972	297.06
589.182	313.06
589.392	315.06
589.602	325.06
589.812	315.06
590.022	295.06
590.232	293.06
590.441	293.06
590.651	305.06
590.861	307.06
591.071	304.06
591.281	314.06
591.49	312.06
591.7	319.06
591.91	313.06
592.119	323.06
592.329	330.06
592.539	325.06
592.748	317.06
592.958	339.06
593.167	330.06
593.377	323.06
593.587	344.06
593.796	333.06
594.006	339.06
594.215	352.06
594.424	336.06
594.634	341.06
594.843	339.06
595.053	315.06
595.262	308.06
595.472	305.06
595.681	305.06
595.89	311.06
596.1	295.06
596.309	303.06
596.518	280.06
596.727	284.06
596.937	279.06
597.146	288.06
597.355	269.06
597.564	280.06
597.774	268.06
597.983	269.06
598.192	289.06
598.401	279.06
598.61	274.06
598.819	271.06
599.028	281.06
599.237	267.06
599.446	267.06
599.655	276.06
599.864	264.06
600.073	264.06
600.282	268.06
600.491	270.06
600.7	275.06
600.909	268.06
601.118	283.06
601.327	252.06
601.536	260.06
601.745	256.06
601.953	264.06
602.162	262.06
602.371	255.06
602.58	270.06
602.789	249.06
602.997	262.06
603.206	273.06
603.415	259.06
603.623	265.06
603.832	260.06
604.041	239.06
604.249	236.06
604.458	251.06
604.666	237.06
604.875	250.06
605.084	259.06
605.292	253.06
605.501	265.06
605.709	245.06
605.918	241.06
606.126	232.06
606.334	242.06
606.543	243.06
606.751	245.06
606.96	243.06
607.168	243.06
607.376	232.06
607.585	237.06
607.793	235.06
608.001	255.06
608.21	245.06
608.418	241.06
608.626	242.06
608.834	244.06
609.043	248.06
609.251	241.06
609.459	242.06
609.667	245.06
609.875	223.06
610.083	247.06
610.291	255.06
610.499	235.06
610.707	217.06
610.916	236.06
611.124	239.06
611.332	250.06
611.54	248.06
611.748	241.06
611.955	247.06
612.163	257.06
612.371	257.06
612.579	239.06
612.787	230.06
612.995	241.06
613.203	233.06
613.411	247.06
613.618	243.06
613.826	235.06
614.034	244.06
614.242	234.06
614.449	233.06
614.657	225.06
614.865	246.06
615.072	245.06
615.28	226.06
615.488	231.06
615.695	236.06
615.903	223.06
616.111	253.06
616.318	259.06
616.526	244.06
616.733	233.06
616.941	238.06
617.148	224.06
617.356	211.06
617.563	232.06
617.771	252.06
617.978	233.06
618.185	238.06
618.393	232.06
618.6	244.06
618.807	245.06
619.015	226.06
619.222	235.06
619.429	226.06
619.637	236.06
619.844	228.06
620.051	219.06
620.258	188.06
620.466	225.06
620.673	242.06
620.88	207.06
621.087	211.06
621.294	220.06
621.501	208.06
621.708	203.06
621.915	211.06
622.122	227.06
622.329	232.06
622.536	233.06
622.743	218.06
622.95	221.06
623.157	193.06
623.364	204.06
623.571	227.06
623.778	207.06
623.985	226.06
624.192	209.06
624.399	209.06
624.606	223.06
624.812	202.06
625.019	209.06
625.226	216.06
625.433	211.06
625.639	207.06
625.846	192.06
626.053	210.06
626.259	200.06
626.466	207.06
626.673	202.06
626.879	218.06
627.086	222.06
627.293	200.06
627.499	208.06
627.706	217.06
627.912	203.06
628.119	194.06
628.325	202.06
628.532	198.06
628.738	212.06
628.945	189.06
629.151	195.06
629.357	191.06
629.564	201.06
629.77	201.06
629.976	190.06
630.183	211.06
630.389	189.06
630.595	186.06
630.802	194.06
631.008	189.06
631.214	177.06
631.42	184.06
631.627	207.06
631.833	207.06
632.039	196.06
632.245	181.06
632.451	193.06
632.657	186.06
632.863	173.06
633.069	193.06
633.275	178.06
633.481	185.06
633.688	195.06
633.893	180.06
634.099	185.06
634.305	177.06
634.511	186.06
634.717	181.06
634.923	168.06
635.129	179.06
635.335	183.06
635.541	175.06
635.747	186.06
635.952	181.06
636.158	180.06
636.364	188.06
636.57	192.06
636.775	179.06
636.981	177.06
637.187	186.06
637.392	187.06
637.598	176.06
637.804	185.06
638.009	193.06
638.215	177.06
638.421	178.06
638.626	186.06
638.832	177.06
639.037	179.06
639.243	184.06
639.448	189.06
639.654	163.06
639.859	170.06
640.065	169.06
640.27	188.06
640.475	153.06
640.681	170.06
640.886	177.06
641.091	169.06
641.297	163.06
641.502	169.06
641.707	159.06
641.913	157.06
642.118	170.06
642.323	161.06
642.528	169.06
642.733	174.06
642.939	166.06
643.144	164.06
643.349	159.06
643.554	158.06
643.759	172.06
643.964	166.06
644.169	176.06
644.374	176.06
644.579	167.06
644.784	163.06
644.989	181.06
645.194	164.06
645.399	160.06
645.604	148.06
645.809	168.06
646.014	167.06
646.219	157.06
646.423	159.06
646.628	160.06
646.833	164.06
647.038	168.06
647.243	175.06
647.447	159.06
647.652	172.06
647.857	168.06
648.062	161.06
648.266	179.06
648.471	181.06
648.676	171.06
648.88	170.06
649.085	172.06
649.289	164.06
649.494	192.06
649.698	193.06
649.903	150.06
650.107	173.06
650.312	156.06
650.516	154.06
650.721	171.06
650.925	152.06
651.13	159.06
651.334	160.06
651.539	156.06
651.743	156.06
651.947	146.06
652.152	158.06
652.356	148.06
652.56	151.06
652.764	133.06
652.969	139.06
653.173	135.06
653.377	139.06
653.581	137.06
653.785	134.06
653.99	147.06
654.194	136.06
654.398	140.06
654.602	125.06
654.806	136.06
655.01	139.06
655.214	146.06
655.418	145.06
655.622	156.06
655.826	124.06
656.03	143.06
656.234	141.06
656.438	143.06
656.642	138.06
656.846	135.06
657.049	125.06
657.253	135.06
657.457	123.06
657.661	117.06
657.865	120.06
658.068	109.06
658.272	127.06
658.476	126.06
658.68	114.06
658.883	103.06
659.087	99.06
659.291	101.06
659.494	95.06
659.698	107.06
659.901	100.06
660.105	100.06
660.309	100.06
660.512	93.06
660.716	108.06
660.919	86.06
661.123	92.06
661.326	90.06
661.53	102.06
661.733	85.06
661.936	76.06
662.14	96.06
662.343	93.06
662.546	92.06
662.75	84.06
662.953	80.06
663.156	74.06
663.36	70.06
663.563	81.06
663.766	67.06
663.969	69.06
664.173	96.06
664.376	97.06
664.579	92.06
664.782	76.06
664.985	80.06
665.188	83.06
665.391	93.06
665.594	83.06
665.797	88.06
666	88.06
666.203	78.06
666.406	93.06
666.609	78.06
666.812	83.06
667.015	71.06
667.218	79.06
667.421	85.06
667.624	83.06
667.827	86.06
668.03	79.06
668.232	79.06
668.435	77.06
668.638	76.06
668.841	77.06
669.043	84.06
669.246	78.06
669.449	83.06
669.651	82.06
669.854	85.06
670.057	77.06
670.259	83.06
670.462	92.06
670.665	83.06
670.867	77.06
671.07	81.06
671.272	82.06
671.475	80.06
671.677	79.06
671.88	82.06
672.082	79.06
672.284	88.06
672.487	73.06
672.689	89.06
672.892	83.06
