Data from 1962.PennyLincolnUp.Lamp.En5.5.200Scan.071719.P1._HRD10591_13-55-49-061.txt Node
Date: Thu Jul 18 13:55:49 EDT 2019
User: cochatt
Spectrometer: HR+D1059
Trigger mode: 1
Integration Time (sec): 1.000000E-1
Scans to average: 1
Electric dark correction enabled: true
Nonlinearity correction enabled: false
Boxcar width: 0
XAxis mode: Wavelengths
Number of Pixels in Spectrum: 2048
>>>>>Begin Spectral Data<<<<<
223.165	-2.12
223.4	-2.12
223.635	-2.12
223.869	-11.12
224.104	-7.12
224.338	-12.12
224.573	-2.12
224.808	4.88
225.042	-15.12
225.277	-7.12
225.511	3.88
225.746	-5.12
225.98	2.88
226.215	0.88
226.449	7.88
226.683	19.88
226.918	-0.12
227.152	21.88
227.387	48.88
227.621	42.88
227.856	26.88
228.09	38.88
228.324	48.88
228.559	52.88
228.793	59.88
229.027	101.88
229.262	95.88
229.496	112.88
229.73	131.88
229.964	126.88
230.199	104.88
230.433	106.88
230.667	103.88
230.901	118.88
231.136	105.88
231.37	111.88
231.604	129.88
231.838	119.88
232.072	111.88
232.306	119.88
232.541	109.88
232.775	90.88
233.009	113.88
233.243	126.88
233.477	123.88
233.711	112.88
233.945	115.88
234.179	115.88
234.413	111.88
234.647	115.88
234.881	115.88
235.115	128.88
235.349	127.88
235.583	124.88
235.817	115.88
236.051	127.88
236.285	125.88
236.519	127.88
236.753	129.88
236.987	134.88
237.221	159.88
237.455	189.88
237.689	161.88
237.922	140.88
238.156	135.88
238.39	129.88
238.624	129.88
238.858	132.88
239.091	128.88
239.325	133.88
239.559	138.88
239.793	128.88
240.027	135.88
240.26	135.88
240.494	134.88
240.728	144.88
240.961	152.88
241.195	145.88
241.429	140.88
241.662	134.88
241.896	134.88
242.13	145.88
242.363	132.88
242.597	131.88
242.83	143.88
243.064	131.88
243.298	135.88
243.531	132.88
243.765	145.88
243.998	151.88
244.232	148.88
244.465	152.88
244.699	138.88
244.932	130.88
245.166	134.88
245.399	148.88
245.633	156.88
245.866	149.88
246.099	138.88
246.333	149.88
246.566	140.88
246.8	148.88
247.033	147.88
247.266	160.88
247.5	165.88
247.733	152.88
247.966	155.88
248.2	168.88
248.433	158.88
248.666	177.88
248.899	173.88
249.133	195.88
249.366	185.88
249.599	173.88
249.832	179.88
250.066	169.88
250.299	174.88
250.532	193.88
250.765	191.88
250.998	212.88
251.231	219.88
251.465	208.88
251.698	195.88
251.931	195.88
252.164	192.88
252.397	171.88
252.63	197.88
252.863	199.88
253.096	206.88
253.329	203.88
253.562	204.88
253.795	197.88
254.028	217.88
254.261	204.88
254.494	217.88
254.727	233.88
254.96	253.88
255.193	240.88
255.426	213.88
255.659	221.88
255.892	228.88
256.124	203.88
256.357	208.88
256.59	222.88
256.823	188.88
257.056	201.88
257.289	211.88
257.521	208.88
257.754	200.88
257.987	216.88
258.22	213.88
258.452	207.88
258.685	184.88
258.918	195.88
259.151	203.88
259.383	202.88
259.616	199.88
259.849	196.88
260.081	227.88
260.314	235.88
260.547	238.88
260.779	217.88
261.012	223.88
261.244	201.88
261.477	206.88
261.71	208.88
261.942	216.88
262.175	221.88
262.407	208.88
262.64	207.88
262.872	213.88
263.105	207.88
263.337	227.88
263.57	208.88
263.802	209.88
264.035	217.88
264.267	208.88
264.499	190.88
264.732	217.88
264.964	208.88
265.197	209.88
265.429	231.88
265.661	214.88
265.894	232.88
266.126	206.88
266.358	202.88
266.591	235.88
266.823	240.88
267.055	231.88
267.287	215.88
267.52	240.88
267.752	230.88
267.984	218.88
268.216	200.88
268.448	245.88
268.681	237.88
268.913	222.88
269.145	264.88
269.377	263.88
269.609	258.88
269.841	234.88
270.073	248.88
270.306	283.88
270.538	287.88
270.77	283.88
271.002	288.88
271.234	277.88
271.466	280.88
271.698	294.88
271.93	302.88
272.162	294.88
272.394	313.88
272.626	284.88
272.858	279.88
273.09	278.88
273.322	270.88
273.553	268.88
273.785	272.88
274.017	268.88
274.249	268.88
274.481	249.88
274.713	267.88
274.945	276.88
275.176	263.88
275.408	262.88
275.64	269.88
275.872	254.88
276.104	245.88
276.335	264.88
276.567	265.88
276.799	262.88
277.031	288.88
277.262	302.88
277.494	301.88
277.726	311.88
277.957	288.88
278.189	268.88
278.421	280.88
278.652	270.88
278.884	260.88
279.115	280.88
279.347	272.88
279.579	288.88
279.81	264.88
280.042	281.88
280.273	273.88
280.505	263.88
280.736	267.88
280.968	290.88
281.199	277.88
281.431	276.88
281.662	279.88
281.894	276.88
282.125	291.88
282.356	295.88
282.588	309.88
282.819	311.88
283.051	270.88
283.282	288.88
283.513	283.88
283.745	281.88
283.976	304.88
284.207	303.88
284.439	294.88
284.67	290.88
284.901	304.88
285.132	302.88
285.364	301.88
285.595	291.88
285.826	273.88
286.057	307.88
286.288	280.88
286.52	288.88
286.751	278.88
286.982	292.88
287.213	302.88
287.444	294.88
287.675	304.88
287.906	291.88
288.138	311.88
288.369	306.88
288.6	316.88
288.831	298.88
289.062	315.88
289.293	297.88
289.524	302.88
289.755	301.88
289.986	298.88
290.217	310.88
290.448	313.88
290.679	318.88
290.91	297.88
291.141	292.88
291.371	313.88
291.602	296.88
291.833	307.88
292.064	307.88
292.295	311.88
292.526	311.88
292.757	312.88
292.987	313.88
293.218	295.88
293.449	303.88
293.68	307.88
293.91	309.88
294.141	297.88
294.372	296.88
294.603	309.88
294.833	303.88
295.064	322.88
295.295	290.88
295.525	297.88
295.756	327.88
295.987	317.88
296.217	315.88
296.448	314.88
296.679	300.88
296.909	328.88
297.14	308.88
297.37	309.88
297.601	309.88
297.831	312.88
298.062	305.88
298.292	318.88
298.523	325.88
298.753	335.88
298.984	321.88
299.214	328.88
299.445	347.88
299.675	335.88
299.905	312.88
300.136	348.88
300.366	334.88
300.597	336.88
300.827	327.88
301.057	345.88
301.288	331.88
301.518	331.88
301.748	335.88
301.979	336.88
302.209	335.88
302.439	350.88
302.669	332.88
302.9	338.88
303.13	340.88
303.36	359.88
303.59	356.88
303.82	344.88
304.051	344.88
304.281	366.88
304.511	338.88
304.741	333.88
304.971	337.88
305.201	320.88
305.431	351.88
305.661	321.88
305.891	345.88
306.121	333.88
306.352	332.88
306.582	333.88
306.812	356.88
307.042	355.88
307.272	351.88
307.502	349.88
307.731	346.88
307.961	353.88
308.191	351.88
308.421	348.88
308.651	317.88
308.881	355.88
309.111	328.88
309.341	350.88
309.571	376.88
309.8	364.88
310.03	353.88
310.26	369.88
310.49	359.88
310.72	375.88
310.949	395.88
311.179	378.88
311.409	377.88
311.639	362.88
311.868	377.88
312.098	391.88
312.328	371.88
312.557	390.88
312.787	376.88
313.017	381.88
313.246	370.88
313.476	364.88
313.706	375.88
313.935	395.88
314.165	398.88
314.394	383.88
314.624	398.88
314.853	399.88
315.083	379.88
315.312	396.88
315.542	363.88
315.771	381.88
316.001	385.88
316.23	385.88
316.46	391.88
316.689	386.88
316.919	384.88
317.148	401.88
317.377	378.88
317.607	379.88
317.836	386.88
318.065	384.88
318.295	381.88
318.524	398.88
318.753	399.88
318.983	376.88
319.212	380.88
319.441	390.88
319.67	389.88
319.9	383.88
320.129	382.88
320.358	391.88
320.587	385.88
320.816	390.88
321.046	408.88
321.275	395.88
321.504	389.88
321.733	395.88
321.962	406.88
322.191	393.88
322.42	399.88
322.649	429.88
322.878	421.88
323.108	442.88
323.337	441.88
323.566	455.88
323.795	486.88
324.024	493.88
324.253	579.88
324.482	762.88
324.71	1131.88
324.939	1557.88
325.168	1402.88
325.397	770.88
325.626	583.88
325.855	495.88
326.084	468.88
326.313	451.88
326.542	467.88
326.77	491.88
326.999	546.88
327.228	683.88
327.457	1026.88
327.686	1232.88
327.914	861.88
328.143	614.88
328.372	547.88
328.6	524.88
328.829	500.88
329.058	509.88
329.287	500.88
329.515	498.88
329.744	474.88
329.972	493.88
330.201	476.88
330.43	501.88
330.658	522.88
330.887	547.88
331.115	509.88
331.344	481.88
331.572	474.88
331.801	472.88
332.03	457.88
332.258	483.88
332.486	452.88
332.715	466.88
332.943	460.88
333.172	471.88
333.4	497.88
333.629	479.88
333.857	503.88
334.085	499.88
334.314	509.88
334.542	529.88
334.771	519.88
334.999	528.88
335.227	486.88
335.455	485.88
335.684	497.88
335.912	469.88
336.14	445.88
336.369	481.88
336.597	473.88
336.825	455.88
337.053	455.88
337.281	456.88
337.51	459.88
337.738	467.88
337.966	451.88
338.194	424.88
338.422	455.88
338.65	455.88
338.878	440.88
339.106	448.88
339.334	457.88
339.562	426.88
339.79	423.88
340.018	426.88
340.246	444.88
340.474	449.88
340.702	427.88
340.93	444.88
341.158	439.88
341.386	435.88
341.614	425.88
341.842	416.88
342.07	433.88
342.298	429.88
342.526	430.88
342.754	425.88
342.981	419.88
343.209	431.88
343.437	436.88
343.665	451.88
343.893	464.88
344.12	469.88
344.348	455.88
344.576	452.88
344.804	445.88
345.031	453.88
345.259	456.88
345.487	436.88
345.714	425.88
345.942	422.88
346.17	432.88
346.397	425.88
346.625	425.88
346.853	429.88
347.08	417.88
347.308	416.88
347.535	411.88
347.763	405.88
347.99	415.88
348.218	415.88
348.445	453.88
348.673	421.88
348.9	405.88
349.128	424.88
349.355	382.88
349.583	403.88
349.81	408.88
350.037	432.88
350.265	414.88
350.492	415.88
350.72	400.88
350.947	412.88
351.174	422.88
351.402	422.88
351.629	399.88
351.856	417.88
352.083	425.88
352.311	429.88
352.538	420.88
352.765	421.88
352.992	424.88
353.22	420.88
353.447	395.88
353.674	405.88
353.901	377.88
354.128	398.88
354.355	401.88
354.583	400.88
354.81	420.88
355.037	394.88
355.264	383.88
355.491	371.88
355.718	388.88
355.945	397.88
356.172	413.88
356.399	379.88
356.626	398.88
356.853	390.88
357.08	388.88
357.307	396.88
357.534	381.88
357.761	409.88
357.988	413.88
358.215	397.88
358.441	388.88
358.668	407.88
358.895	413.88
359.122	418.88
359.349	423.88
359.576	405.88
359.802	444.88
360.029	451.88
360.256	461.88
360.483	409.88
360.709	416.88
360.936	407.88
361.163	409.88
361.39	407.88
361.616	407.88
361.843	404.88
362.07	400.88
362.296	405.88
362.523	419.88
362.749	409.88
362.976	408.88
363.203	414.88
363.429	402.88
363.656	393.88
363.882	411.88
364.109	406.88
364.335	389.88
364.562	396.88
364.788	380.88
365.015	406.88
365.241	413.88
365.468	410.88
365.694	413.88
365.92	425.88
366.147	409.88
366.373	404.88
366.599	399.88
366.826	384.88
367.052	401.88
367.278	403.88
367.505	393.88
367.731	403.88
367.957	400.88
368.184	416.88
368.41	410.88
368.636	425.88
368.862	409.88
369.089	403.88
369.315	405.88
369.541	394.88
369.767	400.88
369.993	380.88
370.219	402.88
370.445	416.88
370.672	411.88
370.898	397.88
371.124	408.88
371.35	403.88
371.576	413.88
371.802	408.88
372.028	389.88
372.254	411.88
372.48	426.88
372.706	419.88
372.932	414.88
373.158	406.88
373.384	419.88
373.61	412.88
373.835	399.88
374.061	417.88
374.287	399.88
374.513	411.88
374.739	408.88
374.965	423.88
375.191	457.88
375.416	427.88
375.642	427.88
375.868	399.88
376.094	407.88
376.319	440.88
376.545	399.88
376.771	411.88
376.997	418.88
377.222	397.88
377.448	411.88
377.674	422.88
377.899	387.88
378.125	427.88
378.35	381.88
378.576	430.88
378.802	419.88
379.027	411.88
379.253	402.88
379.478	410.88
379.704	410.88
379.929	421.88
380.155	413.88
380.38	407.88
380.606	392.88
380.831	416.88
381.057	398.88
381.282	411.88
381.507	416.88
381.733	419.88
381.958	426.88
382.184	407.88
382.409	431.88
382.634	412.88
382.86	425.88
383.085	409.88
383.31	441.88
383.535	448.88
383.761	441.88
383.986	430.88
384.211	440.88
384.436	462.88
384.662	449.88
384.887	458.88
385.112	463.88
385.337	474.88
385.562	462.88
385.787	451.88
386.013	473.88
386.238	456.88
386.463	461.88
386.688	490.88
386.913	461.88
387.138	452.88
387.363	448.88
387.588	436.88
387.813	473.88
388.038	454.88
388.263	456.88
388.488	465.88
388.713	457.88
388.938	462.88
389.163	490.88
389.387	471.88
389.612	451.88
389.837	465.88
390.062	476.88
390.287	439.88
390.512	469.88
390.736	456.88
390.961	462.88
391.186	462.88
391.411	460.88
391.636	489.88
391.86	479.88
392.085	474.88
392.31	529.88
392.534	488.88
392.759	492.88
392.984	490.88
393.208	481.88
393.433	486.88
393.658	490.88
393.882	465.88
394.107	462.88
394.331	476.88
394.556	492.88
394.78	478.88
395.005	472.88
395.229	499.88
395.454	512.88
395.678	491.88
395.903	506.88
396.127	522.88
396.352	502.88
396.576	483.88
396.801	485.88
397.025	494.88
397.249	505.88
397.474	499.88
397.698	513.88
397.922	520.88
398.147	545.88
398.371	542.88
398.595	550.88
398.82	565.88
399.044	583.88
399.268	620.88
399.492	636.88
399.717	664.88
399.941	709.88
400.165	721.88
400.389	669.88
400.613	612.88
400.837	609.88
401.062	595.88
401.286	517.88
401.51	566.88
401.734	539.88
401.958	545.88
402.182	560.88
402.406	561.88
402.63	584.88
402.854	569.88
403.078	541.88
403.302	577.88
403.526	593.88
403.75	577.88
403.974	593.88
404.198	572.88
404.422	586.88
404.645	590.88
404.869	603.88
405.093	597.88
405.317	630.88
405.541	661.88
405.765	621.88
405.988	592.88
406.212	601.88
406.436	603.88
406.66	608.88
406.883	624.88
407.107	640.88
407.331	679.88
407.555	745.88
407.778	725.88
408.002	673.88
408.226	647.88
408.449	640.88
408.673	624.88
408.896	640.88
409.12	675.88
409.344	616.88
409.567	615.88
409.791	606.88
410.014	569.88
410.238	580.88
410.461	596.88
410.685	577.88
410.908	577.88
411.132	617.88
411.355	638.88
411.578	615.88
411.802	549.88
412.025	557.88
412.249	573.88
412.472	587.88
412.695	615.88
412.919	608.88
413.142	567.88
413.365	549.88
413.589	557.88
413.812	580.88
414.035	560.88
414.258	541.88
414.482	552.88
414.705	559.88
414.928	549.88
415.151	528.88
415.374	540.88
415.597	541.88
415.821	535.88
416.044	545.88
416.267	548.88
416.49	543.88
416.713	535.88
416.936	537.88
417.159	541.88
417.382	545.88
417.605	553.88
417.828	549.88
418.051	555.88
418.274	563.88
418.497	531.88
418.72	568.88
418.943	523.88
419.166	557.88
419.389	596.88
419.611	592.88
419.834	561.88
420.057	561.88
420.28	570.88
420.503	555.88
420.726	546.88
420.948	544.88
421.171	593.88
421.394	629.88
421.617	568.88
421.839	548.88
422.062	555.88
422.285	564.88
422.507	615.88
422.73	691.88
422.953	659.88
423.175	607.88
423.398	591.88
423.621	558.88
423.843	599.88
424.066	588.88
424.288	595.88
424.511	595.88
424.733	631.88
424.956	697.88
425.178	683.88
425.401	665.88
425.623	667.88
425.846	620.88
426.068	558.88
426.291	551.88
426.513	560.88
426.735	569.88
426.958	597.88
427.18	675.88
427.402	775.88
427.625	836.88
427.847	703.88
428.069	647.88
428.292	599.88
428.514	548.88
428.736	521.88
428.958	529.88
429.181	520.88
429.403	498.88
429.625	527.88
429.847	551.88
430.069	615.88
430.292	612.88
430.514	546.88
430.736	537.88
430.958	521.88
431.18	507.88
431.402	521.88
431.624	501.88
431.846	512.88
432.068	519.88
432.29	508.88
432.512	521.88
432.734	519.88
432.956	516.88
433.178	531.88
433.4	522.88
433.622	504.88
433.844	524.88
434.066	504.88
434.287	513.88
434.509	509.88
434.731	523.88
434.953	546.88
435.175	563.88
435.397	580.88
435.618	566.88
435.84	607.88
436.062	653.88
436.284	718.88
436.505	625.88
436.727	567.88
436.949	538.88
437.17	543.88
437.392	518.88
437.614	526.88
437.835	545.88
438.057	618.88
438.278	695.88
438.5	693.88
438.721	758.88
438.943	720.88
439.165	601.88
439.386	575.88
439.608	569.88
439.829	561.88
440.05	581.88
440.272	639.88
440.493	573.88
440.715	557.88
440.936	556.88
441.158	537.88
441.379	543.88
441.6	574.88
441.822	575.88
442.043	615.88
442.264	678.88
442.486	687.88
442.707	606.88
442.928	552.88
443.149	594.88
443.371	613.88
443.592	619.88
443.813	712.88
444.034	758.88
444.255	649.88
444.476	637.88
444.698	606.88
444.919	611.88
445.14	725.88
445.361	644.88
445.582	610.88
445.803	654.88
446.024	726.88
446.245	729.88
446.466	662.88
446.687	590.88
446.908	549.88
447.129	501.88
447.35	525.88
447.571	516.88
447.792	517.88
448.013	530.88
448.234	522.88
448.455	560.88
448.675	642.88
448.896	742.88
449.117	664.88
449.338	611.88
449.559	702.88
449.779	784.88
450	661.88
450.221	547.88
450.442	524.88
450.662	501.88
450.883	520.88
451.104	513.88
451.324	513.88
451.545	490.88
451.766	485.88
451.986	503.88
452.207	478.88
452.428	480.88
452.648	463.88
452.869	463.88
453.089	478.88
453.31	478.88
453.53	477.88
453.751	472.88
453.971	469.88
454.192	478.88
454.412	471.88
454.633	476.88
454.853	473.88
455.073	466.88
455.294	495.88
455.514	534.88
455.734	511.88
455.955	467.88
456.175	441.88
456.395	456.88
456.616	427.88
456.836	455.88
457.056	449.88
457.276	444.88
457.497	437.88
457.717	449.88
457.937	443.88
458.157	451.88
458.377	476.88
458.598	480.88
458.818	508.88
459.038	576.88
459.258	597.88
459.478	543.88
459.698	506.88
459.918	531.88
460.138	527.88
460.358	544.88
460.578	546.88
460.798	544.88
461.018	554.88
461.238	541.88
461.458	525.88
461.678	538.88
461.898	544.88
462.118	536.88
462.338	572.88
462.558	594.88
462.777	602.88
462.997	600.88
463.217	651.88
463.437	623.88
463.657	594.88
463.876	613.88
464.096	600.88
464.316	584.88
464.536	590.88
464.755	597.88
464.975	604.88
465.195	595.88
465.414	629.88
465.634	555.88
465.854	547.88
466.073	535.88
466.293	523.88
466.512	502.88
466.732	523.88
466.951	502.88
467.171	475.88
467.391	501.88
467.61	501.88
467.829	504.88
468.049	505.88
468.268	484.88
468.488	469.88
468.707	496.88
468.927	475.88
469.146	486.88
469.365	480.88
469.585	475.88
469.804	499.88
470.023	476.88
470.243	504.88
470.462	511.88
470.681	508.88
470.901	520.88
471.12	497.88
471.339	492.88
471.558	501.88
471.777	499.88
471.997	474.88
472.216	491.88
472.435	512.88
472.654	509.88
472.873	479.88
473.092	469.88
473.311	500.88
473.53	490.88
473.749	491.88
473.968	519.88
474.187	623.88
474.406	609.88
474.625	555.88
474.844	521.88
475.063	498.88
475.282	513.88
475.501	511.88
475.72	488.88
475.939	501.88
476.158	502.88
476.377	535.88
476.596	510.88
476.814	522.88
477.033	524.88
477.252	522.88
477.471	532.88
477.69	524.88
477.908	540.88
478.127	550.88
478.346	552.88
478.564	550.88
478.783	552.88
479.002	584.88
479.22	572.88
479.439	578.88
479.658	597.88
479.876	601.88
480.095	594.88
480.313	603.88
480.532	612.88
480.751	620.88
480.969	609.88
481.188	622.88
481.406	636.88
481.624	619.88
481.843	565.88
482.061	585.88
482.28	576.88
482.498	571.88
482.717	556.88
482.935	567.88
483.153	575.88
483.372	568.88
483.59	573.88
483.808	576.88
484.027	551.88
484.245	566.88
484.463	587.88
484.681	594.88
484.9	589.88
485.118	569.88
485.336	576.88
485.554	588.88
485.772	600.88
485.99	596.88
486.209	593.88
486.427	588.88
486.645	581.88
486.863	607.88
487.081	612.88
487.299	603.88
487.517	605.88
487.735	612.88
487.953	588.88
488.171	593.88
488.389	605.88
488.607	600.88
488.825	575.88
489.043	596.88
489.261	611.88
489.479	626.88
489.696	597.88
489.914	602.88
490.132	620.88
490.35	625.88
490.568	617.88
490.786	612.88
491.003	618.88
491.221	672.88
491.439	661.88
491.657	641.88
491.874	660.88
492.092	644.88
492.31	669.88
492.527	675.88
492.745	667.88
492.963	685.88
493.18	686.88
493.398	698.88
493.615	707.88
493.833	674.88
494.05	689.88
494.268	679.88
494.485	695.88
494.703	689.88
494.92	685.88
495.138	688.88
495.355	721.88
495.573	710.88
495.79	701.88
496.008	701.88
496.225	688.88
496.442	708.88
496.66	711.88
496.877	704.88
497.094	717.88
497.312	730.88
497.529	711.88
497.746	757.88
497.963	755.88
498.181	773.88
498.398	796.88
498.615	821.88
498.832	841.88
499.049	898.88
499.267	903.88
499.484	964.88
499.701	1035.88
499.918	1054.88
500.135	1134.88
500.352	1227.88
500.569	1231.88
500.786	1251.88
501.003	1219.88
501.22	1118.88
501.437	1102.88
501.654	1032.88
501.871	981.88
502.088	948.88
502.305	899.88
502.522	876.88
502.739	845.88
502.956	795.88
503.172	798.88
503.389	774.88
503.606	744.88
503.823	746.88
504.04	747.88
504.256	732.88
504.473	736.88
504.69	764.88
504.907	719.88
505.123	691.88
505.34	702.88
505.557	665.88
505.773	667.88
505.99	661.88
506.207	691.88
506.423	659.88
506.64	659.88
506.856	654.88
507.073	628.88
507.289	639.88
507.506	619.88
507.722	647.88
507.939	663.88
508.155	611.88
508.372	624.88
508.588	627.88
508.805	627.88
509.021	619.88
509.238	634.88
509.454	634.88
509.67	599.88
509.887	600.88
510.103	633.88
510.319	603.88
510.536	648.88
510.752	934.88
510.968	780.88
511.184	615.88
511.401	612.88
511.617	570.88
511.833	575.88
512.049	588.88
512.265	596.88
512.481	607.88
512.698	594.88
512.914	576.88
513.13	567.88
513.346	585.88
513.562	577.88
513.778	585.88
513.994	579.88
514.21	586.88
514.426	586.88
514.642	597.88
514.858	631.88
515.074	645.88
515.29	738.88
515.506	895.88
515.721	813.88
515.937	670.88
516.153	631.88
516.369	635.88
516.585	635.88
516.801	629.88
517.016	627.88
517.232	654.88
517.448	659.88
517.664	669.88
517.879	662.88
518.095	671.88
518.311	631.88
518.527	647.88
518.742	622.88
518.958	631.88
519.173	616.88
519.389	606.88
519.605	602.88
519.82	605.88
520.036	616.88
520.251	611.88
520.467	609.88
520.682	582.88
520.898	607.88
521.113	622.88
521.329	620.88
521.544	650.88
521.76	740.88
521.975	1041.88
522.19	1021.88
522.406	700.88
522.621	599.88
522.836	593.88
523.052	550.88
523.267	547.88
523.482	527.88
523.698	526.88
523.913	553.88
524.128	527.88
524.343	526.88
524.559	514.88
524.774	506.88
524.989	524.88
525.204	517.88
525.419	513.88
525.634	476.88
525.849	484.88
526.064	517.88
526.28	500.88
526.495	503.88
526.71	499.88
526.925	496.88
527.14	494.88
527.355	495.88
527.57	477.88
527.785	497.88
527.999	487.88
528.214	521.88
528.429	515.88
528.644	505.88
528.859	510.88
529.074	502.88
529.289	531.88
529.503	547.88
529.718	526.88
529.933	515.88
530.148	501.88
530.363	478.88
530.577	476.88
530.792	467.88
531.007	500.88
531.221	493.88
531.436	491.88
531.651	484.88
531.865	478.88
532.08	484.88
532.295	501.88
532.509	478.88
532.724	473.88
532.938	481.88
533.153	477.88
533.367	493.88
533.582	494.88
533.796	467.88
534.011	469.88
534.225	496.88
534.44	482.88
534.654	483.88
534.868	460.88
535.083	465.88
535.297	468.88
535.511	488.88
535.726	463.88
535.94	479.88
536.154	481.88
536.369	471.88
536.583	461.88
536.797	474.88
537.011	475.88
537.225	483.88
537.44	464.88
537.654	472.88
537.868	457.88
538.082	461.88
538.296	446.88
538.51	464.88
538.724	480.88
538.938	467.88
539.153	449.88
539.367	459.88
539.581	442.88
539.795	474.88
540.009	460.88
540.222	463.88
540.436	464.88
540.65	460.88
540.864	431.88
541.078	456.88
541.292	461.88
541.506	433.88
541.72	464.88
541.934	448.88
542.147	419.88
542.361	447.88
542.575	459.88
542.789	451.88
543.002	446.88
543.216	459.88
543.43	456.88
543.644	479.88
543.857	461.88
544.071	463.88
544.285	465.88
544.498	465.88
544.712	460.88
544.925	471.88
545.139	462.88
545.352	430.88
545.566	464.88
545.779	449.88
545.993	457.88
546.206	459.88
546.42	460.88
546.633	455.88
546.847	462.88
547.06	452.88
547.274	463.88
547.487	463.88
547.7	447.88
547.914	433.88
548.127	432.88
548.34	460.88
548.554	466.88
548.767	476.88
548.98	464.88
549.193	455.88
549.407	455.88
549.62	439.88
549.833	446.88
550.046	439.88
550.259	442.88
550.473	447.88
550.686	449.88
550.899	451.88
551.112	446.88
551.325	436.88
551.538	451.88
551.751	428.88
551.964	435.88
552.177	453.88
552.39	440.88
552.603	431.88
552.816	446.88
553.029	454.88
553.242	466.88
553.455	471.88
553.667	480.88
553.88	486.88
554.093	471.88
554.306	478.88
554.519	466.88
554.732	462.88
554.944	430.88
555.157	431.88
555.37	422.88
555.583	434.88
555.795	431.88
556.008	426.88
556.221	394.88
556.433	408.88
556.646	409.88
556.859	398.88
557.071	393.88
557.284	400.88
557.496	405.88
557.709	408.88
557.921	385.88
558.134	395.88
558.346	401.88
558.559	406.88
558.771	409.88
558.984	380.88
559.196	392.88
559.409	388.88
559.621	400.88
559.833	396.88
560.046	398.88
560.258	397.88
560.47	376.88
560.683	380.88
560.895	392.88
561.107	387.88
561.32	392.88
561.532	400.88
561.744	402.88
561.956	405.88
562.168	391.88
562.381	395.88
562.593	391.88
562.805	399.88
563.017	414.88
563.229	392.88
563.441	383.88
563.653	385.88
563.865	399.88
564.077	415.88
564.289	399.88
564.501	403.88
564.713	409.88
564.925	443.88
565.137	412.88
565.349	442.88
565.561	455.88
565.773	440.88
565.985	488.88
566.197	492.88
566.408	492.88
566.62	534.88
566.832	563.88
567.044	539.88
567.255	539.88
567.467	571.88
567.679	582.88
567.891	600.88
568.102	600.88
568.314	585.88
568.526	575.88
568.737	522.88
568.949	524.88
569.161	478.88
569.372	468.88
569.584	424.88
569.795	449.88
570.007	437.88
570.218	445.88
570.43	428.88
570.641	407.88
570.853	421.88
571.064	408.88
571.276	398.88
571.487	402.88
571.698	400.88
571.91	394.88
572.121	381.88
572.333	384.88
572.544	385.88
572.755	334.88
572.966	362.88
573.178	363.88
573.389	334.88
573.6	355.88
573.811	373.88
574.023	333.88
574.234	351.88
574.445	368.88
574.656	337.88
574.867	357.88
575.078	353.88
575.289	360.88
575.501	337.88
575.712	335.88
575.923	339.88
576.134	337.88
576.345	336.88
576.556	343.88
576.767	328.88
576.978	337.88
577.188	357.88
577.399	344.88
577.61	335.88
577.821	347.88
578.032	343.88
578.243	355.88
578.454	446.88
578.665	389.88
578.875	338.88
579.086	315.88
579.297	334.88
579.508	330.88
579.718	298.88
579.929	329.88
580.14	331.88
580.35	311.88
580.561	318.88
580.772	296.88
580.982	302.88
581.193	296.88
581.403	328.88
581.614	314.88
581.825	341.88
582.035	311.88
582.246	301.88
582.456	303.88
582.667	311.88
582.877	315.88
583.087	310.88
583.298	314.88
583.508	316.88
583.719	311.88
583.929	327.88
584.139	327.88
584.35	305.88
584.56	301.88
584.77	291.88
584.981	320.88
585.191	301.88
585.401	303.88
585.611	307.88
585.821	302.88
586.032	311.88
586.242	311.88
586.452	303.88
586.662	311.88
586.872	308.88
587.082	327.88
587.292	314.88
587.502	320.88
587.713	286.88
587.923	315.88
588.133	318.88
588.343	285.88
588.553	320.88
588.762	299.88
588.972	299.88
589.182	338.88
589.392	318.88
589.602	302.88
589.812	316.88
590.022	303.88
590.232	319.88
590.441	307.88
590.651	296.88
590.861	324.88
591.071	307.88
591.281	307.88
591.49	308.88
591.7	313.88
591.91	325.88
592.119	325.88
592.329	314.88
592.539	334.88
592.748	345.88
592.958	336.88
593.167	331.88
593.377	348.88
593.587	365.88
593.796	342.88
594.006	340.88
594.215	356.88
594.424	347.88
594.634	323.88
594.843	346.88
595.053	316.88
595.262	325.88
595.472	298.88
595.681	311.88
595.89	305.88
596.1	301.88
596.309	306.88
596.518	288.88
596.727	298.88
596.937	303.88
597.146	289.88
597.355	283.88
597.564	303.88
597.774	277.88
597.983	293.88
598.192	289.88
598.401	272.88
598.61	279.88
598.819	284.88
599.028	272.88
599.237	283.88
599.446	277.88
599.655	248.88
599.864	270.88
600.073	287.88
600.282	267.88
600.491	267.88
600.7	266.88
600.909	269.88
601.118	248.88
601.327	271.88
601.536	261.88
601.745	262.88
601.953	263.88
602.162	256.88
602.371	275.88
602.58	244.88
602.789	282.88
602.997	245.88
603.206	253.88
603.415	253.88
603.623	260.88
603.832	250.88
604.041	244.88
604.249	235.88
604.458	243.88
604.666	243.88
604.875	261.88
605.084	248.88
605.292	266.88
605.501	241.88
605.709	249.88
605.918	252.88
606.126	245.88
606.334	237.88
606.543	257.88
606.751	250.88
606.96	246.88
607.168	245.88
607.376	232.88
607.585	253.88
607.793	240.88
608.001	263.88
608.21	235.88
608.418	223.88
608.626	233.88
608.834	239.88
609.043	236.88
609.251	247.88
609.459	245.88
609.667	259.88
609.875	249.88
610.083	255.88
610.291	240.88
610.499	249.88
610.707	246.88
610.916	245.88
611.124	246.88
611.332	263.88
611.54	261.88
611.748	260.88
611.955	254.88
612.163	250.88
612.371	243.88
612.579	252.88
612.787	248.88
612.995	219.88
613.203	234.88
613.411	250.88
613.618	222.88
613.826	231.88
614.034	221.88
614.242	246.88
614.449	244.88
614.657	245.88
614.865	229.88
615.072	253.88
615.28	231.88
615.488	236.88
615.695	244.88
615.903	240.88
616.111	240.88
616.318	241.88
616.526	222.88
616.733	243.88
616.941	236.88
617.148	249.88
617.356	233.88
617.563	248.88
617.771	251.88
617.978	230.88
618.185	238.88
618.393	228.88
618.6	250.88
618.807	246.88
619.015	231.88
619.222	246.88
619.429	247.88
619.637	238.88
619.844	229.88
620.051	214.88
620.258	241.88
620.466	229.88
620.673	224.88
620.88	218.88
621.087	221.88
621.294	224.88
621.501	213.88
621.708	211.88
621.915	229.88
622.122	232.88
622.329	228.88
622.536	222.88
622.743	222.88
622.95	219.88
623.157	222.88
623.364	232.88
623.571	230.88
623.778	221.88
623.985	216.88
624.192	215.88
624.399	229.88
624.606	228.88
624.812	210.88
625.019	205.88
625.226	229.88
625.433	203.88
625.639	210.88
625.846	220.88
626.053	214.88
626.259	210.88
626.466	221.88
626.673	210.88
626.879	200.88
627.086	209.88
627.293	210.88
627.499	218.88
627.706	200.88
627.912	199.88
628.119	200.88
628.325	203.88
628.532	200.88
628.738	213.88
628.945	201.88
629.151	206.88
629.357	195.88
629.564	217.88
629.77	197.88
629.976	213.88
630.183	202.88
630.389	203.88
630.595	190.88
630.802	183.88
631.008	212.88
631.214	205.88
631.42	197.88
631.627	204.88
631.833	184.88
632.039	179.88
632.245	201.88
632.451	192.88
632.657	191.88
632.863	181.88
633.069	188.88
633.275	209.88
633.481	192.88
633.688	193.88
633.893	196.88
634.099	205.88
634.305	196.88
634.511	199.88
634.717	180.88
634.923	196.88
635.129	186.88
635.335	175.88
635.541	181.88
635.747	180.88
635.952	202.88
636.158	195.88
636.364	192.88
636.57	198.88
636.775	192.88
636.981	188.88
637.187	196.88
637.392	179.88
637.598	196.88
637.804	178.88
638.009	188.88
638.215	199.88
638.421	181.88
638.626	165.88
638.832	178.88
639.037	173.88
639.243	183.88
639.448	175.88
639.654	193.88
639.859	188.88
640.065	182.88
640.27	187.88
640.475	199.88
640.681	201.88
640.886	186.88
641.091	172.88
641.297	174.88
641.502	163.88
641.707	180.88
641.913	183.88
642.118	185.88
642.323	171.88
642.528	176.88
642.733	168.88
642.939	166.88
643.144	167.88
643.349	176.88
643.554	179.88
643.759	164.88
643.964	171.88
644.169	165.88
644.374	164.88
644.579	175.88
644.784	173.88
644.989	167.88
645.194	169.88
645.399	158.88
645.604	173.88
645.809	170.88
646.014	177.88
646.219	174.88
646.423	162.88
646.628	168.88
646.833	180.88
647.038	175.88
647.243	179.88
647.447	181.88
647.652	173.88
647.857	166.88
648.062	170.88
648.266	152.88
648.471	160.88
648.676	170.88
648.88	171.88
649.085	184.88
649.289	159.88
649.494	159.88
649.698	187.88
649.903	174.88
650.107	181.88
650.312	171.88
650.516	175.88
650.721	166.88
650.925	151.88
651.13	171.88
651.334	171.88
651.539	149.88
651.743	169.88
651.947	147.88
652.152	150.88
652.356	155.88
652.56	149.88
652.764	151.88
652.969	145.88
653.173	150.88
653.377	122.88
653.581	144.88
653.785	133.88
653.99	150.88
654.194	152.88
654.398	144.88
654.602	146.88
654.806	152.88
655.01	140.88
655.214	140.88
655.418	133.88
655.622	134.88
655.826	145.88
656.03	143.88
656.234	152.88
656.438	153.88
656.642	152.88
656.846	136.88
657.049	152.88
657.253	140.88
657.457	139.88
657.661	122.88
657.865	120.88
658.068	91.88
658.272	104.88
658.476	116.88
658.68	111.88
658.883	108.88
659.087	91.88
659.291	93.88
659.494	109.88
659.698	114.88
659.901	102.88
660.105	96.88
660.309	102.88
660.512	108.88
660.716	104.88
660.919	109.88
661.123	104.88
661.326	107.88
661.53	92.88
661.733	98.88
661.936	90.88
662.14	92.88
662.343	102.88
662.546	94.88
662.75	83.88
662.953	87.88
663.156	76.88
663.36	88.88
663.563	96.88
663.766	84.88
663.969	94.88
664.173	86.88
664.376	108.88
664.579	92.88
664.782	89.88
664.985	84.88
665.188	87.88
665.391	82.88
665.594	77.88
665.797	89.88
666	94.88
666.203	83.88
666.406	88.88
666.609	86.88
666.812	81.88
667.015	87.88
667.218	82.88
667.421	94.88
667.624	80.88
667.827	86.88
668.03	76.88
668.232	84.88
668.435	91.88
668.638	88.88
668.841	97.88
669.043	96.88
669.246	81.88
669.449	84.88
669.651	80.88
669.854	88.88
670.057	67.88
670.259	82.88
670.462	80.88
670.665	67.88
670.867	81.88
671.07	76.88
671.272	84.88
671.475	77.88
671.677	90.88
671.88	78.88
672.082	99.88
672.284	81.88
672.487	78.88
672.689	83.88
672.892	76.88
