Data from 1962.PennyLincolnUp.Lamp.En5.5.200Scan.071719.P1._HRD10591_13-54-47-060.txt Node
Date: Thu Jul 18 13:54:47 EDT 2019
User: cochatt
Spectrometer: HR+D1059
Trigger mode: 1
Integration Time (sec): 1.000000E-1
Scans to average: 1
Electric dark correction enabled: true
Nonlinearity correction enabled: false
Boxcar width: 0
XAxis mode: Wavelengths
Number of Pixels in Spectrum: 2048
>>>>>Begin Spectral Data<<<<<
223.165	-19.19
223.4	-19.19
223.635	-19.19
223.869	-13.19
224.104	-10.19
224.338	-10.19
224.573	-24.19
224.808	-1.19
225.042	-13.19
225.277	-6.19
225.511	-12.19
225.746	6.81
225.98	14.81
226.215	0.81
226.449	15.81
226.683	24.81
226.918	17.81
227.152	28.81
227.387	47.81
227.621	34.81
227.856	36.81
228.09	56.81
228.324	50.81
228.559	59.81
228.793	61.81
229.027	92.81
229.262	97.81
229.496	100.81
229.73	111.81
229.964	133.81
230.199	121.81
230.433	120.81
230.667	119.81
230.901	117.81
231.136	99.81
231.37	102.81
231.604	103.81
231.838	114.81
232.072	113.81
232.306	108.81
232.541	110.81
232.775	111.81
233.009	102.81
233.243	107.81
233.477	111.81
233.711	124.81
233.945	119.81
234.179	117.81
234.413	117.81
234.647	121.81
234.881	106.81
235.115	98.81
235.349	116.81
235.583	108.81
235.817	122.81
236.051	120.81
236.285	131.81
236.519	125.81
236.753	125.81
236.987	126.81
237.221	150.81
237.455	192.81
237.689	164.81
237.922	132.81
238.156	127.81
238.39	126.81
238.624	120.81
238.858	120.81
239.091	117.81
239.325	118.81
239.559	126.81
239.793	134.81
240.027	137.81
240.26	121.81
240.494	135.81
240.728	136.81
240.961	142.81
241.195	131.81
241.429	146.81
241.662	122.81
241.896	143.81
242.13	128.81
242.363	124.81
242.597	127.81
242.83	130.81
243.064	127.81
243.298	130.81
243.531	137.81
243.765	126.81
243.998	116.81
244.232	126.81
244.465	142.81
244.699	153.81
244.932	146.81
245.166	152.81
245.399	148.81
245.633	157.81
245.866	148.81
246.099	141.81
246.333	151.81
246.566	145.81
246.8	135.81
247.033	149.81
247.266	154.81
247.5	162.81
247.733	155.81
247.966	164.81
248.2	155.81
248.433	143.81
248.666	149.81
248.899	168.81
249.133	192.81
249.366	197.81
249.599	174.81
249.832	163.81
250.066	158.81
250.299	176.81
250.532	175.81
250.765	187.81
250.998	200.81
251.231	186.81
251.465	184.81
251.698	180.81
251.931	200.81
252.164	189.81
252.397	174.81
252.63	200.81
252.863	189.81
253.096	199.81
253.329	206.81
253.562	191.81
253.795	186.81
254.028	199.81
254.261	188.81
254.494	192.81
254.727	228.81
254.96	244.81
255.193	238.81
255.426	224.81
255.659	212.81
255.892	205.81
256.124	217.81
256.357	206.81
256.59	189.81
256.823	200.81
257.056	196.81
257.289	199.81
257.521	203.81
257.754	210.81
257.987	191.81
258.22	204.81
258.452	199.81
258.685	194.81
258.918	196.81
259.151	197.81
259.383	199.81
259.616	194.81
259.849	217.81
260.081	217.81
260.314	212.81
260.547	229.81
260.779	220.81
261.012	220.81
261.244	198.81
261.477	212.81
261.71	200.81
261.942	219.81
262.175	221.81
262.407	205.81
262.64	204.81
262.872	214.81
263.105	205.81
263.337	213.81
263.57	207.81
263.802	203.81
264.035	213.81
264.267	216.81
264.499	208.81
264.732	205.81
264.964	219.81
265.197	215.81
265.429	207.81
265.661	214.81
265.894	217.81
266.126	207.81
266.358	227.81
266.591	215.81
266.823	223.81
267.055	195.81
267.287	226.81
267.52	207.81
267.752	224.81
267.984	217.81
268.216	231.81
268.448	236.81
268.681	234.81
268.913	238.81
269.145	251.81
269.377	235.81
269.609	266.81
269.841	264.81
270.073	242.81
270.306	268.81
270.538	286.81
270.77	282.81
271.002	288.81
271.234	275.81
271.466	272.81
271.698	295.81
271.93	276.81
272.162	292.81
272.394	272.81
272.626	280.81
272.858	284.81
273.09	269.81
273.322	259.81
273.553	237.81
273.785	252.81
274.017	247.81
274.249	254.81
274.481	250.81
274.713	259.81
274.945	265.81
275.176	258.81
275.408	256.81
275.64	265.81
275.872	258.81
276.104	263.81
276.335	277.81
276.567	231.81
276.799	270.81
277.031	282.81
277.262	300.81
277.494	308.81
277.726	296.81
277.957	279.81
278.189	277.81
278.421	278.81
278.652	263.81
278.884	274.81
279.115	269.81
279.347	247.81
279.579	265.81
279.81	260.81
280.042	256.81
280.273	288.81
280.505	262.81
280.736	264.81
280.968	269.81
281.199	263.81
281.431	289.81
281.662	285.81
281.894	277.81
282.125	275.81
282.356	281.81
282.588	281.81
282.819	309.81
283.051	279.81
283.282	267.81
283.513	277.81
283.745	288.81
283.976	299.81
284.207	287.81
284.439	282.81
284.67	282.81
284.901	292.81
285.132	292.81
285.364	287.81
285.595	288.81
285.826	274.81
286.057	298.81
286.288	287.81
286.52	290.81
286.751	310.81
286.982	294.81
287.213	290.81
287.444	279.81
287.675	306.81
287.906	296.81
288.138	294.81
288.369	299.81
288.6	314.81
288.831	328.81
289.062	307.81
289.293	296.81
289.524	290.81
289.755	302.81
289.986	306.81
290.217	282.81
290.448	306.81
290.679	303.81
290.91	299.81
291.141	307.81
291.371	300.81
291.602	295.81
291.833	280.81
292.064	294.81
292.295	285.81
292.526	291.81
292.757	295.81
292.987	301.81
293.218	295.81
293.449	292.81
293.68	308.81
293.91	308.81
294.141	307.81
294.372	296.81
294.603	290.81
294.833	294.81
295.064	309.81
295.295	306.81
295.525	323.81
295.756	308.81
295.987	300.81
296.217	344.81
296.448	325.81
296.679	306.81
296.909	308.81
297.14	312.81
297.37	324.81
297.601	308.81
297.831	320.81
298.062	315.81
298.292	324.81
298.523	314.81
298.753	320.81
298.984	316.81
299.214	309.81
299.445	318.81
299.675	314.81
299.905	313.81
300.136	311.81
300.366	300.81
300.597	327.81
300.827	339.81
301.057	350.81
301.288	321.81
301.518	336.81
301.748	331.81
301.979	349.81
302.209	342.81
302.439	342.81
302.669	351.81
302.9	342.81
303.13	316.81
303.36	338.81
303.59	323.81
303.82	348.81
304.051	333.81
304.281	316.81
304.511	323.81
304.741	341.81
304.971	351.81
305.201	347.81
305.431	335.81
305.661	347.81
305.891	337.81
306.121	339.81
306.352	345.81
306.582	340.81
306.812	342.81
307.042	332.81
307.272	349.81
307.502	338.81
307.731	338.81
307.961	336.81
308.191	323.81
308.421	330.81
308.651	349.81
308.881	347.81
309.111	340.81
309.341	338.81
309.571	346.81
309.8	346.81
310.03	346.81
310.26	385.81
310.49	350.81
310.72	382.81
310.949	366.81
311.179	392.81
311.409	355.81
311.639	350.81
311.868	360.81
312.098	369.81
312.328	378.81
312.557	371.81
312.787	390.81
313.017	383.81
313.246	379.81
313.476	376.81
313.706	361.81
313.935	374.81
314.165	363.81
314.394	398.81
314.624	398.81
314.853	374.81
315.083	397.81
315.312	372.81
315.542	380.81
315.771	368.81
316.001	376.81
316.23	354.81
316.46	370.81
316.689	368.81
316.919	394.81
317.148	378.81
317.377	376.81
317.607	372.81
317.836	372.81
318.065	360.81
318.295	372.81
318.524	374.81
318.753	375.81
318.983	372.81
319.212	367.81
319.441	367.81
319.67	389.81
319.9	398.81
320.129	344.81
320.358	383.81
320.587	385.81
320.816	393.81
321.046	389.81
321.275	379.81
321.504	377.81
321.733	381.81
321.962	367.81
322.191	384.81
322.42	411.81
322.649	424.81
322.878	414.81
323.108	412.81
323.337	461.81
323.566	443.81
323.795	462.81
324.024	499.81
324.253	544.81
324.482	712.81
324.71	1016.81
324.939	1442.81
325.168	1249.81
325.397	700.81
325.626	525.81
325.855	481.81
326.084	457.81
326.313	448.81
326.542	466.81
326.77	489.81
326.999	534.81
327.228	658.81
327.457	936.81
327.686	1127.81
327.914	798.81
328.143	564.81
328.372	542.81
328.6	485.81
328.829	468.81
329.058	500.81
329.287	500.81
329.515	457.81
329.744	462.81
329.972	474.81
330.201	474.81
330.43	499.81
330.658	516.81
330.887	525.81
331.115	514.81
331.344	496.81
331.572	456.81
331.801	471.81
332.03	465.81
332.258	479.81
332.486	458.81
332.715	452.81
332.943	435.81
333.172	476.81
333.4	467.81
333.629	473.81
333.857	494.81
334.085	493.81
334.314	509.81
334.542	500.81
334.771	519.81
334.999	503.81
335.227	480.81
335.455	483.81
335.684	472.81
335.912	455.81
336.14	456.81
336.369	452.81
336.597	447.81
336.825	459.81
337.053	459.81
337.281	441.81
337.51	435.81
337.738	448.81
337.966	443.81
338.194	437.81
338.422	454.81
338.65	439.81
338.878	450.81
339.106	444.81
339.334	446.81
339.562	428.81
339.79	434.81
340.018	424.81
340.246	428.81
340.474	457.81
340.702	426.81
340.93	429.81
341.158	413.81
341.386	434.81
341.614	453.81
341.842	405.81
342.07	416.81
342.298	424.81
342.526	410.81
342.754	442.81
342.981	427.81
343.209	426.81
343.437	429.81
343.665	429.81
343.893	448.81
344.12	461.81
344.348	479.81
344.576	460.81
344.804	437.81
345.031	434.81
345.259	457.81
345.487	444.81
345.714	438.81
345.942	423.81
346.17	404.81
346.397	401.81
346.625	404.81
346.853	429.81
347.08	432.81
347.308	408.81
347.535	421.81
347.763	436.81
347.99	404.81
348.218	426.81
348.445	408.81
348.673	419.81
348.9	410.81
349.128	382.81
349.355	406.81
349.583	389.81
349.81	398.81
350.037	400.81
350.265	393.81
350.492	407.81
350.72	394.81
350.947	402.81
351.174	419.81
351.402	398.81
351.629	387.81
351.856	396.81
352.083	401.81
352.311	413.81
352.538	418.81
352.765	424.81
352.992	408.81
353.22	403.81
353.447	398.81
353.674	420.81
353.901	386.81
354.128	395.81
354.355	392.81
354.583	379.81
354.81	384.81
355.037	394.81
355.264	394.81
355.491	400.81
355.718	373.81
355.945	392.81
356.172	382.81
356.399	387.81
356.626	382.81
356.853	398.81
357.08	384.81
357.307	384.81
357.534	386.81
357.761	400.81
357.988	390.81
358.215	386.81
358.441	396.81
358.668	396.81
358.895	403.81
359.122	397.81
359.349	394.81
359.576	392.81
359.802	394.81
360.029	434.81
360.256	421.81
360.483	423.81
360.709	407.81
360.936	415.81
361.163	393.81
361.39	410.81
361.616	423.81
361.843	418.81
362.07	406.81
362.296	406.81
362.523	416.81
362.749	406.81
362.976	398.81
363.203	400.81
363.429	411.81
363.656	380.81
363.882	406.81
364.109	384.81
364.335	381.81
364.562	392.81
364.788	397.81
365.015	399.81
365.241	403.81
365.468	406.81
365.694	408.81
365.92	404.81
366.147	398.81
366.373	384.81
366.599	387.81
366.826	385.81
367.052	392.81
367.278	391.81
367.505	411.81
367.731	402.81
367.957	403.81
368.184	402.81
368.41	410.81
368.636	406.81
368.862	394.81
369.089	396.81
369.315	390.81
369.541	403.81
369.767	397.81
369.993	421.81
370.219	419.81
370.445	404.81
370.672	394.81
370.898	389.81
371.124	374.81
371.35	413.81
371.576	397.81
371.802	393.81
372.028	398.81
372.254	413.81
372.48	389.81
372.706	418.81
372.932	405.81
373.158	413.81
373.384	411.81
373.61	406.81
373.835	412.81
374.061	387.81
374.287	412.81
374.513	410.81
374.739	434.81
374.965	416.81
375.191	425.81
375.416	430.81
375.642	411.81
375.868	418.81
376.094	422.81
376.319	410.81
376.545	401.81
376.771	418.81
376.997	415.81
377.222	410.81
377.448	408.81
377.674	406.81
377.899	399.81
378.125	391.81
378.35	410.81
378.576	392.81
378.802	412.81
379.027	391.81
379.253	423.81
379.478	412.81
379.704	410.81
379.929	416.81
380.155	407.81
380.38	391.81
380.606	417.81
380.831	388.81
381.057	413.81
381.282	411.81
381.507	415.81
381.733	412.81
381.958	414.81
382.184	398.81
382.409	423.81
382.634	406.81
382.86	412.81
383.085	426.81
383.31	437.81
383.535	428.81
383.761	441.81
383.986	427.81
384.211	448.81
384.436	434.81
384.662	444.81
384.887	459.81
385.112	453.81
385.337	448.81
385.562	461.81
385.787	468.81
386.013	473.81
386.238	471.81
386.463	483.81
386.688	482.81
386.913	465.81
387.138	479.81
387.363	442.81
387.588	449.81
387.813	456.81
388.038	447.81
388.263	473.81
388.488	463.81
388.713	456.81
388.938	475.81
389.163	465.81
389.387	459.81
389.612	443.81
389.837	457.81
390.062	477.81
390.287	466.81
390.512	463.81
390.736	460.81
390.961	472.81
391.186	480.81
391.411	475.81
391.636	470.81
391.86	466.81
392.085	485.81
392.31	496.81
392.534	492.81
392.759	492.81
392.984	470.81
393.208	479.81
393.433	492.81
393.658	478.81
393.882	478.81
394.107	471.81
394.331	478.81
394.556	490.81
394.78	470.81
395.005	474.81
395.229	468.81
395.454	487.81
395.678	493.81
395.903	527.81
396.127	496.81
396.352	516.81
396.576	480.81
396.801	482.81
397.025	484.81
397.249	493.81
397.474	509.81
397.698	518.81
397.922	509.81
398.147	524.81
398.371	539.81
398.595	536.81
398.82	534.81
399.044	564.81
399.268	572.81
399.492	646.81
399.717	678.81
399.941	695.81
400.165	704.81
400.389	660.81
400.613	619.81
400.837	583.81
401.062	554.81
401.286	558.81
401.51	543.81
401.734	559.81
401.958	558.81
402.182	566.81
402.406	545.81
402.63	555.81
402.854	555.81
403.078	568.81
403.302	566.81
403.526	583.81
403.75	581.81
403.974	580.81
404.198	572.81
404.422	589.81
404.645	592.81
404.869	579.81
405.093	607.81
405.317	648.81
405.541	675.81
405.765	612.81
405.988	602.81
406.212	604.81
406.436	602.81
406.66	629.81
406.883	602.81
407.107	646.81
407.331	696.81
407.555	715.81
407.778	713.81
408.002	664.81
408.226	628.81
408.449	640.81
408.673	638.81
408.896	634.81
409.12	666.81
409.344	626.81
409.567	572.81
409.791	578.81
410.014	581.81
410.238	554.81
410.461	579.81
410.685	560.81
410.908	576.81
411.132	603.81
411.355	629.81
411.578	582.81
411.802	574.81
412.025	580.81
412.249	591.81
412.472	587.81
412.695	624.81
412.919	591.81
413.142	591.81
413.365	567.81
413.589	559.81
413.812	550.81
414.035	553.81
414.258	552.81
414.482	546.81
414.705	534.81
414.928	533.81
415.151	549.81
415.374	531.81
415.597	546.81
415.821	525.81
416.044	538.81
416.267	520.81
416.49	548.81
416.713	555.81
416.936	549.81
417.159	543.81
417.382	541.81
417.605	531.81
417.828	557.81
418.051	556.81
418.274	552.81
418.497	529.81
418.72	535.81
418.943	525.81
419.166	563.81
419.389	586.81
419.611	590.81
419.834	558.81
420.057	577.81
420.28	546.81
420.503	538.81
420.726	521.81
420.948	558.81
421.171	582.81
421.394	600.81
421.617	579.81
421.839	558.81
422.062	534.81
422.285	567.81
422.507	610.81
422.73	650.81
422.953	639.81
423.175	607.81
423.398	562.81
423.621	569.81
423.843	589.81
424.066	592.81
424.288	590.81
424.511	612.81
424.733	628.81
424.956	683.81
425.178	664.81
425.401	654.81
425.623	668.81
425.846	572.81
426.068	576.81
426.291	546.81
426.513	582.81
426.735	566.81
426.958	578.81
427.18	658.81
427.402	755.81
427.625	829.81
427.847	688.81
428.069	638.81
428.292	612.81
428.514	544.81
428.736	516.81
428.958	525.81
429.181	516.81
429.403	527.81
429.625	528.81
429.847	556.81
430.069	583.81
430.292	596.81
430.514	533.81
430.736	528.81
430.958	523.81
431.18	510.81
431.402	510.81
431.624	496.81
431.846	501.81
432.068	518.81
432.29	514.81
432.512	507.81
432.734	519.81
432.956	521.81
433.178	506.81
433.4	511.81
433.622	500.81
433.844	505.81
434.066	519.81
434.287	509.81
434.509	492.81
434.731	531.81
434.953	540.81
435.175	530.81
435.397	557.81
435.618	556.81
435.84	595.81
436.062	637.81
436.284	717.81
436.505	594.81
436.727	560.81
436.949	546.81
437.17	515.81
437.392	522.81
437.614	532.81
437.835	552.81
438.057	573.81
438.278	683.81
438.5	682.81
438.721	784.81
438.943	737.81
439.165	598.81
439.386	538.81
439.608	540.81
439.829	555.81
440.05	565.81
440.272	596.81
440.493	554.81
440.715	566.81
440.936	536.81
441.158	522.81
441.379	543.81
441.6	538.81
441.822	566.81
442.043	597.81
442.264	662.81
442.486	684.81
442.707	608.81
442.928	575.81
443.149	582.81
443.371	583.81
443.592	592.81
443.813	702.81
444.034	757.81
444.255	643.81
444.476	593.81
444.698	613.81
444.919	611.81
445.14	724.81
445.361	642.81
445.582	596.81
445.803	634.81
446.024	687.81
446.245	707.81
446.466	657.81
446.687	570.81
446.908	551.81
447.129	529.81
447.35	531.81
447.571	534.81
447.792	491.81
448.013	516.81
448.234	523.81
448.455	544.81
448.675	624.81
448.896	734.81
449.117	614.81
449.338	582.81
449.559	670.81
449.779	780.81
450	623.81
450.221	535.81
450.442	503.81
450.662	492.81
450.883	474.81
451.104	507.81
451.324	473.81
451.545	495.81
451.766	487.81
451.986	474.81
452.207	467.81
452.428	465.81
452.648	447.81
452.869	466.81
453.089	455.81
453.31	473.81
453.53	455.81
453.751	471.81
453.971	481.81
454.192	473.81
454.412	476.81
454.633	459.81
454.853	459.81
455.073	461.81
455.294	473.81
455.514	506.81
455.734	519.81
455.955	456.81
456.175	451.81
456.395	447.81
456.616	456.81
456.836	434.81
457.056	429.81
457.276	422.81
457.497	449.81
457.717	466.81
457.937	436.81
458.157	450.81
458.377	452.81
458.598	474.81
458.818	517.81
459.038	554.81
459.258	574.81
459.478	552.81
459.698	500.81
459.918	507.81
460.138	517.81
460.358	530.81
460.578	566.81
460.798	539.81
461.018	543.81
461.238	528.81
461.458	550.81
461.678	552.81
461.898	564.81
462.118	558.81
462.338	551.81
462.558	575.81
462.777	593.81
462.997	614.81
463.217	639.81
463.437	677.81
463.657	613.81
463.876	582.81
464.096	586.81
464.316	621.81
464.536	597.81
464.755	587.81
464.975	594.81
465.195	591.81
465.414	592.81
465.634	550.81
465.854	536.81
466.073	503.81
466.293	514.81
466.512	498.81
466.732	482.81
466.951	495.81
467.171	475.81
467.391	473.81
467.61	493.81
467.829	493.81
468.049	477.81
468.268	468.81
468.488	452.81
468.707	445.81
468.927	443.81
469.146	466.81
469.365	468.81
469.585	482.81
469.804	486.81
470.023	494.81
470.243	493.81
470.462	517.81
470.681	480.81
470.901	494.81
471.12	484.81
471.339	494.81
471.558	478.81
471.777	509.81
471.997	492.81
472.216	464.81
472.435	493.81
472.654	514.81
472.873	475.81
473.092	488.81
473.311	475.81
473.53	473.81
473.749	473.81
473.968	514.81
474.187	588.81
474.406	604.81
474.625	519.81
474.844	489.81
475.063	491.81
475.282	479.81
475.501	484.81
475.72	494.81
475.939	520.81
476.158	492.81
476.377	504.81
476.596	503.81
476.814	501.81
477.033	500.81
477.252	527.81
477.471	520.81
477.69	538.81
477.908	509.81
478.127	552.81
478.346	546.81
478.564	559.81
478.783	571.81
479.002	575.81
479.22	569.81
479.439	579.81
479.658	570.81
479.876	584.81
480.095	598.81
480.313	596.81
480.532	619.81
480.751	598.81
480.969	609.81
481.188	605.81
481.406	642.81
481.624	603.81
481.843	598.81
482.061	583.81
482.28	570.81
482.498	562.81
482.717	565.81
482.935	553.81
483.153	566.81
483.372	561.81
483.59	550.81
483.808	574.81
484.027	563.81
484.245	554.81
484.463	565.81
484.681	566.81
484.9	560.81
485.118	554.81
485.336	586.81
485.554	575.81
485.772	575.81
485.99	598.81
486.209	563.81
486.427	586.81
486.645	573.81
486.863	590.81
487.081	572.81
487.299	606.81
487.517	576.81
487.735	589.81
487.953	593.81
488.171	589.81
488.389	570.81
488.607	592.81
488.825	619.81
489.043	598.81
489.261	586.81
489.479	593.81
489.696	600.81
489.914	597.81
490.132	632.81
490.35	598.81
490.568	614.81
490.786	616.81
491.003	632.81
491.221	652.81
491.439	647.81
491.657	627.81
491.874	659.81
492.092	668.81
492.31	661.81
492.527	655.81
492.745	666.81
492.963	654.81
493.18	648.81
493.398	670.81
493.615	666.81
493.833	655.81
494.05	696.81
494.268	657.81
494.485	660.81
494.703	669.81
494.92	657.81
495.138	657.81
495.355	675.81
495.573	676.81
495.79	683.81
496.008	676.81
496.225	676.81
496.442	684.81
496.66	669.81
496.877	698.81
497.094	723.81
497.312	720.81
497.529	729.81
497.746	733.81
497.963	752.81
498.181	776.81
498.398	787.81
498.615	804.81
498.832	851.81
499.049	867.81
499.267	896.81
499.484	956.81
499.701	992.81
499.918	1053.81
500.135	1112.81
500.352	1219.81
500.569	1239.81
500.786	1228.81
501.003	1230.81
501.22	1130.81
501.437	1074.81
501.654	1011.81
501.871	964.81
502.088	903.81
502.305	866.81
502.522	837.81
502.739	845.81
502.956	803.81
503.172	811.81
503.389	746.81
503.606	750.81
503.823	740.81
504.04	740.81
504.256	715.81
504.473	718.81
504.69	728.81
504.907	707.81
505.123	720.81
505.34	681.81
505.557	650.81
505.773	653.81
505.99	640.81
506.207	637.81
506.423	640.81
506.64	657.81
506.856	634.81
507.073	657.81
507.289	602.81
507.506	618.81
507.722	620.81
507.939	612.81
508.155	600.81
508.372	618.81
508.588	611.81
508.805	630.81
509.021	614.81
509.238	608.81
509.454	589.81
509.67	606.81
509.887	613.81
510.103	574.81
510.319	615.81
510.536	678.81
510.752	887.81
510.968	782.81
511.184	604.81
511.401	564.81
511.617	581.81
511.833	583.81
512.049	567.81
512.265	573.81
512.481	571.81
512.698	579.81
512.914	585.81
513.13	569.81
513.346	576.81
513.562	550.81
513.778	586.81
513.994	572.81
514.21	602.81
514.426	575.81
514.642	593.81
514.858	604.81
515.074	632.81
515.29	700.81
515.506	874.81
515.721	795.81
515.937	638.81
516.153	610.81
516.369	621.81
516.585	592.81
516.801	612.81
517.016	608.81
517.232	628.81
517.448	636.81
517.664	662.81
517.879	636.81
518.095	670.81
518.311	647.81
518.527	633.81
518.742	622.81
518.958	619.81
519.173	611.81
519.389	583.81
519.605	606.81
519.82	582.81
520.036	590.81
520.251	585.81
520.467	582.81
520.682	621.81
520.898	612.81
521.113	612.81
521.329	640.81
521.544	642.81
521.76	716.81
521.975	981.81
522.19	958.81
522.406	657.81
522.621	595.81
522.836	563.81
523.052	551.81
523.267	528.81
523.482	525.81
523.698	515.81
523.913	532.81
524.128	516.81
524.343	515.81
524.559	497.81
524.774	523.81
524.989	515.81
525.204	513.81
525.419	491.81
525.634	485.81
525.849	535.81
526.064	471.81
526.28	511.81
526.495	490.81
526.71	496.81
526.925	489.81
527.14	483.81
527.355	510.81
527.57	518.81
527.785	492.81
527.999	494.81
528.214	488.81
528.429	472.81
528.644	495.81
528.859	503.81
529.074	487.81
529.289	484.81
529.503	523.81
529.718	487.81
529.933	482.81
530.148	489.81
530.363	479.81
530.577	471.81
530.792	478.81
531.007	478.81
531.221	492.81
531.436	459.81
531.651	483.81
531.865	484.81
532.08	480.81
532.295	486.81
532.509	481.81
532.724	503.81
532.938	502.81
533.153	473.81
533.367	479.81
533.582	466.81
533.796	485.81
534.011	469.81
534.225	488.81
534.44	459.81
534.654	476.81
534.868	465.81
535.083	467.81
535.297	475.81
535.511	475.81
535.726	467.81
535.94	490.81
536.154	476.81
536.369	462.81
536.583	438.81
536.797	453.81
537.011	454.81
537.225	458.81
537.44	452.81
537.654	456.81
537.868	447.81
538.082	466.81
538.296	455.81
538.51	454.81
538.724	439.81
538.938	439.81
539.153	444.81
539.367	468.81
539.581	448.81
539.795	439.81
540.009	439.81
540.222	455.81
540.436	432.81
540.65	462.81
540.864	459.81
541.078	455.81
541.292	461.81
541.506	446.81
541.72	436.81
541.934	454.81
542.147	458.81
542.361	439.81
542.575	428.81
542.789	433.81
543.002	438.81
543.216	460.81
543.43	462.81
543.644	435.81
543.857	431.81
544.071	460.81
544.285	455.81
544.498	447.81
544.712	451.81
544.925	446.81
545.139	446.81
545.352	448.81
545.566	451.81
545.779	464.81
545.993	451.81
546.206	454.81
546.42	447.81
546.633	434.81
546.847	443.81
547.06	452.81
547.274	438.81
547.487	437.81
547.7	447.81
547.914	445.81
548.127	443.81
548.34	440.81
548.554	437.81
548.767	440.81
548.98	436.81
549.193	430.81
549.407	444.81
549.62	436.81
549.833	455.81
550.046	438.81
550.259	452.81
550.473	442.81
550.686	456.81
550.899	448.81
551.112	440.81
551.325	447.81
551.538	436.81
551.751	439.81
551.964	440.81
552.177	458.81
552.39	454.81
552.603	450.81
552.816	473.81
553.029	457.81
553.242	429.81
553.455	478.81
553.667	475.81
553.88	476.81
554.093	468.81
554.306	452.81
554.519	439.81
554.732	446.81
554.944	445.81
555.157	442.81
555.37	431.81
555.583	406.81
555.795	422.81
556.008	399.81
556.221	410.81
556.433	408.81
556.646	397.81
556.859	404.81
557.071	408.81
557.284	409.81
557.496	400.81
557.709	386.81
557.921	398.81
558.134	403.81
558.346	380.81
558.559	390.81
558.771	399.81
558.984	379.81
559.196	395.81
559.409	381.81
559.621	390.81
559.833	380.81
560.046	389.81
560.258	392.81
560.47	398.81
560.683	380.81
560.895	398.81
561.107	382.81
561.32	381.81
561.532	384.81
561.744	377.81
561.956	382.81
562.168	406.81
562.381	391.81
562.593	390.81
562.805	377.81
563.017	392.81
563.229	394.81
563.441	393.81
563.653	392.81
563.865	388.81
564.077	410.81
564.289	398.81
564.501	406.81
564.713	403.81
564.925	419.81
565.137	426.81
565.349	447.81
565.561	443.81
565.773	466.81
565.985	456.81
566.197	490.81
566.408	487.81
566.62	512.81
566.832	528.81
567.044	567.81
567.255	538.81
567.467	570.81
567.679	589.81
567.891	599.81
568.102	575.81
568.314	586.81
568.526	564.81
568.737	529.81
568.949	488.81
569.161	462.81
569.372	438.81
569.584	437.81
569.795	434.81
570.007	448.81
570.218	425.81
570.43	412.81
570.641	386.81
570.853	411.81
571.064	397.81
571.276	396.81
571.487	365.81
571.698	380.81
571.91	393.81
572.121	365.81
572.333	375.81
572.544	388.81
572.755	370.81
572.966	345.81
573.178	373.81
573.389	354.81
573.6	368.81
573.811	356.81
574.023	335.81
574.234	348.81
574.445	360.81
574.656	347.81
574.867	352.81
575.078	342.81
575.289	347.81
575.501	351.81
575.712	336.81
575.923	333.81
576.134	342.81
576.345	340.81
576.556	346.81
576.767	339.81
576.978	330.81
577.188	317.81
577.399	349.81
577.61	333.81
577.821	318.81
578.032	317.81
578.243	342.81
578.454	449.81
578.665	382.81
578.875	322.81
579.086	314.81
579.297	325.81
579.508	296.81
579.718	329.81
579.929	308.81
580.14	319.81
580.35	315.81
580.561	312.81
580.772	304.81
580.982	322.81
581.193	323.81
581.403	314.81
581.614	308.81
581.825	310.81
582.035	319.81
582.246	320.81
582.456	313.81
582.667	300.81
582.877	306.81
583.087	279.81
583.298	306.81
583.508	313.81
583.719	288.81
583.929	312.81
584.139	320.81
584.35	304.81
584.56	326.81
584.77	296.81
584.981	306.81
585.191	328.81
585.401	300.81
585.611	295.81
585.821	310.81
586.032	310.81
586.242	295.81
586.452	299.81
586.662	288.81
586.872	314.81
587.082	295.81
587.292	308.81
587.502	306.81
587.713	302.81
587.923	304.81
588.133	308.81
588.343	296.81
588.553	302.81
588.762	293.81
588.972	311.81
589.182	342.81
589.392	324.81
589.602	306.81
589.812	319.81
590.022	324.81
590.232	292.81
590.441	314.81
590.651	301.81
590.861	309.81
591.071	310.81
591.281	294.81
591.49	319.81
591.7	324.81
591.91	312.81
592.119	311.81
592.329	319.81
592.539	328.81
592.748	312.81
592.958	347.81
593.167	322.81
593.377	344.81
593.587	355.81
593.796	349.81
594.006	343.81
594.215	353.81
594.424	342.81
594.634	332.81
594.843	339.81
595.053	329.81
595.262	320.81
595.472	307.81
595.681	316.81
595.89	323.81
596.1	311.81
596.309	301.81
596.518	285.81
596.727	281.81
596.937	290.81
597.146	290.81
597.355	300.81
597.564	279.81
597.774	282.81
597.983	280.81
598.192	267.81
598.401	276.81
598.61	281.81
598.819	275.81
599.028	280.81
599.237	254.81
599.446	259.81
599.655	269.81
599.864	265.81
600.073	260.81
600.282	277.81
600.491	259.81
600.7	255.81
600.909	252.81
601.118	264.81
601.327	280.81
601.536	273.81
601.745	252.81
601.953	247.81
602.162	276.81
602.371	262.81
602.58	235.81
602.789	244.81
602.997	263.81
603.206	275.81
603.415	244.81
603.623	266.81
603.832	254.81
604.041	263.81
604.249	243.81
604.458	245.81
604.666	240.81
604.875	268.81
605.084	258.81
605.292	230.81
605.501	248.81
605.709	236.81
605.918	245.81
606.126	250.81
606.334	231.81
606.543	244.81
606.751	254.81
606.96	260.81
607.168	227.81
607.376	244.81
607.585	235.81
607.793	252.81
608.001	231.81
608.21	226.81
608.418	248.81
608.626	227.81
608.834	248.81
609.043	229.81
609.251	239.81
609.459	243.81
609.667	248.81
609.875	239.81
610.083	243.81
610.291	244.81
610.499	232.81
610.707	240.81
610.916	243.81
611.124	244.81
611.332	252.81
611.54	261.81
611.748	223.81
611.955	230.81
612.163	244.81
612.371	250.81
612.579	232.81
612.787	240.81
612.995	232.81
613.203	238.81
613.411	231.81
613.618	235.81
613.826	242.81
614.034	224.81
614.242	228.81
614.449	240.81
614.657	226.81
614.865	220.81
615.072	246.81
615.28	223.81
615.488	223.81
615.695	218.81
615.903	236.81
616.111	239.81
616.318	240.81
616.526	222.81
616.733	237.81
616.941	229.81
617.148	211.81
617.356	232.81
617.563	247.81
617.771	252.81
617.978	243.81
618.185	243.81
618.393	227.81
618.6	231.81
618.807	221.81
619.015	255.81
619.222	226.81
619.429	222.81
619.637	218.81
619.844	230.81
620.051	224.81
620.258	235.81
620.466	230.81
620.673	208.81
620.88	207.81
621.087	221.81
621.294	235.81
621.501	208.81
621.708	231.81
621.915	214.81
622.122	221.81
622.329	227.81
622.536	215.81
622.743	204.81
622.95	224.81
623.157	213.81
623.364	219.81
623.571	221.81
623.778	209.81
623.985	228.81
624.192	220.81
624.399	206.81
624.606	203.81
624.812	219.81
625.019	225.81
625.226	214.81
625.433	221.81
625.639	215.81
625.846	200.81
626.053	208.81
626.259	224.81
626.466	223.81
626.673	221.81
626.879	211.81
627.086	216.81
627.293	195.81
627.499	209.81
627.706	202.81
627.912	208.81
628.119	207.81
628.325	203.81
628.532	202.81
628.738	201.81
628.945	175.81
629.151	195.81
629.357	210.81
629.564	199.81
629.77	207.81
629.976	211.81
630.183	190.81
630.389	190.81
630.595	194.81
630.802	195.81
631.008	205.81
631.214	203.81
631.42	187.81
631.627	179.81
631.833	194.81
632.039	184.81
632.245	186.81
632.451	197.81
632.657	191.81
632.863	202.81
633.069	181.81
633.275	194.81
633.481	191.81
633.688	181.81
633.893	189.81
634.099	181.81
634.305	175.81
634.511	175.81
634.717	196.81
634.923	187.81
635.129	184.81
635.335	199.81
635.541	182.81
635.747	185.81
635.952	184.81
636.158	176.81
636.364	181.81
636.57	188.81
636.775	188.81
636.981	191.81
637.187	174.81
637.392	182.81
637.598	196.81
637.804	176.81
638.009	186.81
638.215	176.81
638.421	169.81
638.626	182.81
638.832	184.81
639.037	169.81
639.243	178.81
639.448	170.81
639.654	178.81
639.859	178.81
640.065	178.81
640.27	198.81
640.475	172.81
640.681	166.81
640.886	166.81
641.091	178.81
641.297	190.81
641.502	176.81
641.707	162.81
641.913	167.81
642.118	164.81
642.323	164.81
642.528	163.81
642.733	173.81
642.939	169.81
643.144	166.81
643.349	182.81
643.554	176.81
643.759	173.81
643.964	152.81
644.169	179.81
644.374	166.81
644.579	156.81
644.784	166.81
644.989	159.81
645.194	164.81
645.399	167.81
645.604	155.81
645.809	164.81
646.014	178.81
646.219	171.81
646.423	175.81
646.628	172.81
646.833	166.81
647.038	179.81
647.243	171.81
647.447	182.81
647.652	157.81
647.857	164.81
648.062	161.81
648.266	179.81
648.471	179.81
648.676	178.81
648.88	178.81
649.085	181.81
649.289	178.81
649.494	186.81
649.698	192.81
649.903	174.81
650.107	164.81
650.312	158.81
650.516	171.81
650.721	163.81
650.925	159.81
651.13	158.81
651.334	159.81
651.539	162.81
651.743	158.81
651.947	148.81
652.152	166.81
652.356	142.81
652.56	141.81
652.764	166.81
652.969	146.81
653.173	140.81
653.377	163.81
653.581	146.81
653.785	142.81
653.99	148.81
654.194	150.81
654.398	142.81
654.602	150.81
654.806	128.81
655.01	142.81
655.214	137.81
655.418	134.81
655.622	137.81
655.826	134.81
656.03	154.81
656.234	144.81
656.438	145.81
656.642	155.81
656.846	156.81
657.049	140.81
657.253	110.81
657.457	120.81
657.661	123.81
657.865	127.81
658.068	141.81
658.272	123.81
658.476	123.81
658.68	120.81
658.883	101.81
659.087	111.81
659.291	110.81
659.494	104.81
659.698	91.81
659.901	98.81
660.105	88.81
660.309	102.81
660.512	108.81
660.716	95.81
660.919	90.81
661.123	106.81
661.326	97.81
661.53	81.81
661.733	108.81
661.936	89.81
662.14	86.81
662.343	99.81
662.546	94.81
662.75	101.81
662.953	91.81
663.156	76.81
663.36	87.81
663.563	84.81
663.766	86.81
663.969	88.81
664.173	85.81
664.376	72.81
664.579	88.81
664.782	87.81
664.985	85.81
665.188	89.81
665.391	87.81
665.594	77.81
665.797	80.81
666	82.81
666.203	78.81
666.406	93.81
666.609	84.81
666.812	95.81
667.015	90.81
667.218	84.81
667.421	98.81
667.624	84.81
667.827	109.81
668.03	86.81
668.232	68.81
668.435	66.81
668.638	84.81
668.841	78.81
669.043	87.81
669.246	77.81
669.449	87.81
669.651	91.81
669.854	93.81
670.057	85.81
670.259	93.81
670.462	82.81
670.665	88.81
670.867	84.81
671.07	86.81
671.272	86.81
671.475	93.81
671.677	85.81
671.88	71.81
672.082	87.81
672.284	86.81
672.487	77.81
672.689	89.81
672.892	75.81
