Data from 1962.PennyLincolnUp.Lamp.En5.5.200Scan.071719.P1._HRD10591_13-55-51-062.txt Node
Date: Thu Jul 18 13:55:51 EDT 2019
User: cochatt
Spectrometer: HR+D1059
Trigger mode: 1
Integration Time (sec): 1.000000E-1
Scans to average: 1
Electric dark correction enabled: true
Nonlinearity correction enabled: false
Boxcar width: 0
XAxis mode: Wavelengths
Number of Pixels in Spectrum: 2048
>>>>>Begin Spectral Data<<<<<
223.165	-17.62
223.4	-17.62
223.635	-17.62
223.869	-12.62
224.104	-8.62
224.338	-11.62
224.573	-12.62
224.808	-16.62
225.042	-17.62
225.277	6.38
225.511	-5.62
225.746	-12.62
225.98	7.38
226.215	14.38
226.449	12.38
226.683	31.38
226.918	14.38
227.152	29.38
227.387	30.38
227.621	38.38
227.856	30.38
228.09	32.38
228.324	58.38
228.559	67.38
228.793	84.38
229.027	81.38
229.262	95.38
229.496	93.38
229.73	112.38
229.964	136.38
230.199	132.38
230.433	108.38
230.667	107.38
230.901	113.38
231.136	104.38
231.37	117.38
231.604	119.38
231.838	113.38
232.072	109.38
232.306	123.38
232.541	104.38
232.775	118.38
233.009	113.38
233.243	119.38
233.477	99.38
233.711	123.38
233.945	126.38
234.179	123.38
234.413	116.38
234.647	98.38
234.881	109.38
235.115	108.38
235.349	105.38
235.583	128.38
235.817	111.38
236.051	110.38
236.285	133.38
236.519	123.38
236.753	125.38
236.987	135.38
237.221	164.38
237.455	167.38
237.689	149.38
237.922	131.38
238.156	126.38
238.39	122.38
238.624	121.38
238.858	125.38
239.091	117.38
239.325	134.38
239.559	124.38
239.793	116.38
240.027	125.38
240.26	134.38
240.494	145.38
240.728	133.38
240.961	136.38
241.195	149.38
241.429	133.38
241.662	130.38
241.896	138.38
242.13	120.38
242.363	140.38
242.597	121.38
242.83	133.38
243.064	138.38
243.298	121.38
243.531	121.38
243.765	133.38
243.998	136.38
244.232	140.38
244.465	141.38
244.699	129.38
244.932	159.38
245.166	142.38
245.399	152.38
245.633	130.38
245.866	139.38
246.099	152.38
246.333	140.38
246.566	150.38
246.8	164.38
247.033	146.38
247.266	143.38
247.5	157.38
247.733	159.38
247.966	164.38
248.2	173.38
248.433	166.38
248.666	163.38
248.899	167.38
249.133	178.38
249.366	177.38
249.599	178.38
249.832	164.38
250.066	162.38
250.299	156.38
250.532	167.38
250.765	183.38
250.998	194.38
251.231	203.38
251.465	189.38
251.698	195.38
251.931	175.38
252.164	181.38
252.397	197.38
252.63	197.38
252.863	185.38
253.096	191.38
253.329	210.38
253.562	212.38
253.795	190.38
254.028	188.38
254.261	187.38
254.494	217.38
254.727	231.38
254.96	243.38
255.193	235.38
255.426	213.38
255.659	217.38
255.892	203.38
256.124	210.38
256.357	216.38
256.59	211.38
256.823	213.38
257.056	198.38
257.289	218.38
257.521	199.38
257.754	207.38
257.987	198.38
258.22	199.38
258.452	194.38
258.685	202.38
258.918	186.38
259.151	197.38
259.383	194.38
259.616	196.38
259.849	207.38
260.081	214.38
260.314	226.38
260.547	238.38
260.779	218.38
261.012	214.38
261.244	212.38
261.477	207.38
261.71	219.38
261.942	208.38
262.175	223.38
262.407	214.38
262.64	233.38
262.872	207.38
263.105	197.38
263.337	234.38
263.57	203.38
263.802	205.38
264.035	203.38
264.267	205.38
264.499	196.38
264.732	222.38
264.964	206.38
265.197	206.38
265.429	229.38
265.661	214.38
265.894	220.38
266.126	211.38
266.358	210.38
266.591	219.38
266.823	207.38
267.055	202.38
267.287	228.38
267.52	212.38
267.752	219.38
267.984	214.38
268.216	222.38
268.448	229.38
268.681	235.38
268.913	227.38
269.145	254.38
269.377	281.38
269.609	257.38
269.841	267.38
270.073	248.38
270.306	265.38
270.538	271.38
270.77	302.38
271.002	306.38
271.234	267.38
271.466	276.38
271.698	286.38
271.93	275.38
272.162	284.38
272.394	286.38
272.626	279.38
272.858	256.38
273.09	267.38
273.322	270.38
273.553	278.38
273.785	248.38
274.017	257.38
274.249	255.38
274.481	254.38
274.713	257.38
274.945	263.38
275.176	258.38
275.408	250.38
275.64	262.38
275.872	249.38
276.104	236.38
276.335	245.38
276.567	256.38
276.799	270.38
277.031	281.38
277.262	290.38
277.494	298.38
277.726	289.38
277.957	268.38
278.189	265.38
278.421	285.38
278.652	274.38
278.884	273.38
279.115	261.38
279.347	265.38
279.579	272.38
279.81	275.38
280.042	274.38
280.273	281.38
280.505	279.38
280.736	267.38
280.968	270.38
281.199	273.38
281.431	268.38
281.662	281.38
281.894	281.38
282.125	275.38
282.356	290.38
282.588	298.38
282.819	283.38
283.051	275.38
283.282	270.38
283.513	291.38
283.745	286.38
283.976	286.38
284.207	283.38
284.439	298.38
284.67	267.38
284.901	283.38
285.132	298.38
285.364	264.38
285.595	277.38
285.826	283.38
286.057	283.38
286.288	276.38
286.52	278.38
286.751	292.38
286.982	295.38
287.213	294.38
287.444	293.38
287.675	301.38
287.906	296.38
288.138	299.38
288.369	306.38
288.6	304.38
288.831	295.38
289.062	311.38
289.293	298.38
289.524	293.38
289.755	302.38
289.986	285.38
290.217	297.38
290.448	293.38
290.679	270.38
290.91	316.38
291.141	293.38
291.371	305.38
291.602	314.38
291.833	294.38
292.064	280.38
292.295	321.38
292.526	308.38
292.757	309.38
292.987	293.38
293.218	310.38
293.449	284.38
293.68	297.38
293.91	282.38
294.141	298.38
294.372	281.38
294.603	282.38
294.833	286.38
295.064	297.38
295.295	309.38
295.525	280.38
295.756	310.38
295.987	313.38
296.217	327.38
296.448	311.38
296.679	300.38
296.909	305.38
297.14	291.38
297.37	339.38
297.601	315.38
297.831	318.38
298.062	307.38
298.292	309.38
298.523	311.38
298.753	308.38
298.984	315.38
299.214	303.38
299.445	315.38
299.675	306.38
299.905	326.38
300.136	313.38
300.366	315.38
300.597	321.38
300.827	325.38
301.057	322.38
301.288	342.38
301.518	338.38
301.748	328.38
301.979	322.38
302.209	352.38
302.439	343.38
302.669	348.38
302.9	342.38
303.13	335.38
303.36	342.38
303.59	329.38
303.82	336.38
304.051	343.38
304.281	333.38
304.511	326.38
304.741	318.38
304.971	332.38
305.201	354.38
305.431	341.38
305.661	362.38
305.891	325.38
306.121	334.38
306.352	338.38
306.582	332.38
306.812	345.38
307.042	326.38
307.272	319.38
307.502	342.38
307.731	333.38
307.961	317.38
308.191	340.38
308.421	350.38
308.651	340.38
308.881	335.38
309.111	363.38
309.341	329.38
309.571	345.38
309.8	371.38
310.03	359.38
310.26	356.38
310.49	345.38
310.72	350.38
310.949	370.38
311.179	379.38
311.409	389.38
311.639	374.38
311.868	386.38
312.098	365.38
312.328	358.38
312.557	365.38
312.787	382.38
313.017	385.38
313.246	369.38
313.476	351.38
313.706	362.38
313.935	371.38
314.165	389.38
314.394	393.38
314.624	390.38
314.853	380.38
315.083	361.38
315.312	402.38
315.542	370.38
315.771	367.38
316.001	370.38
316.23	368.38
316.46	347.38
316.689	360.38
316.919	365.38
317.148	377.38
317.377	372.38
317.607	386.38
317.836	374.38
318.065	397.38
318.295	381.38
318.524	380.38
318.753	357.38
318.983	366.38
319.212	369.38
319.441	359.38
319.67	383.38
319.9	394.38
320.129	380.38
320.358	363.38
320.587	371.38
320.816	385.38
321.046	377.38
321.275	405.38
321.504	353.38
321.733	387.38
321.962	383.38
322.191	398.38
322.42	405.38
322.649	419.38
322.878	423.38
323.108	405.38
323.337	448.38
323.566	453.38
323.795	468.38
324.024	482.38
324.253	565.38
324.482	745.38
324.71	1083.38
324.939	1555.38
325.168	1365.38
325.397	762.38
325.626	553.38
325.855	483.38
326.084	467.38
326.313	452.38
326.542	467.38
326.77	490.38
326.999	537.38
327.228	687.38
327.457	979.38
327.686	1189.38
327.914	817.38
328.143	589.38
328.372	522.38
328.6	491.38
328.829	492.38
329.058	525.38
329.287	483.38
329.515	479.38
329.744	465.38
329.972	469.38
330.201	495.38
330.43	508.38
330.658	505.38
330.887	519.38
331.115	523.38
331.344	487.38
331.572	440.38
331.801	451.38
332.03	471.38
332.258	445.38
332.486	435.38
332.715	457.38
332.943	464.38
333.172	469.38
333.4	463.38
333.629	466.38
333.857	487.38
334.085	514.38
334.314	516.38
334.542	504.38
334.771	518.38
334.999	483.38
335.227	470.38
335.455	452.38
335.684	492.38
335.912	463.38
336.14	465.38
336.369	453.38
336.597	439.38
336.825	449.38
337.053	451.38
337.281	457.38
337.51	434.38
337.738	446.38
337.966	436.38
338.194	433.38
338.422	440.38
338.65	437.38
338.878	446.38
339.106	433.38
339.334	434.38
339.562	441.38
339.79	438.38
340.018	418.38
340.246	417.38
340.474	417.38
340.702	428.38
340.93	449.38
341.158	434.38
341.386	430.38
341.614	421.38
341.842	443.38
342.07	416.38
342.298	425.38
342.526	422.38
342.754	407.38
342.981	420.38
343.209	407.38
343.437	414.38
343.665	440.38
343.893	435.38
344.12	458.38
344.348	449.38
344.576	430.38
344.804	448.38
345.031	438.38
345.259	426.38
345.487	431.38
345.714	429.38
345.942	426.38
346.17	432.38
346.397	409.38
346.625	404.38
346.853	386.38
347.08	396.38
347.308	395.38
347.535	422.38
347.763	417.38
347.99	405.38
348.218	406.38
348.445	419.38
348.673	434.38
348.9	398.38
349.128	425.38
349.355	411.38
349.583	402.38
349.81	411.38
350.037	402.38
350.265	388.38
350.492	403.38
350.72	398.38
350.947	386.38
351.174	395.38
351.402	413.38
351.629	396.38
351.856	413.38
352.083	405.38
352.311	415.38
352.538	398.38
352.765	426.38
352.992	395.38
353.22	389.38
353.447	406.38
353.674	395.38
353.901	392.38
354.128	395.38
354.355	381.38
354.583	381.38
354.81	391.38
355.037	384.38
355.264	384.38
355.491	389.38
355.718	383.38
355.945	381.38
356.172	381.38
356.399	405.38
356.626	389.38
356.853	393.38
357.08	385.38
357.307	396.38
357.534	403.38
357.761	386.38
357.988	410.38
358.215	381.38
358.441	394.38
358.668	398.38
358.895	402.38
359.122	387.38
359.349	416.38
359.576	415.38
359.802	411.38
360.029	428.38
360.256	449.38
360.483	426.38
360.709	401.38
360.936	421.38
361.163	407.38
361.39	387.38
361.616	413.38
361.843	397.38
362.07	392.38
362.296	415.38
362.523	409.38
362.749	395.38
362.976	396.38
363.203	412.38
363.429	397.38
363.656	406.38
363.882	399.38
364.109	398.38
364.335	393.38
364.562	396.38
364.788	379.38
365.015	403.38
365.241	393.38
365.468	409.38
365.694	410.38
365.92	400.38
366.147	403.38
366.373	402.38
366.599	395.38
366.826	387.38
367.052	391.38
367.278	414.38
367.505	407.38
367.731	383.38
367.957	410.38
368.184	394.38
368.41	396.38
368.636	402.38
368.862	402.38
369.089	406.38
369.315	400.38
369.541	382.38
369.767	389.38
369.993	397.38
370.219	390.38
370.445	406.38
370.672	407.38
370.898	411.38
371.124	398.38
371.35	403.38
371.576	419.38
371.802	402.38
372.028	412.38
372.254	400.38
372.48	410.38
372.706	407.38
372.932	425.38
373.158	428.38
373.384	416.38
373.61	410.38
373.835	425.38
374.061	424.38
374.287	414.38
374.513	424.38
374.739	427.38
374.965	447.38
375.191	412.38
375.416	433.38
375.642	403.38
375.868	422.38
376.094	441.38
376.319	415.38
376.545	408.38
376.771	397.38
376.997	399.38
377.222	396.38
377.448	397.38
377.674	401.38
377.899	394.38
378.125	403.38
378.35	389.38
378.576	407.38
378.802	399.38
379.027	399.38
379.253	398.38
379.478	406.38
379.704	400.38
379.929	408.38
380.155	411.38
380.38	398.38
380.606	403.38
380.831	381.38
381.057	411.38
381.282	400.38
381.507	411.38
381.733	395.38
381.958	407.38
382.184	406.38
382.409	426.38
382.634	407.38
382.86	405.38
383.085	420.38
383.31	437.38
383.535	429.38
383.761	407.38
383.986	430.38
384.211	437.38
384.436	443.38
384.662	438.38
384.887	462.38
385.112	460.38
385.337	452.38
385.562	469.38
385.787	467.38
386.013	441.38
386.238	467.38
386.463	459.38
386.688	474.38
386.913	461.38
387.138	451.38
387.363	454.38
387.588	446.38
387.813	468.38
388.038	466.38
388.263	435.38
388.488	437.38
388.713	456.38
388.938	458.38
389.163	452.38
389.387	465.38
389.612	447.38
389.837	444.38
390.062	448.38
390.287	466.38
390.512	460.38
390.736	483.38
390.961	457.38
391.186	486.38
391.411	461.38
391.636	461.38
391.86	471.38
392.085	487.38
392.31	489.38
392.534	482.38
392.759	485.38
392.984	484.38
393.208	473.38
393.433	462.38
393.658	472.38
393.882	477.38
394.107	460.38
394.331	471.38
394.556	503.38
394.78	473.38
395.005	482.38
395.229	476.38
395.454	480.38
395.678	499.38
395.903	482.38
396.127	494.38
396.352	515.38
396.576	490.38
396.801	485.38
397.025	490.38
397.249	491.38
397.474	498.38
397.698	503.38
397.922	493.38
398.147	526.38
398.371	503.38
398.595	532.38
398.82	532.38
399.044	554.38
399.268	585.38
399.492	619.38
399.717	683.38
399.941	702.38
400.165	687.38
400.389	681.38
400.613	616.38
400.837	593.38
401.062	545.38
401.286	534.38
401.51	556.38
401.734	528.38
401.958	548.38
402.182	570.38
402.406	547.38
402.63	554.38
402.854	547.38
403.078	555.38
403.302	567.38
403.526	589.38
403.75	561.38
403.974	582.38
404.198	578.38
404.422	576.38
404.645	606.38
404.869	574.38
405.093	602.38
405.317	649.38
405.541	639.38
405.765	618.38
405.988	603.38
406.212	603.38
406.436	588.38
406.66	601.38
406.883	586.38
407.107	628.38
407.331	659.38
407.555	730.38
407.778	717.38
408.002	666.38
408.226	643.38
408.449	635.38
408.673	629.38
408.896	643.38
409.12	643.38
409.344	647.38
409.567	578.38
409.791	567.38
410.014	559.38
410.238	562.38
410.461	558.38
410.685	573.38
410.908	577.38
411.132	614.38
411.355	633.38
411.578	611.38
411.802	557.38
412.025	562.38
412.249	559.38
412.472	596.38
412.695	596.38
412.919	600.38
413.142	559.38
413.365	533.38
413.589	569.38
413.812	550.38
414.035	542.38
414.258	539.38
414.482	531.38
414.705	551.38
414.928	548.38
415.151	532.38
415.374	546.38
415.597	555.38
415.821	531.38
416.044	521.38
416.267	527.38
416.49	534.38
416.713	523.38
416.936	520.38
417.159	516.38
417.382	528.38
417.605	522.38
417.828	519.38
418.051	549.38
418.274	545.38
418.497	561.38
418.72	528.38
418.943	560.38
419.166	563.38
419.389	591.38
419.611	586.38
419.834	552.38
420.057	541.38
420.28	564.38
420.503	547.38
420.726	557.38
420.948	581.38
421.171	571.38
421.394	599.38
421.617	572.38
421.839	534.38
422.062	546.38
422.285	554.38
422.507	603.38
422.73	674.38
422.953	627.38
423.175	582.38
423.398	579.38
423.621	557.38
423.843	591.38
424.066	577.38
424.288	578.38
424.511	593.38
424.733	609.38
424.956	687.38
425.178	665.38
425.401	639.38
425.623	681.38
425.846	622.38
426.068	592.38
426.291	574.38
426.513	578.38
426.735	565.38
426.958	596.38
427.18	667.38
427.402	755.38
427.625	853.38
427.847	717.38
428.069	638.38
428.292	605.38
428.514	550.38
428.736	533.38
428.958	539.38
429.181	527.38
429.403	499.38
429.625	518.38
429.847	561.38
430.069	597.38
430.292	577.38
430.514	551.38
430.736	508.38
430.958	499.38
431.18	508.38
431.402	493.38
431.624	501.38
431.846	492.38
432.068	499.38
432.29	513.38
432.512	519.38
432.734	530.38
432.956	506.38
433.178	516.38
433.4	537.38
433.622	519.38
433.844	507.38
434.066	522.38
434.287	513.38
434.509	498.38
434.731	549.38
434.953	543.38
435.175	558.38
435.397	572.38
435.618	574.38
435.84	599.38
436.062	648.38
436.284	705.38
436.505	616.38
436.727	566.38
436.949	520.38
437.17	517.38
437.392	510.38
437.614	518.38
437.835	538.38
438.057	609.38
438.278	695.38
438.5	709.38
438.721	764.38
438.943	731.38
439.165	606.38
439.386	553.38
439.608	567.38
439.829	561.38
440.05	563.38
440.272	574.38
440.493	566.38
440.715	556.38
440.936	543.38
441.158	545.38
441.379	547.38
441.6	556.38
441.822	581.38
442.043	587.38
442.264	637.38
442.486	688.38
442.707	597.38
442.928	585.38
443.149	562.38
443.371	578.38
443.592	626.38
443.813	701.38
444.034	762.38
444.255	641.38
444.476	603.38
444.698	606.38
444.919	593.38
445.14	723.38
445.361	676.38
445.582	616.38
445.803	635.38
446.024	719.38
446.245	711.38
446.466	662.38
446.687	583.38
446.908	549.38
447.129	539.38
447.35	491.38
447.571	525.38
447.792	497.38
448.013	500.38
448.234	518.38
448.455	552.38
448.675	669.38
448.896	733.38
449.117	632.38
449.338	607.38
449.559	697.38
449.779	753.38
450	644.38
450.221	532.38
450.442	508.38
450.662	493.38
450.883	502.38
451.104	491.38
451.324	515.38
451.545	503.38
451.766	473.38
451.986	476.38
452.207	465.38
452.428	456.38
452.648	458.38
452.869	443.38
453.089	478.38
453.31	449.38
453.53	471.38
453.751	464.38
453.971	461.38
454.192	471.38
454.412	466.38
454.633	439.38
454.853	463.38
455.073	443.38
455.294	477.38
455.514	533.38
455.734	527.38
455.955	453.38
456.175	431.38
456.395	447.38
456.616	455.38
456.836	446.38
457.056	433.38
457.276	399.38
457.497	446.38
457.717	443.38
457.937	438.38
458.157	446.38
458.377	464.38
458.598	467.38
458.818	510.38
459.038	578.38
459.258	587.38
459.478	548.38
459.698	521.38
459.918	532.38
460.138	515.38
460.358	541.38
460.578	541.38
460.798	539.38
461.018	547.38
461.238	557.38
461.458	540.38
461.678	538.38
461.898	550.38
462.118	539.38
462.338	557.38
462.558	595.38
462.777	555.38
462.997	592.38
463.217	628.38
463.437	641.38
463.657	597.38
463.876	590.38
464.096	587.38
464.316	595.38
464.536	599.38
464.755	605.38
464.975	577.38
465.195	609.38
465.414	613.38
465.634	565.38
465.854	526.38
466.073	519.38
466.293	493.38
466.512	497.38
466.732	476.38
466.951	463.38
467.171	473.38
467.391	489.38
467.61	488.38
467.829	477.38
468.049	484.38
468.268	480.38
468.488	463.38
468.707	456.38
468.927	491.38
469.146	474.38
469.365	471.38
469.585	463.38
469.804	506.38
470.023	517.38
470.243	499.38
470.462	502.38
470.681	510.38
470.901	506.38
471.12	483.38
471.339	492.38
471.558	476.38
471.777	497.38
471.997	471.38
472.216	478.38
472.435	505.38
472.654	473.38
472.873	480.38
473.092	481.38
473.311	458.38
473.53	489.38
473.749	470.38
473.968	493.38
474.187	585.38
474.406	611.38
474.625	523.38
474.844	479.38
475.063	490.38
475.282	510.38
475.501	468.38
475.72	485.38
475.939	490.38
476.158	485.38
476.377	480.38
476.596	470.38
476.814	520.38
477.033	514.38
477.252	522.38
477.471	517.38
477.69	517.38
477.908	539.38
478.127	534.38
478.346	539.38
478.564	539.38
478.783	550.38
479.002	558.38
479.22	566.38
479.439	574.38
479.658	569.38
479.876	567.38
480.095	586.38
480.313	621.38
480.532	630.38
480.751	615.38
480.969	602.38
481.188	615.38
481.406	633.38
481.624	601.38
481.843	573.38
482.061	572.38
482.28	546.38
482.498	543.38
482.717	541.38
482.935	568.38
483.153	565.38
483.372	540.38
483.59	544.38
483.808	541.38
484.027	541.38
484.245	557.38
484.463	570.38
484.681	561.38
484.9	578.38
485.118	577.38
485.336	605.38
485.554	564.38
485.772	604.38
485.99	574.38
486.209	597.38
486.427	604.38
486.645	574.38
486.863	597.38
487.081	581.38
487.299	584.38
487.517	596.38
487.735	592.38
487.953	579.38
488.171	584.38
488.389	564.38
488.607	600.38
488.825	581.38
489.043	585.38
489.261	611.38
489.479	595.38
489.696	613.38
489.914	604.38
490.132	611.38
490.35	633.38
490.568	616.38
490.786	617.38
491.003	622.38
491.221	612.38
491.439	650.38
491.657	639.38
491.874	644.38
492.092	641.38
492.31	673.38
492.527	658.38
492.745	667.38
492.963	674.38
493.18	663.38
493.398	653.38
493.615	683.38
493.833	654.38
494.05	661.38
494.268	665.38
494.485	681.38
494.703	680.38
494.92	677.38
495.138	692.38
495.355	681.38
495.573	701.38
495.79	675.38
496.008	707.38
496.225	693.38
496.442	686.38
496.66	691.38
496.877	701.38
497.094	691.38
497.312	689.38
497.529	719.38
497.746	759.38
497.963	775.38
498.181	779.38
498.398	799.38
498.615	795.38
498.832	841.38
499.049	866.38
499.267	918.38
499.484	921.38
499.701	1001.38
499.918	1059.38
500.135	1088.38
500.352	1219.38
500.569	1233.38
500.786	1247.38
501.003	1186.38
501.22	1108.38
501.437	1075.38
501.654	1003.38
501.871	991.38
502.088	912.38
502.305	867.38
502.522	865.38
502.739	822.38
502.956	795.38
503.172	783.38
503.389	782.38
503.606	782.38
503.823	753.38
504.04	750.38
504.256	730.38
504.473	747.38
504.69	699.38
504.907	761.38
505.123	713.38
505.34	712.38
505.557	698.38
505.773	693.38
505.99	664.38
506.207	659.38
506.423	680.38
506.64	648.38
506.856	607.38
507.073	625.38
507.289	605.38
507.506	640.38
507.722	640.38
507.939	632.38
508.155	628.38
508.372	585.38
508.588	623.38
508.805	593.38
509.021	621.38
509.238	632.38
509.454	619.38
509.67	599.38
509.887	599.38
510.103	603.38
510.319	609.38
510.536	641.38
510.752	894.38
510.968	785.38
511.184	600.38
511.401	574.38
511.617	582.38
511.833	571.38
512.049	600.38
512.265	583.38
512.481	571.38
512.698	587.38
512.914	569.38
513.13	582.38
513.346	561.38
513.562	579.38
513.778	539.38
513.994	573.38
514.21	600.38
514.426	575.38
514.642	630.38
514.858	614.38
515.074	631.38
515.29	708.38
515.506	883.38
515.721	773.38
515.937	622.38
516.153	615.38
516.369	601.38
516.585	656.38
516.801	619.38
517.016	632.38
517.232	650.38
517.448	613.38
517.664	640.38
517.879	657.38
518.095	650.38
518.311	648.38
518.527	622.38
518.742	629.38
518.958	621.38
519.173	610.38
519.389	619.38
519.605	573.38
519.82	589.38
520.036	604.38
520.251	584.38
520.467	600.38
520.682	595.38
520.898	620.38
521.113	613.38
521.329	615.38
521.544	653.38
521.76	726.38
521.975	975.38
522.19	983.38
522.406	674.38
522.621	585.38
522.836	545.38
523.052	579.38
523.267	551.38
523.482	551.38
523.698	537.38
523.913	523.38
524.128	521.38
524.343	511.38
524.559	498.38
524.774	487.38
524.989	498.38
525.204	515.38
525.419	497.38
525.634	478.38
525.849	480.38
526.064	486.38
526.28	500.38
526.495	474.38
526.71	483.38
526.925	513.38
527.14	462.38
527.355	487.38
527.57	493.38
527.785	474.38
527.999	481.38
528.214	485.38
528.429	500.38
528.644	475.38
528.859	467.38
529.074	486.38
529.289	486.38
529.503	522.38
529.718	522.38
529.933	484.38
530.148	507.38
530.363	497.38
530.577	473.38
530.792	451.38
531.007	474.38
531.221	489.38
531.436	472.38
531.651	472.38
531.865	467.38
532.08	471.38
532.295	448.38
532.509	463.38
532.724	469.38
532.938	462.38
533.153	470.38
533.367	461.38
533.582	462.38
533.796	473.38
534.011	452.38
534.225	440.38
534.44	460.38
534.654	491.38
534.868	488.38
535.083	469.38
535.297	468.38
535.511	478.38
535.726	490.38
535.94	459.38
536.154	458.38
536.369	456.38
536.583	427.38
536.797	475.38
537.011	456.38
537.225	453.38
537.44	454.38
537.654	457.38
537.868	459.38
538.082	443.38
538.296	446.38
538.51	445.38
538.724	451.38
538.938	440.38
539.153	444.38
539.367	436.38
539.581	426.38
539.795	433.38
540.009	437.38
540.222	437.38
540.436	450.38
540.65	435.38
540.864	454.38
541.078	449.38
541.292	443.38
541.506	452.38
541.72	459.38
541.934	440.38
542.147	435.38
542.361	444.38
542.575	437.38
542.789	442.38
543.002	447.38
543.216	447.38
543.43	447.38
543.644	478.38
543.857	459.38
544.071	448.38
544.285	439.38
544.498	432.38
544.712	445.38
544.925	445.38
545.139	419.38
545.352	417.38
545.566	456.38
545.779	453.38
545.993	443.38
546.206	465.38
546.42	459.38
546.633	450.38
546.847	450.38
547.06	423.38
547.274	427.38
547.487	441.38
547.7	443.38
547.914	422.38
548.127	444.38
548.34	425.38
548.554	430.38
548.767	434.38
548.98	447.38
549.193	439.38
549.407	438.38
549.62	445.38
549.833	447.38
550.046	461.38
550.259	466.38
550.473	417.38
550.686	446.38
550.899	425.38
551.112	441.38
551.325	418.38
551.538	435.38
551.751	434.38
551.964	420.38
552.177	461.38
552.39	452.38
552.603	464.38
552.816	459.38
553.029	461.38
553.242	452.38
553.455	473.38
553.667	462.38
553.88	449.38
554.093	468.38
554.306	450.38
554.519	437.38
554.732	426.38
554.944	433.38
555.157	419.38
555.37	438.38
555.583	445.38
555.795	417.38
556.008	438.38
556.221	409.38
556.433	405.38
556.646	407.38
556.859	425.38
557.071	393.38
557.284	389.38
557.496	396.38
557.709	393.38
557.921	385.38
558.134	392.38
558.346	402.38
558.559	403.38
558.771	408.38
558.984	382.38
559.196	390.38
559.409	385.38
559.621	403.38
559.833	378.38
560.046	360.38
560.258	385.38
560.47	384.38
560.683	383.38
560.895	384.38
561.107	406.38
561.32	365.38
561.532	381.38
561.744	395.38
561.956	363.38
562.168	389.38
562.381	389.38
562.593	403.38
562.805	401.38
563.017	396.38
563.229	404.38
563.441	397.38
563.653	405.38
563.865	396.38
564.077	399.38
564.289	397.38
564.501	423.38
564.713	426.38
564.925	394.38
565.137	446.38
565.349	439.38
565.561	431.38
565.773	451.38
565.985	474.38
566.197	470.38
566.408	489.38
566.62	515.38
566.832	531.38
567.044	548.38
567.255	555.38
567.467	554.38
567.679	547.38
567.891	576.38
568.102	599.38
568.314	567.38
568.526	547.38
568.737	513.38
568.949	505.38
569.161	460.38
569.372	450.38
569.584	433.38
569.795	439.38
570.007	421.38
570.218	421.38
570.43	425.38
570.641	412.38
570.853	395.38
571.064	443.38
571.276	403.38
571.487	404.38
571.698	375.38
571.91	379.38
572.121	369.38
572.333	374.38
572.544	388.38
572.755	385.38
572.966	374.38
573.178	353.38
573.389	353.38
573.6	334.38
573.811	346.38
574.023	343.38
574.234	360.38
574.445	342.38
574.656	345.38
574.867	344.38
575.078	329.38
575.289	382.38
575.501	331.38
575.712	319.38
575.923	338.38
576.134	337.38
576.345	334.38
576.556	329.38
576.767	320.38
576.978	341.38
577.188	338.38
577.399	324.38
577.61	361.38
577.821	317.38
578.032	323.38
578.243	338.38
578.454	432.38
578.665	377.38
578.875	334.38
579.086	329.38
579.297	318.38
579.508	314.38
579.718	316.38
579.929	299.38
580.14	314.38
580.35	323.38
580.561	313.38
580.772	307.38
580.982	315.38
581.193	321.38
581.403	306.38
581.614	292.38
581.825	329.38
582.035	312.38
582.246	289.38
582.456	305.38
582.667	312.38
582.877	311.38
583.087	315.38
583.298	299.38
583.508	315.38
583.719	298.38
583.929	290.38
584.139	313.38
584.35	315.38
584.56	313.38
584.77	330.38
584.981	310.38
585.191	325.38
585.401	296.38
585.611	288.38
585.821	302.38
586.032	306.38
586.242	307.38
586.452	297.38
586.662	294.38
586.872	295.38
587.082	298.38
587.292	287.38
587.502	302.38
587.713	315.38
587.923	306.38
588.133	310.38
588.343	305.38
588.553	302.38
588.762	300.38
588.972	276.38
589.182	326.38
589.392	321.38
589.602	286.38
589.812	302.38
590.022	302.38
590.232	284.38
590.441	291.38
590.651	311.38
590.861	291.38
591.071	285.38
591.281	289.38
591.49	303.38
591.7	310.38
591.91	322.38
592.119	318.38
592.329	317.38
592.539	314.38
592.748	345.38
592.958	325.38
593.167	333.38
593.377	342.38
593.587	350.38
593.796	334.38
594.006	333.38
594.215	351.38
594.424	330.38
594.634	332.38
594.843	334.38
595.053	332.38
595.262	341.38
595.472	307.38
595.681	327.38
595.89	302.38
596.1	305.38
596.309	312.38
596.518	298.38
596.727	292.38
596.937	289.38
597.146	266.38
597.355	275.38
597.564	280.38
597.774	283.38
597.983	283.38
598.192	290.38
598.401	271.38
598.61	280.38
598.819	282.38
599.028	279.38
599.237	284.38
599.446	268.38
599.655	271.38
599.864	261.38
600.073	253.38
600.282	268.38
600.491	238.38
600.7	265.38
600.909	262.38
601.118	271.38
601.327	267.38
601.536	263.38
601.745	271.38
601.953	267.38
602.162	273.38
602.371	244.38
602.58	257.38
602.789	242.38
602.997	236.38
603.206	257.38
603.415	229.38
603.623	246.38
603.832	257.38
604.041	252.38
604.249	265.38
604.458	250.38
604.666	232.38
604.875	252.38
605.084	260.38
605.292	243.38
605.501	246.38
605.709	232.38
605.918	255.38
606.126	253.38
606.334	244.38
606.543	255.38
606.751	261.38
606.96	234.38
607.168	235.38
607.376	246.38
607.585	246.38
607.793	235.38
608.001	241.38
608.21	227.38
608.418	253.38
608.626	243.38
608.834	231.38
609.043	251.38
609.251	234.38
609.459	259.38
609.667	248.38
609.875	237.38
610.083	237.38
610.291	247.38
610.499	215.38
610.707	259.38
610.916	243.38
611.124	252.38
611.332	253.38
611.54	252.38
611.748	227.38
611.955	216.38
612.163	247.38
612.371	235.38
612.579	240.38
612.787	241.38
612.995	244.38
613.203	229.38
613.411	222.38
613.618	232.38
613.826	234.38
614.034	239.38
614.242	240.38
614.449	234.38
614.657	237.38
614.865	249.38
615.072	246.38
615.28	224.38
615.488	246.38
615.695	241.38
615.903	230.38
616.111	233.38
616.318	236.38
616.526	227.38
616.733	225.38
616.941	242.38
617.148	215.38
617.356	222.38
617.563	232.38
617.771	235.38
617.978	224.38
618.185	245.38
618.393	231.38
618.6	243.38
618.807	221.38
619.015	236.38
619.222	241.38
619.429	228.38
619.637	217.38
619.844	233.38
620.051	236.38
620.258	225.38
620.466	236.38
620.673	218.38
620.88	205.38
621.087	212.38
621.294	211.38
621.501	217.38
621.708	228.38
621.915	243.38
622.122	225.38
622.329	206.38
622.536	206.38
622.743	211.38
622.95	219.38
623.157	217.38
623.364	217.38
623.571	215.38
623.778	223.38
623.985	210.38
624.192	230.38
624.399	209.38
624.606	215.38
624.812	201.38
625.019	215.38
625.226	215.38
625.433	201.38
625.639	216.38
625.846	213.38
626.053	225.38
626.259	229.38
626.466	213.38
626.673	206.38
626.879	218.38
627.086	233.38
627.293	197.38
627.499	203.38
627.706	205.38
627.912	210.38
628.119	195.38
628.325	199.38
628.532	199.38
628.738	226.38
628.945	199.38
629.151	187.38
629.357	190.38
629.564	214.38
629.77	210.38
629.976	191.38
630.183	202.38
630.389	207.38
630.595	191.38
630.802	199.38
631.008	195.38
631.214	186.38
631.42	193.38
631.627	194.38
631.833	202.38
632.039	198.38
632.245	198.38
632.451	194.38
632.657	182.38
632.863	196.38
633.069	200.38
633.275	195.38
633.481	195.38
633.688	189.38
633.893	183.38
634.099	187.38
634.305	191.38
634.511	189.38
634.717	198.38
634.923	197.38
635.129	191.38
635.335	186.38
635.541	193.38
635.747	169.38
635.952	176.38
636.158	181.38
636.364	182.38
636.57	182.38
636.775	195.38
636.981	169.38
637.187	182.38
637.392	183.38
637.598	172.38
637.804	194.38
638.009	172.38
638.215	171.38
638.421	167.38
638.626	163.38
638.832	164.38
639.037	186.38
639.243	185.38
639.448	176.38
639.654	165.38
639.859	168.38
640.065	181.38
640.27	174.38
640.475	159.38
640.681	185.38
640.886	171.38
641.091	170.38
641.297	164.38
641.502	162.38
641.707	168.38
641.913	179.38
642.118	172.38
642.323	166.38
642.528	177.38
642.733	172.38
642.939	179.38
643.144	174.38
643.349	172.38
643.554	174.38
643.759	169.38
643.964	153.38
644.169	166.38
644.374	158.38
644.579	161.38
644.784	161.38
644.989	184.38
645.194	174.38
645.399	167.38
645.604	159.38
645.809	161.38
646.014	176.38
646.219	153.38
646.423	178.38
646.628	177.38
646.833	168.38
647.038	164.38
647.243	188.38
647.447	174.38
647.652	194.38
647.857	173.38
648.062	174.38
648.266	177.38
648.471	167.38
648.676	181.38
648.88	172.38
649.085	174.38
649.289	164.38
649.494	175.38
649.698	179.38
649.903	179.38
650.107	176.38
650.312	175.38
650.516	147.38
650.721	152.38
650.925	167.38
651.13	147.38
651.334	150.38
651.539	163.38
651.743	168.38
651.947	151.38
652.152	147.38
652.356	146.38
652.56	142.38
652.764	139.38
652.969	147.38
653.173	137.38
653.377	142.38
653.581	147.38
653.785	129.38
653.99	148.38
654.194	130.38
654.398	159.38
654.602	153.38
654.806	148.38
655.01	130.38
655.214	149.38
655.418	134.38
655.622	120.38
655.826	151.38
656.03	133.38
656.234	135.38
656.438	150.38
656.642	131.38
656.846	148.38
657.049	132.38
657.253	122.38
657.457	123.38
657.661	133.38
657.865	122.38
658.068	110.38
658.272	110.38
658.476	118.38
658.68	120.38
658.883	125.38
659.087	118.38
659.291	113.38
659.494	101.38
659.698	101.38
659.901	101.38
660.105	87.38
660.309	89.38
660.512	99.38
660.716	98.38
660.919	94.38
661.123	102.38
661.326	93.38
661.53	93.38
661.733	87.38
661.936	92.38
662.14	84.38
662.343	90.38
662.546	91.38
662.75	83.38
662.953	101.38
663.156	84.38
663.36	98.38
663.563	98.38
663.766	88.38
663.969	93.38
664.173	88.38
664.376	76.38
664.579	95.38
664.782	82.38
664.985	70.38
665.188	78.38
665.391	82.38
665.594	92.38
665.797	105.38
666	88.38
666.203	91.38
666.406	77.38
666.609	85.38
666.812	76.38
667.015	69.38
667.218	87.38
667.421	97.38
667.624	85.38
667.827	86.38
668.03	69.38
668.232	83.38
668.435	82.38
668.638	83.38
668.841	88.38
669.043	73.38
669.246	89.38
669.449	94.38
669.651	87.38
669.854	81.38
670.057	82.38
670.259	87.38
670.462	76.38
670.665	91.38
670.867	88.38
671.07	90.38
671.272	92.38
671.475	104.38
671.677	87.38
671.88	77.38
672.082	84.38
672.284	94.38
672.487	88.38
672.689	74.38
672.892	99.38
