Data from 1962.PennyLincolnUp.Lamp.En5.5.200Scan.071719.P1._HRD10591_13-54-48-061.txt Node
Date: Thu Jul 18 13:54:48 EDT 2019
User: cochatt
Spectrometer: HR+D1059
Trigger mode: 1
Integration Time (sec): 1.000000E-1
Scans to average: 1
Electric dark correction enabled: true
Nonlinearity correction enabled: false
Boxcar width: 0
XAxis mode: Wavelengths
Number of Pixels in Spectrum: 2048
>>>>>Begin Spectral Data<<<<<
223.165	-13.12
223.4	-13.12
223.635	-13.12
223.869	-16.12
224.104	-27.12
224.338	-23.12
224.573	-7.12
224.808	-22.12
225.042	-8.12
225.277	-11.12
225.511	-0.12
225.746	-2.12
225.98	15.88
226.215	22.88
226.449	13.88
226.683	24.88
226.918	30.88
227.152	21.88
227.387	32.88
227.621	30.88
227.856	34.88
228.09	37.88
228.324	48.88
228.559	49.88
228.793	51.88
229.027	100.88
229.262	97.88
229.496	100.88
229.73	113.88
229.964	127.88
230.199	117.88
230.433	103.88
230.667	98.88
230.901	103.88
231.136	99.88
231.37	95.88
231.604	95.88
231.838	110.88
232.072	106.88
232.306	98.88
232.541	109.88
232.775	113.88
233.009	104.88
233.243	120.88
233.477	113.88
233.711	112.88
233.945	119.88
234.179	95.88
234.413	107.88
234.647	110.88
234.881	100.88
235.115	109.88
235.349	109.88
235.583	109.88
235.817	101.88
236.051	112.88
236.285	105.88
236.519	109.88
236.753	115.88
236.987	123.88
237.221	138.88
237.455	186.88
237.689	163.88
237.922	126.88
238.156	118.88
238.39	119.88
238.624	116.88
238.858	114.88
239.091	106.88
239.325	122.88
239.559	111.88
239.793	115.88
240.027	127.88
240.26	138.88
240.494	125.88
240.728	131.88
240.961	131.88
241.195	130.88
241.429	121.88
241.662	111.88
241.896	128.88
242.13	127.88
242.363	124.88
242.597	120.88
242.83	135.88
243.064	123.88
243.298	124.88
243.531	125.88
243.765	119.88
243.998	115.88
244.232	127.88
244.465	137.88
244.699	125.88
244.932	127.88
245.166	159.88
245.399	142.88
245.633	120.88
245.866	131.88
246.099	143.88
246.333	154.88
246.566	140.88
246.8	146.88
247.033	134.88
247.266	147.88
247.5	151.88
247.733	147.88
247.966	154.88
248.2	154.88
248.433	146.88
248.666	162.88
248.899	153.88
249.133	165.88
249.366	156.88
249.599	164.88
249.832	180.88
250.066	161.88
250.299	149.88
250.532	169.88
250.765	187.88
250.998	183.88
251.231	186.88
251.465	190.88
251.698	169.88
251.931	177.88
252.164	177.88
252.397	182.88
252.63	177.88
252.863	165.88
253.096	191.88
253.329	173.88
253.562	191.88
253.795	197.88
254.028	203.88
254.261	205.88
254.494	213.88
254.727	211.88
254.96	223.88
255.193	226.88
255.426	219.88
255.659	212.88
255.892	201.88
256.124	198.88
256.357	196.88
256.59	201.88
256.823	189.88
257.056	198.88
257.289	194.88
257.521	189.88
257.754	188.88
257.987	194.88
258.22	202.88
258.452	192.88
258.685	170.88
258.918	189.88
259.151	173.88
259.383	199.88
259.616	192.88
259.849	199.88
260.081	216.88
260.314	214.88
260.547	229.88
260.779	216.88
261.012	214.88
261.244	208.88
261.477	215.88
261.71	218.88
261.942	208.88
262.175	206.88
262.407	200.88
262.64	186.88
262.872	201.88
263.105	212.88
263.337	207.88
263.57	208.88
263.802	193.88
264.035	207.88
264.267	195.88
264.499	199.88
264.732	198.88
264.964	200.88
265.197	221.88
265.429	211.88
265.661	191.88
265.894	221.88
266.126	202.88
266.358	192.88
266.591	220.88
266.823	215.88
267.055	205.88
267.287	217.88
267.52	216.88
267.752	223.88
267.984	218.88
268.216	219.88
268.448	219.88
268.681	240.88
268.913	253.88
269.145	257.88
269.377	255.88
269.609	249.88
269.841	258.88
270.073	258.88
270.306	257.88
270.538	273.88
270.77	263.88
271.002	280.88
271.234	279.88
271.466	271.88
271.698	290.88
271.93	296.88
272.162	277.88
272.394	283.88
272.626	281.88
272.858	256.88
273.09	242.88
273.322	276.88
273.553	253.88
273.785	257.88
274.017	250.88
274.249	253.88
274.481	255.88
274.713	247.88
274.945	264.88
275.176	283.88
275.408	260.88
275.64	247.88
275.872	256.88
276.104	267.88
276.335	258.88
276.567	261.88
276.799	264.88
277.031	284.88
277.262	303.88
277.494	291.88
277.726	293.88
277.957	286.88
278.189	278.88
278.421	247.88
278.652	249.88
278.884	269.88
279.115	261.88
279.347	260.88
279.579	280.88
279.81	279.88
280.042	260.88
280.273	257.88
280.505	274.88
280.736	277.88
280.968	261.88
281.199	263.88
281.431	262.88
281.662	268.88
281.894	275.88
282.125	245.88
282.356	265.88
282.588	313.88
282.819	288.88
283.051	295.88
283.282	288.88
283.513	280.88
283.745	277.88
283.976	261.88
284.207	281.88
284.439	281.88
284.67	286.88
284.901	284.88
285.132	290.88
285.364	265.88
285.595	302.88
285.826	271.88
286.057	282.88
286.288	313.88
286.52	295.88
286.751	280.88
286.982	294.88
287.213	281.88
287.444	296.88
287.675	290.88
287.906	303.88
288.138	306.88
288.369	313.88
288.6	319.88
288.831	294.88
289.062	295.88
289.293	312.88
289.524	293.88
289.755	280.88
289.986	303.88
290.217	284.88
290.448	293.88
290.679	305.88
290.91	291.88
291.141	289.88
291.371	296.88
291.602	305.88
291.833	293.88
292.064	302.88
292.295	309.88
292.526	295.88
292.757	307.88
292.987	282.88
293.218	297.88
293.449	305.88
293.68	295.88
293.91	318.88
294.141	299.88
294.372	304.88
294.603	306.88
294.833	293.88
295.064	308.88
295.295	297.88
295.525	293.88
295.756	295.88
295.987	294.88
296.217	314.88
296.448	329.88
296.679	307.88
296.909	294.88
297.14	301.88
297.37	312.88
297.601	306.88
297.831	313.88
298.062	310.88
298.292	322.88
298.523	307.88
298.753	296.88
298.984	311.88
299.214	294.88
299.445	313.88
299.675	330.88
299.905	324.88
300.136	323.88
300.366	323.88
300.597	329.88
300.827	329.88
301.057	336.88
301.288	342.88
301.518	335.88
301.748	331.88
301.979	324.88
302.209	319.88
302.439	316.88
302.669	339.88
302.9	326.88
303.13	333.88
303.36	315.88
303.59	304.88
303.82	352.88
304.051	345.88
304.281	330.88
304.511	363.88
304.741	327.88
304.971	325.88
305.201	331.88
305.431	315.88
305.661	343.88
305.891	336.88
306.121	327.88
306.352	321.88
306.582	354.88
306.812	319.88
307.042	338.88
307.272	337.88
307.502	306.88
307.731	342.88
307.961	327.88
308.191	350.88
308.421	327.88
308.651	342.88
308.881	342.88
309.111	328.88
309.341	346.88
309.571	340.88
309.8	349.88
310.03	364.88
310.26	368.88
310.49	344.88
310.72	358.88
310.949	363.88
311.179	367.88
311.409	355.88
311.639	389.88
311.868	360.88
312.098	359.88
312.328	369.88
312.557	365.88
312.787	372.88
313.017	376.88
313.246	363.88
313.476	369.88
313.706	377.88
313.935	380.88
314.165	374.88
314.394	374.88
314.624	375.88
314.853	375.88
315.083	377.88
315.312	392.88
315.542	375.88
315.771	377.88
316.001	373.88
316.23	374.88
316.46	350.88
316.689	351.88
316.919	359.88
317.148	391.88
317.377	394.88
317.607	365.88
317.836	387.88
318.065	384.88
318.295	377.88
318.524	382.88
318.753	369.88
318.983	365.88
319.212	378.88
319.441	357.88
319.67	382.88
319.9	385.88
320.129	373.88
320.358	386.88
320.587	371.88
320.816	374.88
321.046	383.88
321.275	385.88
321.504	362.88
321.733	379.88
321.962	385.88
322.191	399.88
322.42	411.88
322.649	403.88
322.878	408.88
323.108	407.88
323.337	429.88
323.566	443.88
323.795	457.88
324.024	463.88
324.253	548.88
324.482	710.88
324.71	1057.88
324.939	1484.88
325.168	1291.88
325.397	719.88
325.626	523.88
325.855	491.88
326.084	450.88
326.313	461.88
326.542	451.88
326.77	500.88
326.999	523.88
327.228	667.88
327.457	951.88
327.686	1165.88
327.914	792.88
328.143	566.88
328.372	520.88
328.6	474.88
328.829	494.88
329.058	472.88
329.287	494.88
329.515	458.88
329.744	451.88
329.972	456.88
330.201	475.88
330.43	487.88
330.658	508.88
330.887	529.88
331.115	509.88
331.344	469.88
331.572	448.88
331.801	472.88
332.03	454.88
332.258	459.88
332.486	453.88
332.715	452.88
332.943	466.88
333.172	459.88
333.4	479.88
333.629	478.88
333.857	499.88
334.085	481.88
334.314	513.88
334.542	506.88
334.771	516.88
334.999	497.88
335.227	473.88
335.455	469.88
335.684	461.88
335.912	473.88
336.14	461.88
336.369	473.88
336.597	463.88
336.825	446.88
337.053	444.88
337.281	434.88
337.51	431.88
337.738	448.88
337.966	453.88
338.194	461.88
338.422	441.88
338.65	455.88
338.878	422.88
339.106	427.88
339.334	451.88
339.562	427.88
339.79	437.88
340.018	422.88
340.246	411.88
340.474	433.88
340.702	415.88
340.93	433.88
341.158	424.88
341.386	417.88
341.614	408.88
341.842	413.88
342.07	427.88
342.298	426.88
342.526	426.88
342.754	420.88
342.981	411.88
343.209	434.88
343.437	446.88
343.665	441.88
343.893	469.88
344.12	449.88
344.348	469.88
344.576	422.88
344.804	421.88
345.031	436.88
345.259	447.88
345.487	441.88
345.714	438.88
345.942	405.88
346.17	391.88
346.397	405.88
346.625	403.88
346.853	417.88
347.08	429.88
347.308	407.88
347.535	418.88
347.763	409.88
347.99	429.88
348.218	388.88
348.445	405.88
348.673	418.88
348.9	401.88
349.128	393.88
349.355	411.88
349.583	395.88
349.81	403.88
350.037	408.88
350.265	400.88
350.492	398.88
350.72	401.88
350.947	395.88
351.174	409.88
351.402	409.88
351.629	424.88
351.856	410.88
352.083	404.88
352.311	405.88
352.538	409.88
352.765	408.88
352.992	417.88
353.22	393.88
353.447	392.88
353.674	400.88
353.901	395.88
354.128	393.88
354.355	389.88
354.583	403.88
354.81	375.88
355.037	389.88
355.264	383.88
355.491	384.88
355.718	372.88
355.945	384.88
356.172	393.88
356.399	388.88
356.626	392.88
356.853	391.88
357.08	398.88
357.307	404.88
357.534	374.88
357.761	395.88
357.988	383.88
358.215	380.88
358.441	382.88
358.668	389.88
358.895	382.88
359.122	377.88
359.349	401.88
359.576	407.88
359.802	404.88
360.029	406.88
360.256	418.88
360.483	429.88
360.709	418.88
360.936	395.88
361.163	391.88
361.39	409.88
361.616	409.88
361.843	413.88
362.07	406.88
362.296	395.88
362.523	392.88
362.749	386.88
362.976	418.88
363.203	384.88
363.429	394.88
363.656	388.88
363.882	406.88
364.109	396.88
364.335	388.88
364.562	403.88
364.788	394.88
365.015	390.88
365.241	394.88
365.468	390.88
365.694	398.88
365.92	384.88
366.147	402.88
366.373	390.88
366.599	385.88
366.826	362.88
367.052	382.88
367.278	389.88
367.505	383.88
367.731	401.88
367.957	413.88
368.184	406.88
368.41	413.88
368.636	384.88
368.862	392.88
369.089	401.88
369.315	390.88
369.541	395.88
369.767	404.88
369.993	393.88
370.219	392.88
370.445	418.88
370.672	403.88
370.898	384.88
371.124	393.88
371.35	411.88
371.576	392.88
371.802	401.88
372.028	403.88
372.254	386.88
372.48	392.88
372.706	413.88
372.932	421.88
373.158	417.88
373.384	405.88
373.61	416.88
373.835	413.88
374.061	424.88
374.287	416.88
374.513	422.88
374.739	421.88
374.965	399.88
375.191	422.88
375.416	421.88
375.642	418.88
375.868	424.88
376.094	409.88
376.319	408.88
376.545	405.88
376.771	423.88
376.997	419.88
377.222	396.88
377.448	409.88
377.674	409.88
377.899	391.88
378.125	390.88
378.35	403.88
378.576	422.88
378.802	390.88
379.027	398.88
379.253	395.88
379.478	413.88
379.704	399.88
379.929	388.88
380.155	400.88
380.38	407.88
380.606	396.88
380.831	390.88
381.057	426.88
381.282	407.88
381.507	398.88
381.733	409.88
381.958	390.88
382.184	418.88
382.409	409.88
382.634	401.88
382.86	426.88
383.085	441.88
383.31	401.88
383.535	411.88
383.761	431.88
383.986	430.88
384.211	446.88
384.436	451.88
384.662	432.88
384.887	447.88
385.112	457.88
385.337	450.88
385.562	450.88
385.787	444.88
386.013	446.88
386.238	460.88
386.463	457.88
386.688	472.88
386.913	447.88
387.138	442.88
387.363	454.88
387.588	487.88
387.813	467.88
388.038	449.88
388.263	450.88
388.488	462.88
388.713	460.88
388.938	447.88
389.163	438.88
389.387	480.88
389.612	452.88
389.837	453.88
390.062	440.88
390.287	465.88
390.512	456.88
390.736	447.88
390.961	456.88
391.186	454.88
391.411	469.88
391.636	477.88
391.86	480.88
392.085	480.88
392.31	511.88
392.534	482.88
392.759	482.88
392.984	461.88
393.208	471.88
393.433	471.88
393.658	480.88
393.882	455.88
394.107	474.88
394.331	457.88
394.556	482.88
394.78	482.88
395.005	499.88
395.229	467.88
395.454	488.88
395.678	501.88
395.903	494.88
396.127	508.88
396.352	490.88
396.576	466.88
396.801	477.88
397.025	490.88
397.249	486.88
397.474	502.88
397.698	497.88
397.922	490.88
398.147	520.88
398.371	514.88
398.595	522.88
398.82	549.88
399.044	562.88
399.268	580.88
399.492	630.88
399.717	667.88
399.941	697.88
400.165	662.88
400.389	675.88
400.613	614.88
400.837	584.88
401.062	549.88
401.286	587.88
401.51	545.88
401.734	542.88
401.958	558.88
402.182	565.88
402.406	546.88
402.63	542.88
402.854	565.88
403.078	561.88
403.302	563.88
403.526	571.88
403.75	581.88
403.974	579.88
404.198	570.88
404.422	591.88
404.645	593.88
404.869	589.88
405.093	600.88
405.317	639.88
405.541	671.88
405.765	615.88
405.988	615.88
406.212	591.88
406.436	594.88
406.66	613.88
406.883	603.88
407.107	632.88
407.331	681.88
407.555	734.88
407.778	726.88
408.002	682.88
408.226	637.88
408.449	623.88
408.673	630.88
408.896	631.88
409.12	671.88
409.344	619.88
409.567	585.88
409.791	581.88
410.014	585.88
410.238	565.88
410.461	561.88
410.685	558.88
410.908	574.88
411.132	606.88
411.355	609.88
411.578	602.88
411.802	561.88
412.025	554.88
412.249	567.88
412.472	582.88
412.695	614.88
412.919	598.88
413.142	566.88
413.365	553.88
413.589	566.88
413.812	542.88
414.035	536.88
414.258	533.88
414.482	536.88
414.705	535.88
414.928	530.88
415.151	535.88
415.374	531.88
415.597	513.88
415.821	527.88
416.044	510.88
416.267	529.88
416.49	525.88
416.713	504.88
416.936	530.88
417.159	522.88
417.382	507.88
417.605	530.88
417.828	531.88
418.051	560.88
418.274	564.88
418.497	533.88
418.72	532.88
418.943	498.88
419.166	562.88
419.389	577.88
419.611	585.88
419.834	559.88
420.057	585.88
420.28	562.88
420.503	559.88
420.726	551.88
420.948	544.88
421.171	592.88
421.394	627.88
421.617	551.88
421.839	552.88
422.062	537.88
422.285	571.88
422.507	605.88
422.73	644.88
422.953	631.88
423.175	567.88
423.398	554.88
423.621	550.88
423.843	579.88
424.066	591.88
424.288	588.88
424.511	591.88
424.733	626.88
424.956	682.88
425.178	644.88
425.401	643.88
425.623	686.88
425.846	609.88
426.068	561.88
426.291	545.88
426.513	549.88
426.735	559.88
426.958	578.88
427.18	624.88
427.402	727.88
427.625	823.88
427.847	687.88
428.069	638.88
428.292	589.88
428.514	549.88
428.736	536.88
428.958	518.88
429.181	516.88
429.403	532.88
429.625	506.88
429.847	537.88
430.069	603.88
430.292	596.88
430.514	523.88
430.736	520.88
430.958	507.88
431.18	517.88
431.402	518.88
431.624	498.88
431.846	523.88
432.068	508.88
432.29	533.88
432.512	507.88
432.734	501.88
432.956	497.88
433.178	520.88
433.4	505.88
433.622	502.88
433.844	507.88
434.066	507.88
434.287	500.88
434.509	511.88
434.731	519.88
434.953	538.88
435.175	544.88
435.397	586.88
435.618	581.88
435.84	583.88
436.062	638.88
436.284	685.88
436.505	627.88
436.727	559.88
436.949	532.88
437.17	527.88
437.392	530.88
437.614	534.88
437.835	559.88
438.057	633.88
438.278	665.88
438.5	663.88
438.721	731.88
438.943	724.88
439.165	615.88
439.386	546.88
439.608	545.88
439.829	557.88
440.05	567.88
440.272	601.88
440.493	561.88
440.715	555.88
440.936	565.88
441.158	511.88
441.379	515.88
441.6	534.88
441.822	559.88
442.043	582.88
442.264	676.88
442.486	690.88
442.707	608.88
442.928	570.88
443.149	577.88
443.371	555.88
443.592	649.88
443.813	697.88
444.034	729.88
444.255	637.88
444.476	608.88
444.698	599.88
444.919	592.88
445.14	709.88
445.361	650.88
445.582	609.88
445.803	637.88
446.024	694.88
446.245	713.88
446.466	628.88
446.687	582.88
446.908	545.88
447.129	515.88
447.35	515.88
447.571	518.88
447.792	506.88
448.013	502.88
448.234	502.88
448.455	542.88
448.675	631.88
448.896	740.88
449.117	631.88
449.338	614.88
449.559	704.88
449.779	769.88
450	627.88
450.221	541.88
450.442	497.88
450.662	494.88
450.883	491.88
451.104	497.88
451.324	496.88
451.545	474.88
451.766	489.88
451.986	466.88
452.207	457.88
452.428	466.88
452.648	445.88
452.869	457.88
453.089	455.88
453.31	487.88
453.53	471.88
453.751	461.88
453.971	455.88
454.192	470.88
454.412	463.88
454.633	453.88
454.853	461.88
455.073	450.88
455.294	481.88
455.514	517.88
455.734	487.88
455.955	464.88
456.175	440.88
456.395	427.88
456.616	443.88
456.836	427.88
457.056	441.88
457.276	431.88
457.497	426.88
457.717	437.88
457.937	443.88
458.157	442.88
458.377	452.88
458.598	481.88
458.818	495.88
459.038	525.88
459.258	590.88
459.478	519.88
459.698	514.88
459.918	511.88
460.138	509.88
460.358	518.88
460.578	537.88
460.798	531.88
461.018	555.88
461.238	533.88
461.458	532.88
461.678	557.88
461.898	555.88
462.118	529.88
462.338	557.88
462.558	579.88
462.777	582.88
462.997	586.88
463.217	630.88
463.437	649.88
463.657	596.88
463.876	588.88
464.096	595.88
464.316	565.88
464.536	591.88
464.755	602.88
464.975	576.88
465.195	580.88
465.414	577.88
465.634	557.88
465.854	538.88
466.073	518.88
466.293	519.88
466.512	475.88
466.732	476.88
466.951	485.88
467.171	469.88
467.391	504.88
467.61	470.88
467.829	490.88
468.049	483.88
468.268	457.88
468.488	459.88
468.707	456.88
468.927	466.88
469.146	450.88
469.365	475.88
469.585	478.88
469.804	475.88
470.023	480.88
470.243	485.88
470.462	474.88
470.681	489.88
470.901	505.88
471.12	513.88
471.339	522.88
471.558	503.88
471.777	490.88
471.997	468.88
472.216	497.88
472.435	499.88
472.654	509.88
472.873	478.88
473.092	476.88
473.311	481.88
473.53	472.88
473.749	468.88
473.968	501.88
474.187	589.88
474.406	591.88
474.625	529.88
474.844	496.88
475.063	487.88
475.282	486.88
475.501	502.88
475.72	486.88
475.939	493.88
476.158	481.88
476.377	497.88
476.596	487.88
476.814	505.88
477.033	511.88
477.252	493.88
477.471	495.88
477.69	534.88
477.908	519.88
478.127	553.88
478.346	558.88
478.564	565.88
478.783	547.88
479.002	555.88
479.22	529.88
479.439	569.88
479.658	584.88
479.876	619.88
480.095	621.88
480.313	603.88
480.532	616.88
480.751	614.88
480.969	598.88
481.188	639.88
481.406	631.88
481.624	595.88
481.843	581.88
482.061	571.88
482.28	557.88
482.498	532.88
482.717	587.88
482.935	567.88
483.153	567.88
483.372	531.88
483.59	549.88
483.808	566.88
484.027	553.88
484.245	553.88
484.463	552.88
484.681	555.88
484.9	569.88
485.118	557.88
485.336	574.88
485.554	588.88
485.772	583.88
485.99	604.88
486.209	575.88
486.427	599.88
486.645	571.88
486.863	578.88
487.081	558.88
487.299	579.88
487.517	596.88
487.735	595.88
487.953	609.88
488.171	603.88
488.389	565.88
488.607	604.88
488.825	594.88
489.043	584.88
489.261	609.88
489.479	611.88
489.696	600.88
489.914	596.88
490.132	612.88
490.35	635.88
490.568	635.88
490.786	615.88
491.003	642.88
491.221	629.88
491.439	637.88
491.657	658.88
491.874	635.88
492.092	659.88
492.31	670.88
492.527	650.88
492.745	650.88
492.963	662.88
493.18	679.88
493.398	671.88
493.615	655.88
493.833	659.88
494.05	697.88
494.268	682.88
494.485	653.88
494.703	671.88
494.92	670.88
495.138	689.88
495.355	657.88
495.573	682.88
495.79	693.88
496.008	674.88
496.225	681.88
496.442	661.88
496.66	711.88
496.877	706.88
497.094	724.88
497.312	699.88
497.529	733.88
497.746	734.88
497.963	722.88
498.181	752.88
498.398	794.88
498.615	827.88
498.832	839.88
499.049	864.88
499.267	887.88
499.484	955.88
499.701	972.88
499.918	1050.88
500.135	1109.88
500.352	1180.88
500.569	1247.88
500.786	1235.88
501.003	1191.88
501.22	1146.88
501.437	1071.88
501.654	1011.88
501.871	958.88
502.088	914.88
502.305	871.88
502.522	846.88
502.739	807.88
502.956	797.88
503.172	778.88
503.389	791.88
503.606	759.88
503.823	736.88
504.04	751.88
504.256	758.88
504.473	726.88
504.69	723.88
504.907	709.88
505.123	692.88
505.34	681.88
505.557	674.88
505.773	685.88
505.99	664.88
506.207	664.88
506.423	655.88
506.64	630.88
506.856	622.88
507.073	613.88
507.289	610.88
507.506	628.88
507.722	635.88
507.939	611.88
508.155	629.88
508.372	613.88
508.588	594.88
508.805	582.88
509.021	582.88
509.238	581.88
509.454	606.88
509.67	597.88
509.887	610.88
510.103	581.88
510.319	593.88
510.536	654.88
510.752	904.88
510.968	767.88
511.184	594.88
511.401	572.88
511.617	590.88
511.833	577.88
512.049	568.88
512.265	573.88
512.481	575.88
512.698	560.88
512.914	581.88
513.13	568.88
513.346	554.88
513.562	562.88
513.778	583.88
513.994	551.88
514.21	582.88
514.426	587.88
514.642	612.88
514.858	615.88
515.074	626.88
515.29	695.88
515.506	839.88
515.721	795.88
515.937	657.88
516.153	609.88
516.369	603.88
516.585	617.88
516.801	629.88
517.016	623.88
517.232	633.88
517.448	645.88
517.664	643.88
517.879	646.88
518.095	650.88
518.311	673.88
518.527	622.88
518.742	612.88
518.958	616.88
519.173	610.88
519.389	596.88
519.605	593.88
519.82	564.88
520.036	589.88
520.251	585.88
520.467	603.88
520.682	598.88
520.898	602.88
521.113	604.88
521.329	602.88
521.544	633.88
521.76	737.88
521.975	1000.88
522.19	975.88
522.406	688.88
522.621	588.88
522.836	561.88
523.052	556.88
523.267	514.88
523.482	512.88
523.698	514.88
523.913	525.88
524.128	508.88
524.343	519.88
524.559	500.88
524.774	503.88
524.989	506.88
525.204	505.88
525.419	494.88
525.634	497.88
525.849	518.88
526.064	488.88
526.28	503.88
526.495	504.88
526.71	489.88
526.925	504.88
527.14	470.88
527.355	489.88
527.57	491.88
527.785	479.88
527.999	481.88
528.214	478.88
528.429	465.88
528.644	467.88
528.859	479.88
529.074	508.88
529.289	510.88
529.503	533.88
529.718	488.88
529.933	494.88
530.148	473.88
530.363	483.88
530.577	506.88
530.792	481.88
531.007	487.88
531.221	473.88
531.436	477.88
531.651	470.88
531.865	477.88
532.08	458.88
532.295	480.88
532.509	470.88
532.724	490.88
532.938	469.88
533.153	468.88
533.367	473.88
533.582	468.88
533.796	487.88
534.011	502.88
534.225	471.88
534.44	458.88
534.654	470.88
534.868	476.88
535.083	445.88
535.297	487.88
535.511	464.88
535.726	465.88
535.94	473.88
536.154	452.88
536.369	454.88
536.583	458.88
536.797	454.88
537.011	454.88
537.225	468.88
537.44	459.88
537.654	448.88
537.868	443.88
538.082	455.88
538.296	455.88
538.51	470.88
538.724	472.88
538.938	454.88
539.153	441.88
539.367	429.88
539.581	446.88
539.795	430.88
540.009	440.88
540.222	430.88
540.436	443.88
540.65	455.88
540.864	449.88
541.078	450.88
541.292	455.88
541.506	446.88
541.72	423.88
541.934	447.88
542.147	457.88
542.361	440.88
542.575	413.88
542.789	421.88
543.002	451.88
543.216	445.88
543.43	446.88
543.644	453.88
543.857	445.88
544.071	454.88
544.285	423.88
544.498	435.88
544.712	471.88
544.925	454.88
545.139	445.88
545.352	467.88
545.566	455.88
545.779	457.88
545.993	450.88
546.206	458.88
546.42	453.88
546.633	443.88
546.847	452.88
547.06	443.88
547.274	444.88
547.487	441.88
547.7	421.88
547.914	439.88
548.127	449.88
548.34	435.88
548.554	438.88
548.767	438.88
548.98	430.88
549.193	448.88
549.407	465.88
549.62	453.88
549.833	446.88
550.046	433.88
550.259	427.88
550.473	452.88
550.686	445.88
550.899	443.88
551.112	444.88
551.325	438.88
551.538	451.88
551.751	426.88
551.964	454.88
552.177	441.88
552.39	435.88
552.603	450.88
552.816	434.88
553.029	457.88
553.242	460.88
553.455	457.88
553.667	447.88
553.88	481.88
554.093	460.88
554.306	459.88
554.519	461.88
554.732	447.88
554.944	450.88
555.157	414.88
555.37	449.88
555.583	430.88
555.795	433.88
556.008	392.88
556.221	417.88
556.433	409.88
556.646	404.88
556.859	398.88
557.071	391.88
557.284	373.88
557.496	399.88
557.709	386.88
557.921	386.88
558.134	384.88
558.346	393.88
558.559	403.88
558.771	404.88
558.984	368.88
559.196	388.88
559.409	380.88
559.621	375.88
559.833	381.88
560.046	386.88
560.258	388.88
560.47	410.88
560.683	388.88
560.895	365.88
561.107	383.88
561.32	366.88
561.532	386.88
561.744	385.88
561.956	393.88
562.168	387.88
562.381	376.88
562.593	394.88
562.805	370.88
563.017	394.88
563.229	385.88
563.441	386.88
563.653	415.88
563.865	406.88
564.077	409.88
564.289	404.88
564.501	398.88
564.713	429.88
564.925	437.88
565.137	438.88
565.349	441.88
565.561	438.88
565.773	427.88
565.985	449.88
566.197	485.88
566.408	506.88
566.62	500.88
566.832	545.88
567.044	538.88
567.255	538.88
567.467	554.88
567.679	585.88
567.891	609.88
568.102	589.88
568.314	622.88
568.526	531.88
568.737	521.88
568.949	506.88
569.161	454.88
569.372	438.88
569.584	465.88
569.795	442.88
570.007	410.88
570.218	441.88
570.43	431.88
570.641	384.88
570.853	409.88
571.064	388.88
571.276	398.88
571.487	396.88
571.698	372.88
571.91	381.88
572.121	365.88
572.333	372.88
572.544	360.88
572.755	365.88
572.966	350.88
573.178	365.88
573.389	367.88
573.6	360.88
573.811	340.88
574.023	346.88
574.234	335.88
574.445	354.88
574.656	329.88
574.867	350.88
575.078	358.88
575.289	345.88
575.501	341.88
575.712	326.88
575.923	319.88
576.134	326.88
576.345	359.88
576.556	319.88
576.767	339.88
576.978	345.88
577.188	328.88
577.399	322.88
577.61	330.88
577.821	318.88
578.032	335.88
578.243	350.88
578.454	443.88
578.665	360.88
578.875	325.88
579.086	313.88
579.297	339.88
579.508	310.88
579.718	317.88
579.929	313.88
580.14	312.88
580.35	314.88
580.561	323.88
580.772	297.88
580.982	304.88
581.193	296.88
581.403	296.88
581.614	320.88
581.825	311.88
582.035	303.88
582.246	311.88
582.456	341.88
582.667	317.88
582.877	309.88
583.087	312.88
583.298	293.88
583.508	310.88
583.719	309.88
583.929	293.88
584.139	308.88
584.35	304.88
584.56	318.88
584.77	306.88
584.981	293.88
585.191	290.88
585.401	301.88
585.611	305.88
585.821	294.88
586.032	296.88
586.242	303.88
586.452	278.88
586.662	303.88
586.872	307.88
587.082	304.88
587.292	306.88
587.502	284.88
587.713	295.88
587.923	289.88
588.133	297.88
588.343	312.88
588.553	304.88
588.762	319.88
588.972	293.88
589.182	317.88
589.392	334.88
589.602	291.88
589.812	315.88
590.022	319.88
590.232	297.88
590.441	331.88
590.651	328.88
590.861	303.88
591.071	298.88
591.281	283.88
591.49	306.88
591.7	307.88
591.91	317.88
592.119	317.88
592.329	310.88
592.539	320.88
592.748	343.88
592.958	335.88
593.167	329.88
593.377	336.88
593.587	342.88
593.796	341.88
594.006	345.88
594.215	339.88
594.424	335.88
594.634	334.88
594.843	328.88
595.053	331.88
595.262	335.88
595.472	317.88
595.681	330.88
595.89	310.88
596.1	302.88
596.309	300.88
596.518	295.88
596.727	289.88
596.937	282.88
597.146	280.88
597.355	266.88
597.564	276.88
597.774	265.88
597.983	264.88
598.192	269.88
598.401	279.88
598.61	280.88
598.819	251.88
599.028	266.88
599.237	267.88
599.446	264.88
599.655	266.88
599.864	280.88
600.073	258.88
600.282	269.88
600.491	275.88
600.7	274.88
600.909	258.88
601.118	252.88
601.327	267.88
601.536	266.88
601.745	261.88
601.953	256.88
602.162	237.88
602.371	262.88
602.58	247.88
602.789	252.88
602.997	257.88
603.206	261.88
603.415	262.88
603.623	234.88
603.832	249.88
604.041	235.88
604.249	257.88
604.458	250.88
604.666	255.88
604.875	243.88
605.084	235.88
605.292	238.88
605.501	259.88
605.709	226.88
605.918	241.88
606.126	245.88
606.334	250.88
606.543	247.88
606.751	237.88
606.96	238.88
607.168	236.88
607.376	238.88
607.585	240.88
607.793	237.88
608.001	231.88
608.21	229.88
608.418	244.88
608.626	243.88
608.834	237.88
609.043	238.88
609.251	241.88
609.459	235.88
609.667	230.88
609.875	232.88
610.083	256.88
610.291	230.88
610.499	216.88
610.707	233.88
610.916	237.88
611.124	229.88
611.332	250.88
611.54	225.88
611.748	251.88
611.955	238.88
612.163	237.88
612.371	228.88
612.579	240.88
612.787	220.88
612.995	229.88
613.203	243.88
613.411	220.88
613.618	232.88
613.826	232.88
614.034	223.88
614.242	242.88
614.449	233.88
614.657	235.88
614.865	232.88
615.072	227.88
615.28	229.88
615.488	237.88
615.695	234.88
615.903	223.88
616.111	214.88
616.318	230.88
616.526	228.88
616.733	250.88
616.941	222.88
617.148	245.88
617.356	225.88
617.563	238.88
617.771	232.88
617.978	234.88
618.185	246.88
618.393	228.88
618.6	237.88
618.807	216.88
619.015	233.88
619.222	231.88
619.429	221.88
619.637	218.88
619.844	239.88
620.051	208.88
620.258	212.88
620.466	212.88
620.673	214.88
620.88	229.88
621.087	198.88
621.294	206.88
621.501	225.88
621.708	235.88
621.915	222.88
622.122	226.88
622.329	208.88
622.536	224.88
622.743	217.88
622.95	220.88
623.157	217.88
623.364	211.88
623.571	211.88
623.778	216.88
623.985	220.88
624.192	211.88
624.399	186.88
624.606	207.88
624.812	213.88
625.019	193.88
625.226	207.88
625.433	202.88
625.639	209.88
625.846	209.88
626.053	216.88
626.259	194.88
626.466	222.88
626.673	207.88
626.879	214.88
627.086	214.88
627.293	208.88
627.499	198.88
627.706	209.88
627.912	208.88
628.119	221.88
628.325	202.88
628.532	209.88
628.738	189.88
628.945	208.88
629.151	202.88
629.357	190.88
629.564	207.88
629.77	197.88
629.976	184.88
630.183	198.88
630.389	200.88
630.595	190.88
630.802	181.88
631.008	158.88
631.214	192.88
631.42	201.88
631.627	197.88
631.833	187.88
632.039	198.88
632.245	193.88
632.451	185.88
632.657	179.88
632.863	179.88
633.069	189.88
633.275	197.88
633.481	166.88
633.688	164.88
633.893	191.88
634.099	192.88
634.305	193.88
634.511	184.88
634.717	179.88
634.923	177.88
635.129	191.88
635.335	182.88
635.541	177.88
635.747	171.88
635.952	191.88
636.158	168.88
636.364	184.88
636.57	161.88
636.775	166.88
636.981	163.88
637.187	192.88
637.392	173.88
637.598	161.88
637.804	177.88
638.009	190.88
638.215	187.88
638.421	172.88
638.626	162.88
638.832	178.88
639.037	165.88
639.243	165.88
639.448	183.88
639.654	159.88
639.859	162.88
640.065	156.88
640.27	186.88
640.475	159.88
640.681	167.88
640.886	178.88
641.091	165.88
641.297	168.88
641.502	168.88
641.707	154.88
641.913	166.88
642.118	150.88
642.323	175.88
642.528	169.88
642.733	157.88
642.939	163.88
643.144	147.88
643.349	156.88
643.554	163.88
643.759	161.88
643.964	165.88
644.169	164.88
644.374	152.88
644.579	165.88
644.784	156.88
644.989	166.88
645.194	162.88
645.399	155.88
645.604	160.88
645.809	169.88
646.014	169.88
646.219	170.88
646.423	163.88
646.628	167.88
646.833	161.88
647.038	151.88
647.243	176.88
647.447	181.88
647.652	163.88
647.857	177.88
648.062	169.88
648.266	157.88
648.471	181.88
648.676	177.88
648.88	159.88
649.085	160.88
649.289	157.88
649.494	159.88
649.698	183.88
649.903	163.88
650.107	153.88
650.312	163.88
650.516	151.88
650.721	148.88
650.925	161.88
651.13	145.88
651.334	168.88
651.539	163.88
651.743	147.88
651.947	147.88
652.152	148.88
652.356	150.88
652.56	139.88
652.764	130.88
652.969	151.88
653.173	131.88
653.377	132.88
653.581	138.88
653.785	138.88
653.99	147.88
654.194	131.88
654.398	145.88
654.602	131.88
654.806	135.88
655.01	134.88
655.214	130.88
655.418	144.88
655.622	145.88
655.826	139.88
656.03	142.88
656.234	130.88
656.438	146.88
656.642	122.88
656.846	146.88
657.049	143.88
657.253	131.88
657.457	113.88
657.661	121.88
657.865	103.88
658.068	109.88
658.272	116.88
658.476	104.88
658.68	98.88
658.883	98.88
659.087	121.88
659.291	105.88
659.494	90.88
659.698	100.88
659.901	95.88
660.105	78.88
660.309	90.88
660.512	99.88
660.716	101.88
660.919	87.88
661.123	79.88
661.326	93.88
661.53	99.88
661.733	78.88
661.936	91.88
662.14	84.88
662.343	81.88
662.546	85.88
662.75	86.88
662.953	85.88
663.156	78.88
663.36	83.88
663.563	82.88
663.766	73.88
663.969	63.88
664.173	88.88
664.376	78.88
664.579	82.88
664.782	75.88
664.985	77.88
665.188	83.88
665.391	88.88
665.594	74.88
665.797	81.88
666	71.88
666.203	85.88
666.406	86.88
666.609	86.88
666.812	75.88
667.015	95.88
667.218	86.88
667.421	76.88
667.624	75.88
667.827	87.88
668.03	82.88
668.232	71.88
668.435	81.88
668.638	83.88
668.841	74.88
669.043	86.88
669.246	72.88
669.449	81.88
669.651	85.88
669.854	84.88
670.057	82.88
670.259	85.88
670.462	82.88
670.665	74.88
670.867	83.88
671.07	72.88
671.272	76.88
671.475	77.88
671.677	72.88
671.88	71.88
672.082	83.88
672.284	90.88
672.487	74.88
672.689	78.88
672.892	68.88
