Data from 1962.PennyLincolnUp.Lamp.En5.5.200Scan.071719.P1._HRD10591_13-54-17-061.txt Node
Date: Thu Jul 18 13:54:17 EDT 2019
User: cochatt
Spectrometer: HR+D1059
Trigger mode: 1
Integration Time (sec): 1.000000E-1
Scans to average: 1
Electric dark correction enabled: true
Nonlinearity correction enabled: false
Boxcar width: 0
XAxis mode: Wavelengths
Number of Pixels in Spectrum: 2048
>>>>>Begin Spectral Data<<<<<
223.165	-13.75
223.4	-13.75
223.635	-13.75
223.869	-26.75
224.104	-20.75
224.338	-17.75
224.573	-15.75
224.808	-11.75
225.042	3.25
225.277	-5.75
225.511	-5.75
225.746	9.25
225.98	16.25
226.215	9.25
226.449	1.25
226.683	30.25
226.918	14.25
227.152	34.25
227.387	44.25
227.621	42.25
227.856	50.25
228.09	44.25
228.324	42.25
228.559	49.25
228.793	75.25
229.027	106.25
229.262	114.25
229.496	106.25
229.73	127.25
229.964	131.25
230.199	110.25
230.433	92.25
230.667	103.25
230.901	107.25
231.136	120.25
231.37	115.25
231.604	106.25
231.838	117.25
232.072	110.25
232.306	119.25
232.541	121.25
232.775	108.25
233.009	122.25
233.243	106.25
233.477	108.25
233.711	115.25
233.945	121.25
234.179	123.25
234.413	115.25
234.647	119.25
234.881	118.25
235.115	123.25
235.349	115.25
235.583	113.25
235.817	129.25
236.051	125.25
236.285	118.25
236.519	132.25
236.753	127.25
236.987	144.25
237.221	148.25
237.455	189.25
237.689	169.25
237.922	134.25
238.156	131.25
238.39	120.25
238.624	113.25
238.858	126.25
239.091	121.25
239.325	133.25
239.559	126.25
239.793	121.25
240.027	135.25
240.26	124.25
240.494	137.25
240.728	154.25
240.961	135.25
241.195	147.25
241.429	131.25
241.662	141.25
241.896	140.25
242.13	133.25
242.363	130.25
242.597	136.25
242.83	119.25
243.064	137.25
243.298	139.25
243.531	142.25
243.765	148.25
243.998	149.25
244.232	146.25
244.465	149.25
244.699	140.25
244.932	155.25
245.166	147.25
245.399	138.25
245.633	136.25
245.866	143.25
246.099	145.25
246.333	138.25
246.566	145.25
246.8	123.25
247.033	149.25
247.266	158.25
247.5	161.25
247.733	161.25
247.966	155.25
248.2	163.25
248.433	176.25
248.666	170.25
248.899	164.25
249.133	180.25
249.366	185.25
249.599	192.25
249.832	165.25
250.066	153.25
250.299	154.25
250.532	188.25
250.765	171.25
250.998	190.25
251.231	202.25
251.465	188.25
251.698	179.25
251.931	177.25
252.164	183.25
252.397	175.25
252.63	191.25
252.863	172.25
253.096	212.25
253.329	202.25
253.562	192.25
253.795	198.25
254.028	182.25
254.261	192.25
254.494	197.25
254.727	219.25
254.96	245.25
255.193	247.25
255.426	215.25
255.659	197.25
255.892	207.25
256.124	193.25
256.357	210.25
256.59	205.25
256.823	201.25
257.056	202.25
257.289	206.25
257.521	215.25
257.754	205.25
257.987	199.25
258.22	202.25
258.452	194.25
258.685	199.25
258.918	211.25
259.151	197.25
259.383	212.25
259.616	198.25
259.849	205.25
260.081	221.25
260.314	228.25
260.547	246.25
260.779	224.25
261.012	216.25
261.244	213.25
261.477	215.25
261.71	205.25
261.942	208.25
262.175	208.25
262.407	221.25
262.64	195.25
262.872	209.25
263.105	219.25
263.337	208.25
263.57	206.25
263.802	228.25
264.035	211.25
264.267	207.25
264.499	194.25
264.732	201.25
264.964	197.25
265.197	214.25
265.429	217.25
265.661	203.25
265.894	212.25
266.126	211.25
266.358	221.25
266.591	215.25
266.823	217.25
267.055	219.25
267.287	220.25
267.52	213.25
267.752	209.25
267.984	217.25
268.216	235.25
268.448	229.25
268.681	242.25
268.913	220.25
269.145	240.25
269.377	269.25
269.609	268.25
269.841	257.25
270.073	249.25
270.306	285.25
270.538	282.25
270.77	277.25
271.002	272.25
271.234	278.25
271.466	271.25
271.698	274.25
271.93	292.25
272.162	300.25
272.394	301.25
272.626	276.25
272.858	280.25
273.09	251.25
273.322	261.25
273.553	269.25
273.785	263.25
274.017	257.25
274.249	254.25
274.481	256.25
274.713	271.25
274.945	279.25
275.176	278.25
275.408	263.25
275.64	264.25
275.872	249.25
276.104	270.25
276.335	277.25
276.567	261.25
276.799	260.25
277.031	278.25
277.262	295.25
277.494	303.25
277.726	291.25
277.957	285.25
278.189	259.25
278.421	267.25
278.652	266.25
278.884	266.25
279.115	247.25
279.347	281.25
279.579	264.25
279.81	276.25
280.042	279.25
280.273	269.25
280.505	283.25
280.736	270.25
280.968	245.25
281.199	266.25
281.431	292.25
281.662	278.25
281.894	285.25
282.125	267.25
282.356	296.25
282.588	299.25
282.819	284.25
283.051	300.25
283.282	278.25
283.513	283.25
283.745	281.25
283.976	278.25
284.207	294.25
284.439	283.25
284.67	299.25
284.901	269.25
285.132	281.25
285.364	279.25
285.595	291.25
285.826	293.25
286.057	295.25
286.288	281.25
286.52	282.25
286.751	287.25
286.982	278.25
287.213	289.25
287.444	299.25
287.675	298.25
287.906	317.25
288.138	295.25
288.369	307.25
288.6	295.25
288.831	324.25
289.062	320.25
289.293	309.25
289.524	300.25
289.755	299.25
289.986	298.25
290.217	292.25
290.448	314.25
290.679	310.25
290.91	302.25
291.141	310.25
291.371	296.25
291.602	297.25
291.833	285.25
292.064	294.25
292.295	295.25
292.526	310.25
292.757	314.25
292.987	296.25
293.218	321.25
293.449	313.25
293.68	305.25
293.91	306.25
294.141	297.25
294.372	303.25
294.603	301.25
294.833	318.25
295.064	298.25
295.295	322.25
295.525	317.25
295.756	299.25
295.987	332.25
296.217	331.25
296.448	319.25
296.679	313.25
296.909	306.25
297.14	302.25
297.37	313.25
297.601	312.25
297.831	318.25
298.062	303.25
298.292	307.25
298.523	318.25
298.753	331.25
298.984	298.25
299.214	309.25
299.445	314.25
299.675	333.25
299.905	325.25
300.136	330.25
300.366	317.25
300.597	324.25
300.827	350.25
301.057	338.25
301.288	313.25
301.518	328.25
301.748	330.25
301.979	325.25
302.209	345.25
302.439	335.25
302.669	318.25
302.9	331.25
303.13	343.25
303.36	324.25
303.59	335.25
303.82	339.25
304.051	349.25
304.281	343.25
304.511	346.25
304.741	338.25
304.971	324.25
305.201	340.25
305.431	339.25
305.661	342.25
305.891	346.25
306.121	334.25
306.352	340.25
306.582	338.25
306.812	342.25
307.042	323.25
307.272	343.25
307.502	352.25
307.731	351.25
307.961	339.25
308.191	351.25
308.421	349.25
308.651	355.25
308.881	330.25
309.111	361.25
309.341	353.25
309.571	353.25
309.8	360.25
310.03	352.25
310.26	362.25
310.49	359.25
310.72	358.25
310.949	384.25
311.179	376.25
311.409	371.25
311.639	365.25
311.868	373.25
312.098	379.25
312.328	380.25
312.557	369.25
312.787	367.25
313.017	389.25
313.246	393.25
313.476	367.25
313.706	373.25
313.935	391.25
314.165	372.25
314.394	392.25
314.624	374.25
314.853	397.25
315.083	370.25
315.312	393.25
315.542	381.25
315.771	354.25
316.001	365.25
316.23	378.25
316.46	381.25
316.689	365.25
316.919	349.25
317.148	379.25
317.377	367.25
317.607	377.25
317.836	381.25
318.065	389.25
318.295	373.25
318.524	380.25
318.753	370.25
318.983	378.25
319.212	386.25
319.441	363.25
319.67	391.25
319.9	360.25
320.129	374.25
320.358	381.25
320.587	379.25
320.816	382.25
321.046	386.25
321.275	409.25
321.504	385.25
321.733	387.25
321.962	390.25
322.191	411.25
322.42	395.25
322.649	397.25
322.878	426.25
323.108	403.25
323.337	423.25
323.566	420.25
323.795	460.25
324.024	488.25
324.253	539.25
324.482	702.25
324.71	1005.25
324.939	1425.25
325.168	1219.25
325.397	685.25
325.626	513.25
325.855	463.25
326.084	461.25
326.313	455.25
326.542	437.25
326.77	476.25
326.999	532.25
327.228	648.25
327.457	915.25
327.686	1100.25
327.914	785.25
328.143	555.25
328.372	508.25
328.6	495.25
328.829	478.25
329.058	486.25
329.287	492.25
329.515	479.25
329.744	457.25
329.972	463.25
330.201	485.25
330.43	492.25
330.658	508.25
330.887	492.25
331.115	492.25
331.344	479.25
331.572	457.25
331.801	454.25
332.03	465.25
332.258	475.25
332.486	455.25
332.715	442.25
332.943	461.25
333.172	481.25
333.4	460.25
333.629	482.25
333.857	503.25
334.085	511.25
334.314	495.25
334.542	513.25
334.771	517.25
334.999	475.25
335.227	494.25
335.455	492.25
335.684	467.25
335.912	461.25
336.14	463.25
336.369	448.25
336.597	461.25
336.825	451.25
337.053	449.25
337.281	446.25
337.51	464.25
337.738	442.25
337.966	443.25
338.194	456.25
338.422	460.25
338.65	450.25
338.878	435.25
339.106	435.25
339.334	454.25
339.562	437.25
339.79	427.25
340.018	431.25
340.246	410.25
340.474	422.25
340.702	436.25
340.93	430.25
341.158	438.25
341.386	434.25
341.614	406.25
341.842	415.25
342.07	436.25
342.298	437.25
342.526	427.25
342.754	412.25
342.981	434.25
343.209	409.25
343.437	453.25
343.665	442.25
343.893	424.25
344.12	472.25
344.348	474.25
344.576	470.25
344.804	451.25
345.031	439.25
345.259	456.25
345.487	451.25
345.714	406.25
345.942	425.25
346.17	440.25
346.397	421.25
346.625	415.25
346.853	393.25
347.08	423.25
347.308	429.25
347.535	402.25
347.763	423.25
347.99	425.25
348.218	433.25
348.445	404.25
348.673	406.25
348.9	412.25
349.128	431.25
349.355	398.25
349.583	402.25
349.81	417.25
350.037	407.25
350.265	385.25
350.492	413.25
350.72	401.25
350.947	409.25
351.174	392.25
351.402	397.25
351.629	412.25
351.856	417.25
352.083	401.25
352.311	418.25
352.538	395.25
352.765	422.25
352.992	416.25
353.22	422.25
353.447	396.25
353.674	405.25
353.901	400.25
354.128	393.25
354.355	380.25
354.583	416.25
354.81	396.25
355.037	406.25
355.264	381.25
355.491	400.25
355.718	393.25
355.945	393.25
356.172	383.25
356.399	398.25
356.626	397.25
356.853	405.25
357.08	396.25
357.307	390.25
357.534	393.25
357.761	376.25
357.988	403.25
358.215	398.25
358.441	382.25
358.668	421.25
358.895	378.25
359.122	411.25
359.349	392.25
359.576	409.25
359.802	434.25
360.029	413.25
360.256	414.25
360.483	437.25
360.709	418.25
360.936	422.25
361.163	430.25
361.39	418.25
361.616	417.25
361.843	421.25
362.07	418.25
362.296	401.25
362.523	384.25
362.749	395.25
362.976	413.25
363.203	414.25
363.429	396.25
363.656	392.25
363.882	403.25
364.109	389.25
364.335	391.25
364.562	374.25
364.788	399.25
365.015	386.25
365.241	416.25
365.468	389.25
365.694	397.25
365.92	403.25
366.147	410.25
366.373	402.25
366.599	391.25
366.826	409.25
367.052	415.25
367.278	384.25
367.505	405.25
367.731	399.25
367.957	381.25
368.184	404.25
368.41	405.25
368.636	417.25
368.862	398.25
369.089	390.25
369.315	404.25
369.541	397.25
369.767	422.25
369.993	413.25
370.219	404.25
370.445	378.25
370.672	405.25
370.898	398.25
371.124	411.25
371.35	423.25
371.576	407.25
371.802	404.25
372.028	399.25
372.254	405.25
372.48	397.25
372.706	407.25
372.932	400.25
373.158	435.25
373.384	423.25
373.61	424.25
373.835	394.25
374.061	402.25
374.287	417.25
374.513	414.25
374.739	428.25
374.965	419.25
375.191	416.25
375.416	445.25
375.642	419.25
375.868	421.25
376.094	426.25
376.319	406.25
376.545	414.25
376.771	415.25
376.997	403.25
377.222	405.25
377.448	411.25
377.674	417.25
377.899	396.25
378.125	409.25
378.35	391.25
378.576	411.25
378.802	398.25
379.027	392.25
379.253	426.25
379.478	412.25
379.704	395.25
379.929	402.25
380.155	390.25
380.38	406.25
380.606	418.25
380.831	430.25
381.057	399.25
381.282	415.25
381.507	421.25
381.733	390.25
381.958	395.25
382.184	410.25
382.409	416.25
382.634	438.25
382.86	413.25
383.085	446.25
383.31	426.25
383.535	417.25
383.761	431.25
383.986	434.25
384.211	435.25
384.436	438.25
384.662	455.25
384.887	452.25
385.112	471.25
385.337	477.25
385.562	457.25
385.787	481.25
386.013	455.25
386.238	466.25
386.463	475.25
386.688	433.25
386.913	458.25
387.138	454.25
387.363	487.25
387.588	465.25
387.813	451.25
388.038	467.25
388.263	470.25
388.488	460.25
388.713	462.25
388.938	462.25
389.163	447.25
389.387	471.25
389.612	441.25
389.837	467.25
390.062	452.25
390.287	477.25
390.512	467.25
390.736	474.25
390.961	460.25
391.186	467.25
391.411	488.25
391.636	488.25
391.86	484.25
392.085	502.25
392.31	505.25
392.534	484.25
392.759	503.25
392.984	499.25
393.208	476.25
393.433	479.25
393.658	478.25
393.882	461.25
394.107	470.25
394.331	487.25
394.556	480.25
394.78	469.25
395.005	468.25
395.229	482.25
395.454	506.25
395.678	479.25
395.903	503.25
396.127	495.25
396.352	511.25
396.576	504.25
396.801	481.25
397.025	507.25
397.249	482.25
397.474	485.25
397.698	534.25
397.922	509.25
398.147	526.25
398.371	536.25
398.595	536.25
398.82	561.25
399.044	567.25
399.268	573.25
399.492	659.25
399.717	702.25
399.941	707.25
400.165	683.25
400.389	668.25
400.613	589.25
400.837	572.25
401.062	566.25
401.286	534.25
401.51	543.25
401.734	554.25
401.958	582.25
402.182	554.25
402.406	543.25
402.63	585.25
402.854	549.25
403.078	551.25
403.302	602.25
403.526	571.25
403.75	562.25
403.974	596.25
404.198	580.25
404.422	585.25
404.645	603.25
404.869	599.25
405.093	611.25
405.317	630.25
405.541	657.25
405.765	622.25
405.988	592.25
406.212	601.25
406.436	615.25
406.66	610.25
406.883	608.25
407.107	634.25
407.331	667.25
407.555	726.25
407.778	702.25
408.002	668.25
408.226	650.25
408.449	634.25
408.673	619.25
408.896	633.25
409.12	659.25
409.344	637.25
409.567	604.25
409.791	595.25
410.014	588.25
410.238	557.25
410.461	590.25
410.685	567.25
410.908	556.25
411.132	588.25
411.355	609.25
411.578	620.25
411.802	563.25
412.025	565.25
412.249	580.25
412.472	587.25
412.695	631.25
412.919	601.25
413.142	583.25
413.365	570.25
413.589	554.25
413.812	533.25
414.035	540.25
414.258	532.25
414.482	518.25
414.705	545.25
414.928	538.25
415.151	529.25
415.374	521.25
415.597	523.25
415.821	548.25
416.044	524.25
416.267	535.25
416.49	521.25
416.713	531.25
416.936	518.25
417.159	503.25
417.382	524.25
417.605	517.25
417.828	551.25
418.051	564.25
418.274	549.25
418.497	533.25
418.72	540.25
418.943	528.25
419.166	554.25
419.389	590.25
419.611	584.25
419.834	572.25
420.057	571.25
420.28	565.25
420.503	569.25
420.726	564.25
420.948	569.25
421.171	575.25
421.394	604.25
421.617	557.25
421.839	566.25
422.062	540.25
422.285	539.25
422.507	589.25
422.73	649.25
422.953	637.25
423.175	577.25
423.398	573.25
423.621	559.25
423.843	579.25
424.066	556.25
424.288	581.25
424.511	559.25
424.733	641.25
424.956	668.25
425.178	658.25
425.401	668.25
425.623	671.25
425.846	606.25
426.068	583.25
426.291	570.25
426.513	553.25
426.735	539.25
426.958	581.25
427.18	653.25
427.402	769.25
427.625	844.25
427.847	701.25
428.069	655.25
428.292	583.25
428.514	549.25
428.736	527.25
428.958	517.25
429.181	502.25
429.403	517.25
429.625	526.25
429.847	531.25
430.069	592.25
430.292	587.25
430.514	535.25
430.736	526.25
430.958	514.25
431.18	503.25
431.402	508.25
431.624	505.25
431.846	499.25
432.068	511.25
432.29	513.25
432.512	506.25
432.734	527.25
432.956	533.25
433.178	516.25
433.4	529.25
433.622	517.25
433.844	502.25
434.066	517.25
434.287	526.25
434.509	525.25
434.731	510.25
434.953	543.25
435.175	561.25
435.397	557.25
435.618	582.25
435.84	583.25
436.062	650.25
436.284	704.25
436.505	581.25
436.727	561.25
436.949	545.25
437.17	531.25
437.392	523.25
437.614	521.25
437.835	537.25
438.057	599.25
438.278	691.25
438.5	670.25
438.721	742.25
438.943	700.25
439.165	586.25
439.386	534.25
439.608	554.25
439.829	524.25
440.05	548.25
440.272	597.25
440.493	577.25
440.715	530.25
440.936	527.25
441.158	542.25
441.379	527.25
441.6	546.25
441.822	571.25
442.043	577.25
442.264	649.25
442.486	661.25
442.707	590.25
442.928	559.25
443.149	583.25
443.371	604.25
443.592	617.25
443.813	718.25
444.034	744.25
444.255	653.25
444.476	588.25
444.698	596.25
444.919	595.25
445.14	723.25
445.361	674.25
445.582	625.25
445.803	616.25
446.024	678.25
446.245	655.25
446.466	650.25
446.687	586.25
446.908	562.25
447.129	536.25
447.35	494.25
447.571	490.25
447.792	521.25
448.013	524.25
448.234	517.25
448.455	531.25
448.675	627.25
448.896	712.25
449.117	630.25
449.338	604.25
449.559	683.25
449.779	775.25
450	635.25
450.221	541.25
450.442	510.25
450.662	484.25
450.883	515.25
451.104	513.25
451.324	463.25
451.545	493.25
451.766	493.25
451.986	486.25
452.207	469.25
452.428	474.25
452.648	460.25
452.869	462.25
453.089	474.25
453.31	488.25
453.53	484.25
453.751	452.25
453.971	464.25
454.192	475.25
454.412	459.25
454.633	479.25
454.853	448.25
455.073	450.25
455.294	482.25
455.514	510.25
455.734	503.25
455.955	460.25
456.175	443.25
456.395	467.25
456.616	441.25
456.836	450.25
457.056	444.25
457.276	422.25
457.497	454.25
457.717	456.25
457.937	465.25
458.157	463.25
458.377	448.25
458.598	481.25
458.818	489.25
459.038	566.25
459.258	567.25
459.478	522.25
459.698	521.25
459.918	513.25
460.138	517.25
460.358	540.25
460.578	552.25
460.798	550.25
461.018	542.25
461.238	550.25
461.458	546.25
461.678	549.25
461.898	552.25
462.118	546.25
462.338	553.25
462.558	571.25
462.777	597.25
462.997	596.25
463.217	631.25
463.437	632.25
463.657	609.25
463.876	571.25
464.096	598.25
464.316	597.25
464.536	590.25
464.755	597.25
464.975	598.25
465.195	569.25
465.414	584.25
465.634	548.25
465.854	540.25
466.073	519.25
466.293	516.25
466.512	486.25
466.732	483.25
466.951	481.25
467.171	501.25
467.391	471.25
467.61	475.25
467.829	491.25
468.049	485.25
468.268	483.25
468.488	489.25
468.707	494.25
468.927	471.25
469.146	478.25
469.365	471.25
469.585	476.25
469.804	489.25
470.023	494.25
470.243	481.25
470.462	489.25
470.681	487.25
470.901	499.25
471.12	486.25
471.339	471.25
471.558	489.25
471.777	501.25
471.997	483.25
472.216	493.25
472.435	480.25
472.654	484.25
472.873	485.25
473.092	477.25
473.311	494.25
473.53	487.25
473.749	487.25
473.968	501.25
474.187	556.25
474.406	585.25
474.625	500.25
474.844	474.25
475.063	486.25
475.282	489.25
475.501	468.25
475.72	485.25
475.939	491.25
476.158	509.25
476.377	488.25
476.596	477.25
476.814	500.25
477.033	504.25
477.252	498.25
477.471	533.25
477.69	508.25
477.908	537.25
478.127	531.25
478.346	542.25
478.564	550.25
478.783	544.25
479.002	587.25
479.22	564.25
479.439	576.25
479.658	565.25
479.876	572.25
480.095	600.25
480.313	611.25
480.532	637.25
480.751	605.25
480.969	588.25
481.188	614.25
481.406	647.25
481.624	586.25
481.843	594.25
482.061	587.25
482.28	556.25
482.498	561.25
482.717	567.25
482.935	564.25
483.153	554.25
483.372	562.25
483.59	574.25
483.808	577.25
484.027	561.25
484.245	574.25
484.463	563.25
484.681	577.25
484.9	581.25
485.118	584.25
485.336	573.25
485.554	600.25
485.772	567.25
485.99	582.25
486.209	578.25
486.427	579.25
486.645	594.25
486.863	614.25
487.081	610.25
487.299	581.25
487.517	597.25
487.735	605.25
487.953	574.25
488.171	577.25
488.389	593.25
488.607	599.25
488.825	594.25
489.043	608.25
489.261	603.25
489.479	606.25
489.696	610.25
489.914	637.25
490.132	605.25
490.35	618.25
490.568	610.25
490.786	630.25
491.003	618.25
491.221	645.25
491.439	649.25
491.657	619.25
491.874	655.25
492.092	643.25
492.31	638.25
492.527	632.25
492.745	648.25
492.963	646.25
493.18	671.25
493.398	677.25
493.615	677.25
493.833	678.25
494.05	673.25
494.268	691.25
494.485	701.25
494.703	697.25
494.92	682.25
495.138	673.25
495.355	670.25
495.573	691.25
495.79	673.25
496.008	683.25
496.225	679.25
496.442	692.25
496.66	705.25
496.877	700.25
497.094	737.25
497.312	709.25
497.529	719.25
497.746	758.25
497.963	746.25
498.181	784.25
498.398	773.25
498.615	812.25
498.832	827.25
499.049	866.25
499.267	877.25
499.484	929.25
499.701	1002.25
499.918	1063.25
500.135	1148.25
500.352	1218.25
500.569	1233.25
500.786	1219.25
501.003	1236.25
501.22	1147.25
501.437	1091.25
501.654	1029.25
501.871	994.25
502.088	944.25
502.305	887.25
502.522	860.25
502.739	813.25
502.956	813.25
503.172	771.25
503.389	791.25
503.606	771.25
503.823	743.25
504.04	739.25
504.256	734.25
504.473	746.25
504.69	749.25
504.907	729.25
505.123	691.25
505.34	714.25
505.557	675.25
505.773	667.25
505.99	664.25
506.207	646.25
506.423	633.25
506.64	648.25
506.856	634.25
507.073	618.25
507.289	610.25
507.506	614.25
507.722	633.25
507.939	637.25
508.155	630.25
508.372	627.25
508.588	600.25
508.805	589.25
509.021	587.25
509.238	605.25
509.454	596.25
509.67	611.25
509.887	584.25
510.103	593.25
510.319	593.25
510.536	628.25
510.752	867.25
510.968	755.25
511.184	589.25
511.401	592.25
511.617	593.25
511.833	582.25
512.049	569.25
512.265	554.25
512.481	595.25
512.698	580.25
512.914	563.25
513.13	561.25
513.346	553.25
513.562	565.25
513.778	583.25
513.994	571.25
514.21	598.25
514.426	595.25
514.642	623.25
514.858	603.25
515.074	629.25
515.29	662.25
515.506	834.25
515.721	738.25
515.937	627.25
516.153	603.25
516.369	610.25
516.585	612.25
516.801	626.25
517.016	643.25
517.232	643.25
517.448	633.25
517.664	666.25
517.879	662.25
518.095	646.25
518.311	663.25
518.527	637.25
518.742	621.25
518.958	613.25
519.173	592.25
519.389	593.25
519.605	575.25
519.82	581.25
520.036	591.25
520.251	594.25
520.467	601.25
520.682	575.25
520.898	610.25
521.113	593.25
521.329	601.25
521.544	630.25
521.76	712.25
521.975	961.25
522.19	941.25
522.406	649.25
522.621	591.25
522.836	576.25
523.052	558.25
523.267	545.25
523.482	517.25
523.698	510.25
523.913	519.25
524.128	494.25
524.343	524.25
524.559	500.25
524.774	484.25
524.989	494.25
525.204	503.25
525.419	495.25
525.634	492.25
525.849	495.25
526.064	503.25
526.28	495.25
526.495	484.25
526.71	465.25
526.925	499.25
527.14	487.25
527.355	495.25
527.57	503.25
527.785	462.25
527.999	476.25
528.214	499.25
528.429	497.25
528.644	515.25
528.859	481.25
529.074	493.25
529.289	485.25
529.503	511.25
529.718	501.25
529.933	490.25
530.148	487.25
530.363	487.25
530.577	493.25
530.792	485.25
531.007	482.25
531.221	471.25
531.436	476.25
531.651	475.25
531.865	486.25
532.08	487.25
532.295	462.25
532.509	481.25
532.724	484.25
532.938	479.25
533.153	477.25
533.367	492.25
533.582	459.25
533.796	456.25
534.011	491.25
534.225	472.25
534.44	474.25
534.654	484.25
534.868	445.25
535.083	489.25
535.297	476.25
535.511	476.25
535.726	451.25
535.94	472.25
536.154	479.25
536.369	478.25
536.583	459.25
536.797	459.25
537.011	458.25
537.225	458.25
537.44	465.25
537.654	447.25
537.868	445.25
538.082	455.25
538.296	442.25
538.51	442.25
538.724	459.25
538.938	435.25
539.153	455.25
539.367	443.25
539.581	453.25
539.795	427.25
540.009	445.25
540.222	445.25
540.436	472.25
540.65	454.25
540.864	441.25
541.078	451.25
541.292	444.25
541.506	470.25
541.72	438.25
541.934	440.25
542.147	440.25
542.361	437.25
542.575	437.25
542.789	437.25
543.002	423.25
543.216	438.25
543.43	453.25
543.644	428.25
543.857	440.25
544.071	441.25
544.285	457.25
544.498	471.25
544.712	424.25
544.925	459.25
545.139	458.25
545.352	446.25
545.566	437.25
545.779	453.25
545.993	460.25
546.206	440.25
546.42	454.25
546.633	455.25
546.847	444.25
547.06	460.25
547.274	430.25
547.487	436.25
547.7	435.25
547.914	433.25
548.127	455.25
548.34	437.25
548.554	465.25
548.767	428.25
548.98	441.25
549.193	435.25
549.407	456.25
549.62	445.25
549.833	438.25
550.046	443.25
550.259	460.25
550.473	445.25
550.686	440.25
550.899	444.25
551.112	443.25
551.325	429.25
551.538	425.25
551.751	445.25
551.964	424.25
552.177	453.25
552.39	443.25
552.603	453.25
552.816	427.25
553.029	431.25
553.242	459.25
553.455	476.25
553.667	475.25
553.88	475.25
554.093	471.25
554.306	445.25
554.519	439.25
554.732	447.25
554.944	442.25
555.157	430.25
555.37	410.25
555.583	434.25
555.795	431.25
556.008	413.25
556.221	399.25
556.433	402.25
556.646	409.25
556.859	417.25
557.071	409.25
557.284	401.25
557.496	403.25
557.709	403.25
557.921	393.25
558.134	403.25
558.346	412.25
558.559	409.25
558.771	403.25
558.984	386.25
559.196	370.25
559.409	381.25
559.621	397.25
559.833	408.25
560.046	381.25
560.258	396.25
560.47	383.25
560.683	366.25
560.895	387.25
561.107	393.25
561.32	393.25
561.532	378.25
561.744	384.25
561.956	389.25
562.168	389.25
562.381	378.25
562.593	397.25
562.805	395.25
563.017	397.25
563.229	405.25
563.441	393.25
563.653	404.25
563.865	404.25
564.077	392.25
564.289	415.25
564.501	417.25
564.713	435.25
564.925	405.25
565.137	423.25
565.349	451.25
565.561	421.25
565.773	446.25
565.985	478.25
566.197	485.25
566.408	527.25
566.62	505.25
566.832	525.25
567.044	552.25
567.255	564.25
567.467	554.25
567.679	581.25
567.891	600.25
568.102	599.25
568.314	571.25
568.526	564.25
568.737	539.25
568.949	487.25
569.161	460.25
569.372	463.25
569.584	429.25
569.795	433.25
570.007	428.25
570.218	441.25
570.43	416.25
570.641	407.25
570.853	406.25
571.064	399.25
571.276	396.25
571.487	407.25
571.698	388.25
571.91	386.25
572.121	371.25
572.333	356.25
572.544	357.25
572.755	373.25
572.966	348.25
573.178	350.25
573.389	376.25
573.6	381.25
573.811	348.25
574.023	351.25
574.234	335.25
574.445	337.25
574.656	357.25
574.867	335.25
575.078	354.25
575.289	347.25
575.501	362.25
575.712	344.25
575.923	342.25
576.134	356.25
576.345	341.25
576.556	356.25
576.767	328.25
576.978	326.25
577.188	344.25
577.399	330.25
577.61	311.25
577.821	327.25
578.032	341.25
578.243	347.25
578.454	410.25
578.665	365.25
578.875	325.25
579.086	305.25
579.297	327.25
579.508	323.25
579.718	327.25
579.929	313.25
580.14	323.25
580.35	303.25
580.561	317.25
580.772	326.25
580.982	330.25
581.193	322.25
581.403	307.25
581.614	315.25
581.825	325.25
582.035	316.25
582.246	317.25
582.456	313.25
582.667	295.25
582.877	313.25
583.087	318.25
583.298	311.25
583.508	318.25
583.719	315.25
583.929	324.25
584.139	305.25
584.35	310.25
584.56	327.25
584.77	299.25
584.981	309.25
585.191	307.25
585.401	309.25
585.611	289.25
585.821	309.25
586.032	310.25
586.242	306.25
586.452	319.25
586.662	300.25
586.872	316.25
587.082	300.25
587.292	287.25
587.502	292.25
587.713	317.25
587.923	315.25
588.133	314.25
588.343	304.25
588.553	307.25
588.762	305.25
588.972	311.25
589.182	344.25
589.392	330.25
589.602	310.25
589.812	316.25
590.022	298.25
590.232	321.25
590.441	307.25
590.651	316.25
590.861	321.25
591.071	317.25
591.281	306.25
591.49	313.25
591.7	317.25
591.91	310.25
592.119	310.25
592.329	333.25
592.539	341.25
592.748	330.25
592.958	333.25
593.167	335.25
593.377	357.25
593.587	348.25
593.796	349.25
594.006	357.25
594.215	344.25
594.424	341.25
594.634	335.25
594.843	329.25
595.053	293.25
595.262	297.25
595.472	324.25
595.681	330.25
595.89	314.25
596.1	301.25
596.309	298.25
596.518	307.25
596.727	300.25
596.937	296.25
597.146	282.25
597.355	275.25
597.564	279.25
597.774	300.25
597.983	296.25
598.192	286.25
598.401	293.25
598.61	282.25
598.819	264.25
599.028	268.25
599.237	253.25
599.446	263.25
599.655	288.25
599.864	262.25
600.073	268.25
600.282	249.25
600.491	243.25
600.7	268.25
600.909	268.25
601.118	265.25
601.327	244.25
601.536	268.25
601.745	268.25
601.953	243.25
602.162	278.25
602.371	269.25
602.58	258.25
602.789	263.25
602.997	242.25
603.206	264.25
603.415	264.25
603.623	249.25
603.832	242.25
604.041	247.25
604.249	251.25
604.458	245.25
604.666	248.25
604.875	254.25
605.084	246.25
605.292	254.25
605.501	252.25
605.709	243.25
605.918	245.25
606.126	254.25
606.334	267.25
606.543	238.25
606.751	226.25
606.96	239.25
607.168	255.25
607.376	248.25
607.585	257.25
607.793	247.25
608.001	247.25
608.21	250.25
608.418	246.25
608.626	236.25
608.834	244.25
609.043	248.25
609.251	247.25
609.459	237.25
609.667	239.25
609.875	265.25
610.083	238.25
610.291	247.25
610.499	241.25
610.707	229.25
610.916	246.25
611.124	247.25
611.332	254.25
611.54	245.25
611.748	237.25
611.955	249.25
612.163	245.25
612.371	227.25
612.579	229.25
612.787	240.25
612.995	245.25
613.203	246.25
613.411	231.25
613.618	231.25
613.826	242.25
614.034	231.25
614.242	250.25
614.449	232.25
614.657	240.25
614.865	229.25
615.072	239.25
615.28	238.25
615.488	241.25
615.695	232.25
615.903	250.25
616.111	258.25
616.318	228.25
616.526	245.25
616.733	237.25
616.941	229.25
617.148	236.25
617.356	234.25
617.563	240.25
617.771	238.25
617.978	247.25
618.185	217.25
618.393	245.25
618.6	234.25
618.807	233.25
619.015	229.25
619.222	235.25
619.429	231.25
619.637	238.25
619.844	228.25
620.051	224.25
620.258	232.25
620.466	227.25
620.673	220.25
620.88	206.25
621.087	213.25
621.294	221.25
621.501	209.25
621.708	229.25
621.915	214.25
622.122	206.25
622.329	226.25
622.536	231.25
622.743	214.25
622.95	204.25
623.157	221.25
623.364	205.25
623.571	212.25
623.778	223.25
623.985	220.25
624.192	223.25
624.399	218.25
624.606	227.25
624.812	207.25
625.019	222.25
625.226	211.25
625.433	219.25
625.639	217.25
625.846	200.25
626.053	231.25
626.259	215.25
626.466	204.25
626.673	213.25
626.879	206.25
627.086	215.25
627.293	217.25
627.499	217.25
627.706	218.25
627.912	203.25
628.119	217.25
628.325	204.25
628.532	219.25
628.738	210.25
628.945	210.25
629.151	216.25
629.357	205.25
629.564	199.25
629.77	202.25
629.976	199.25
630.183	194.25
630.389	195.25
630.595	214.25
630.802	204.25
631.008	200.25
631.214	191.25
631.42	209.25
631.627	201.25
631.833	199.25
632.039	199.25
632.245	200.25
632.451	198.25
632.657	218.25
632.863	192.25
633.069	193.25
633.275	189.25
633.481	185.25
633.688	191.25
633.893	184.25
634.099	181.25
634.305	177.25
634.511	193.25
634.717	182.25
634.923	192.25
635.129	190.25
635.335	187.25
635.541	184.25
635.747	188.25
635.952	193.25
636.158	185.25
636.364	183.25
636.57	183.25
636.775	200.25
636.981	181.25
637.187	194.25
637.392	190.25
637.598	180.25
637.804	179.25
638.009	195.25
638.215	190.25
638.421	173.25
638.626	187.25
638.832	159.25
639.037	170.25
639.243	179.25
639.448	186.25
639.654	175.25
639.859	154.25
640.065	161.25
640.27	177.25
640.475	195.25
640.681	182.25
640.886	183.25
641.091	180.25
641.297	193.25
641.502	166.25
641.707	189.25
641.913	174.25
642.118	181.25
642.323	158.25
642.528	171.25
642.733	166.25
642.939	181.25
643.144	171.25
643.349	173.25
643.554	178.25
643.759	169.25
643.964	174.25
644.169	181.25
644.374	165.25
644.579	165.25
644.784	171.25
644.989	172.25
645.194	163.25
645.399	163.25
645.604	183.25
645.809	159.25
646.014	169.25
646.219	165.25
646.423	151.25
646.628	173.25
646.833	173.25
647.038	192.25
647.243	181.25
647.447	175.25
647.652	172.25
647.857	163.25
648.062	172.25
648.266	159.25
648.471	173.25
648.676	177.25
648.88	182.25
649.085	174.25
649.289	181.25
649.494	175.25
649.698	165.25
649.903	189.25
650.107	170.25
650.312	151.25
650.516	161.25
650.721	147.25
650.925	149.25
651.13	149.25
651.334	156.25
651.539	141.25
651.743	164.25
651.947	156.25
652.152	142.25
652.356	162.25
652.56	162.25
652.764	150.25
652.969	155.25
653.173	147.25
653.377	153.25
653.581	147.25
653.785	148.25
653.99	146.25
654.194	156.25
654.398	151.25
654.602	147.25
654.806	144.25
655.01	147.25
655.214	152.25
655.418	147.25
655.622	154.25
655.826	153.25
656.03	150.25
656.234	154.25
656.438	155.25
656.642	156.25
656.846	134.25
657.049	149.25
657.253	139.25
657.457	121.25
657.661	125.25
657.865	120.25
658.068	125.25
658.272	119.25
658.476	120.25
658.68	107.25
658.883	115.25
659.087	108.25
659.291	115.25
659.494	114.25
659.698	98.25
659.901	90.25
660.105	108.25
660.309	96.25
660.512	99.25
660.716	102.25
660.919	86.25
661.123	91.25
661.326	88.25
661.53	90.25
661.733	97.25
661.936	100.25
662.14	93.25
662.343	92.25
662.546	89.25
662.75	94.25
662.953	97.25
663.156	90.25
663.36	92.25
663.563	78.25
663.766	88.25
663.969	84.25
664.173	89.25
664.376	91.25
664.579	81.25
664.782	84.25
664.985	88.25
665.188	70.25
665.391	97.25
665.594	77.25
665.797	90.25
666	99.25
666.203	73.25
666.406	81.25
666.609	92.25
666.812	80.25
667.015	77.25
667.218	76.25
667.421	78.25
667.624	80.25
667.827	91.25
668.03	77.25
668.232	73.25
668.435	105.25
668.638	91.25
668.841	98.25
669.043	94.25
669.246	77.25
669.449	76.25
669.651	84.25
669.854	72.25
670.057	82.25
670.259	86.25
670.462	83.25
670.665	85.25
670.867	77.25
671.07	85.25
671.272	79.25
671.475	105.25
671.677	74.25
671.88	89.25
672.082	89.25
672.284	88.25
672.487	83.25
672.689	83.25
672.892	80.25
