Data from 1962.PennyLincolnUp.Lamp.En5.5.200Scan.071719.P1._HRD10591_13-52-37-060.txt Node
Date: Thu Jul 18 13:52:37 EDT 2019
User: cochatt
Spectrometer: HR+D1059
Trigger mode: 1
Integration Time (sec): 1.000000E-1
Scans to average: 1
Electric dark correction enabled: true
Nonlinearity correction enabled: false
Boxcar width: 0
XAxis mode: Wavelengths
Number of Pixels in Spectrum: 2048
>>>>>Begin Spectral Data<<<<<
223.165	-11.25
223.4	-11.25
223.635	-11.25
223.869	-15.25
224.104	-28.25
224.338	-19.25
224.573	-14.25
224.808	-10.25
225.042	-1.25
225.277	-3.25
225.511	2.75
225.746	7.75
225.98	7.75
226.215	-1.25
226.449	10.75
226.683	17.75
226.918	24.75
227.152	32.75
227.387	32.75
227.621	31.75
227.856	38.75
228.09	46.75
228.324	49.75
228.559	45.75
228.793	63.75
229.027	82.75
229.262	85.75
229.496	95.75
229.73	87.75
229.964	91.75
230.199	89.75
230.433	104.75
230.667	99.75
230.901	97.75
231.136	95.75
231.37	86.75
231.604	111.75
231.838	97.75
232.072	94.75
232.306	98.75
232.541	108.75
232.775	82.75
233.009	111.75
233.243	109.75
233.477	106.75
233.711	104.75
233.945	118.75
234.179	113.75
234.413	115.75
234.647	103.75
234.881	99.75
235.115	111.75
235.349	111.75
235.583	121.75
235.817	107.75
236.051	109.75
236.285	111.75
236.519	112.75
236.753	124.75
236.987	119.75
237.221	153.75
237.455	171.75
237.689	125.75
237.922	117.75
238.156	96.75
238.39	113.75
238.624	114.75
238.858	103.75
239.091	117.75
239.325	112.75
239.559	106.75
239.793	103.75
240.027	103.75
240.26	98.75
240.494	125.75
240.728	123.75
240.961	114.75
241.195	113.75
241.429	116.75
241.662	116.75
241.896	121.75
242.13	117.75
242.363	122.75
242.597	128.75
242.83	97.75
243.064	120.75
243.298	127.75
243.531	119.75
243.765	123.75
243.998	126.75
244.232	133.75
244.465	125.75
244.699	129.75
244.932	145.75
245.166	134.75
245.399	125.75
245.633	131.75
245.866	139.75
246.099	144.75
246.333	136.75
246.566	134.75
246.8	151.75
247.033	130.75
247.266	127.75
247.5	141.75
247.733	158.75
247.966	148.75
248.2	149.75
248.433	137.75
248.666	157.75
248.899	153.75
249.133	150.75
249.366	157.75
249.599	153.75
249.832	145.75
250.066	151.75
250.299	161.75
250.532	160.75
250.765	155.75
250.998	155.75
251.231	174.75
251.465	169.75
251.698	158.75
251.931	162.75
252.164	158.75
252.397	169.75
252.63	177.75
252.863	168.75
253.096	167.75
253.329	176.75
253.562	196.75
253.795	162.75
254.028	165.75
254.261	177.75
254.494	181.75
254.727	178.75
254.96	185.75
255.193	209.75
255.426	173.75
255.659	179.75
255.892	175.75
256.124	181.75
256.357	179.75
256.59	177.75
256.823	166.75
257.056	173.75
257.289	175.75
257.521	167.75
257.754	173.75
257.987	177.75
258.22	155.75
258.452	174.75
258.685	179.75
258.918	163.75
259.151	177.75
259.383	158.75
259.616	171.75
259.849	185.75
260.081	192.75
260.314	205.75
260.547	194.75
260.779	191.75
261.012	189.75
261.244	180.75
261.477	189.75
261.71	195.75
261.942	199.75
262.175	185.75
262.407	174.75
262.64	186.75
262.872	184.75
263.105	177.75
263.337	190.75
263.57	174.75
263.802	188.75
264.035	178.75
264.267	203.75
264.499	183.75
264.732	190.75
264.964	194.75
265.197	197.75
265.429	200.75
265.661	184.75
265.894	183.75
266.126	190.75
266.358	199.75
266.591	193.75
266.823	191.75
267.055	189.75
267.287	203.75
267.52	197.75
267.752	199.75
267.984	199.75
268.216	210.75
268.448	208.75
268.681	201.75
268.913	201.75
269.145	197.75
269.377	214.75
269.609	218.75
269.841	200.75
270.073	220.75
270.306	222.75
270.538	238.75
270.77	233.75
271.002	227.75
271.234	231.75
271.466	224.75
271.698	243.75
271.93	240.75
272.162	216.75
272.394	231.75
272.626	232.75
272.858	214.75
273.09	209.75
273.322	214.75
273.553	223.75
273.785	216.75
274.017	230.75
274.249	222.75
274.481	229.75
274.713	227.75
274.945	232.75
275.176	226.75
275.408	207.75
275.64	205.75
275.872	225.75
276.104	222.75
276.335	226.75
276.567	225.75
276.799	228.75
277.031	230.75
277.262	271.75
277.494	248.75
277.726	251.75
277.957	242.75
278.189	232.75
278.421	230.75
278.652	235.75
278.884	232.75
279.115	235.75
279.347	234.75
279.579	230.75
279.81	238.75
280.042	231.75
280.273	243.75
280.505	250.75
280.736	222.75
280.968	245.75
281.199	242.75
281.431	230.75
281.662	224.75
281.894	245.75
282.125	236.75
282.356	254.75
282.588	242.75
282.819	233.75
283.051	261.75
283.282	245.75
283.513	252.75
283.745	244.75
283.976	261.75
284.207	234.75
284.439	273.75
284.67	245.75
284.901	268.75
285.132	253.75
285.364	257.75
285.595	260.75
285.826	257.75
286.057	241.75
286.288	247.75
286.52	278.75
286.751	267.75
286.982	249.75
287.213	248.75
287.444	279.75
287.675	246.75
287.906	279.75
288.138	251.75
288.369	248.75
288.6	285.75
288.831	270.75
289.062	272.75
289.293	273.75
289.524	262.75
289.755	259.75
289.986	256.75
290.217	256.75
290.448	258.75
290.679	257.75
290.91	254.75
291.141	265.75
291.371	279.75
291.602	287.75
291.833	283.75
292.064	271.75
292.295	270.75
292.526	270.75
292.757	269.75
292.987	267.75
293.218	265.75
293.449	266.75
293.68	267.75
293.91	260.75
294.141	259.75
294.372	257.75
294.603	275.75
294.833	270.75
295.064	264.75
295.295	268.75
295.525	277.75
295.756	293.75
295.987	285.75
296.217	285.75
296.448	281.75
296.679	296.75
296.909	280.75
297.14	280.75
297.37	274.75
297.601	285.75
297.831	279.75
298.062	263.75
298.292	279.75
298.523	275.75
298.753	286.75
298.984	287.75
299.214	289.75
299.445	285.75
299.675	281.75
299.905	301.75
300.136	296.75
300.366	311.75
300.597	287.75
300.827	298.75
301.057	289.75
301.288	311.75
301.518	293.75
301.748	280.75
301.979	315.75
302.209	298.75
302.439	298.75
302.669	309.75
302.9	322.75
303.13	299.75
303.36	291.75
303.59	298.75
303.82	312.75
304.051	305.75
304.281	310.75
304.511	303.75
304.741	303.75
304.971	298.75
305.201	323.75
305.431	321.75
305.661	290.75
305.891	297.75
306.121	302.75
306.352	305.75
306.582	303.75
306.812	305.75
307.042	294.75
307.272	296.75
307.502	301.75
307.731	300.75
307.961	320.75
308.191	318.75
308.421	287.75
308.651	318.75
308.881	303.75
309.111	302.75
309.341	305.75
309.571	315.75
309.8	332.75
310.03	305.75
310.26	334.75
310.49	306.75
310.72	321.75
310.949	313.75
311.179	318.75
311.409	307.75
311.639	304.75
311.868	307.75
312.098	330.75
312.328	314.75
312.557	331.75
312.787	355.75
313.017	350.75
313.246	324.75
313.476	314.75
313.706	336.75
313.935	326.75
314.165	338.75
314.394	353.75
314.624	331.75
314.853	334.75
315.083	319.75
315.312	349.75
315.542	346.75
315.771	340.75
316.001	337.75
316.23	322.75
316.46	308.75
316.689	342.75
316.919	331.75
317.148	340.75
317.377	329.75
317.607	351.75
317.836	345.75
318.065	326.75
318.295	312.75
318.524	345.75
318.753	332.75
318.983	345.75
319.212	354.75
319.441	340.75
319.67	335.75
319.9	305.75
320.129	315.75
320.358	346.75
320.587	360.75
320.816	336.75
321.046	355.75
321.275	339.75
321.504	330.75
321.733	331.75
321.962	330.75
322.191	354.75
322.42	336.75
322.649	340.75
322.878	330.75
323.108	358.75
323.337	362.75
323.566	373.75
323.795	367.75
324.024	382.75
324.253	435.75
324.482	548.75
324.71	767.75
324.939	1086.75
325.168	945.75
325.397	541.75
325.626	441.75
325.855	405.75
326.084	375.75
326.313	370.75
326.542	377.75
326.77	405.75
326.999	427.75
327.228	520.75
327.457	716.75
327.686	877.75
327.914	622.75
328.143	482.75
328.372	414.75
328.6	404.75
328.829	409.75
329.058	402.75
329.287	390.75
329.515	393.75
329.744	401.75
329.972	399.75
330.201	416.75
330.43	407.75
330.658	399.75
330.887	412.75
331.115	415.75
331.344	402.75
331.572	389.75
331.801	389.75
332.03	403.75
332.258	391.75
332.486	390.75
332.715	409.75
332.943	413.75
333.172	386.75
333.4	426.75
333.629	427.75
333.857	438.75
334.085	417.75
334.314	417.75
334.542	426.75
334.771	430.75
334.999	423.75
335.227	429.75
335.455	415.75
335.684	435.75
335.912	421.75
336.14	415.75
336.369	381.75
336.597	410.75
336.825	393.75
337.053	387.75
337.281	408.75
337.51	392.75
337.738	391.75
337.966	395.75
338.194	392.75
338.422	386.75
338.65	406.75
338.878	414.75
339.106	381.75
339.334	391.75
339.562	386.75
339.79	362.75
340.018	380.75
340.246	375.75
340.474	386.75
340.702	389.75
340.93	379.75
341.158	395.75
341.386	382.75
341.614	389.75
341.842	372.75
342.07	381.75
342.298	384.75
342.526	358.75
342.754	390.75
342.981	361.75
343.209	367.75
343.437	397.75
343.665	402.75
343.893	398.75
344.12	398.75
344.348	414.75
344.576	388.75
344.804	388.75
345.031	396.75
345.259	388.75
345.487	382.75
345.714	373.75
345.942	371.75
346.17	375.75
346.397	358.75
346.625	373.75
346.853	356.75
347.08	379.75
347.308	368.75
347.535	359.75
347.763	367.75
347.99	371.75
348.218	372.75
348.445	365.75
348.673	372.75
348.9	375.75
349.128	359.75
349.355	369.75
349.583	359.75
349.81	369.75
350.037	349.75
350.265	339.75
350.492	349.75
350.72	365.75
350.947	347.75
351.174	369.75
351.402	377.75
351.629	356.75
351.856	339.75
352.083	346.75
352.311	362.75
352.538	360.75
352.765	350.75
352.992	356.75
353.22	368.75
353.447	365.75
353.674	345.75
353.901	367.75
354.128	353.75
354.355	347.75
354.583	355.75
354.81	360.75
355.037	353.75
355.264	340.75
355.491	355.75
355.718	359.75
355.945	374.75
356.172	337.75
356.399	352.75
356.626	356.75
356.853	365.75
357.08	349.75
357.307	357.75
357.534	344.75
357.761	347.75
357.988	354.75
358.215	347.75
358.441	344.75
358.668	356.75
358.895	359.75
359.122	345.75
359.349	352.75
359.576	374.75
359.802	371.75
360.029	368.75
360.256	381.75
360.483	375.75
360.709	334.75
360.936	357.75
361.163	375.75
361.39	351.75
361.616	365.75
361.843	362.75
362.07	347.75
362.296	344.75
362.523	339.75
362.749	378.75
362.976	359.75
363.203	360.75
363.429	352.75
363.656	348.75
363.882	355.75
364.109	338.75
364.335	344.75
364.562	340.75
364.788	345.75
365.015	350.75
365.241	360.75
365.468	360.75
365.694	343.75
365.92	350.75
366.147	360.75
366.373	369.75
366.599	338.75
366.826	341.75
367.052	343.75
367.278	345.75
367.505	355.75
367.731	361.75
367.957	367.75
368.184	354.75
368.41	367.75
368.636	369.75
368.862	393.75
369.089	349.75
369.315	359.75
369.541	375.75
369.767	351.75
369.993	365.75
370.219	355.75
370.445	367.75
370.672	385.75
370.898	358.75
371.124	369.75
371.35	371.75
371.576	370.75
371.802	348.75
372.028	358.75
372.254	354.75
372.48	374.75
372.706	370.75
372.932	393.75
373.158	390.75
373.384	362.75
373.61	355.75
373.835	380.75
374.061	363.75
374.287	365.75
374.513	378.75
374.739	374.75
374.965	390.75
375.191	382.75
375.416	384.75
375.642	384.75
375.868	386.75
376.094	365.75
376.319	346.75
376.545	375.75
376.771	383.75
376.997	371.75
377.222	343.75
377.448	355.75
377.674	367.75
377.899	363.75
378.125	372.75
378.35	361.75
378.576	357.75
378.802	344.75
379.027	369.75
379.253	373.75
379.478	376.75
379.704	373.75
379.929	377.75
380.155	379.75
380.38	367.75
380.606	389.75
380.831	364.75
381.057	383.75
381.282	381.75
381.507	366.75
381.733	396.75
381.958	377.75
382.184	391.75
382.409	355.75
382.634	391.75
382.86	381.75
383.085	409.75
383.31	407.75
383.535	403.75
383.761	394.75
383.986	399.75
384.211	403.75
384.436	415.75
384.662	430.75
384.887	430.75
385.112	428.75
385.337	407.75
385.562	411.75
385.787	421.75
386.013	431.75
386.238	442.75
386.463	434.75
386.688	431.75
386.913	420.75
387.138	435.75
387.363	436.75
387.588	423.75
387.813	429.75
388.038	419.75
388.263	437.75
388.488	427.75
388.713	436.75
388.938	413.75
389.163	405.75
389.387	420.75
389.612	423.75
389.837	415.75
390.062	429.75
390.287	418.75
390.512	425.75
390.736	397.75
390.961	423.75
391.186	424.75
391.411	426.75
391.636	440.75
391.86	442.75
392.085	447.75
392.31	437.75
392.534	457.75
392.759	442.75
392.984	440.75
393.208	410.75
393.433	462.75
393.658	450.75
393.882	409.75
394.107	423.75
394.331	422.75
394.556	414.75
394.78	452.75
395.005	445.75
395.229	445.75
395.454	448.75
395.678	444.75
395.903	439.75
396.127	478.75
396.352	458.75
396.576	435.75
396.801	443.75
397.025	476.75
397.249	472.75
397.474	469.75
397.698	453.75
397.922	501.75
398.147	460.75
398.371	469.75
398.595	472.75
398.82	479.75
399.044	514.75
399.268	518.75
399.492	586.75
399.717	629.75
399.941	638.75
400.165	623.75
400.389	612.75
400.613	557.75
400.837	514.75
401.062	508.75
401.286	505.75
401.51	483.75
401.734	499.75
401.958	495.75
402.182	479.75
402.406	490.75
402.63	494.75
402.854	509.75
403.078	498.75
403.302	484.75
403.526	519.75
403.75	523.75
403.974	510.75
404.198	521.75
404.422	527.75
404.645	512.75
404.869	523.75
405.093	531.75
405.317	561.75
405.541	573.75
405.765	533.75
405.988	510.75
406.212	529.75
406.436	538.75
406.66	545.75
406.883	532.75
407.107	553.75
407.331	614.75
407.555	633.75
407.778	653.75
408.002	604.75
408.226	593.75
408.449	554.75
408.673	536.75
408.896	562.75
409.12	567.75
409.344	550.75
409.567	531.75
409.791	539.75
410.014	515.75
410.238	522.75
410.461	530.75
410.685	530.75
410.908	509.75
411.132	513.75
411.355	555.75
411.578	542.75
411.802	507.75
412.025	492.75
412.249	541.75
412.472	514.75
412.695	543.75
412.919	535.75
413.142	505.75
413.365	497.75
413.589	494.75
413.812	494.75
414.035	494.75
414.258	494.75
414.482	484.75
414.705	494.75
414.928	494.75
415.151	471.75
415.374	477.75
415.597	498.75
415.821	482.75
416.044	479.75
416.267	473.75
416.49	485.75
416.713	502.75
416.936	493.75
417.159	481.75
417.382	470.75
417.605	475.75
417.828	477.75
418.051	469.75
418.274	486.75
418.497	470.75
418.72	491.75
418.943	475.75
419.166	527.75
419.389	529.75
419.611	535.75
419.834	518.75
420.057	497.75
420.28	482.75
420.503	486.75
420.726	489.75
420.948	484.75
421.171	506.75
421.394	531.75
421.617	515.75
421.839	477.75
422.062	486.75
422.285	497.75
422.507	527.75
422.73	538.75
422.953	577.75
423.175	531.75
423.398	501.75
423.621	493.75
423.843	515.75
424.066	527.75
424.288	491.75
424.511	521.75
424.733	535.75
424.956	585.75
425.178	567.75
425.401	555.75
425.623	603.75
425.846	529.75
426.068	499.75
426.291	490.75
426.513	495.75
426.735	489.75
426.958	503.75
427.18	537.75
427.402	648.75
427.625	677.75
427.847	572.75
428.069	529.75
428.292	486.75
428.514	477.75
428.736	471.75
428.958	468.75
429.181	447.75
429.403	450.75
429.625	467.75
429.847	477.75
430.069	505.75
430.292	523.75
430.514	450.75
430.736	462.75
430.958	454.75
431.18	460.75
431.402	458.75
431.624	439.75
431.846	447.75
432.068	470.75
432.29	463.75
432.512	458.75
432.734	464.75
432.956	455.75
433.178	470.75
433.4	459.75
433.622	461.75
433.844	475.75
434.066	467.75
434.287	430.75
434.509	463.75
434.731	486.75
434.953	473.75
435.175	482.75
435.397	509.75
435.618	494.75
435.84	513.75
436.062	551.75
436.284	600.75
436.505	519.75
436.727	505.75
436.949	454.75
437.17	482.75
437.392	463.75
437.614	482.75
437.835	461.75
438.057	513.75
438.278	567.75
438.5	561.75
438.721	606.75
438.943	607.75
439.165	526.75
439.386	472.75
439.608	469.75
439.829	475.75
440.05	493.75
440.272	486.75
440.493	476.75
440.715	497.75
440.936	476.75
441.158	459.75
441.379	474.75
441.6	492.75
441.822	494.75
442.043	543.75
442.264	547.75
442.486	576.75
442.707	511.75
442.928	517.75
443.149	523.75
443.371	528.75
443.592	522.75
443.813	587.75
444.034	640.75
444.255	553.75
444.476	542.75
444.698	537.75
444.919	549.75
445.14	664.75
445.361	579.75
445.582	543.75
445.803	537.75
446.024	579.75
446.245	593.75
446.466	551.75
446.687	498.75
446.908	500.75
447.129	457.75
447.35	449.75
447.571	470.75
447.792	450.75
448.013	441.75
448.234	468.75
448.455	489.75
448.675	527.75
448.896	611.75
449.117	530.75
449.338	512.75
449.559	550.75
449.779	625.75
450	521.75
450.221	463.75
450.442	446.75
450.662	453.75
450.883	431.75
451.104	412.75
451.324	423.75
451.545	435.75
451.766	433.75
451.986	436.75
452.207	420.75
452.428	409.75
452.648	415.75
452.869	397.75
453.089	434.75
453.31	401.75
453.53	411.75
453.751	400.75
453.971	398.75
454.192	418.75
454.412	395.75
454.633	405.75
454.853	407.75
455.073	386.75
455.294	413.75
455.514	440.75
455.734	440.75
455.955	401.75
456.175	387.75
456.395	405.75
456.616	395.75
456.836	414.75
457.056	387.75
457.276	398.75
457.497	406.75
457.717	410.75
457.937	393.75
458.157	410.75
458.377	410.75
458.598	406.75
458.818	444.75
459.038	468.75
459.258	496.75
459.478	473.75
459.698	443.75
459.918	461.75
460.138	477.75
460.358	466.75
460.578	505.75
460.798	486.75
461.018	504.75
461.238	486.75
461.458	504.75
461.678	483.75
461.898	489.75
462.118	493.75
462.338	503.75
462.558	531.75
462.777	533.75
462.997	547.75
463.217	585.75
463.437	584.75
463.657	549.75
463.876	529.75
464.096	548.75
464.316	552.75
464.536	536.75
464.755	528.75
464.975	505.75
465.195	506.75
465.414	517.75
465.634	480.75
465.854	473.75
466.073	444.75
466.293	450.75
466.512	459.75
466.732	442.75
466.951	465.75
467.171	431.75
467.391	447.75
467.61	466.75
467.829	435.75
468.049	451.75
468.268	437.75
468.488	419.75
468.707	429.75
468.927	435.75
469.146	439.75
469.365	435.75
469.585	425.75
469.804	434.75
470.023	474.75
470.243	442.75
470.462	459.75
470.681	468.75
470.901	465.75
471.12	462.75
471.339	446.75
471.558	433.75
471.777	437.75
471.997	423.75
472.216	452.75
472.435	444.75
472.654	437.75
472.873	423.75
473.092	431.75
473.311	439.75
473.53	426.75
473.749	450.75
473.968	441.75
474.187	481.75
474.406	498.75
474.625	476.75
474.844	438.75
475.063	440.75
475.282	433.75
475.501	437.75
475.72	458.75
475.939	447.75
476.158	467.75
476.377	446.75
476.596	446.75
476.814	453.75
477.033	479.75
477.252	465.75
477.471	481.75
477.69	483.75
477.908	478.75
478.127	491.75
478.346	510.75
478.564	474.75
478.783	499.75
479.002	540.75
479.22	506.75
479.439	535.75
479.658	544.75
479.876	531.75
480.095	550.75
480.313	565.75
480.532	561.75
480.751	572.75
480.969	546.75
481.188	548.75
481.406	553.75
481.624	531.75
481.843	531.75
482.061	547.75
482.28	535.75
482.498	518.75
482.717	504.75
482.935	528.75
483.153	519.75
483.372	531.75
483.59	510.75
483.808	518.75
484.027	553.75
484.245	533.75
484.463	511.75
484.681	515.75
484.9	527.75
485.118	545.75
485.336	538.75
485.554	537.75
485.772	528.75
485.99	536.75
486.209	565.75
486.427	543.75
486.645	552.75
486.863	567.75
487.081	552.75
487.299	542.75
487.517	537.75
487.735	545.75
487.953	558.75
488.171	559.75
488.389	546.75
488.607	538.75
488.825	537.75
489.043	543.75
489.261	552.75
489.479	527.75
489.696	531.75
489.914	563.75
490.132	552.75
490.35	564.75
490.568	562.75
490.786	571.75
491.003	552.75
491.221	573.75
491.439	583.75
491.657	555.75
491.874	580.75
492.092	570.75
492.31	569.75
492.527	573.75
492.745	582.75
492.963	593.75
493.18	559.75
493.398	584.75
493.615	602.75
493.833	585.75
494.05	551.75
494.268	611.75
494.485	597.75
494.703	617.75
494.92	583.75
495.138	599.75
495.355	611.75
495.573	579.75
495.79	614.75
496.008	639.75
496.225	600.75
496.442	610.75
496.66	610.75
496.877	607.75
497.094	628.75
497.312	627.75
497.529	633.75
497.746	673.75
497.963	662.75
498.181	704.75
498.398	710.75
498.615	746.75
498.832	741.75
499.049	773.75
499.267	834.75
499.484	865.75
499.701	916.75
499.918	950.75
500.135	1025.75
500.352	1097.75
500.569	1114.75
500.786	1104.75
501.003	1056.75
501.22	1052.75
501.437	977.75
501.654	907.75
501.871	898.75
502.088	824.75
502.305	810.75
502.522	758.75
502.739	724.75
502.956	712.75
503.172	702.75
503.389	707.75
503.606	695.75
503.823	639.75
504.04	652.75
504.256	644.75
504.473	648.75
504.69	661.75
504.907	642.75
505.123	655.75
505.34	615.75
505.557	592.75
505.773	611.75
505.99	583.75
506.207	587.75
506.423	574.75
506.64	569.75
506.856	555.75
507.073	577.75
507.289	557.75
507.506	571.75
507.722	551.75
507.939	557.75
508.155	554.75
508.372	528.75
508.588	515.75
508.805	524.75
509.021	510.75
509.238	519.75
509.454	537.75
509.67	550.75
509.887	536.75
510.103	538.75
510.319	533.75
510.536	569.75
510.752	711.75
510.968	643.75
511.184	520.75
511.401	523.75
511.617	482.75
511.833	509.75
512.049	521.75
512.265	497.75
512.481	509.75
512.698	494.75
512.914	514.75
513.13	499.75
513.346	518.75
513.562	505.75
513.778	521.75
513.994	521.75
514.21	515.75
514.426	514.75
514.642	503.75
514.858	545.75
515.074	566.75
515.29	591.75
515.506	721.75
515.721	631.75
515.937	562.75
516.153	547.75
516.369	538.75
516.585	548.75
516.801	567.75
517.016	546.75
517.232	587.75
517.448	571.75
517.664	586.75
517.879	573.75
518.095	587.75
518.311	606.75
518.527	564.75
518.742	565.75
518.958	570.75
519.173	546.75
519.389	547.75
519.605	517.75
519.82	505.75
520.036	534.75
520.251	509.75
520.467	527.75
520.682	524.75
520.898	523.75
521.113	518.75
521.329	528.75
521.544	552.75
521.76	591.75
521.975	769.75
522.19	775.75
522.406	555.75
522.621	511.75
522.836	518.75
523.052	506.75
523.267	477.75
523.482	453.75
523.698	475.75
523.913	464.75
524.128	462.75
524.343	473.75
524.559	446.75
524.774	465.75
524.989	446.75
525.204	448.75
525.419	448.75
525.634	466.75
525.849	478.75
526.064	432.75
526.28	438.75
526.495	442.75
526.71	464.75
526.925	457.75
527.14	422.75
527.355	447.75
527.57	445.75
527.785	440.75
527.999	418.75
528.214	458.75
528.429	450.75
528.644	441.75
528.859	420.75
529.074	433.75
529.289	452.75
529.503	482.75
529.718	464.75
529.933	457.75
530.148	418.75
530.363	439.75
530.577	427.75
530.792	445.75
531.007	465.75
531.221	446.75
531.436	441.75
531.651	425.75
531.865	446.75
532.08	422.75
532.295	454.75
532.509	436.75
532.724	443.75
532.938	431.75
533.153	446.75
533.367	420.75
533.582	441.75
533.796	420.75
534.011	434.75
534.225	429.75
534.44	424.75
534.654	423.75
534.868	413.75
535.083	421.75
535.297	427.75
535.511	419.75
535.726	432.75
535.94	423.75
536.154	445.75
536.369	415.75
536.583	423.75
536.797	407.75
537.011	423.75
537.225	425.75
537.44	432.75
537.654	419.75
537.868	407.75
538.082	423.75
538.296	420.75
538.51	425.75
538.724	425.75
538.938	413.75
539.153	417.75
539.367	431.75
539.581	437.75
539.795	419.75
540.009	415.75
540.222	406.75
540.436	408.75
540.65	403.75
540.864	406.75
541.078	421.75
541.292	399.75
541.506	425.75
541.72	401.75
541.934	404.75
542.147	407.75
542.361	426.75
542.575	393.75
542.789	414.75
543.002	405.75
543.216	414.75
543.43	423.75
543.644	388.75
543.857	441.75
544.071	401.75
544.285	413.75
544.498	407.75
544.712	410.75
544.925	403.75
545.139	395.75
545.352	408.75
545.566	415.75
545.779	418.75
545.993	411.75
546.206	415.75
546.42	410.75
546.633	409.75
546.847	400.75
547.06	434.75
547.274	414.75
547.487	402.75
547.7	407.75
547.914	400.75
548.127	403.75
548.34	417.75
548.554	430.75
548.767	396.75
548.98	419.75
549.193	406.75
549.407	399.75
549.62	405.75
549.833	420.75
550.046	416.75
550.259	417.75
550.473	406.75
550.686	423.75
550.899	409.75
551.112	407.75
551.325	390.75
551.538	390.75
551.751	398.75
551.964	395.75
552.177	412.75
552.39	407.75
552.603	410.75
552.816	415.75
553.029	430.75
553.242	422.75
553.455	425.75
553.667	436.75
553.88	443.75
554.093	415.75
554.306	415.75
554.519	423.75
554.732	411.75
554.944	387.75
555.157	399.75
555.37	382.75
555.583	388.75
555.795	378.75
556.008	381.75
556.221	379.75
556.433	395.75
556.646	378.75
556.859	372.75
557.071	363.75
557.284	377.75
557.496	370.75
557.709	370.75
557.921	388.75
558.134	372.75
558.346	377.75
558.559	372.75
558.771	373.75
558.984	364.75
559.196	379.75
559.409	378.75
559.621	387.75
559.833	356.75
560.046	357.75
560.258	346.75
560.47	358.75
560.683	370.75
560.895	394.75
561.107	366.75
561.32	374.75
561.532	381.75
561.744	371.75
561.956	372.75
562.168	351.75
562.381	371.75
562.593	384.75
562.805	374.75
563.017	381.75
563.229	371.75
563.441	373.75
563.653	377.75
563.865	386.75
564.077	376.75
564.289	381.75
564.501	380.75
564.713	386.75
564.925	401.75
565.137	405.75
565.349	409.75
565.561	426.75
565.773	425.75
565.985	439.75
566.197	447.75
566.408	464.75
566.62	511.75
566.832	519.75
567.044	525.75
567.255	534.75
567.467	515.75
567.679	552.75
567.891	571.75
568.102	573.75
568.314	545.75
568.526	517.75
568.737	486.75
568.949	455.75
569.161	435.75
569.372	423.75
569.584	430.75
569.795	393.75
570.007	403.75
570.218	396.75
570.43	389.75
570.641	398.75
570.853	397.75
571.064	372.75
571.276	371.75
571.487	368.75
571.698	360.75
571.91	338.75
572.121	350.75
572.333	360.75
572.544	338.75
572.755	358.75
572.966	356.75
573.178	334.75
573.389	339.75
573.6	341.75
573.811	318.75
574.023	331.75
574.234	342.75
574.445	329.75
574.656	322.75
574.867	327.75
575.078	345.75
575.289	346.75
575.501	327.75
575.712	303.75
575.923	324.75
576.134	329.75
576.345	315.75
576.556	318.75
576.767	314.75
576.978	306.75
577.188	313.75
577.399	323.75
577.61	318.75
577.821	323.75
578.032	309.75
578.243	318.75
578.454	407.75
578.665	332.75
578.875	291.75
579.086	301.75
579.297	301.75
579.508	308.75
579.718	305.75
579.929	319.75
580.14	329.75
580.35	305.75
580.561	287.75
580.772	299.75
580.982	297.75
581.193	297.75
581.403	304.75
581.614	295.75
581.825	289.75
582.035	304.75
582.246	308.75
582.456	296.75
582.667	293.75
582.877	298.75
583.087	292.75
583.298	298.75
583.508	271.75
583.719	289.75
583.929	291.75
584.139	274.75
584.35	289.75
584.56	283.75
584.77	285.75
584.981	290.75
585.191	304.75
585.401	305.75
585.611	312.75
585.821	306.75
586.032	287.75
586.242	277.75
586.452	293.75
586.662	282.75
586.872	280.75
587.082	280.75
587.292	279.75
587.502	295.75
587.713	272.75
587.923	304.75
588.133	281.75
588.343	288.75
588.553	271.75
588.762	285.75
588.972	317.75
589.182	497.75
589.392	493.75
589.602	339.75
589.812	471.75
590.022	400.75
590.232	313.75
590.441	305.75
590.651	293.75
590.861	290.75
591.071	278.75
591.281	286.75
591.49	298.75
591.7	303.75
591.91	304.75
592.119	301.75
592.329	299.75
592.539	329.75
592.748	339.75
592.958	309.75
593.167	329.75
593.377	343.75
593.587	328.75
593.796	339.75
594.006	320.75
594.215	343.75
594.424	323.75
594.634	350.75
594.843	317.75
595.053	305.75
595.262	306.75
595.472	296.75
595.681	288.75
595.89	310.75
596.1	285.75
596.309	286.75
596.518	283.75
596.727	281.75
596.937	257.75
597.146	265.75
597.355	264.75
597.564	262.75
597.774	277.75
597.983	279.75
598.192	256.75
598.401	271.75
598.61	264.75
598.819	265.75
599.028	266.75
599.237	251.75
599.446	242.75
599.655	253.75
599.864	257.75
600.073	270.75
600.282	260.75
600.491	271.75
600.7	277.75
600.909	243.75
601.118	254.75
601.327	261.75
601.536	268.75
601.745	246.75
601.953	265.75
602.162	261.75
602.371	253.75
602.58	241.75
602.789	244.75
602.997	245.75
603.206	248.75
603.415	255.75
603.623	244.75
603.832	251.75
604.041	250.75
604.249	237.75
604.458	245.75
604.666	244.75
604.875	249.75
605.084	253.75
605.292	241.75
605.501	224.75
605.709	251.75
605.918	250.75
606.126	241.75
606.334	240.75
606.543	248.75
606.751	246.75
606.96	223.75
607.168	230.75
607.376	234.75
607.585	234.75
607.793	231.75
608.001	257.75
608.21	237.75
608.418	229.75
608.626	233.75
608.834	216.75
609.043	231.75
609.251	225.75
609.459	228.75
609.667	221.75
609.875	218.75
610.083	239.75
610.291	226.75
610.499	246.75
610.707	225.75
610.916	246.75
611.124	241.75
611.332	227.75
611.54	248.75
611.748	217.75
611.955	232.75
612.163	226.75
612.371	215.75
612.579	222.75
612.787	221.75
612.995	241.75
613.203	230.75
613.411	231.75
613.618	230.75
613.826	222.75
614.034	215.75
614.242	226.75
614.449	223.75
614.657	221.75
614.865	231.75
615.072	240.75
615.28	227.75
615.488	215.75
615.695	232.75
615.903	237.75
616.111	234.75
616.318	223.75
616.526	229.75
616.733	235.75
616.941	223.75
617.148	237.75
617.356	224.75
617.563	221.75
617.771	231.75
617.978	226.75
618.185	211.75
618.393	232.75
618.6	223.75
618.807	237.75
619.015	234.75
619.222	193.75
619.429	220.75
619.637	205.75
619.844	210.75
620.051	222.75
620.258	228.75
620.466	206.75
620.673	210.75
620.88	202.75
621.087	229.75
621.294	218.75
621.501	194.75
621.708	213.75
621.915	215.75
622.122	207.75
622.329	215.75
622.536	210.75
622.743	216.75
622.95	207.75
623.157	210.75
623.364	203.75
623.571	199.75
623.778	215.75
623.985	216.75
624.192	207.75
624.399	198.75
624.606	220.75
624.812	215.75
625.019	210.75
625.226	217.75
625.433	200.75
625.639	182.75
625.846	201.75
626.053	198.75
626.259	220.75
626.466	193.75
626.673	199.75
626.879	189.75
627.086	203.75
627.293	207.75
627.499	192.75
627.706	208.75
627.912	200.75
628.119	191.75
628.325	201.75
628.532	202.75
628.738	187.75
628.945	204.75
629.151	191.75
629.357	191.75
629.564	183.75
629.77	183.75
629.976	180.75
630.183	185.75
630.389	196.75
630.595	192.75
630.802	178.75
631.008	190.75
631.214	209.75
631.42	183.75
631.627	182.75
631.833	189.75
632.039	184.75
632.245	186.75
632.451	183.75
632.657	187.75
632.863	180.75
633.069	171.75
633.275	185.75
633.481	173.75
633.688	183.75
633.893	179.75
634.099	184.75
634.305	175.75
634.511	175.75
634.717	185.75
634.923	191.75
635.129	173.75
635.335	176.75
635.541	181.75
635.747	191.75
635.952	181.75
636.158	190.75
636.364	176.75
636.57	155.75
636.775	196.75
636.981	177.75
637.187	177.75
637.392	170.75
637.598	175.75
637.804	192.75
638.009	171.75
638.215	183.75
638.421	182.75
638.626	185.75
638.832	187.75
639.037	188.75
639.243	183.75
639.448	196.75
639.654	190.75
639.859	165.75
640.065	162.75
640.27	184.75
640.475	185.75
640.681	165.75
640.886	175.75
641.091	158.75
641.297	174.75
641.502	163.75
641.707	155.75
641.913	161.75
642.118	169.75
642.323	181.75
642.528	166.75
642.733	186.75
642.939	169.75
643.144	165.75
643.349	166.75
643.554	154.75
643.759	161.75
643.964	150.75
644.169	150.75
644.374	176.75
644.579	176.75
644.784	175.75
644.989	162.75
645.194	152.75
645.399	174.75
645.604	163.75
645.809	159.75
646.014	155.75
646.219	151.75
646.423	158.75
646.628	165.75
646.833	148.75
647.038	168.75
647.243	147.75
647.447	152.75
647.652	175.75
647.857	169.75
648.062	147.75
648.266	183.75
648.471	173.75
648.676	175.75
648.88	188.75
649.085	193.75
649.289	178.75
649.494	173.75
649.698	193.75
649.903	179.75
650.107	171.75
650.312	160.75
650.516	154.75
650.721	152.75
650.925	152.75
651.13	158.75
651.334	149.75
651.539	167.75
651.743	161.75
651.947	156.75
652.152	147.75
652.356	157.75
652.56	154.75
652.764	148.75
652.969	146.75
653.173	152.75
653.377	138.75
653.581	166.75
653.785	149.75
653.99	150.75
654.194	159.75
654.398	147.75
654.602	152.75
654.806	153.75
655.01	161.75
655.214	147.75
655.418	160.75
655.622	159.75
655.826	161.75
656.03	146.75
656.234	173.75
656.438	170.75
656.642	170.75
656.846	172.75
657.049	169.75
657.253	147.75
657.457	153.75
657.661	147.75
657.865	128.75
658.068	129.75
658.272	114.75
658.476	119.75
658.68	99.75
658.883	110.75
659.087	117.75
659.291	112.75
659.494	95.75
659.698	102.75
659.901	101.75
660.105	102.75
660.309	89.75
660.512	84.75
660.716	90.75
660.919	89.75
661.123	92.75
661.326	102.75
661.53	98.75
661.733	75.75
661.936	87.75
662.14	85.75
662.343	83.75
662.546	89.75
662.75	91.75
662.953	77.75
663.156	74.75
663.36	97.75
663.563	85.75
663.766	92.75
663.969	79.75
664.173	77.75
664.376	89.75
664.579	79.75
664.782	70.75
664.985	90.75
665.188	77.75
665.391	90.75
665.594	75.75
665.797	88.75
666	82.75
666.203	75.75
666.406	74.75
666.609	82.75
666.812	84.75
667.015	71.75
667.218	74.75
667.421	81.75
667.624	83.75
667.827	99.75
668.03	81.75
668.232	69.75
668.435	81.75
668.638	70.75
668.841	77.75
669.043	69.75
669.246	88.75
669.449	66.75
669.651	82.75
669.854	82.75
670.057	81.75
670.259	83.75
670.462	83.75
670.665	72.75
670.867	80.75
671.07	101.75
671.272	100.75
671.475	77.75
671.677	74.75
671.88	86.75
672.082	75.75
672.284	78.75
672.487	96.75
672.689	85.75
672.892	73.75
