Data from 1962.PennyLincolnUp.Lamp.En5.5.200Scan.071719.P1._HRD10591_13-54-21-061.txt Node
Date: Thu Jul 18 13:54:21 EDT 2019
User: cochatt
Spectrometer: HR+D1059
Trigger mode: 1
Integration Time (sec): 1.000000E-1
Scans to average: 1
Electric dark correction enabled: true
Nonlinearity correction enabled: false
Boxcar width: 0
XAxis mode: Wavelengths
Number of Pixels in Spectrum: 2048
>>>>>Begin Spectral Data<<<<<
223.165	-16.06
223.4	-16.06
223.635	-16.06
223.869	-22.06
224.104	-24.06
224.338	-6.06
224.573	-8.06
224.808	-12.06
225.042	6.94
225.277	-10.06
225.511	6.94
225.746	-12.06
225.98	13.94
226.215	1.94
226.449	17.94
226.683	19.94
226.918	18.94
227.152	23.94
227.387	31.94
227.621	38.94
227.856	29.94
228.09	44.94
228.324	49.94
228.559	50.94
228.793	71.94
229.027	72.94
229.262	86.94
229.496	101.94
229.73	104.94
229.964	120.94
230.199	119.94
230.433	100.94
230.667	98.94
230.901	102.94
231.136	86.94
231.37	106.94
231.604	104.94
231.838	99.94
232.072	109.94
232.306	108.94
232.541	111.94
232.775	103.94
233.009	105.94
233.243	111.94
233.477	109.94
233.711	119.94
233.945	113.94
234.179	104.94
234.413	110.94
234.647	113.94
234.881	99.94
235.115	127.94
235.349	115.94
235.583	112.94
235.817	118.94
236.051	109.94
236.285	106.94
236.519	121.94
236.753	105.94
236.987	123.94
237.221	138.94
237.455	187.94
237.689	159.94
237.922	148.94
238.156	116.94
238.39	121.94
238.624	130.94
238.858	115.94
239.091	144.94
239.325	114.94
239.559	118.94
239.793	115.94
240.027	118.94
240.26	125.94
240.494	121.94
240.728	140.94
240.961	138.94
241.195	147.94
241.429	139.94
241.662	137.94
241.896	126.94
242.13	120.94
242.363	129.94
242.597	118.94
242.83	129.94
243.064	131.94
243.298	116.94
243.531	148.94
243.765	124.94
243.998	128.94
244.232	138.94
244.465	138.94
244.699	128.94
244.932	140.94
245.166	128.94
245.399	130.94
245.633	143.94
245.866	148.94
246.099	138.94
246.333	134.94
246.566	143.94
246.8	149.94
247.033	136.94
247.266	148.94
247.5	161.94
247.733	169.94
247.966	162.94
248.2	167.94
248.433	162.94
248.666	150.94
248.899	166.94
249.133	183.94
249.366	166.94
249.599	173.94
249.832	169.94
250.066	153.94
250.299	177.94
250.532	161.94
250.765	160.94
250.998	187.94
251.231	181.94
251.465	190.94
251.698	167.94
251.931	175.94
252.164	165.94
252.397	177.94
252.63	183.94
252.863	169.94
253.096	183.94
253.329	212.94
253.562	187.94
253.795	206.94
254.028	212.94
254.261	191.94
254.494	213.94
254.727	217.94
254.96	223.94
255.193	232.94
255.426	215.94
255.659	210.94
255.892	209.94
256.124	204.94
256.357	197.94
256.59	202.94
256.823	191.94
257.056	183.94
257.289	193.94
257.521	190.94
257.754	202.94
257.987	208.94
258.22	208.94
258.452	189.94
258.685	204.94
258.918	198.94
259.151	201.94
259.383	215.94
259.616	197.94
259.849	210.94
260.081	193.94
260.314	221.94
260.547	239.94
260.779	224.94
261.012	212.94
261.244	210.94
261.477	179.94
261.71	212.94
261.942	215.94
262.175	203.94
262.407	225.94
262.64	215.94
262.872	201.94
263.105	195.94
263.337	196.94
263.57	191.94
263.802	195.94
264.035	197.94
264.267	209.94
264.499	201.94
264.732	204.94
264.964	211.94
265.197	207.94
265.429	204.94
265.661	213.94
265.894	187.94
266.126	218.94
266.358	211.94
266.591	214.94
266.823	228.94
267.055	227.94
267.287	221.94
267.52	221.94
267.752	218.94
267.984	230.94
268.216	219.94
268.448	237.94
268.681	218.94
268.913	229.94
269.145	230.94
269.377	233.94
269.609	250.94
269.841	233.94
270.073	249.94
270.306	263.94
270.538	274.94
270.77	267.94
271.002	276.94
271.234	267.94
271.466	270.94
271.698	255.94
271.93	270.94
272.162	273.94
272.394	272.94
272.626	285.94
272.858	271.94
273.09	279.94
273.322	245.94
273.553	264.94
273.785	245.94
274.017	234.94
274.249	241.94
274.481	242.94
274.713	246.94
274.945	264.94
275.176	254.94
275.408	267.94
275.64	263.94
275.872	266.94
276.104	250.94
276.335	265.94
276.567	262.94
276.799	268.94
277.031	284.94
277.262	297.94
277.494	285.94
277.726	287.94
277.957	276.94
278.189	280.94
278.421	260.94
278.652	261.94
278.884	303.94
279.115	265.94
279.347	271.94
279.579	270.94
279.81	272.94
280.042	272.94
280.273	268.94
280.505	268.94
280.736	259.94
280.968	271.94
281.199	265.94
281.431	271.94
281.662	288.94
281.894	259.94
282.125	258.94
282.356	275.94
282.588	301.94
282.819	286.94
283.051	272.94
283.282	282.94
283.513	292.94
283.745	294.94
283.976	271.94
284.207	267.94
284.439	287.94
284.67	288.94
284.901	293.94
285.132	298.94
285.364	275.94
285.595	276.94
285.826	272.94
286.057	299.94
286.288	286.94
286.52	288.94
286.751	280.94
286.982	280.94
287.213	268.94
287.444	282.94
287.675	271.94
287.906	291.94
288.138	308.94
288.369	293.94
288.6	282.94
288.831	287.94
289.062	295.94
289.293	316.94
289.524	303.94
289.755	312.94
289.986	292.94
290.217	273.94
290.448	293.94
290.679	295.94
290.91	305.94
291.141	297.94
291.371	303.94
291.602	283.94
291.833	296.94
292.064	273.94
292.295	307.94
292.526	277.94
292.757	302.94
292.987	290.94
293.218	293.94
293.449	311.94
293.68	295.94
293.91	305.94
294.141	282.94
294.372	310.94
294.603	274.94
294.833	298.94
295.064	309.94
295.295	307.94
295.525	310.94
295.756	322.94
295.987	309.94
296.217	330.94
296.448	319.94
296.679	295.94
296.909	288.94
297.14	307.94
297.37	314.94
297.601	331.94
297.831	304.94
298.062	311.94
298.292	323.94
298.523	307.94
298.753	306.94
298.984	294.94
299.214	311.94
299.445	314.94
299.675	321.94
299.905	345.94
300.136	305.94
300.366	317.94
300.597	325.94
300.827	331.94
301.057	318.94
301.288	334.94
301.518	346.94
301.748	340.94
301.979	339.94
302.209	335.94
302.439	347.94
302.669	334.94
302.9	322.94
303.13	329.94
303.36	346.94
303.59	341.94
303.82	343.94
304.051	338.94
304.281	330.94
304.511	321.94
304.741	344.94
304.971	344.94
305.201	322.94
305.431	321.94
305.661	332.94
305.891	331.94
306.121	340.94
306.352	347.94
306.582	332.94
306.812	321.94
307.042	345.94
307.272	330.94
307.502	330.94
307.731	331.94
307.961	315.94
308.191	346.94
308.421	336.94
308.651	322.94
308.881	341.94
309.111	349.94
309.341	335.94
309.571	365.94
309.8	367.94
310.03	374.94
310.26	347.94
310.49	372.94
310.72	365.94
310.949	372.94
311.179	381.94
311.409	371.94
311.639	381.94
311.868	349.94
312.098	368.94
312.328	363.94
312.557	373.94
312.787	373.94
313.017	381.94
313.246	366.94
313.476	359.94
313.706	372.94
313.935	371.94
314.165	377.94
314.394	372.94
314.624	379.94
314.853	388.94
315.083	369.94
315.312	370.94
315.542	366.94
315.771	380.94
316.001	360.94
316.23	360.94
316.46	374.94
316.689	341.94
316.919	369.94
317.148	374.94
317.377	377.94
317.607	367.94
317.836	362.94
318.065	373.94
318.295	371.94
318.524	376.94
318.753	381.94
318.983	360.94
319.212	355.94
319.441	390.94
319.67	381.94
319.9	362.94
320.129	379.94
320.358	381.94
320.587	385.94
320.816	394.94
321.046	375.94
321.275	377.94
321.504	387.94
321.733	406.94
321.962	396.94
322.191	409.94
322.42	418.94
322.649	383.94
322.878	395.94
323.108	421.94
323.337	437.94
323.566	405.94
323.795	434.94
324.024	482.94
324.253	546.94
324.482	711.94
324.71	1005.94
324.939	1412.94
325.168	1235.94
325.397	703.94
325.626	527.94
325.855	469.94
326.084	457.94
326.313	450.94
326.542	459.94
326.77	479.94
326.999	511.94
327.228	656.94
327.457	931.94
327.686	1095.94
327.914	750.94
328.143	565.94
328.372	513.94
328.6	503.94
328.829	485.94
329.058	461.94
329.287	490.94
329.515	481.94
329.744	439.94
329.972	459.94
330.201	485.94
330.43	489.94
330.658	498.94
330.887	484.94
331.115	498.94
331.344	478.94
331.572	463.94
331.801	455.94
332.03	464.94
332.258	458.94
332.486	447.94
332.715	454.94
332.943	438.94
333.172	459.94
333.4	463.94
333.629	470.94
333.857	479.94
334.085	487.94
334.314	532.94
334.542	517.94
334.771	516.94
334.999	491.94
335.227	473.94
335.455	473.94
335.684	460.94
335.912	456.94
336.14	446.94
336.369	441.94
336.597	447.94
336.825	450.94
337.053	448.94
337.281	442.94
337.51	442.94
337.738	434.94
337.966	436.94
338.194	447.94
338.422	456.94
338.65	448.94
338.878	439.94
339.106	432.94
339.334	422.94
339.562	420.94
339.79	413.94
340.018	402.94
340.246	432.94
340.474	425.94
340.702	433.94
340.93	419.94
341.158	405.94
341.386	417.94
341.614	422.94
341.842	417.94
342.07	425.94
342.298	410.94
342.526	422.94
342.754	412.94
342.981	423.94
343.209	408.94
343.437	421.94
343.665	443.94
343.893	451.94
344.12	455.94
344.348	465.94
344.576	435.94
344.804	435.94
345.031	444.94
345.259	444.94
345.487	434.94
345.714	415.94
345.942	413.94
346.17	394.94
346.397	420.94
346.625	418.94
346.853	395.94
347.08	400.94
347.308	403.94
347.535	419.94
347.763	404.94
347.99	398.94
348.218	418.94
348.445	427.94
348.673	409.94
348.9	385.94
349.128	392.94
349.355	385.94
349.583	407.94
349.81	399.94
350.037	396.94
350.265	408.94
350.492	407.94
350.72	405.94
350.947	402.94
351.174	431.94
351.402	408.94
351.629	390.94
351.856	401.94
352.083	401.94
352.311	405.94
352.538	397.94
352.765	415.94
352.992	395.94
353.22	402.94
353.447	407.94
353.674	420.94
353.901	396.94
354.128	371.94
354.355	378.94
354.583	394.94
354.81	362.94
355.037	382.94
355.264	399.94
355.491	395.94
355.718	375.94
355.945	385.94
356.172	396.94
356.399	413.94
356.626	391.94
356.853	374.94
357.08	396.94
357.307	381.94
357.534	399.94
357.761	392.94
357.988	387.94
358.215	392.94
358.441	401.94
358.668	393.94
358.895	396.94
359.122	403.94
359.349	383.94
359.576	394.94
359.802	402.94
360.029	409.94
360.256	435.94
360.483	421.94
360.709	413.94
360.936	412.94
361.163	397.94
361.39	411.94
361.616	416.94
361.843	394.94
362.07	411.94
362.296	390.94
362.523	410.94
362.749	393.94
362.976	400.94
363.203	403.94
363.429	380.94
363.656	400.94
363.882	384.94
364.109	391.94
364.335	409.94
364.562	392.94
364.788	395.94
365.015	375.94
365.241	403.94
365.468	403.94
365.694	394.94
365.92	418.94
366.147	392.94
366.373	384.94
366.599	393.94
366.826	389.94
367.052	378.94
367.278	395.94
367.505	394.94
367.731	407.94
367.957	369.94
368.184	389.94
368.41	390.94
368.636	407.94
368.862	415.94
369.089	396.94
369.315	389.94
369.541	402.94
369.767	396.94
369.993	405.94
370.219	403.94
370.445	391.94
370.672	392.94
370.898	394.94
371.124	380.94
371.35	401.94
371.576	379.94
371.802	398.94
372.028	387.94
372.254	413.94
372.48	381.94
372.706	426.94
372.932	397.94
373.158	422.94
373.384	422.94
373.61	405.94
373.835	402.94
374.061	419.94
374.287	411.94
374.513	425.94
374.739	428.94
374.965	420.94
375.191	431.94
375.416	422.94
375.642	431.94
375.868	429.94
376.094	397.94
376.319	395.94
376.545	399.94
376.771	397.94
376.997	414.94
377.222	397.94
377.448	393.94
377.674	409.94
377.899	395.94
378.125	399.94
378.35	391.94
378.576	385.94
378.802	402.94
379.027	410.94
379.253	401.94
379.478	411.94
379.704	407.94
379.929	423.94
380.155	407.94
380.38	408.94
380.606	407.94
380.831	376.94
381.057	399.94
381.282	397.94
381.507	405.94
381.733	410.94
381.958	386.94
382.184	414.94
382.409	415.94
382.634	418.94
382.86	440.94
383.085	406.94
383.31	441.94
383.535	428.94
383.761	431.94
383.986	440.94
384.211	443.94
384.436	463.94
384.662	454.94
384.887	431.94
385.112	438.94
385.337	482.94
385.562	441.94
385.787	448.94
386.013	469.94
386.238	457.94
386.463	445.94
386.688	463.94
386.913	466.94
387.138	457.94
387.363	458.94
387.588	470.94
387.813	456.94
388.038	455.94
388.263	447.94
388.488	435.94
388.713	462.94
388.938	462.94
389.163	458.94
389.387	442.94
389.612	454.94
389.837	456.94
390.062	432.94
390.287	451.94
390.512	448.94
390.736	472.94
390.961	444.94
391.186	446.94
391.411	482.94
391.636	464.94
391.86	479.94
392.085	490.94
392.31	494.94
392.534	489.94
392.759	473.94
392.984	481.94
393.208	468.94
393.433	459.94
393.658	472.94
393.882	458.94
394.107	477.94
394.331	477.94
394.556	452.94
394.78	475.94
395.005	466.94
395.229	481.94
395.454	495.94
395.678	495.94
395.903	477.94
396.127	497.94
396.352	520.94
396.576	497.94
396.801	469.94
397.025	484.94
397.249	486.94
397.474	511.94
397.698	478.94
397.922	518.94
398.147	538.94
398.371	533.94
398.595	510.94
398.82	523.94
399.044	559.94
399.268	593.94
399.492	647.94
399.717	665.94
399.941	717.94
400.165	691.94
400.389	661.94
400.613	613.94
400.837	591.94
401.062	590.94
401.286	577.94
401.51	544.94
401.734	534.94
401.958	530.94
402.182	529.94
402.406	566.94
402.63	562.94
402.854	553.94
403.078	546.94
403.302	565.94
403.526	596.94
403.75	575.94
403.974	577.94
404.198	573.94
404.422	576.94
404.645	586.94
404.869	575.94
405.093	602.94
405.317	641.94
405.541	669.94
405.765	617.94
405.988	582.94
406.212	578.94
406.436	607.94
406.66	585.94
406.883	605.94
407.107	624.94
407.331	647.94
407.555	744.94
407.778	728.94
408.002	680.94
408.226	626.94
408.449	609.94
408.673	598.94
408.896	635.94
409.12	651.94
409.344	618.94
409.567	593.94
409.791	585.94
410.014	579.94
410.238	575.94
410.461	568.94
410.685	569.94
410.908	559.94
411.132	611.94
411.355	590.94
411.578	612.94
411.802	561.94
412.025	561.94
412.249	578.94
412.472	587.94
412.695	612.94
412.919	573.94
413.142	552.94
413.365	551.94
413.589	561.94
413.812	555.94
414.035	550.94
414.258	538.94
414.482	553.94
414.705	526.94
414.928	522.94
415.151	535.94
415.374	541.94
415.597	537.94
415.821	511.94
416.044	515.94
416.267	535.94
416.49	523.94
416.713	527.94
416.936	525.94
417.159	522.94
417.382	514.94
417.605	524.94
417.828	529.94
418.051	543.94
418.274	548.94
418.497	520.94
418.72	538.94
418.943	531.94
419.166	563.94
419.389	583.94
419.611	581.94
419.834	582.94
420.057	563.94
420.28	561.94
420.503	560.94
420.726	513.94
420.948	563.94
421.171	590.94
421.394	592.94
421.617	553.94
421.839	565.94
422.062	546.94
422.285	564.94
422.507	603.94
422.73	638.94
422.953	627.94
423.175	593.94
423.398	562.94
423.621	556.94
423.843	577.94
424.066	579.94
424.288	574.94
424.511	585.94
424.733	618.94
424.956	662.94
425.178	639.94
425.401	646.94
425.623	645.94
425.846	562.94
426.068	561.94
426.291	552.94
426.513	573.94
426.735	581.94
426.958	579.94
427.18	633.94
427.402	725.94
427.625	800.94
427.847	706.94
428.069	596.94
428.292	577.94
428.514	560.94
428.736	528.94
428.958	513.94
429.181	537.94
429.403	511.94
429.625	517.94
429.847	541.94
430.069	591.94
430.292	553.94
430.514	527.94
430.736	498.94
430.958	507.94
431.18	488.94
431.402	513.94
431.624	493.94
431.846	496.94
432.068	494.94
432.29	494.94
432.512	515.94
432.734	490.94
432.956	501.94
433.178	513.94
433.4	519.94
433.622	515.94
433.844	498.94
434.066	495.94
434.287	498.94
434.509	500.94
434.731	531.94
434.953	538.94
435.175	542.94
435.397	531.94
435.618	546.94
435.84	588.94
436.062	642.94
436.284	655.94
436.505	572.94
436.727	560.94
436.949	550.94
437.17	529.94
437.392	524.94
437.614	514.94
437.835	538.94
438.057	590.94
438.278	660.94
438.5	654.94
438.721	707.94
438.943	718.94
439.165	591.94
439.386	537.94
439.608	554.94
439.829	568.94
440.05	554.94
440.272	583.94
440.493	563.94
440.715	537.94
440.936	529.94
441.158	530.94
441.379	516.94
441.6	553.94
441.822	558.94
442.043	572.94
442.264	659.94
442.486	675.94
442.707	597.94
442.928	570.94
443.149	593.94
443.371	575.94
443.592	603.94
443.813	691.94
444.034	715.94
444.255	626.94
444.476	586.94
444.698	596.94
444.919	601.94
445.14	696.94
445.361	641.94
445.582	607.94
445.803	634.94
446.024	675.94
446.245	685.94
446.466	657.94
446.687	568.94
446.908	526.94
447.129	498.94
447.35	508.94
447.571	506.94
447.792	493.94
448.013	516.94
448.234	515.94
448.455	525.94
448.675	605.94
448.896	705.94
449.117	607.94
449.338	575.94
449.559	674.94
449.779	763.94
450	608.94
450.221	531.94
450.442	494.94
450.662	491.94
450.883	489.94
451.104	475.94
451.324	484.94
451.545	462.94
451.766	471.94
451.986	454.94
452.207	464.94
452.428	476.94
452.648	439.94
452.869	452.94
453.089	473.94
453.31	461.94
453.53	448.94
453.751	459.94
453.971	451.94
454.192	477.94
454.412	460.94
454.633	446.94
454.853	437.94
455.073	443.94
455.294	485.94
455.514	503.94
455.734	509.94
455.955	460.94
456.175	438.94
456.395	434.94
456.616	418.94
456.836	435.94
457.056	428.94
457.276	436.94
457.497	436.94
457.717	440.94
457.937	436.94
458.157	431.94
458.377	461.94
458.598	475.94
458.818	466.94
459.038	533.94
459.258	585.94
459.478	550.94
459.698	529.94
459.918	520.94
460.138	509.94
460.358	555.94
460.578	547.94
460.798	513.94
461.018	557.94
461.238	538.94
461.458	513.94
461.678	542.94
461.898	501.94
462.118	561.94
462.338	558.94
462.558	601.94
462.777	587.94
462.997	611.94
463.217	627.94
463.437	639.94
463.657	599.94
463.876	601.94
464.096	575.94
464.316	567.94
464.536	581.94
464.755	585.94
464.975	585.94
465.195	575.94
465.414	589.94
465.634	557.94
465.854	510.94
466.073	528.94
466.293	503.94
466.512	495.94
466.732	486.94
466.951	461.94
467.171	481.94
467.391	468.94
467.61	468.94
467.829	499.94
468.049	473.94
468.268	454.94
468.488	476.94
468.707	464.94
468.927	457.94
469.146	459.94
469.365	466.94
469.585	473.94
469.804	459.94
470.023	470.94
470.243	475.94
470.462	510.94
470.681	496.94
470.901	488.94
471.12	507.94
471.339	487.94
471.558	469.94
471.777	483.94
471.997	458.94
472.216	475.94
472.435	501.94
472.654	463.94
472.873	467.94
473.092	468.94
473.311	473.94
473.53	467.94
473.749	487.94
473.968	514.94
474.187	567.94
474.406	553.94
474.625	505.94
474.844	481.94
475.063	487.94
475.282	474.94
475.501	475.94
475.72	507.94
475.939	499.94
476.158	481.94
476.377	493.94
476.596	475.94
476.814	507.94
477.033	498.94
477.252	513.94
477.471	533.94
477.69	514.94
477.908	530.94
478.127	539.94
478.346	537.94
478.564	539.94
478.783	569.94
479.002	535.94
479.22	561.94
479.439	587.94
479.658	573.94
479.876	574.94
480.095	592.94
480.313	601.94
480.532	591.94
480.751	594.94
480.969	611.94
481.188	607.94
481.406	637.94
481.624	595.94
481.843	573.94
482.061	585.94
482.28	570.94
482.498	561.94
482.717	562.94
482.935	547.94
483.153	571.94
483.372	563.94
483.59	561.94
483.808	538.94
484.027	541.94
484.245	550.94
484.463	533.94
484.681	571.94
484.9	575.94
485.118	572.94
485.336	572.94
485.554	559.94
485.772	576.94
485.99	573.94
486.209	579.94
486.427	593.94
486.645	599.94
486.863	599.94
487.081	597.94
487.299	603.94
487.517	606.94
487.735	611.94
487.953	595.94
488.171	600.94
488.389	585.94
488.607	589.94
488.825	585.94
489.043	583.94
489.261	601.94
489.479	592.94
489.696	587.94
489.914	602.94
490.132	623.94
490.35	610.94
490.568	624.94
490.786	624.94
491.003	627.94
491.221	619.94
491.439	609.94
491.657	634.94
491.874	640.94
492.092	631.94
492.31	647.94
492.527	637.94
492.745	643.94
492.963	660.94
493.18	655.94
493.398	653.94
493.615	675.94
493.833	661.94
494.05	682.94
494.268	653.94
494.485	665.94
494.703	657.94
494.92	680.94
495.138	669.94
495.355	681.94
495.573	659.94
495.79	679.94
496.008	703.94
496.225	678.94
496.442	670.94
496.66	692.94
496.877	677.94
497.094	722.94
497.312	719.94
497.529	723.94
497.746	723.94
497.963	737.94
498.181	765.94
498.398	800.94
498.615	824.94
498.832	824.94
499.049	853.94
499.267	895.94
499.484	930.94
499.701	1021.94
499.918	1033.94
500.135	1133.94
500.352	1227.94
500.569	1217.94
500.786	1234.94
501.003	1213.94
501.22	1135.94
501.437	1048.94
501.654	1031.94
501.871	957.94
502.088	933.94
502.305	873.94
502.522	841.94
502.739	815.94
502.956	779.94
503.172	781.94
503.389	757.94
503.606	733.94
503.823	740.94
504.04	750.94
504.256	711.94
504.473	733.94
504.69	729.94
504.907	720.94
505.123	712.94
505.34	691.94
505.557	663.94
505.773	662.94
505.99	653.94
506.207	643.94
506.423	658.94
506.64	635.94
506.856	626.94
507.073	616.94
507.289	607.94
507.506	623.94
507.722	618.94
507.939	639.94
508.155	607.94
508.372	577.94
508.588	586.94
508.805	610.94
509.021	577.94
509.238	596.94
509.454	616.94
509.67	589.94
509.887	581.94
510.103	607.94
510.319	600.94
510.536	638.94
510.752	897.94
510.968	765.94
511.184	587.94
511.401	595.94
511.617	570.94
511.833	580.94
512.049	581.94
512.265	566.94
512.481	562.94
512.698	574.94
512.914	559.94
513.13	563.94
513.346	555.94
513.562	562.94
513.778	587.94
513.994	568.94
514.21	565.94
514.426	570.94
514.642	591.94
514.858	607.94
515.074	623.94
515.29	667.94
515.506	851.94
515.721	741.94
515.937	633.94
516.153	611.94
516.369	612.94
516.585	599.94
516.801	612.94
517.016	605.94
517.232	616.94
517.448	633.94
517.664	626.94
517.879	643.94
518.095	661.94
518.311	647.94
518.527	641.94
518.742	627.94
518.958	614.94
519.173	585.94
519.389	581.94
519.605	561.94
519.82	576.94
520.036	588.94
520.251	582.94
520.467	595.94
520.682	579.94
520.898	590.94
521.113	593.94
521.329	591.94
521.544	639.94
521.76	711.94
521.975	1001.94
522.19	977.94
522.406	665.94
522.621	568.94
522.836	552.94
523.052	550.94
523.267	510.94
523.482	523.94
523.698	510.94
523.913	509.94
524.128	519.94
524.343	499.94
524.559	499.94
524.774	500.94
524.989	494.94
525.204	495.94
525.419	508.94
525.634	504.94
525.849	509.94
526.064	489.94
526.28	478.94
526.495	491.94
526.71	469.94
526.925	488.94
527.14	459.94
527.355	468.94
527.57	471.94
527.785	471.94
527.999	482.94
528.214	478.94
528.429	468.94
528.644	472.94
528.859	487.94
529.074	500.94
529.289	485.94
529.503	518.94
529.718	503.94
529.933	479.94
530.148	478.94
530.363	469.94
530.577	466.94
530.792	462.94
531.007	465.94
531.221	468.94
531.436	467.94
531.651	461.94
531.865	470.94
532.08	460.94
532.295	483.94
532.509	453.94
532.724	451.94
532.938	477.94
533.153	464.94
533.367	470.94
533.582	434.94
533.796	467.94
534.011	478.94
534.225	450.94
534.44	464.94
534.654	453.94
534.868	460.94
535.083	466.94
535.297	458.94
535.511	478.94
535.726	468.94
535.94	462.94
536.154	458.94
536.369	434.94
536.583	466.94
536.797	447.94
537.011	455.94
537.225	459.94
537.44	434.94
537.654	438.94
537.868	436.94
538.082	427.94
538.296	439.94
538.51	435.94
538.724	451.94
538.938	465.94
539.153	445.94
539.367	425.94
539.581	466.94
539.795	417.94
540.009	434.94
540.222	452.94
540.436	466.94
540.65	457.94
540.864	413.94
541.078	472.94
541.292	435.94
541.506	437.94
541.72	425.94
541.934	442.94
542.147	445.94
542.361	436.94
542.575	439.94
542.789	433.94
543.002	441.94
543.216	435.94
543.43	455.94
543.644	458.94
543.857	442.94
544.071	470.94
544.285	418.94
544.498	447.94
544.712	420.94
544.925	453.94
545.139	442.94
545.352	460.94
545.566	445.94
545.779	463.94
545.993	442.94
546.206	442.94
546.42	443.94
546.633	416.94
546.847	425.94
547.06	445.94
547.274	454.94
547.487	440.94
547.7	430.94
547.914	437.94
548.127	442.94
548.34	449.94
548.554	446.94
548.767	454.94
548.98	454.94
549.193	432.94
549.407	453.94
549.62	451.94
549.833	441.94
550.046	427.94
550.259	445.94
550.473	438.94
550.686	445.94
550.899	447.94
551.112	429.94
551.325	434.94
551.538	445.94
551.751	438.94
551.964	440.94
552.177	436.94
552.39	431.94
552.603	456.94
552.816	449.94
553.029	482.94
553.242	444.94
553.455	456.94
553.667	472.94
553.88	475.94
554.093	431.94
554.306	455.94
554.519	445.94
554.732	447.94
554.944	442.94
555.157	417.94
555.37	434.94
555.583	432.94
555.795	422.94
556.008	415.94
556.221	403.94
556.433	387.94
556.646	414.94
556.859	387.94
557.071	393.94
557.284	399.94
557.496	392.94
557.709	403.94
557.921	394.94
558.134	381.94
558.346	378.94
558.559	386.94
558.771	402.94
558.984	381.94
559.196	373.94
559.409	376.94
559.621	375.94
559.833	386.94
560.046	386.94
560.258	400.94
560.47	378.94
560.683	388.94
560.895	387.94
561.107	380.94
561.32	379.94
561.532	374.94
561.744	390.94
561.956	376.94
562.168	388.94
562.381	395.94
562.593	381.94
562.805	405.94
563.017	391.94
563.229	375.94
563.441	381.94
563.653	418.94
563.865	402.94
564.077	409.94
564.289	414.94
564.501	414.94
564.713	420.94
564.925	419.94
565.137	423.94
565.349	439.94
565.561	441.94
565.773	446.94
565.985	462.94
566.197	482.94
566.408	473.94
566.62	496.94
566.832	530.94
567.044	558.94
567.255	548.94
567.467	560.94
567.679	552.94
567.891	582.94
568.102	584.94
568.314	574.94
568.526	555.94
568.737	522.94
568.949	482.94
569.161	479.94
569.372	455.94
569.584	459.94
569.795	427.94
570.007	439.94
570.218	441.94
570.43	429.94
570.641	409.94
570.853	411.94
571.064	415.94
571.276	403.94
571.487	392.94
571.698	399.94
571.91	369.94
572.121	375.94
572.333	374.94
572.544	360.94
572.755	371.94
572.966	356.94
573.178	369.94
573.389	345.94
573.6	353.94
573.811	362.94
574.023	353.94
574.234	341.94
574.445	341.94
574.656	322.94
574.867	343.94
575.078	345.94
575.289	374.94
575.501	330.94
575.712	325.94
575.923	307.94
576.134	341.94
576.345	335.94
576.556	335.94
576.767	333.94
576.978	334.94
577.188	314.94
577.399	327.94
577.61	321.94
577.821	333.94
578.032	330.94
578.243	340.94
578.454	437.94
578.665	370.94
578.875	337.94
579.086	307.94
579.297	321.94
579.508	308.94
579.718	307.94
579.929	306.94
580.14	305.94
580.35	295.94
580.561	304.94
580.772	311.94
580.982	324.94
581.193	306.94
581.403	314.94
581.614	318.94
581.825	308.94
582.035	285.94
582.246	302.94
582.456	316.94
582.667	313.94
582.877	307.94
583.087	308.94
583.298	294.94
583.508	330.94
583.719	305.94
583.929	301.94
584.139	303.94
584.35	298.94
584.56	299.94
584.77	310.94
584.981	290.94
585.191	290.94
585.401	298.94
585.611	295.94
585.821	282.94
586.032	296.94
586.242	288.94
586.452	302.94
586.662	289.94
586.872	279.94
587.082	290.94
587.292	311.94
587.502	305.94
587.713	279.94
587.923	311.94
588.133	293.94
588.343	286.94
588.553	289.94
588.762	286.94
588.972	305.94
589.182	349.94
589.392	317.94
589.602	298.94
589.812	319.94
590.022	303.94
590.232	289.94
590.441	299.94
590.651	292.94
590.861	297.94
591.071	303.94
591.281	307.94
591.49	309.94
591.7	297.94
591.91	327.94
592.119	301.94
592.329	319.94
592.539	311.94
592.748	334.94
592.958	332.94
593.167	349.94
593.377	344.94
593.587	347.94
593.796	370.94
594.006	348.94
594.215	356.94
594.424	342.94
594.634	334.94
594.843	315.94
595.053	328.94
595.262	339.94
595.472	333.94
595.681	297.94
595.89	289.94
596.1	309.94
596.309	285.94
596.518	309.94
596.727	306.94
596.937	280.94
597.146	291.94
597.355	287.94
597.564	267.94
597.774	289.94
597.983	276.94
598.192	288.94
598.401	271.94
598.61	276.94
598.819	274.94
599.028	277.94
599.237	266.94
599.446	255.94
599.655	256.94
599.864	267.94
600.073	244.94
600.282	272.94
600.491	256.94
600.7	243.94
600.909	266.94
601.118	262.94
601.327	258.94
601.536	263.94
601.745	249.94
601.953	243.94
602.162	261.94
602.371	248.94
602.58	228.94
602.789	258.94
602.997	253.94
603.206	243.94
603.415	260.94
603.623	261.94
603.832	249.94
604.041	267.94
604.249	258.94
604.458	243.94
604.666	257.94
604.875	221.94
605.084	224.94
605.292	257.94
605.501	248.94
605.709	242.94
605.918	245.94
606.126	243.94
606.334	234.94
606.543	277.94
606.751	248.94
606.96	254.94
607.168	246.94
607.376	249.94
607.585	240.94
607.793	253.94
608.001	253.94
608.21	246.94
608.418	243.94
608.626	240.94
608.834	234.94
609.043	244.94
609.251	242.94
609.459	234.94
609.667	239.94
609.875	253.94
610.083	228.94
610.291	218.94
610.499	246.94
610.707	239.94
610.916	207.94
611.124	251.94
611.332	257.94
611.54	244.94
611.748	240.94
611.955	251.94
612.163	260.94
612.371	252.94
612.579	245.94
612.787	218.94
612.995	241.94
613.203	248.94
613.411	229.94
613.618	245.94
613.826	241.94
614.034	230.94
614.242	242.94
614.449	214.94
614.657	219.94
614.865	228.94
615.072	234.94
615.28	247.94
615.488	229.94
615.695	233.94
615.903	240.94
616.111	247.94
616.318	261.94
616.526	238.94
616.733	228.94
616.941	253.94
617.148	257.94
617.356	228.94
617.563	239.94
617.771	253.94
617.978	239.94
618.185	229.94
618.393	242.94
618.6	234.94
618.807	228.94
619.015	237.94
619.222	239.94
619.429	212.94
619.637	234.94
619.844	231.94
620.051	240.94
620.258	218.94
620.466	230.94
620.673	227.94
620.88	206.94
621.087	212.94
621.294	210.94
621.501	217.94
621.708	214.94
621.915	218.94
622.122	216.94
622.329	229.94
622.536	224.94
622.743	209.94
622.95	199.94
623.157	220.94
623.364	209.94
623.571	208.94
623.778	203.94
623.985	215.94
624.192	206.94
624.399	208.94
624.606	202.94
624.812	210.94
625.019	201.94
625.226	206.94
625.433	223.94
625.639	225.94
625.846	222.94
626.053	217.94
626.259	202.94
626.466	202.94
626.673	202.94
626.879	199.94
627.086	178.94
627.293	190.94
627.499	191.94
627.706	203.94
627.912	183.94
628.119	207.94
628.325	198.94
628.532	214.94
628.738	196.94
628.945	219.94
629.151	185.94
629.357	187.94
629.564	199.94
629.77	217.94
629.976	187.94
630.183	185.94
630.389	188.94
630.595	206.94
630.802	193.94
631.008	187.94
631.214	171.94
631.42	185.94
631.627	197.94
631.833	190.94
632.039	196.94
632.245	193.94
632.451	196.94
632.657	191.94
632.863	178.94
633.069	179.94
633.275	185.94
633.481	199.94
633.688	194.94
633.893	195.94
634.099	198.94
634.305	189.94
634.511	169.94
634.717	184.94
634.923	187.94
635.129	185.94
635.335	176.94
635.541	177.94
635.747	176.94
635.952	175.94
636.158	176.94
636.364	176.94
636.57	199.94
636.775	185.94
636.981	175.94
637.187	178.94
637.392	182.94
637.598	196.94
637.804	183.94
638.009	192.94
638.215	173.94
638.421	172.94
638.626	177.94
638.832	180.94
639.037	161.94
639.243	171.94
639.448	181.94
639.654	178.94
639.859	186.94
640.065	164.94
640.27	166.94
640.475	169.94
640.681	185.94
640.886	167.94
641.091	176.94
641.297	171.94
641.502	189.94
641.707	161.94
641.913	159.94
642.118	162.94
642.323	171.94
642.528	171.94
642.733	187.94
642.939	158.94
643.144	157.94
643.349	170.94
643.554	180.94
643.759	164.94
643.964	180.94
644.169	159.94
644.374	159.94
644.579	166.94
644.784	180.94
644.989	169.94
645.194	156.94
645.399	169.94
645.604	169.94
645.809	149.94
646.014	166.94
646.219	163.94
646.423	161.94
646.628	164.94
646.833	161.94
647.038	157.94
647.243	183.94
647.447	173.94
647.652	150.94
647.857	171.94
648.062	157.94
648.266	185.94
648.471	175.94
648.676	175.94
648.88	170.94
649.085	155.94
649.289	175.94
649.494	169.94
649.698	186.94
649.903	179.94
650.107	154.94
650.312	155.94
650.516	166.94
650.721	157.94
650.925	155.94
651.13	152.94
651.334	158.94
651.539	159.94
651.743	158.94
651.947	157.94
652.152	154.94
652.356	144.94
652.56	143.94
652.764	151.94
652.969	139.94
653.173	147.94
653.377	137.94
653.581	127.94
653.785	139.94
653.99	132.94
654.194	140.94
654.398	143.94
654.602	137.94
654.806	134.94
655.01	157.94
655.214	135.94
655.418	137.94
655.622	133.94
655.826	136.94
656.03	143.94
656.234	143.94
656.438	145.94
656.642	150.94
656.846	143.94
657.049	151.94
657.253	143.94
657.457	144.94
657.661	129.94
657.865	117.94
658.068	110.94
658.272	113.94
658.476	111.94
658.68	110.94
658.883	98.94
659.087	104.94
659.291	101.94
659.494	98.94
659.698	111.94
659.901	105.94
660.105	98.94
660.309	95.94
660.512	75.94
660.716	92.94
660.919	91.94
661.123	95.94
661.326	83.94
661.53	100.94
661.733	88.94
661.936	100.94
662.14	75.94
662.343	83.94
662.546	78.94
662.75	79.94
662.953	91.94
663.156	87.94
663.36	95.94
663.563	80.94
663.766	88.94
663.969	78.94
664.173	86.94
664.376	79.94
664.579	86.94
664.782	63.94
664.985	69.94
665.188	82.94
665.391	90.94
665.594	85.94
665.797	69.94
666	73.94
666.203	74.94
666.406	90.94
666.609	84.94
666.812	83.94
667.015	84.94
667.218	88.94
667.421	81.94
667.624	80.94
667.827	84.94
668.03	92.94
668.232	81.94
668.435	79.94
668.638	81.94
668.841	63.94
669.043	86.94
669.246	82.94
669.449	90.94
669.651	82.94
669.854	70.94
670.057	67.94
670.259	81.94
670.462	85.94
670.665	95.94
670.867	78.94
671.07	87.94
671.272	94.94
671.475	81.94
671.677	68.94
671.88	70.94
672.082	85.94
672.284	73.94
672.487	62.94
672.689	85.94
672.892	87.94
