Data from 1962.PennyLincolnUp.Lamp.En5.5.200Scan.071719.P1._HRD10591_13-53-02-060.txt Node
Date: Thu Jul 18 13:53:02 EDT 2019
User: cochatt
Spectrometer: HR+D1059
Trigger mode: 1
Integration Time (sec): 1.000000E-1
Scans to average: 1
Electric dark correction enabled: true
Nonlinearity correction enabled: false
Boxcar width: 0
XAxis mode: Wavelengths
Number of Pixels in Spectrum: 2048
>>>>>Begin Spectral Data<<<<<
223.165	-19.12
223.4	-19.12
223.635	-19.12
223.869	-26.12
224.104	-4.12
224.338	-17.12
224.573	-8.12
224.808	-4.12
225.042	-6.12
225.277	-7.12
225.511	-12.12
225.746	1.88
225.98	8.88
226.215	12.88
226.449	8.88
226.683	30.88
226.918	19.88
227.152	20.88
227.387	37.88
227.621	57.88
227.856	33.88
228.09	49.88
228.324	38.88
228.559	44.88
228.793	59.88
229.027	98.88
229.262	79.88
229.496	87.88
229.73	93.88
229.964	106.88
230.199	92.88
230.433	99.88
230.667	107.88
230.901	99.88
231.136	90.88
231.37	94.88
231.604	100.88
231.838	92.88
232.072	87.88
232.306	106.88
232.541	101.88
232.775	102.88
233.009	112.88
233.243	101.88
233.477	119.88
233.711	125.88
233.945	96.88
234.179	106.88
234.413	103.88
234.647	115.88
234.881	124.88
235.115	118.88
235.349	110.88
235.583	114.88
235.817	118.88
236.051	110.88
236.285	143.88
236.519	114.88
236.753	111.88
236.987	115.88
237.221	134.88
237.455	163.88
237.689	148.88
237.922	132.88
238.156	118.88
238.39	124.88
238.624	106.88
238.858	113.88
239.091	116.88
239.325	106.88
239.559	117.88
239.793	121.88
240.027	121.88
240.26	141.88
240.494	131.88
240.728	119.88
240.961	131.88
241.195	130.88
241.429	145.88
241.662	115.88
241.896	117.88
242.13	125.88
242.363	114.88
242.597	119.88
242.83	113.88
243.064	129.88
243.298	119.88
243.531	150.88
243.765	128.88
243.998	131.88
244.232	146.88
244.465	147.88
244.699	142.88
244.932	131.88
245.166	135.88
245.399	133.88
245.633	145.88
245.866	151.88
246.099	126.88
246.333	141.88
246.566	134.88
246.8	149.88
247.033	145.88
247.266	139.88
247.5	146.88
247.733	158.88
247.966	148.88
248.2	154.88
248.433	152.88
248.666	146.88
248.899	170.88
249.133	170.88
249.366	171.88
249.599	162.88
249.832	171.88
250.066	168.88
250.299	153.88
250.532	167.88
250.765	164.88
250.998	170.88
251.231	193.88
251.465	161.88
251.698	182.88
251.931	171.88
252.164	190.88
252.397	194.88
252.63	185.88
252.863	180.88
253.096	175.88
253.329	200.88
253.562	186.88
253.795	185.88
254.028	190.88
254.261	207.88
254.494	198.88
254.727	200.88
254.96	211.88
255.193	213.88
255.426	207.88
255.659	198.88
255.892	201.88
256.124	192.88
256.357	202.88
256.59	204.88
256.823	189.88
257.056	189.88
257.289	182.88
257.521	198.88
257.754	197.88
257.987	181.88
258.22	187.88
258.452	188.88
258.685	191.88
258.918	197.88
259.151	179.88
259.383	195.88
259.616	198.88
259.849	199.88
260.081	202.88
260.314	222.88
260.547	214.88
260.779	212.88
261.012	200.88
261.244	213.88
261.477	194.88
261.71	200.88
261.942	197.88
262.175	202.88
262.407	196.88
262.64	195.88
262.872	216.88
263.105	214.88
263.337	219.88
263.57	201.88
263.802	198.88
264.035	187.88
264.267	193.88
264.499	213.88
264.732	207.88
264.964	195.88
265.197	207.88
265.429	196.88
265.661	206.88
265.894	207.88
266.126	224.88
266.358	220.88
266.591	216.88
266.823	221.88
267.055	210.88
267.287	220.88
267.52	201.88
267.752	217.88
267.984	225.88
268.216	229.88
268.448	213.88
268.681	221.88
268.913	204.88
269.145	231.88
269.377	231.88
269.609	238.88
269.841	238.88
270.073	240.88
270.306	257.88
270.538	245.88
270.77	243.88
271.002	267.88
271.234	254.88
271.466	252.88
271.698	257.88
271.93	259.88
272.162	266.88
272.394	291.88
272.626	268.88
272.858	260.88
273.09	269.88
273.322	261.88
273.553	230.88
273.785	261.88
274.017	245.88
274.249	243.88
274.481	252.88
274.713	244.88
274.945	257.88
275.176	247.88
275.408	249.88
275.64	245.88
275.872	239.88
276.104	237.88
276.335	246.88
276.567	252.88
276.799	262.88
277.031	276.88
277.262	281.88
277.494	268.88
277.726	281.88
277.957	260.88
278.189	269.88
278.421	257.88
278.652	251.88
278.884	263.88
279.115	255.88
279.347	270.88
279.579	251.88
279.81	251.88
280.042	250.88
280.273	260.88
280.505	270.88
280.736	250.88
280.968	263.88
281.199	271.88
281.431	247.88
281.662	280.88
281.894	266.88
282.125	269.88
282.356	277.88
282.588	262.88
282.819	268.88
283.051	265.88
283.282	262.88
283.513	266.88
283.745	268.88
283.976	288.88
284.207	276.88
284.439	294.88
284.67	282.88
284.901	269.88
285.132	276.88
285.364	264.88
285.595	262.88
285.826	280.88
286.057	265.88
286.288	285.88
286.52	297.88
286.751	261.88
286.982	276.88
287.213	267.88
287.444	288.88
287.675	283.88
287.906	271.88
288.138	294.88
288.369	301.88
288.6	302.88
288.831	281.88
289.062	284.88
289.293	286.88
289.524	274.88
289.755	270.88
289.986	278.88
290.217	265.88
290.448	294.88
290.679	289.88
290.91	293.88
291.141	301.88
291.371	293.88
291.602	290.88
291.833	281.88
292.064	286.88
292.295	309.88
292.526	281.88
292.757	289.88
292.987	296.88
293.218	299.88
293.449	296.88
293.68	299.88
293.91	294.88
294.141	296.88
294.372	318.88
294.603	295.88
294.833	300.88
295.064	297.88
295.295	268.88
295.525	315.88
295.756	308.88
295.987	285.88
296.217	314.88
296.448	308.88
296.679	307.88
296.909	310.88
297.14	296.88
297.37	302.88
297.601	297.88
297.831	308.88
298.062	313.88
298.292	318.88
298.523	306.88
298.753	321.88
298.984	309.88
299.214	300.88
299.445	305.88
299.675	319.88
299.905	319.88
300.136	311.88
300.366	312.88
300.597	303.88
300.827	329.88
301.057	333.88
301.288	319.88
301.518	315.88
301.748	310.88
301.979	315.88
302.209	337.88
302.439	331.88
302.669	333.88
302.9	312.88
303.13	317.88
303.36	328.88
303.59	316.88
303.82	333.88
304.051	330.88
304.281	354.88
304.511	322.88
304.741	333.88
304.971	339.88
305.201	321.88
305.431	335.88
305.661	338.88
305.891	339.88
306.121	325.88
306.352	311.88
306.582	322.88
306.812	323.88
307.042	330.88
307.272	337.88
307.502	319.88
307.731	331.88
307.961	321.88
308.191	334.88
308.421	311.88
308.651	329.88
308.881	327.88
309.111	334.88
309.341	347.88
309.571	339.88
309.8	334.88
310.03	341.88
310.26	344.88
310.49	327.88
310.72	344.88
310.949	354.88
311.179	350.88
311.409	349.88
311.639	355.88
311.868	347.88
312.098	341.88
312.328	340.88
312.557	357.88
312.787	349.88
313.017	356.88
313.246	368.88
313.476	338.88
313.706	342.88
313.935	351.88
314.165	360.88
314.394	363.88
314.624	369.88
314.853	343.88
315.083	359.88
315.312	377.88
315.542	355.88
315.771	377.88
316.001	368.88
316.23	379.88
316.46	349.88
316.689	353.88
316.919	358.88
317.148	365.88
317.377	369.88
317.607	359.88
317.836	379.88
318.065	361.88
318.295	357.88
318.524	358.88
318.753	341.88
318.983	374.88
319.212	360.88
319.441	358.88
319.67	365.88
319.9	356.88
320.129	350.88
320.358	356.88
320.587	360.88
320.816	357.88
321.046	373.88
321.275	375.88
321.504	377.88
321.733	357.88
321.962	345.88
322.191	370.88
322.42	383.88
322.649	394.88
322.878	384.88
323.108	398.88
323.337	384.88
323.566	406.88
323.795	441.88
324.024	443.88
324.253	462.88
324.482	606.88
324.71	818.88
324.939	1121.88
325.168	1001.88
325.397	583.88
325.626	470.88
325.855	415.88
326.084	431.88
326.313	404.88
326.542	390.88
326.77	421.88
326.999	477.88
327.228	554.88
327.457	781.88
327.686	894.88
327.914	661.88
328.143	529.88
328.372	470.88
328.6	430.88
328.829	446.88
329.058	426.88
329.287	429.88
329.515	427.88
329.744	420.88
329.972	428.88
330.201	433.88
330.43	431.88
330.658	449.88
330.887	457.88
331.115	462.88
331.344	415.88
331.572	422.88
331.801	434.88
332.03	436.88
332.258	440.88
332.486	421.88
332.715	423.88
332.943	427.88
333.172	433.88
333.4	452.88
333.629	469.88
333.857	475.88
334.085	466.88
334.314	466.88
334.542	471.88
334.771	503.88
334.999	467.88
335.227	471.88
335.455	429.88
335.684	437.88
335.912	425.88
336.14	423.88
336.369	433.88
336.597	427.88
336.825	433.88
337.053	425.88
337.281	435.88
337.51	411.88
337.738	416.88
337.966	415.88
338.194	416.88
338.422	423.88
338.65	417.88
338.878	441.88
339.106	429.88
339.334	414.88
339.562	425.88
339.79	403.88
340.018	408.88
340.246	399.88
340.474	422.88
340.702	414.88
340.93	409.88
341.158	421.88
341.386	398.88
341.614	418.88
341.842	411.88
342.07	413.88
342.298	392.88
342.526	404.88
342.754	394.88
342.981	395.88
343.209	392.88
343.437	404.88
343.665	411.88
343.893	459.88
344.12	441.88
344.348	443.88
344.576	444.88
344.804	436.88
345.031	421.88
345.259	438.88
345.487	406.88
345.714	417.88
345.942	414.88
346.17	383.88
346.397	398.88
346.625	381.88
346.853	365.88
347.08	379.88
347.308	375.88
347.535	391.88
347.763	392.88
347.99	409.88
348.218	406.88
348.445	377.88
348.673	393.88
348.9	408.88
349.128	404.88
349.355	389.88
349.583	367.88
349.81	403.88
350.037	368.88
350.265	386.88
350.492	397.88
350.72	365.88
350.947	391.88
351.174	388.88
351.402	382.88
351.629	386.88
351.856	391.88
352.083	395.88
352.311	385.88
352.538	389.88
352.765	370.88
352.992	387.88
353.22	393.88
353.447	387.88
353.674	389.88
353.901	385.88
354.128	366.88
354.355	373.88
354.583	369.88
354.81	378.88
355.037	390.88
355.264	370.88
355.491	376.88
355.718	380.88
355.945	353.88
356.172	374.88
356.399	379.88
356.626	353.88
356.853	369.88
357.08	395.88
357.307	374.88
357.534	372.88
357.761	375.88
357.988	381.88
358.215	390.88
358.441	376.88
358.668	382.88
358.895	389.88
359.122	367.88
359.349	385.88
359.576	410.88
359.802	371.88
360.029	388.88
360.256	401.88
360.483	381.88
360.709	399.88
360.936	399.88
361.163	386.88
361.39	394.88
361.616	405.88
361.843	395.88
362.07	403.88
362.296	395.88
362.523	392.88
362.749	391.88
362.976	398.88
363.203	376.88
363.429	369.88
363.656	395.88
363.882	382.88
364.109	394.88
364.335	367.88
364.562	377.88
364.788	383.88
365.015	373.88
365.241	387.88
365.468	375.88
365.694	367.88
365.92	380.88
366.147	377.88
366.373	369.88
366.599	387.88
366.826	367.88
367.052	375.88
367.278	371.88
367.505	369.88
367.731	385.88
367.957	371.88
368.184	388.88
368.41	391.88
368.636	379.88
368.862	395.88
369.089	374.88
369.315	379.88
369.541	393.88
369.767	376.88
369.993	379.88
370.219	393.88
370.445	398.88
370.672	393.88
370.898	361.88
371.124	377.88
371.35	371.88
371.576	403.88
371.802	373.88
372.028	390.88
372.254	404.88
372.48	383.88
372.706	396.88
372.932	405.88
373.158	409.88
373.384	404.88
373.61	391.88
373.835	398.88
374.061	387.88
374.287	405.88
374.513	397.88
374.739	423.88
374.965	411.88
375.191	407.88
375.416	414.88
375.642	410.88
375.868	402.88
376.094	385.88
376.319	379.88
376.545	374.88
376.771	404.88
376.997	390.88
377.222	407.88
377.448	388.88
377.674	397.88
377.899	384.88
378.125	397.88
378.35	395.88
378.576	396.88
378.802	383.88
379.027	395.88
379.253	389.88
379.478	389.88
379.704	390.88
379.929	393.88
380.155	385.88
380.38	384.88
380.606	381.88
380.831	375.88
381.057	419.88
381.282	385.88
381.507	374.88
381.733	399.88
381.958	409.88
382.184	382.88
382.409	382.88
382.634	398.88
382.86	412.88
383.085	409.88
383.31	423.88
383.535	410.88
383.761	422.88
383.986	410.88
384.211	433.88
384.436	432.88
384.662	431.88
384.887	453.88
385.112	452.88
385.337	455.88
385.562	428.88
385.787	462.88
386.013	449.88
386.238	463.88
386.463	443.88
386.688	446.88
386.913	451.88
387.138	458.88
387.363	457.88
387.588	458.88
387.813	461.88
388.038	462.88
388.263	454.88
388.488	438.88
388.713	447.88
388.938	450.88
389.163	441.88
389.387	437.88
389.612	438.88
389.837	441.88
390.062	424.88
390.287	455.88
390.512	443.88
390.736	431.88
390.961	428.88
391.186	460.88
391.411	470.88
391.636	471.88
391.86	468.88
392.085	474.88
392.31	471.88
392.534	456.88
392.759	459.88
392.984	449.88
393.208	473.88
393.433	462.88
393.658	462.88
393.882	456.88
394.107	469.88
394.331	445.88
394.556	465.88
394.78	449.88
395.005	458.88
395.229	457.88
395.454	466.88
395.678	437.88
395.903	491.88
396.127	471.88
396.352	472.88
396.576	470.88
396.801	456.88
397.025	464.88
397.249	470.88
397.474	491.88
397.698	505.88
397.922	500.88
398.147	509.88
398.371	501.88
398.595	520.88
398.82	518.88
399.044	541.88
399.268	556.88
399.492	617.88
399.717	638.88
399.941	675.88
400.165	685.88
400.389	637.88
400.613	604.88
400.837	567.88
401.062	562.88
401.286	542.88
401.51	539.88
401.734	517.88
401.958	533.88
402.182	541.88
402.406	548.88
402.63	528.88
402.854	518.88
403.078	569.88
403.302	549.88
403.526	547.88
403.75	556.88
403.974	561.88
404.198	540.88
404.422	558.88
404.645	561.88
404.869	569.88
405.093	604.88
405.317	590.88
405.541	631.88
405.765	581.88
405.988	569.88
406.212	574.88
406.436	553.88
406.66	604.88
406.883	588.88
407.107	590.88
407.331	637.88
407.555	683.88
407.778	697.88
408.002	656.88
408.226	613.88
408.449	601.88
408.673	614.88
408.896	606.88
409.12	612.88
409.344	603.88
409.567	563.88
409.791	563.88
410.014	551.88
410.238	554.88
410.461	519.88
410.685	527.88
410.908	548.88
411.132	565.88
411.355	575.88
411.578	570.88
411.802	538.88
412.025	552.88
412.249	548.88
412.472	535.88
412.695	572.88
412.919	558.88
413.142	543.88
413.365	531.88
413.589	524.88
413.812	517.88
414.035	516.88
414.258	511.88
414.482	505.88
414.705	521.88
414.928	526.88
415.151	521.88
415.374	500.88
415.597	523.88
415.821	519.88
416.044	503.88
416.267	516.88
416.49	508.88
416.713	511.88
416.936	492.88
417.159	499.88
417.382	495.88
417.605	525.88
417.828	516.88
418.051	537.88
418.274	519.88
418.497	511.88
418.72	496.88
418.943	519.88
419.166	540.88
419.389	584.88
419.611	558.88
419.834	537.88
420.057	558.88
420.28	540.88
420.503	536.88
420.726	499.88
420.948	537.88
421.171	556.88
421.394	543.88
421.617	541.88
421.839	517.88
422.062	530.88
422.285	526.88
422.507	573.88
422.73	598.88
422.953	585.88
423.175	550.88
423.398	542.88
423.621	530.88
423.843	555.88
424.066	550.88
424.288	554.88
424.511	573.88
424.733	569.88
424.956	637.88
425.178	620.88
425.401	625.88
425.623	627.88
425.846	560.88
426.068	564.88
426.291	540.88
426.513	526.88
426.735	541.88
426.958	559.88
427.18	599.88
427.402	705.88
427.625	724.88
427.847	639.88
428.069	577.88
428.292	541.88
428.514	517.88
428.736	506.88
428.958	500.88
429.181	500.88
429.403	482.88
429.625	485.88
429.847	490.88
430.069	545.88
430.292	532.88
430.514	502.88
430.736	471.88
430.958	463.88
431.18	477.88
431.402	484.88
431.624	469.88
431.846	478.88
432.068	484.88
432.29	481.88
432.512	480.88
432.734	492.88
432.956	460.88
433.178	495.88
433.4	486.88
433.622	470.88
433.844	473.88
434.066	493.88
434.287	474.88
434.509	484.88
434.731	513.88
434.953	515.88
435.175	522.88
435.397	521.88
435.618	529.88
435.84	550.88
436.062	630.88
436.284	641.88
436.505	561.88
436.727	547.88
436.949	506.88
437.17	504.88
437.392	485.88
437.614	483.88
437.835	514.88
438.057	552.88
438.278	610.88
438.5	631.88
438.721	649.88
438.943	677.88
439.165	546.88
439.386	535.88
439.608	505.88
439.829	519.88
440.05	532.88
440.272	545.88
440.493	500.88
440.715	490.88
440.936	510.88
441.158	507.88
441.379	504.88
441.6	521.88
441.822	536.88
442.043	543.88
442.264	598.88
442.486	589.88
442.707	558.88
442.928	529.88
443.149	538.88
443.371	533.88
443.592	547.88
443.813	635.88
444.034	684.88
444.255	596.88
444.476	567.88
444.698	569.88
444.919	576.88
445.14	680.88
445.361	619.88
445.582	554.88
445.803	580.88
446.024	630.88
446.245	625.88
446.466	629.88
446.687	531.88
446.908	529.88
447.129	503.88
447.35	517.88
447.571	462.88
447.792	472.88
448.013	475.88
448.234	489.88
448.455	510.88
448.675	612.88
448.896	665.88
449.117	579.88
449.338	553.88
449.559	625.88
449.779	700.88
450	565.88
450.221	502.88
450.442	475.88
450.662	447.88
450.883	470.88
451.104	477.88
451.324	470.88
451.545	458.88
451.766	437.88
451.986	448.88
452.207	434.88
452.428	435.88
452.648	447.88
452.869	464.88
453.089	448.88
453.31	426.88
453.53	436.88
453.751	430.88
453.971	448.88
454.192	455.88
454.412	435.88
454.633	421.88
454.853	422.88
455.073	423.88
455.294	440.88
455.514	491.88
455.734	486.88
455.955	436.88
456.175	431.88
456.395	413.88
456.616	422.88
456.836	412.88
457.056	424.88
457.276	410.88
457.497	423.88
457.717	425.88
457.937	437.88
458.157	448.88
458.377	429.88
458.598	460.88
458.818	471.88
459.038	488.88
459.258	533.88
459.478	497.88
459.698	507.88
459.918	499.88
460.138	492.88
460.358	507.88
460.578	514.88
460.798	523.88
461.018	530.88
461.238	532.88
461.458	522.88
461.678	532.88
461.898	521.88
462.118	531.88
462.338	547.88
462.558	545.88
462.777	550.88
462.997	583.88
463.217	602.88
463.437	613.88
463.657	615.88
463.876	598.88
464.096	589.88
464.316	575.88
464.536	585.88
464.755	561.88
464.975	547.88
465.195	554.88
465.414	544.88
465.634	498.88
465.854	501.88
466.073	476.88
466.293	490.88
466.512	471.88
466.732	448.88
466.951	485.88
467.171	449.88
467.391	476.88
467.61	475.88
467.829	462.88
468.049	461.88
468.268	472.88
468.488	459.88
468.707	463.88
468.927	450.88
469.146	453.88
469.365	467.88
469.585	444.88
469.804	437.88
470.023	471.88
470.243	473.88
470.462	485.88
470.681	497.88
470.901	484.88
471.12	492.88
471.339	464.88
471.558	467.88
471.777	458.88
471.997	453.88
472.216	467.88
472.435	481.88
472.654	464.88
472.873	462.88
473.092	471.88
473.311	482.88
473.53	461.88
473.749	467.88
473.968	495.88
474.187	509.88
474.406	568.88
474.625	480.88
474.844	462.88
475.063	459.88
475.282	457.88
475.501	457.88
475.72	472.88
475.939	477.88
476.158	484.88
476.377	473.88
476.596	487.88
476.814	471.88
477.033	485.88
477.252	503.88
477.471	500.88
477.69	497.88
477.908	502.88
478.127	513.88
478.346	523.88
478.564	513.88
478.783	538.88
479.002	540.88
479.22	554.88
479.439	563.88
479.658	541.88
479.876	544.88
480.095	563.88
480.313	586.88
480.532	577.88
480.751	569.88
480.969	568.88
481.188	588.88
481.406	609.88
481.624	571.88
481.843	557.88
482.061	547.88
482.28	560.88
482.498	526.88
482.717	523.88
482.935	538.88
483.153	530.88
483.372	534.88
483.59	542.88
483.808	548.88
484.027	541.88
484.245	548.88
484.463	526.88
484.681	548.88
484.9	562.88
485.118	557.88
485.336	561.88
485.554	574.88
485.772	578.88
485.99	568.88
486.209	570.88
486.427	582.88
486.645	569.88
486.863	580.88
487.081	570.88
487.299	587.88
487.517	559.88
487.735	555.88
487.953	577.88
488.171	577.88
488.389	564.88
488.607	562.88
488.825	551.88
489.043	577.88
489.261	564.88
489.479	591.88
489.696	582.88
489.914	586.88
490.132	588.88
490.35	567.88
490.568	592.88
490.786	565.88
491.003	576.88
491.221	591.88
491.439	615.88
491.657	589.88
491.874	627.88
492.092	607.88
492.31	622.88
492.527	617.88
492.745	609.88
492.963	637.88
493.18	633.88
493.398	631.88
493.615	590.88
493.833	637.88
494.05	637.88
494.268	636.88
494.485	640.88
494.703	639.88
494.92	631.88
495.138	623.88
495.355	648.88
495.573	621.88
495.79	663.88
496.008	670.88
496.225	651.88
496.442	637.88
496.66	620.88
496.877	648.88
497.094	668.88
497.312	647.88
497.529	702.88
497.746	691.88
497.963	710.88
498.181	722.88
498.398	717.88
498.615	732.88
498.832	830.88
499.049	827.88
499.267	859.88
499.484	919.88
499.701	953.88
499.918	997.88
500.135	1082.88
500.352	1162.88
500.569	1191.88
500.786	1192.88
501.003	1127.88
501.22	1098.88
501.437	1023.88
501.654	970.88
501.871	936.88
502.088	901.88
502.305	840.88
502.522	803.88
502.739	793.88
502.956	757.88
503.172	728.88
503.389	706.88
503.606	715.88
503.823	687.88
504.04	689.88
504.256	703.88
504.473	704.88
504.69	681.88
504.907	701.88
505.123	658.88
505.34	653.88
505.557	639.88
505.773	640.88
505.99	627.88
506.207	592.88
506.423	612.88
506.64	600.88
506.856	601.88
507.073	593.88
507.289	587.88
507.506	570.88
507.722	599.88
507.939	595.88
508.155	578.88
508.372	572.88
508.588	563.88
508.805	575.88
509.021	548.88
509.238	543.88
509.454	555.88
509.67	567.88
509.887	559.88
510.103	574.88
510.319	573.88
510.536	587.88
510.752	746.88
510.968	669.88
511.184	553.88
511.401	554.88
511.617	531.88
511.833	536.88
512.049	541.88
512.265	527.88
512.481	551.88
512.698	541.88
512.914	533.88
513.13	539.88
513.346	557.88
513.562	526.88
513.778	524.88
513.994	537.88
514.21	522.88
514.426	556.88
514.642	544.88
514.858	553.88
515.074	567.88
515.29	609.88
515.506	737.88
515.721	664.88
515.937	609.88
516.153	569.88
516.369	597.88
516.585	595.88
516.801	563.88
517.016	611.88
517.232	595.88
517.448	630.88
517.664	606.88
517.879	645.88
518.095	619.88
518.311	623.88
518.527	620.88
518.742	609.88
518.958	578.88
519.173	557.88
519.389	584.88
519.605	551.88
519.82	541.88
520.036	543.88
520.251	541.88
520.467	548.88
520.682	553.88
520.898	537.88
521.113	535.88
521.329	549.88
521.544	589.88
521.76	603.88
521.975	805.88
522.19	793.88
522.406	609.88
522.621	547.88
522.836	523.88
523.052	505.88
523.267	513.88
523.482	485.88
523.698	503.88
523.913	482.88
524.128	504.88
524.343	467.88
524.559	505.88
524.774	496.88
524.989	478.88
525.204	486.88
525.419	472.88
525.634	462.88
525.849	469.88
526.064	467.88
526.28	469.88
526.495	471.88
526.71	471.88
526.925	474.88
527.14	461.88
527.355	470.88
527.57	447.88
527.785	467.88
527.999	445.88
528.214	449.88
528.429	453.88
528.644	473.88
528.859	460.88
529.074	466.88
529.289	474.88
529.503	491.88
529.718	475.88
529.933	466.88
530.148	463.88
530.363	480.88
530.577	452.88
530.792	463.88
531.007	458.88
531.221	452.88
531.436	489.88
531.651	445.88
531.865	449.88
532.08	461.88
532.295	454.88
532.509	459.88
532.724	462.88
532.938	443.88
533.153	461.88
533.367	451.88
533.582	443.88
533.796	439.88
534.011	449.88
534.225	463.88
534.44	451.88
534.654	428.88
534.868	474.88
535.083	466.88
535.297	441.88
535.511	437.88
535.726	443.88
535.94	450.88
536.154	440.88
536.369	457.88
536.583	440.88
536.797	439.88
537.011	436.88
537.225	439.88
537.44	456.88
537.654	417.88
537.868	444.88
538.082	445.88
538.296	434.88
538.51	438.88
538.724	446.88
538.938	434.88
539.153	431.88
539.367	445.88
539.581	430.88
539.795	425.88
540.009	435.88
540.222	421.88
540.436	425.88
540.65	430.88
540.864	419.88
541.078	428.88
541.292	441.88
541.506	440.88
541.72	437.88
541.934	442.88
542.147	423.88
542.361	428.88
542.575	438.88
542.789	430.88
543.002	409.88
543.216	445.88
543.43	435.88
543.644	417.88
543.857	435.88
544.071	419.88
544.285	413.88
544.498	438.88
544.712	428.88
544.925	425.88
545.139	427.88
545.352	424.88
545.566	438.88
545.779	447.88
545.993	444.88
546.206	426.88
546.42	454.88
546.633	433.88
546.847	430.88
547.06	435.88
547.274	442.88
547.487	439.88
547.7	437.88
547.914	425.88
548.127	423.88
548.34	430.88
548.554	425.88
548.767	444.88
548.98	442.88
549.193	424.88
549.407	431.88
549.62	417.88
549.833	418.88
550.046	418.88
550.259	435.88
550.473	398.88
550.686	444.88
550.899	433.88
551.112	429.88
551.325	417.88
551.538	409.88
551.751	398.88
551.964	440.88
552.177	464.88
552.39	440.88
552.603	450.88
552.816	444.88
553.029	453.88
553.242	445.88
553.455	475.88
553.667	462.88
553.88	467.88
554.093	427.88
554.306	425.88
554.519	426.88
554.732	444.88
554.944	409.88
555.157	446.88
555.37	452.88
555.583	406.88
555.795	407.88
556.008	400.88
556.221	399.88
556.433	391.88
556.646	383.88
556.859	387.88
557.071	383.88
557.284	399.88
557.496	399.88
557.709	385.88
557.921	371.88
558.134	388.88
558.346	381.88
558.559	383.88
558.771	381.88
558.984	377.88
559.196	377.88
559.409	381.88
559.621	379.88
559.833	369.88
560.046	381.88
560.258	388.88
560.47	388.88
560.683	375.88
560.895	371.88
561.107	373.88
561.32	355.88
561.532	358.88
561.744	380.88
561.956	379.88
562.168	373.88
562.381	383.88
562.593	377.88
562.805	381.88
563.017	363.88
563.229	385.88
563.441	372.88
563.653	392.88
563.865	403.88
564.077	387.88
564.289	377.88
564.501	402.88
564.713	412.88
564.925	423.88
565.137	404.88
565.349	403.88
565.561	430.88
565.773	443.88
565.985	457.88
566.197	464.88
566.408	449.88
566.62	495.88
566.832	511.88
567.044	533.88
567.255	520.88
567.467	552.88
567.679	569.88
567.891	571.88
568.102	590.88
568.314	577.88
568.526	537.88
568.737	520.88
568.949	481.88
569.161	469.88
569.372	435.88
569.584	433.88
569.795	413.88
570.007	398.88
570.218	421.88
570.43	394.88
570.641	409.88
570.853	400.88
571.064	399.88
571.276	387.88
571.487	380.88
571.698	370.88
571.91	382.88
572.121	364.88
572.333	357.88
572.544	349.88
572.755	363.88
572.966	369.88
573.178	357.88
573.389	353.88
573.6	348.88
573.811	348.88
574.023	335.88
574.234	330.88
574.445	327.88
574.656	338.88
574.867	338.88
575.078	359.88
575.289	328.88
575.501	327.88
575.712	341.88
575.923	335.88
576.134	342.88
576.345	317.88
576.556	334.88
576.767	317.88
576.978	318.88
577.188	341.88
577.399	330.88
577.61	335.88
577.821	317.88
578.032	315.88
578.243	332.88
578.454	391.88
578.665	356.88
578.875	321.88
579.086	317.88
579.297	311.88
579.508	308.88
579.718	307.88
579.929	308.88
580.14	305.88
580.35	316.88
580.561	325.88
580.772	307.88
580.982	317.88
581.193	307.88
581.403	302.88
581.614	293.88
581.825	273.88
582.035	283.88
582.246	308.88
582.456	293.88
582.667	294.88
582.877	297.88
583.087	291.88
583.298	290.88
583.508	290.88
583.719	305.88
583.929	313.88
584.139	301.88
584.35	322.88
584.56	285.88
584.77	298.88
584.981	293.88
585.191	300.88
585.401	294.88
585.611	306.88
585.821	292.88
586.032	290.88
586.242	310.88
586.452	294.88
586.662	283.88
586.872	296.88
587.082	306.88
587.292	286.88
587.502	306.88
587.713	298.88
587.923	276.88
588.133	300.88
588.343	293.88
588.553	303.88
588.762	300.88
588.972	289.88
589.182	361.88
589.392	376.88
589.602	313.88
589.812	354.88
590.022	335.88
590.232	296.88
590.441	289.88
590.651	289.88
590.861	310.88
591.071	307.88
591.281	312.88
591.49	308.88
591.7	317.88
591.91	312.88
592.119	321.88
592.329	302.88
592.539	313.88
592.748	328.88
592.958	334.88
593.167	311.88
593.377	335.88
593.587	353.88
593.796	354.88
594.006	336.88
594.215	328.88
594.424	350.88
594.634	338.88
594.843	333.88
595.053	331.88
595.262	327.88
595.472	319.88
595.681	310.88
595.89	302.88
596.1	300.88
596.309	311.88
596.518	302.88
596.727	286.88
596.937	291.88
597.146	285.88
597.355	289.88
597.564	279.88
597.774	264.88
597.983	267.88
598.192	269.88
598.401	269.88
598.61	252.88
598.819	253.88
599.028	270.88
599.237	271.88
599.446	260.88
599.655	251.88
599.864	260.88
600.073	252.88
600.282	269.88
600.491	265.88
600.7	253.88
600.909	251.88
601.118	251.88
601.327	259.88
601.536	242.88
601.745	249.88
601.953	247.88
602.162	251.88
602.371	258.88
602.58	257.88
602.789	246.88
602.997	252.88
603.206	263.88
603.415	252.88
603.623	249.88
603.832	251.88
604.041	249.88
604.249	237.88
604.458	243.88
604.666	234.88
604.875	265.88
605.084	229.88
605.292	233.88
605.501	248.88
605.709	244.88
605.918	234.88
606.126	231.88
606.334	232.88
606.543	223.88
606.751	246.88
606.96	244.88
607.168	243.88
607.376	249.88
607.585	223.88
607.793	245.88
608.001	243.88
608.21	235.88
608.418	231.88
608.626	235.88
608.834	239.88
609.043	233.88
609.251	230.88
609.459	235.88
609.667	226.88
609.875	227.88
610.083	260.88
610.291	250.88
610.499	255.88
610.707	239.88
610.916	235.88
611.124	227.88
611.332	243.88
611.54	235.88
611.748	250.88
611.955	254.88
612.163	238.88
612.371	231.88
612.579	241.88
612.787	247.88
612.995	234.88
613.203	231.88
613.411	221.88
613.618	228.88
613.826	234.88
614.034	261.88
614.242	225.88
614.449	231.88
614.657	257.88
614.865	219.88
615.072	257.88
615.28	234.88
615.488	242.88
615.695	231.88
615.903	230.88
616.111	225.88
616.318	234.88
616.526	217.88
616.733	233.88
616.941	212.88
617.148	223.88
617.356	238.88
617.563	218.88
617.771	236.88
617.978	246.88
618.185	228.88
618.393	217.88
618.6	235.88
618.807	247.88
619.015	218.88
619.222	230.88
619.429	220.88
619.637	238.88
619.844	221.88
620.051	228.88
620.258	224.88
620.466	210.88
620.673	198.88
620.88	227.88
621.087	218.88
621.294	215.88
621.501	213.88
621.708	215.88
621.915	235.88
622.122	209.88
622.329	239.88
622.536	218.88
622.743	209.88
622.95	226.88
623.157	217.88
623.364	227.88
623.571	211.88
623.778	216.88
623.985	218.88
624.192	207.88
624.399	199.88
624.606	218.88
624.812	206.88
625.019	223.88
625.226	198.88
625.433	221.88
625.639	219.88
625.846	224.88
626.053	213.88
626.259	220.88
626.466	222.88
626.673	200.88
626.879	212.88
627.086	204.88
627.293	210.88
627.499	200.88
627.706	199.88
627.912	202.88
628.119	202.88
628.325	210.88
628.532	210.88
628.738	215.88
628.945	203.88
629.151	193.88
629.357	196.88
629.564	207.88
629.77	190.88
629.976	197.88
630.183	181.88
630.389	197.88
630.595	208.88
630.802	205.88
631.008	193.88
631.214	190.88
631.42	206.88
631.627	199.88
631.833	195.88
632.039	179.88
632.245	165.88
632.451	177.88
632.657	182.88
632.863	174.88
633.069	195.88
633.275	195.88
633.481	184.88
633.688	176.88
633.893	192.88
634.099	169.88
634.305	172.88
634.511	181.88
634.717	191.88
634.923	179.88
635.129	185.88
635.335	182.88
635.541	183.88
635.747	195.88
635.952	181.88
636.158	169.88
636.364	179.88
636.57	197.88
636.775	190.88
636.981	181.88
637.187	192.88
637.392	171.88
637.598	183.88
637.804	180.88
638.009	179.88
638.215	166.88
638.421	174.88
638.626	187.88
638.832	188.88
639.037	173.88
639.243	189.88
639.448	191.88
639.654	179.88
639.859	170.88
640.065	184.88
640.27	162.88
640.475	183.88
640.681	179.88
640.886	187.88
641.091	195.88
641.297	173.88
641.502	163.88
641.707	172.88
641.913	167.88
642.118	169.88
642.323	171.88
642.528	171.88
642.733	152.88
642.939	163.88
643.144	169.88
643.349	178.88
643.554	172.88
643.759	190.88
643.964	172.88
644.169	172.88
644.374	157.88
644.579	179.88
644.784	185.88
644.989	143.88
645.194	163.88
645.399	167.88
645.604	178.88
645.809	173.88
646.014	167.88
646.219	187.88
646.423	170.88
646.628	162.88
646.833	170.88
647.038	159.88
647.243	154.88
647.447	171.88
647.652	181.88
647.857	175.88
648.062	170.88
648.266	165.88
648.471	169.88
648.676	166.88
648.88	177.88
649.085	173.88
649.289	171.88
649.494	173.88
649.698	183.88
649.903	172.88
650.107	161.88
650.312	169.88
650.516	171.88
650.721	164.88
650.925	149.88
651.13	164.88
651.334	167.88
651.539	163.88
651.743	150.88
651.947	159.88
652.152	149.88
652.356	148.88
652.56	149.88
652.764	126.88
652.969	149.88
653.173	143.88
653.377	138.88
653.581	135.88
653.785	147.88
653.99	154.88
654.194	135.88
654.398	153.88
654.602	137.88
654.806	134.88
655.01	133.88
655.214	142.88
655.418	149.88
655.622	137.88
655.826	157.88
656.03	149.88
656.234	155.88
656.438	172.88
656.642	153.88
656.846	157.88
657.049	150.88
657.253	135.88
657.457	135.88
657.661	134.88
657.865	133.88
658.068	109.88
658.272	115.88
658.476	104.88
658.68	111.88
658.883	121.88
659.087	105.88
659.291	99.88
659.494	102.88
659.698	91.88
659.901	111.88
660.105	97.88
660.309	91.88
660.512	95.88
660.716	103.88
660.919	95.88
661.123	87.88
661.326	92.88
661.53	97.88
661.733	85.88
661.936	94.88
662.14	102.88
662.343	95.88
662.546	100.88
662.75	79.88
662.953	98.88
663.156	84.88
663.36	82.88
663.563	81.88
663.766	110.88
663.969	81.88
664.173	93.88
664.376	84.88
664.579	95.88
664.782	80.88
664.985	83.88
665.188	75.88
665.391	84.88
665.594	87.88
665.797	80.88
666	77.88
666.203	84.88
666.406	82.88
666.609	68.88
666.812	80.88
667.015	65.88
667.218	86.88
667.421	82.88
667.624	87.88
667.827	93.88
668.03	85.88
668.232	92.88
668.435	95.88
668.638	92.88
668.841	66.88
669.043	94.88
669.246	83.88
669.449	86.88
669.651	91.88
669.854	70.88
670.057	86.88
670.259	81.88
670.462	77.88
670.665	93.88
670.867	86.88
671.07	83.88
671.272	84.88
671.475	91.88
671.677	86.88
671.88	69.88
672.082	88.88
672.284	67.88
672.487	71.88
672.689	79.88
672.892	73.88
