Data from 1962.PennyLincolnUp.Lamp.En5.5.200Scan.071719.P1._HRD10591_13-53-47-060.txt Node
Date: Thu Jul 18 13:53:47 EDT 2019
User: cochatt
Spectrometer: HR+D1059
Trigger mode: 1
Integration Time (sec): 1.000000E-1
Scans to average: 1
Electric dark correction enabled: true
Nonlinearity correction enabled: false
Boxcar width: 0
XAxis mode: Wavelengths
Number of Pixels in Spectrum: 2048
>>>>>Begin Spectral Data<<<<<
223.165	-9.25
223.4	-9.25
223.635	-9.25
223.869	-15.25
224.104	-4.25
224.338	-16.25
224.573	-11.25
224.808	-23.25
225.042	-15.25
225.277	-5.25
225.511	-7.25
225.746	1.75
225.98	12.75
226.215	8.75
226.449	11.75
226.683	10.75
226.918	39.75
227.152	21.75
227.387	21.75
227.621	34.75
227.856	41.75
228.09	40.75
228.324	53.75
228.559	62.75
228.793	60.75
229.027	74.75
229.262	92.75
229.496	89.75
229.73	99.75
229.964	114.75
230.199	119.75
230.433	104.75
230.667	105.75
230.901	107.75
231.136	109.75
231.37	105.75
231.604	110.75
231.838	114.75
232.072	103.75
232.306	108.75
232.541	112.75
232.775	100.75
233.009	107.75
233.243	95.75
233.477	106.75
233.711	103.75
233.945	111.75
234.179	113.75
234.413	98.75
234.647	101.75
234.881	102.75
235.115	108.75
235.349	109.75
235.583	113.75
235.817	111.75
236.051	113.75
236.285	111.75
236.519	117.75
236.753	124.75
236.987	124.75
237.221	147.75
237.455	193.75
237.689	156.75
237.922	132.75
238.156	125.75
238.39	106.75
238.624	127.75
238.858	117.75
239.091	133.75
239.325	123.75
239.559	112.75
239.793	128.75
240.027	140.75
240.26	122.75
240.494	131.75
240.728	130.75
240.961	123.75
241.195	113.75
241.429	120.75
241.662	121.75
241.896	124.75
242.13	131.75
242.363	123.75
242.597	121.75
242.83	134.75
243.064	111.75
243.298	117.75
243.531	117.75
243.765	121.75
243.998	126.75
244.232	126.75
244.465	138.75
244.699	140.75
244.932	137.75
245.166	144.75
245.399	147.75
245.633	137.75
245.866	124.75
246.099	135.75
246.333	151.75
246.566	142.75
246.8	140.75
247.033	155.75
247.266	136.75
247.5	150.75
247.733	153.75
247.966	148.75
248.2	162.75
248.433	154.75
248.666	141.75
248.899	171.75
249.133	167.75
249.366	168.75
249.599	181.75
249.832	156.75
250.066	165.75
250.299	163.75
250.532	155.75
250.765	173.75
250.998	206.75
251.231	182.75
251.465	171.75
251.698	182.75
251.931	201.75
252.164	167.75
252.397	169.75
252.63	187.75
252.863	185.75
253.096	191.75
253.329	192.75
253.562	203.75
253.795	186.75
254.028	182.75
254.261	184.75
254.494	216.75
254.727	199.75
254.96	215.75
255.193	230.75
255.426	218.75
255.659	199.75
255.892	189.75
256.124	192.75
256.357	209.75
256.59	194.75
256.823	188.75
257.056	192.75
257.289	187.75
257.521	196.75
257.754	176.75
257.987	208.75
258.22	198.75
258.452	182.75
258.685	191.75
258.918	194.75
259.151	186.75
259.383	193.75
259.616	193.75
259.849	204.75
260.081	209.75
260.314	208.75
260.547	224.75
260.779	219.75
261.012	232.75
261.244	197.75
261.477	209.75
261.71	208.75
261.942	196.75
262.175	202.75
262.407	205.75
262.64	185.75
262.872	202.75
263.105	209.75
263.337	197.75
263.57	196.75
263.802	189.75
264.035	187.75
264.267	197.75
264.499	212.75
264.732	203.75
264.964	211.75
265.197	205.75
265.429	216.75
265.661	202.75
265.894	216.75
266.126	196.75
266.358	202.75
266.591	203.75
266.823	216.75
267.055	230.75
267.287	203.75
267.52	204.75
267.752	222.75
267.984	216.75
268.216	221.75
268.448	226.75
268.681	214.75
268.913	216.75
269.145	233.75
269.377	253.75
269.609	237.75
269.841	219.75
270.073	242.75
270.306	247.75
270.538	249.75
270.77	249.75
271.002	259.75
271.234	249.75
271.466	258.75
271.698	260.75
271.93	261.75
272.162	264.75
272.394	285.75
272.626	270.75
272.858	257.75
273.09	234.75
273.322	258.75
273.553	257.75
273.785	247.75
274.017	232.75
274.249	252.75
274.481	261.75
274.713	256.75
274.945	268.75
275.176	245.75
275.408	264.75
275.64	242.75
275.872	243.75
276.104	257.75
276.335	246.75
276.567	259.75
276.799	263.75
277.031	282.75
277.262	279.75
277.494	288.75
277.726	276.75
277.957	287.75
278.189	267.75
278.421	247.75
278.652	255.75
278.884	243.75
279.115	260.75
279.347	259.75
279.579	268.75
279.81	253.75
280.042	270.75
280.273	271.75
280.505	275.75
280.736	274.75
280.968	256.75
281.199	276.75
281.431	251.75
281.662	277.75
281.894	263.75
282.125	263.75
282.356	280.75
282.588	292.75
282.819	290.75
283.051	265.75
283.282	269.75
283.513	298.75
283.745	283.75
283.976	266.75
284.207	262.75
284.439	260.75
284.67	269.75
284.901	291.75
285.132	278.75
285.364	293.75
285.595	285.75
285.826	280.75
286.057	285.75
286.288	285.75
286.52	271.75
286.751	283.75
286.982	285.75
287.213	270.75
287.444	300.75
287.675	299.75
287.906	284.75
288.138	298.75
288.369	304.75
288.6	317.75
288.831	285.75
289.062	287.75
289.293	285.75
289.524	292.75
289.755	288.75
289.986	291.75
290.217	267.75
290.448	293.75
290.679	307.75
290.91	287.75
291.141	282.75
291.371	279.75
291.602	306.75
291.833	275.75
292.064	286.75
292.295	289.75
292.526	280.75
292.757	289.75
292.987	287.75
293.218	277.75
293.449	282.75
293.68	297.75
293.91	277.75
294.141	291.75
294.372	293.75
294.603	300.75
294.833	320.75
295.064	301.75
295.295	294.75
295.525	296.75
295.756	305.75
295.987	290.75
296.217	305.75
296.448	312.75
296.679	307.75
296.909	297.75
297.14	292.75
297.37	305.75
297.601	312.75
297.831	292.75
298.062	311.75
298.292	287.75
298.523	312.75
298.753	319.75
298.984	295.75
299.214	315.75
299.445	305.75
299.675	308.75
299.905	325.75
300.136	314.75
300.366	312.75
300.597	323.75
300.827	323.75
301.057	327.75
301.288	332.75
301.518	320.75
301.748	328.75
301.979	335.75
302.209	334.75
302.439	317.75
302.669	339.75
302.9	333.75
303.13	323.75
303.36	321.75
303.59	329.75
303.82	344.75
304.051	337.75
304.281	355.75
304.511	317.75
304.741	328.75
304.971	321.75
305.201	320.75
305.431	322.75
305.661	320.75
305.891	325.75
306.121	332.75
306.352	313.75
306.582	332.75
306.812	323.75
307.042	340.75
307.272	337.75
307.502	325.75
307.731	329.75
307.961	336.75
308.191	337.75
308.421	324.75
308.651	324.75
308.881	337.75
309.111	321.75
309.341	316.75
309.571	340.75
309.8	347.75
310.03	351.75
310.26	318.75
310.49	337.75
310.72	360.75
310.949	361.75
311.179	352.75
311.409	344.75
311.639	352.75
311.868	353.75
312.098	353.75
312.328	357.75
312.557	373.75
312.787	353.75
313.017	360.75
313.246	365.75
313.476	372.75
313.706	351.75
313.935	361.75
314.165	379.75
314.394	363.75
314.624	391.75
314.853	358.75
315.083	360.75
315.312	355.75
315.542	361.75
315.771	353.75
316.001	382.75
316.23	354.75
316.46	347.75
316.689	362.75
316.919	362.75
317.148	377.75
317.377	341.75
317.607	395.75
317.836	369.75
318.065	362.75
318.295	362.75
318.524	373.75
318.753	352.75
318.983	351.75
319.212	361.75
319.441	351.75
319.67	375.75
319.9	379.75
320.129	360.75
320.358	375.75
320.587	380.75
320.816	371.75
321.046	362.75
321.275	371.75
321.504	367.75
321.733	368.75
321.962	383.75
322.191	388.75
322.42	392.75
322.649	388.75
322.878	401.75
323.108	394.75
323.337	415.75
323.566	390.75
323.795	427.75
324.024	447.75
324.253	533.75
324.482	640.75
324.71	944.75
324.939	1263.75
325.168	1137.75
325.397	662.75
325.626	492.75
325.855	459.75
326.084	418.75
326.313	419.75
326.542	409.75
326.77	461.75
326.999	499.75
327.228	610.75
327.457	859.75
327.686	970.75
327.914	746.75
328.143	543.75
328.372	480.75
328.6	468.75
328.829	452.75
329.058	451.75
329.287	449.75
329.515	462.75
329.744	446.75
329.972	452.75
330.201	464.75
330.43	466.75
330.658	501.75
330.887	491.75
331.115	486.75
331.344	450.75
331.572	435.75
331.801	428.75
332.03	451.75
332.258	419.75
332.486	454.75
332.715	456.75
332.943	441.75
333.172	460.75
333.4	463.75
333.629	484.75
333.857	479.75
334.085	470.75
334.314	504.75
334.542	508.75
334.771	518.75
334.999	477.75
335.227	478.75
335.455	453.75
335.684	477.75
335.912	451.75
336.14	437.75
336.369	445.75
336.597	439.75
336.825	447.75
337.053	435.75
337.281	428.75
337.51	426.75
337.738	448.75
337.966	435.75
338.194	434.75
338.422	444.75
338.65	419.75
338.878	412.75
339.106	406.75
339.334	429.75
339.562	413.75
339.79	426.75
340.018	429.75
340.246	388.75
340.474	408.75
340.702	411.75
340.93	429.75
341.158	424.75
341.386	416.75
341.614	415.75
341.842	420.75
342.07	412.75
342.298	406.75
342.526	397.75
342.754	395.75
342.981	409.75
343.209	397.75
343.437	411.75
343.665	413.75
343.893	444.75
344.12	460.75
344.348	456.75
344.576	438.75
344.804	435.75
345.031	426.75
345.259	418.75
345.487	376.75
345.714	407.75
345.942	416.75
346.17	416.75
346.397	404.75
346.625	398.75
346.853	425.75
347.08	409.75
347.308	407.75
347.535	406.75
347.763	401.75
347.99	396.75
348.218	394.75
348.445	392.75
348.673	388.75
348.9	413.75
349.128	389.75
349.355	381.75
349.583	389.75
349.81	388.75
350.037	400.75
350.265	389.75
350.492	377.75
350.72	385.75
350.947	386.75
351.174	403.75
351.402	421.75
351.629	401.75
351.856	390.75
352.083	395.75
352.311	403.75
352.538	376.75
352.765	403.75
352.992	381.75
353.22	396.75
353.447	377.75
353.674	379.75
353.901	384.75
354.128	403.75
354.355	376.75
354.583	397.75
354.81	393.75
355.037	378.75
355.264	378.75
355.491	391.75
355.718	385.75
355.945	387.75
356.172	380.75
356.399	373.75
356.626	364.75
356.853	364.75
357.08	393.75
357.307	383.75
357.534	374.75
357.761	393.75
357.988	372.75
358.215	389.75
358.441	383.75
358.668	379.75
358.895	389.75
359.122	371.75
359.349	392.75
359.576	393.75
359.802	408.75
360.029	420.75
360.256	425.75
360.483	406.75
360.709	384.75
360.936	399.75
361.163	371.75
361.39	401.75
361.616	371.75
361.843	412.75
362.07	390.75
362.296	375.75
362.523	390.75
362.749	383.75
362.976	394.75
363.203	377.75
363.429	377.75
363.656	376.75
363.882	403.75
364.109	407.75
364.335	391.75
364.562	386.75
364.788	384.75
365.015	398.75
365.241	379.75
365.468	381.75
365.694	381.75
365.92	384.75
366.147	391.75
366.373	383.75
366.599	388.75
366.826	375.75
367.052	396.75
367.278	402.75
367.505	386.75
367.731	391.75
367.957	375.75
368.184	377.75
368.41	394.75
368.636	386.75
368.862	408.75
369.089	389.75
369.315	408.75
369.541	381.75
369.767	384.75
369.993	396.75
370.219	391.75
370.445	402.75
370.672	397.75
370.898	385.75
371.124	392.75
371.35	395.75
371.576	396.75
371.802	387.75
372.028	383.75
372.254	387.75
372.48	394.75
372.706	404.75
372.932	399.75
373.158	401.75
373.384	409.75
373.61	402.75
373.835	398.75
374.061	399.75
374.287	393.75
374.513	395.75
374.739	387.75
374.965	409.75
375.191	420.75
375.416	419.75
375.642	426.75
375.868	394.75
376.094	403.75
376.319	406.75
376.545	385.75
376.771	385.75
376.997	387.75
377.222	387.75
377.448	380.75
377.674	397.75
377.899	405.75
378.125	398.75
378.35	405.75
378.576	394.75
378.802	398.75
379.027	403.75
379.253	417.75
379.478	397.75
379.704	387.75
379.929	402.75
380.155	383.75
380.38	410.75
380.606	398.75
380.831	405.75
381.057	388.75
381.282	397.75
381.507	398.75
381.733	394.75
381.958	411.75
382.184	413.75
382.409	396.75
382.634	404.75
382.86	405.75
383.085	411.75
383.31	412.75
383.535	404.75
383.761	411.75
383.986	421.75
384.211	446.75
384.436	457.75
384.662	420.75
384.887	431.75
385.112	447.75
385.337	431.75
385.562	461.75
385.787	444.75
386.013	473.75
386.238	441.75
386.463	452.75
386.688	460.75
386.913	437.75
387.138	469.75
387.363	457.75
387.588	435.75
387.813	463.75
388.038	461.75
388.263	434.75
388.488	475.75
388.713	445.75
388.938	456.75
389.163	443.75
389.387	441.75
389.612	443.75
389.837	427.75
390.062	449.75
390.287	451.75
390.512	439.75
390.736	440.75
390.961	445.75
391.186	452.75
391.411	477.75
391.636	468.75
391.86	474.75
392.085	469.75
392.31	488.75
392.534	493.75
392.759	486.75
392.984	480.75
393.208	442.75
393.433	428.75
393.658	466.75
393.882	458.75
394.107	441.75
394.331	477.75
394.556	466.75
394.78	449.75
395.005	474.75
395.229	490.75
395.454	476.75
395.678	478.75
395.903	496.75
396.127	505.75
396.352	499.75
396.576	477.75
396.801	462.75
397.025	485.75
397.249	471.75
397.474	484.75
397.698	486.75
397.922	501.75
398.147	494.75
398.371	519.75
398.595	531.75
398.82	535.75
399.044	559.75
399.268	588.75
399.492	620.75
399.717	634.75
399.941	669.75
400.165	679.75
400.389	641.75
400.613	623.75
400.837	575.75
401.062	553.75
401.286	533.75
401.51	538.75
401.734	514.75
401.958	540.75
402.182	547.75
402.406	546.75
402.63	555.75
402.854	532.75
403.078	565.75
403.302	555.75
403.526	565.75
403.75	590.75
403.974	584.75
404.198	567.75
404.422	576.75
404.645	557.75
404.869	585.75
405.093	582.75
405.317	619.75
405.541	629.75
405.765	601.75
405.988	580.75
406.212	580.75
406.436	585.75
406.66	597.75
406.883	583.75
407.107	608.75
407.331	652.75
407.555	706.75
407.778	733.75
408.002	664.75
408.226	603.75
408.449	632.75
408.673	586.75
408.896	618.75
409.12	626.75
409.344	608.75
409.567	577.75
409.791	584.75
410.014	582.75
410.238	556.75
410.461	534.75
410.685	571.75
410.908	579.75
411.132	572.75
411.355	599.75
411.578	582.75
411.802	541.75
412.025	551.75
412.249	566.75
412.472	567.75
412.695	601.75
412.919	596.75
413.142	555.75
413.365	543.75
413.589	528.75
413.812	521.75
414.035	540.75
414.258	516.75
414.482	533.75
414.705	562.75
414.928	518.75
415.151	521.75
415.374	540.75
415.597	519.75
415.821	519.75
416.044	521.75
416.267	530.75
416.49	487.75
416.713	509.75
416.936	525.75
417.159	510.75
417.382	543.75
417.605	526.75
417.828	529.75
418.051	527.75
418.274	533.75
418.497	515.75
418.72	550.75
418.943	506.75
419.166	537.75
419.389	594.75
419.611	588.75
419.834	560.75
420.057	544.75
420.28	532.75
420.503	524.75
420.726	544.75
420.948	538.75
421.171	567.75
421.394	566.75
421.617	536.75
421.839	540.75
422.062	556.75
422.285	541.75
422.507	594.75
422.73	645.75
422.953	625.75
423.175	572.75
423.398	550.75
423.621	553.75
423.843	547.75
424.066	582.75
424.288	559.75
424.511	572.75
424.733	590.75
424.956	663.75
425.178	626.75
425.401	626.75
425.623	644.75
425.846	600.75
426.068	521.75
426.291	563.75
426.513	544.75
426.735	539.75
426.958	563.75
427.18	607.75
427.402	714.75
427.625	786.75
427.847	674.75
428.069	602.75
428.292	566.75
428.514	529.75
428.736	506.75
428.958	511.75
429.181	493.75
429.403	487.75
429.625	505.75
429.847	535.75
430.069	570.75
430.292	568.75
430.514	532.75
430.736	484.75
430.958	513.75
431.18	496.75
431.402	479.75
431.624	484.75
431.846	485.75
432.068	514.75
432.29	481.75
432.512	474.75
432.734	501.75
432.956	502.75
433.178	504.75
433.4	508.75
433.622	485.75
433.844	515.75
434.066	497.75
434.287	489.75
434.509	514.75
434.731	511.75
434.953	506.75
435.175	528.75
435.397	560.75
435.618	532.75
435.84	555.75
436.062	647.75
436.284	636.75
436.505	591.75
436.727	538.75
436.949	515.75
437.17	517.75
437.392	531.75
437.614	512.75
437.835	546.75
438.057	587.75
438.278	649.75
438.5	651.75
438.721	713.75
438.943	694.75
439.165	565.75
439.386	524.75
439.608	536.75
439.829	541.75
440.05	534.75
440.272	563.75
440.493	547.75
440.715	509.75
440.936	531.75
441.158	513.75
441.379	511.75
441.6	525.75
441.822	571.75
442.043	566.75
442.264	636.75
442.486	643.75
442.707	570.75
442.928	537.75
443.149	559.75
443.371	565.75
443.592	597.75
443.813	659.75
444.034	692.75
444.255	610.75
444.476	587.75
444.698	578.75
444.919	581.75
445.14	690.75
445.361	606.75
445.582	559.75
445.803	611.75
446.024	667.75
446.245	673.75
446.466	617.75
446.687	542.75
446.908	526.75
447.129	500.75
447.35	496.75
447.571	501.75
447.792	497.75
448.013	471.75
448.234	505.75
448.455	530.75
448.675	619.75
448.896	685.75
449.117	596.75
449.338	567.75
449.559	620.75
449.779	731.75
450	592.75
450.221	519.75
450.442	476.75
450.662	479.75
450.883	455.75
451.104	476.75
451.324	473.75
451.545	468.75
451.766	460.75
451.986	448.75
452.207	447.75
452.428	460.75
452.648	449.75
452.869	466.75
453.089	450.75
453.31	472.75
453.53	449.75
453.751	454.75
453.971	431.75
454.192	458.75
454.412	458.75
454.633	443.75
454.853	428.75
455.073	440.75
455.294	452.75
455.514	482.75
455.734	490.75
455.955	446.75
456.175	427.75
456.395	432.75
456.616	449.75
456.836	428.75
457.056	431.75
457.276	430.75
457.497	436.75
457.717	436.75
457.937	423.75
458.157	439.75
458.377	442.75
458.598	460.75
458.818	501.75
459.038	534.75
459.258	566.75
459.478	519.75
459.698	513.75
459.918	501.75
460.138	502.75
460.358	500.75
460.578	530.75
460.798	529.75
461.018	536.75
461.238	538.75
461.458	532.75
461.678	524.75
461.898	541.75
462.118	519.75
462.338	534.75
462.558	545.75
462.777	578.75
462.997	570.75
463.217	584.75
463.437	625.75
463.657	584.75
463.876	590.75
464.096	583.75
464.316	585.75
464.536	576.75
464.755	578.75
464.975	544.75
465.195	560.75
465.414	579.75
465.634	550.75
465.854	514.75
466.073	504.75
466.293	490.75
466.512	479.75
466.732	465.75
466.951	484.75
467.171	477.75
467.391	497.75
467.61	474.75
467.829	474.75
468.049	470.75
468.268	476.75
468.488	465.75
468.707	475.75
468.927	459.75
469.146	447.75
469.365	464.75
469.585	456.75
469.804	475.75
470.023	478.75
470.243	488.75
470.462	482.75
470.681	489.75
470.901	488.75
471.12	483.75
471.339	489.75
471.558	487.75
471.777	503.75
471.997	477.75
472.216	463.75
472.435	473.75
472.654	467.75
472.873	444.75
473.092	457.75
473.311	468.75
473.53	495.75
473.749	477.75
473.968	477.75
474.187	556.75
474.406	564.75
474.625	499.75
474.844	478.75
475.063	467.75
475.282	459.75
475.501	485.75
475.72	483.75
475.939	469.75
476.158	491.75
476.377	455.75
476.596	482.75
476.814	493.75
477.033	506.75
477.252	504.75
477.471	503.75
477.69	487.75
477.908	523.75
478.127	536.75
478.346	515.75
478.564	546.75
478.783	540.75
479.002	539.75
479.22	545.75
479.439	568.75
479.658	570.75
479.876	594.75
480.095	583.75
480.313	605.75
480.532	618.75
480.751	600.75
480.969	598.75
481.188	612.75
481.406	610.75
481.624	593.75
481.843	571.75
482.061	526.75
482.28	541.75
482.498	543.75
482.717	548.75
482.935	542.75
483.153	543.75
483.372	542.75
483.59	554.75
483.808	533.75
484.027	519.75
484.245	561.75
484.463	545.75
484.681	565.75
484.9	555.75
485.118	555.75
485.336	562.75
485.554	571.75
485.772	583.75
485.99	573.75
486.209	573.75
486.427	580.75
486.645	572.75
486.863	580.75
487.081	573.75
487.299	596.75
487.517	600.75
487.735	576.75
487.953	552.75
488.171	559.75
488.389	569.75
488.607	563.75
488.825	584.75
489.043	557.75
489.261	595.75
489.479	603.75
489.696	597.75
489.914	582.75
490.132	581.75
490.35	599.75
490.568	610.75
490.786	594.75
491.003	620.75
491.221	607.75
491.439	613.75
491.657	615.75
491.874	620.75
492.092	617.75
492.31	626.75
492.527	651.75
492.745	630.75
492.963	642.75
493.18	631.75
493.398	625.75
493.615	641.75
493.833	625.75
494.05	659.75
494.268	643.75
494.485	664.75
494.703	677.75
494.92	672.75
495.138	656.75
495.355	654.75
495.573	673.75
495.79	664.75
496.008	644.75
496.225	641.75
496.442	664.75
496.66	665.75
496.877	665.75
497.094	693.75
497.312	711.75
497.529	683.75
497.746	722.75
497.963	730.75
498.181	733.75
498.398	768.75
498.615	815.75
498.832	811.75
499.049	853.75
499.267	893.75
499.484	916.75
499.701	988.75
499.918	1040.75
500.135	1128.75
500.352	1196.75
500.569	1231.75
500.786	1231.75
501.003	1187.75
501.22	1111.75
501.437	1059.75
501.654	992.75
501.871	938.75
502.088	899.75
502.305	894.75
502.522	839.75
502.739	803.75
502.956	776.75
503.172	755.75
503.389	738.75
503.606	735.75
503.823	725.75
504.04	721.75
504.256	706.75
504.473	689.75
504.69	705.75
504.907	700.75
505.123	672.75
505.34	659.75
505.557	653.75
505.773	627.75
505.99	641.75
506.207	620.75
506.423	619.75
506.64	593.75
506.856	633.75
507.073	609.75
507.289	625.75
507.506	613.75
507.722	597.75
507.939	586.75
508.155	593.75
508.372	586.75
508.588	567.75
508.805	584.75
509.021	565.75
509.238	589.75
509.454	591.75
509.67	599.75
509.887	574.75
510.103	579.75
510.319	579.75
510.536	626.75
510.752	849.75
510.968	715.75
511.184	589.75
511.401	550.75
511.617	577.75
511.833	545.75
512.049	539.75
512.265	566.75
512.481	557.75
512.698	554.75
512.914	552.75
513.13	561.75
513.346	545.75
513.562	547.75
513.778	552.75
513.994	547.75
514.21	574.75
514.426	552.75
514.642	571.75
514.858	588.75
515.074	582.75
515.29	666.75
515.506	830.75
515.721	743.75
515.937	618.75
516.153	591.75
516.369	595.75
516.585	598.75
516.801	593.75
517.016	605.75
517.232	613.75
517.448	632.75
517.664	647.75
517.879	642.75
518.095	633.75
518.311	658.75
518.527	643.75
518.742	620.75
518.958	587.75
519.173	581.75
519.389	565.75
519.605	556.75
519.82	550.75
520.036	562.75
520.251	576.75
520.467	565.75
520.682	561.75
520.898	593.75
521.113	560.75
521.329	564.75
521.544	629.75
521.76	671.75
521.975	924.75
522.19	880.75
522.406	631.75
522.621	575.75
522.836	559.75
523.052	533.75
523.267	516.75
523.482	493.75
523.698	501.75
523.913	499.75
524.128	505.75
524.343	516.75
524.559	491.75
524.774	503.75
524.989	489.75
525.204	505.75
525.419	521.75
525.634	467.75
525.849	501.75
526.064	484.75
526.28	493.75
526.495	489.75
526.71	475.75
526.925	460.75
527.14	461.75
527.355	466.75
527.57	484.75
527.785	459.75
527.999	470.75
528.214	469.75
528.429	474.75
528.644	478.75
528.859	480.75
529.074	470.75
529.289	464.75
529.503	509.75
529.718	485.75
529.933	463.75
530.148	499.75
530.363	473.75
530.577	465.75
530.792	464.75
531.007	481.75
531.221	478.75
531.436	480.75
531.651	471.75
531.865	472.75
532.08	457.75
532.295	467.75
532.509	474.75
532.724	481.75
532.938	459.75
533.153	459.75
533.367	455.75
533.582	444.75
533.796	452.75
534.011	455.75
534.225	477.75
534.44	450.75
534.654	458.75
534.868	437.75
535.083	449.75
535.297	442.75
535.511	447.75
535.726	443.75
535.94	464.75
536.154	451.75
536.369	467.75
536.583	447.75
536.797	461.75
537.011	445.75
537.225	457.75
537.44	431.75
537.654	437.75
537.868	427.75
538.082	433.75
538.296	441.75
538.51	454.75
538.724	447.75
538.938	440.75
539.153	433.75
539.367	441.75
539.581	438.75
539.795	451.75
540.009	421.75
540.222	418.75
540.436	446.75
540.65	429.75
540.864	418.75
541.078	439.75
541.292	442.75
541.506	426.75
541.72	440.75
541.934	421.75
542.147	453.75
542.361	425.75
542.575	419.75
542.789	423.75
543.002	429.75
543.216	468.75
543.43	436.75
543.644	428.75
543.857	444.75
544.071	452.75
544.285	433.75
544.498	437.75
544.712	426.75
544.925	431.75
545.139	450.75
545.352	420.75
545.566	422.75
545.779	462.75
545.993	430.75
546.206	436.75
546.42	436.75
546.633	423.75
546.847	441.75
547.06	448.75
547.274	448.75
547.487	419.75
547.7	449.75
547.914	446.75
548.127	448.75
548.34	424.75
548.554	446.75
548.767	447.75
548.98	435.75
549.193	419.75
549.407	448.75
549.62	455.75
549.833	449.75
550.046	417.75
550.259	402.75
550.473	425.75
550.686	417.75
550.899	431.75
551.112	432.75
551.325	436.75
551.538	434.75
551.751	432.75
551.964	433.75
552.177	455.75
552.39	433.75
552.603	449.75
552.816	453.75
553.029	468.75
553.242	466.75
553.455	439.75
553.667	464.75
553.88	455.75
554.093	447.75
554.306	454.75
554.519	440.75
554.732	432.75
554.944	428.75
555.157	419.75
555.37	420.75
555.583	410.75
555.795	397.75
556.008	411.75
556.221	379.75
556.433	371.75
556.646	407.75
556.859	384.75
557.071	399.75
557.284	409.75
557.496	397.75
557.709	384.75
557.921	403.75
558.134	387.75
558.346	373.75
558.559	371.75
558.771	383.75
558.984	387.75
559.196	379.75
559.409	371.75
559.621	387.75
559.833	386.75
560.046	373.75
560.258	396.75
560.47	368.75
560.683	375.75
560.895	383.75
561.107	377.75
561.32	375.75
561.532	376.75
561.744	394.75
561.956	384.75
562.168	385.75
562.381	393.75
562.593	380.75
562.805	384.75
563.017	369.75
563.229	391.75
563.441	389.75
563.653	383.75
563.865	410.75
564.077	403.75
564.289	408.75
564.501	407.75
564.713	416.75
564.925	408.75
565.137	386.75
565.349	427.75
565.561	439.75
565.773	445.75
565.985	451.75
566.197	455.75
566.408	487.75
566.62	508.75
566.832	511.75
567.044	529.75
567.255	540.75
567.467	558.75
567.679	580.75
567.891	578.75
568.102	580.75
568.314	589.75
568.526	548.75
568.737	500.75
568.949	516.75
569.161	459.75
569.372	448.75
569.584	438.75
569.795	420.75
570.007	412.75
570.218	413.75
570.43	426.75
570.641	405.75
570.853	405.75
571.064	398.75
571.276	373.75
571.487	374.75
571.698	372.75
571.91	382.75
572.121	375.75
572.333	358.75
572.544	362.75
572.755	348.75
572.966	356.75
573.178	362.75
573.389	320.75
573.6	339.75
573.811	327.75
574.023	352.75
574.234	332.75
574.445	355.75
574.656	346.75
574.867	333.75
575.078	333.75
575.289	329.75
575.501	334.75
575.712	330.75
575.923	331.75
576.134	347.75
576.345	329.75
576.556	343.75
576.767	333.75
576.978	323.75
577.188	335.75
577.399	325.75
577.61	327.75
577.821	324.75
578.032	329.75
578.243	330.75
578.454	418.75
578.665	372.75
578.875	316.75
579.086	316.75
579.297	326.75
579.508	305.75
579.718	312.75
579.929	322.75
580.14	295.75
580.35	308.75
580.561	296.75
580.772	320.75
580.982	323.75
581.193	309.75
581.403	308.75
581.614	306.75
581.825	299.75
582.035	315.75
582.246	299.75
582.456	320.75
582.667	317.75
582.877	311.75
583.087	300.75
583.298	299.75
583.508	300.75
583.719	305.75
583.929	313.75
584.139	315.75
584.35	294.75
584.56	305.75
584.77	307.75
584.981	300.75
585.191	316.75
585.401	295.75
585.611	301.75
585.821	300.75
586.032	299.75
586.242	296.75
586.452	301.75
586.662	281.75
586.872	285.75
587.082	297.75
587.292	293.75
587.502	292.75
587.713	291.75
587.923	306.75
588.133	287.75
588.343	298.75
588.553	291.75
588.762	309.75
588.972	312.75
589.182	352.75
589.392	336.75
589.602	293.75
589.812	328.75
590.022	321.75
590.232	309.75
590.441	301.75
590.651	304.75
590.861	300.75
591.071	307.75
591.281	309.75
591.49	298.75
591.7	305.75
591.91	321.75
592.119	309.75
592.329	333.75
592.539	316.75
592.748	337.75
592.958	319.75
593.167	322.75
593.377	337.75
593.587	337.75
593.796	328.75
594.006	344.75
594.215	337.75
594.424	347.75
594.634	315.75
594.843	332.75
595.053	313.75
595.262	309.75
595.472	312.75
595.681	314.75
595.89	285.75
596.1	303.75
596.309	290.75
596.518	289.75
596.727	288.75
596.937	287.75
597.146	275.75
597.355	294.75
597.564	284.75
597.774	280.75
597.983	282.75
598.192	292.75
598.401	281.75
598.61	260.75
598.819	272.75
599.028	274.75
599.237	260.75
599.446	272.75
599.655	263.75
599.864	259.75
600.073	267.75
600.282	256.75
600.491	258.75
600.7	281.75
600.909	255.75
601.118	264.75
601.327	248.75
601.536	228.75
601.745	247.75
601.953	270.75
602.162	261.75
602.371	236.75
602.58	276.75
602.789	245.75
602.997	245.75
603.206	265.75
603.415	243.75
603.623	232.75
603.832	249.75
604.041	248.75
604.249	240.75
604.458	229.75
604.666	251.75
604.875	248.75
605.084	259.75
605.292	259.75
605.501	253.75
605.709	249.75
605.918	241.75
606.126	224.75
606.334	259.75
606.543	226.75
606.751	240.75
606.96	218.75
607.168	252.75
607.376	247.75
607.585	260.75
607.793	243.75
608.001	230.75
608.21	237.75
608.418	239.75
608.626	240.75
608.834	257.75
609.043	240.75
609.251	223.75
609.459	241.75
609.667	229.75
609.875	235.75
610.083	230.75
610.291	228.75
610.499	241.75
610.707	241.75
610.916	227.75
611.124	244.75
611.332	236.75
611.54	235.75
611.748	236.75
611.955	224.75
612.163	240.75
612.371	235.75
612.579	242.75
612.787	239.75
612.995	234.75
613.203	239.75
613.411	234.75
613.618	243.75
613.826	224.75
614.034	229.75
614.242	241.75
614.449	232.75
614.657	239.75
614.865	228.75
615.072	232.75
615.28	246.75
615.488	230.75
615.695	229.75
615.903	219.75
616.111	226.75
616.318	240.75
616.526	216.75
616.733	213.75
616.941	223.75
617.148	224.75
617.356	247.75
617.563	231.75
617.771	234.75
617.978	218.75
618.185	241.75
618.393	225.75
618.6	247.75
618.807	219.75
619.015	211.75
619.222	223.75
619.429	235.75
619.637	240.75
619.844	232.75
620.051	233.75
620.258	229.75
620.466	209.75
620.673	215.75
620.88	191.75
621.087	209.75
621.294	208.75
621.501	216.75
621.708	224.75
621.915	217.75
622.122	218.75
622.329	229.75
622.536	228.75
622.743	204.75
622.95	215.75
623.157	199.75
623.364	204.75
623.571	215.75
623.778	199.75
623.985	195.75
624.192	228.75
624.399	208.75
624.606	204.75
624.812	214.75
625.019	200.75
625.226	213.75
625.433	216.75
625.639	208.75
625.846	216.75
626.053	208.75
626.259	217.75
626.466	224.75
626.673	200.75
626.879	199.75
627.086	201.75
627.293	213.75
627.499	198.75
627.706	209.75
627.912	203.75
628.119	204.75
628.325	215.75
628.532	207.75
628.738	193.75
628.945	193.75
629.151	200.75
629.357	187.75
629.564	195.75
629.77	193.75
629.976	172.75
630.183	183.75
630.389	204.75
630.595	197.75
630.802	200.75
631.008	208.75
631.214	185.75
631.42	183.75
631.627	201.75
631.833	195.75
632.039	201.75
632.245	205.75
632.451	201.75
632.657	189.75
632.863	186.75
633.069	191.75
633.275	192.75
633.481	182.75
633.688	170.75
633.893	191.75
634.099	185.75
634.305	209.75
634.511	180.75
634.717	183.75
634.923	185.75
635.129	178.75
635.335	181.75
635.541	185.75
635.747	173.75
635.952	185.75
636.158	184.75
636.364	170.75
636.57	198.75
636.775	175.75
636.981	173.75
637.187	185.75
637.392	181.75
637.598	171.75
637.804	165.75
638.009	171.75
638.215	184.75
638.421	180.75
638.626	177.75
638.832	178.75
639.037	171.75
639.243	163.75
639.448	177.75
639.654	189.75
639.859	174.75
640.065	172.75
640.27	175.75
640.475	185.75
640.681	157.75
640.886	167.75
641.091	176.75
641.297	184.75
641.502	180.75
641.707	176.75
641.913	187.75
642.118	180.75
642.323	167.75
642.528	169.75
642.733	158.75
642.939	166.75
643.144	175.75
643.349	159.75
643.554	156.75
643.759	157.75
643.964	172.75
644.169	165.75
644.374	155.75
644.579	177.75
644.784	175.75
644.989	167.75
645.194	161.75
645.399	159.75
645.604	145.75
645.809	162.75
646.014	176.75
646.219	171.75
646.423	157.75
646.628	162.75
646.833	170.75
647.038	165.75
647.243	156.75
647.447	158.75
647.652	159.75
647.857	163.75
648.062	165.75
648.266	167.75
648.471	175.75
648.676	168.75
648.88	171.75
649.085	168.75
649.289	159.75
649.494	170.75
649.698	173.75
649.903	163.75
650.107	175.75
650.312	148.75
650.516	155.75
650.721	150.75
650.925	164.75
651.13	145.75
651.334	164.75
651.539	153.75
651.743	161.75
651.947	156.75
652.152	147.75
652.356	147.75
652.56	148.75
652.764	157.75
652.969	150.75
653.173	142.75
653.377	150.75
653.581	140.75
653.785	126.75
653.99	143.75
654.194	151.75
654.398	139.75
654.602	137.75
654.806	127.75
655.01	159.75
655.214	147.75
655.418	153.75
655.622	139.75
655.826	138.75
656.03	160.75
656.234	148.75
656.438	152.75
656.642	158.75
656.846	139.75
657.049	137.75
657.253	125.75
657.457	134.75
657.661	135.75
657.865	129.75
658.068	124.75
658.272	113.75
658.476	113.75
658.68	110.75
658.883	95.75
659.087	119.75
659.291	103.75
659.494	94.75
659.698	99.75
659.901	116.75
660.105	104.75
660.309	103.75
660.512	97.75
660.716	109.75
660.919	95.75
661.123	90.75
661.326	93.75
661.53	105.75
661.733	87.75
661.936	87.75
662.14	87.75
662.343	90.75
662.546	85.75
662.75	67.75
662.953	103.75
663.156	86.75
663.36	82.75
663.563	66.75
663.766	85.75
663.969	85.75
664.173	77.75
664.376	84.75
664.579	80.75
664.782	77.75
664.985	81.75
665.188	71.75
665.391	71.75
665.594	80.75
665.797	87.75
666	87.75
666.203	77.75
666.406	74.75
666.609	86.75
666.812	83.75
667.015	74.75
667.218	88.75
667.421	89.75
667.624	68.75
667.827	80.75
668.03	72.75
668.232	82.75
668.435	96.75
668.638	78.75
668.841	71.75
669.043	89.75
669.246	84.75
669.449	89.75
669.651	100.75
669.854	79.75
670.057	91.75
670.259	90.75
670.462	93.75
670.665	80.75
670.867	72.75
671.07	79.75
671.272	92.75
671.475	94.75
671.677	84.75
671.88	86.75
672.082	84.75
672.284	82.75
672.487	93.75
672.689	80.75
672.892	91.75
