Data from 1962.PennyLincolnUp.Lamp.En5.5.200Scan.071719.P1._HRD10591_13-53-30-060.txt Node
Date: Thu Jul 18 13:53:30 EDT 2019
User: cochatt
Spectrometer: HR+D1059
Trigger mode: 1
Integration Time (sec): 1.000000E-1
Scans to average: 1
Electric dark correction enabled: true
Nonlinearity correction enabled: false
Boxcar width: 0
XAxis mode: Wavelengths
Number of Pixels in Spectrum: 2048
>>>>>Begin Spectral Data<<<<<
223.165	-16.31
223.4	-16.31
223.635	-16.31
223.869	-16.31
224.104	-11.31
224.338	-19.31
224.573	-19.31
224.808	5.69
225.042	-6.31
225.277	-15.31
225.511	-12.31
225.746	1.69
225.98	9.69
226.215	6.69
226.449	17.69
226.683	26.69
226.918	18.69
227.152	29.69
227.387	40.69
227.621	35.69
227.856	37.69
228.09	55.69
228.324	38.69
228.559	51.69
228.793	59.69
229.027	83.69
229.262	102.69
229.496	92.69
229.73	116.69
229.964	123.69
230.199	122.69
230.433	103.69
230.667	102.69
230.901	97.69
231.136	110.69
231.37	101.69
231.604	112.69
231.838	98.69
232.072	114.69
232.306	104.69
232.541	98.69
232.775	88.69
233.009	93.69
233.243	96.69
233.477	115.69
233.711	112.69
233.945	104.69
234.179	120.69
234.413	111.69
234.647	95.69
234.881	104.69
235.115	105.69
235.349	125.69
235.583	107.69
235.817	114.69
236.051	121.69
236.285	120.69
236.519	107.69
236.753	99.69
236.987	119.69
237.221	141.69
237.455	169.69
237.689	142.69
237.922	110.69
238.156	135.69
238.39	117.69
238.624	121.69
238.858	120.69
239.091	102.69
239.325	113.69
239.559	139.69
239.793	119.69
240.027	115.69
240.26	123.69
240.494	135.69
240.728	120.69
240.961	136.69
241.195	135.69
241.429	125.69
241.662	138.69
241.896	125.69
242.13	134.69
242.363	119.69
242.597	116.69
242.83	125.69
243.064	121.69
243.298	131.69
243.531	123.69
243.765	139.69
243.998	127.69
244.232	125.69
244.465	139.69
244.699	121.69
244.932	138.69
245.166	131.69
245.399	141.69
245.633	131.69
245.866	135.69
246.099	135.69
246.333	146.69
246.566	144.69
246.8	141.69
247.033	136.69
247.266	127.69
247.5	152.69
247.733	168.69
247.966	149.69
248.2	162.69
248.433	153.69
248.666	166.69
248.899	172.69
249.133	167.69
249.366	175.69
249.599	163.69
249.832	174.69
250.066	168.69
250.299	163.69
250.532	162.69
250.765	159.69
250.998	188.69
251.231	190.69
251.465	177.69
251.698	185.69
251.931	163.69
252.164	183.69
252.397	172.69
252.63	167.69
252.863	170.69
253.096	167.69
253.329	178.69
253.562	183.69
253.795	206.69
254.028	189.69
254.261	185.69
254.494	180.69
254.727	202.69
254.96	221.69
255.193	230.69
255.426	199.69
255.659	202.69
255.892	201.69
256.124	196.69
256.357	199.69
256.59	194.69
256.823	204.69
257.056	187.69
257.289	195.69
257.521	188.69
257.754	203.69
257.987	188.69
258.22	177.69
258.452	189.69
258.685	192.69
258.918	183.69
259.151	189.69
259.383	195.69
259.616	204.69
259.849	207.69
260.081	217.69
260.314	218.69
260.547	193.69
260.779	209.69
261.012	195.69
261.244	202.69
261.477	204.69
261.71	206.69
261.942	190.69
262.175	193.69
262.407	194.69
262.64	187.69
262.872	192.69
263.105	205.69
263.337	207.69
263.57	196.69
263.802	207.69
264.035	205.69
264.267	197.69
264.499	196.69
264.732	195.69
264.964	209.69
265.197	211.69
265.429	186.69
265.661	222.69
265.894	195.69
266.126	191.69
266.358	199.69
266.591	210.69
266.823	195.69
267.055	216.69
267.287	218.69
267.52	220.69
267.752	211.69
267.984	208.69
268.216	213.69
268.448	218.69
268.681	207.69
268.913	207.69
269.145	226.69
269.377	231.69
269.609	241.69
269.841	241.69
270.073	237.69
270.306	247.69
270.538	259.69
270.77	266.69
271.002	263.69
271.234	245.69
271.466	260.69
271.698	268.69
271.93	272.69
272.162	275.69
272.394	278.69
272.626	263.69
272.858	264.69
273.09	243.69
273.322	249.69
273.553	241.69
273.785	253.69
274.017	247.69
274.249	258.69
274.481	244.69
274.713	265.69
274.945	249.69
275.176	246.69
275.408	226.69
275.64	247.69
275.872	253.69
276.104	248.69
276.335	244.69
276.567	257.69
276.799	275.69
277.031	268.69
277.262	270.69
277.494	301.69
277.726	263.69
277.957	278.69
278.189	251.69
278.421	254.69
278.652	268.69
278.884	259.69
279.115	256.69
279.347	243.69
279.579	252.69
279.81	253.69
280.042	252.69
280.273	244.69
280.505	267.69
280.736	262.69
280.968	255.69
281.199	273.69
281.431	270.69
281.662	272.69
281.894	260.69
282.125	265.69
282.356	287.69
282.588	285.69
282.819	264.69
283.051	266.69
283.282	253.69
283.513	271.69
283.745	262.69
283.976	267.69
284.207	260.69
284.439	276.69
284.67	279.69
284.901	276.69
285.132	274.69
285.364	272.69
285.595	276.69
285.826	275.69
286.057	298.69
286.288	266.69
286.52	283.69
286.751	297.69
286.982	274.69
287.213	268.69
287.444	277.69
287.675	297.69
287.906	283.69
288.138	290.69
288.369	299.69
288.6	293.69
288.831	293.69
289.062	300.69
289.293	267.69
289.524	278.69
289.755	278.69
289.986	286.69
290.217	292.69
290.448	284.69
290.679	266.69
290.91	278.69
291.141	267.69
291.371	288.69
291.602	297.69
291.833	283.69
292.064	270.69
292.295	274.69
292.526	286.69
292.757	292.69
292.987	287.69
293.218	289.69
293.449	290.69
293.68	308.69
293.91	278.69
294.141	282.69
294.372	287.69
294.603	287.69
294.833	291.69
295.064	281.69
295.295	277.69
295.525	305.69
295.756	312.69
295.987	303.69
296.217	317.69
296.448	311.69
296.679	309.69
296.909	275.69
297.14	289.69
297.37	307.69
297.601	296.69
297.831	297.69
298.062	305.69
298.292	307.69
298.523	328.69
298.753	323.69
298.984	312.69
299.214	331.69
299.445	312.69
299.675	306.69
299.905	320.69
300.136	310.69
300.366	290.69
300.597	313.69
300.827	308.69
301.057	309.69
301.288	317.69
301.518	309.69
301.748	328.69
301.979	320.69
302.209	321.69
302.439	326.69
302.669	313.69
302.9	334.69
303.13	332.69
303.36	314.69
303.59	332.69
303.82	338.69
304.051	325.69
304.281	354.69
304.511	333.69
304.741	320.69
304.971	341.69
305.201	323.69
305.431	347.69
305.661	329.69
305.891	323.69
306.121	331.69
306.352	327.69
306.582	318.69
306.812	343.69
307.042	326.69
307.272	315.69
307.502	297.69
307.731	321.69
307.961	316.69
308.191	316.69
308.421	328.69
308.651	300.69
308.881	333.69
309.111	332.69
309.341	317.69
309.571	320.69
309.8	331.69
310.03	344.69
310.26	354.69
310.49	341.69
310.72	351.69
310.949	351.69
311.179	359.69
311.409	340.69
311.639	339.69
311.868	350.69
312.098	345.69
312.328	371.69
312.557	355.69
312.787	378.69
313.017	364.69
313.246	357.69
313.476	354.69
313.706	372.69
313.935	369.69
314.165	365.69
314.394	370.69
314.624	360.69
314.853	367.69
315.083	367.69
315.312	356.69
315.542	362.69
315.771	355.69
316.001	353.69
316.23	368.69
316.46	346.69
316.689	347.69
316.919	371.69
317.148	379.69
317.377	362.69
317.607	377.69
317.836	377.69
318.065	361.69
318.295	357.69
318.524	368.69
318.753	347.69
318.983	356.69
319.212	343.69
319.441	377.69
319.67	356.69
319.9	376.69
320.129	356.69
320.358	381.69
320.587	363.69
320.816	375.69
321.046	386.69
321.275	381.69
321.504	373.69
321.733	341.69
321.962	373.69
322.191	391.69
322.42	395.69
322.649	372.69
322.878	394.69
323.108	403.69
323.337	402.69
323.566	423.69
323.795	414.69
324.024	423.69
324.253	490.69
324.482	636.69
324.71	929.69
324.939	1244.69
325.168	1147.69
325.397	629.69
325.626	479.69
325.855	452.69
326.084	403.69
326.313	421.69
326.542	401.69
326.77	440.69
326.999	477.69
327.228	610.69
327.457	836.69
327.686	974.69
327.914	702.69
328.143	545.69
328.372	495.69
328.6	467.69
328.829	456.69
329.058	437.69
329.287	474.69
329.515	428.69
329.744	435.69
329.972	436.69
330.201	450.69
330.43	455.69
330.658	472.69
330.887	460.69
331.115	463.69
331.344	440.69
331.572	440.69
331.801	449.69
332.03	433.69
332.258	436.69
332.486	444.69
332.715	436.69
332.943	421.69
333.172	451.69
333.4	453.69
333.629	458.69
333.857	481.69
334.085	490.69
334.314	465.69
334.542	483.69
334.771	467.69
334.999	472.69
335.227	463.69
335.455	471.69
335.684	451.69
335.912	452.69
336.14	434.69
336.369	435.69
336.597	439.69
336.825	428.69
337.053	434.69
337.281	428.69
337.51	417.69
337.738	437.69
337.966	427.69
338.194	431.69
338.422	431.69
338.65	398.69
338.878	404.69
339.106	424.69
339.334	423.69
339.562	431.69
339.79	410.69
340.018	415.69
340.246	391.69
340.474	409.69
340.702	406.69
340.93	414.69
341.158	412.69
341.386	413.69
341.614	396.69
341.842	412.69
342.07	395.69
342.298	405.69
342.526	411.69
342.754	415.69
342.981	402.69
343.209	429.69
343.437	439.69
343.665	449.69
343.893	439.69
344.12	435.69
344.348	443.69
344.576	448.69
344.804	412.69
345.031	435.69
345.259	416.69
345.487	410.69
345.714	413.69
345.942	394.69
346.17	393.69
346.397	401.69
346.625	401.69
346.853	381.69
347.08	400.69
347.308	401.69
347.535	390.69
347.763	403.69
347.99	399.69
348.218	408.69
348.445	403.69
348.673	381.69
348.9	397.69
349.128	401.69
349.355	364.69
349.583	403.69
349.81	393.69
350.037	379.69
350.265	375.69
350.492	420.69
350.72	399.69
350.947	380.69
351.174	389.69
351.402	390.69
351.629	394.69
351.856	405.69
352.083	391.69
352.311	388.69
352.538	380.69
352.765	398.69
352.992	391.69
353.22	399.69
353.447	403.69
353.674	382.69
353.901	375.69
354.128	359.69
354.355	389.69
354.583	407.69
354.81	364.69
355.037	379.69
355.264	407.69
355.491	383.69
355.718	379.69
355.945	377.69
356.172	373.69
356.399	375.69
356.626	381.69
356.853	369.69
357.08	374.69
357.307	378.69
357.534	389.69
357.761	371.69
357.988	393.69
358.215	386.69
358.441	375.69
358.668	376.69
358.895	385.69
359.122	377.69
359.349	394.69
359.576	407.69
359.802	393.69
360.029	396.69
360.256	407.69
360.483	379.69
360.709	390.69
360.936	383.69
361.163	385.69
361.39	373.69
361.616	388.69
361.843	384.69
362.07	387.69
362.296	383.69
362.523	370.69
362.749	399.69
362.976	401.69
363.203	403.69
363.429	372.69
363.656	388.69
363.882	376.69
364.109	374.69
364.335	368.69
364.562	361.69
364.788	375.69
365.015	381.69
365.241	385.69
365.468	375.69
365.694	403.69
365.92	383.69
366.147	365.69
366.373	384.69
366.599	397.69
366.826	380.69
367.052	363.69
367.278	384.69
367.505	391.69
367.731	369.69
367.957	371.69
368.184	395.69
368.41	381.69
368.636	388.69
368.862	405.69
369.089	389.69
369.315	396.69
369.541	382.69
369.767	369.69
369.993	399.69
370.219	383.69
370.445	387.69
370.672	389.69
370.898	395.69
371.124	393.69
371.35	416.69
371.576	383.69
371.802	413.69
372.028	392.69
372.254	394.69
372.48	405.69
372.706	413.69
372.932	388.69
373.158	415.69
373.384	403.69
373.61	395.69
373.835	407.69
374.061	377.69
374.287	419.69
374.513	407.69
374.739	417.69
374.965	405.69
375.191	426.69
375.416	417.69
375.642	413.69
375.868	407.69
376.094	377.69
376.319	403.69
376.545	409.69
376.771	395.69
376.997	383.69
377.222	401.69
377.448	401.69
377.674	417.69
377.899	394.69
378.125	380.69
378.35	379.69
378.576	385.69
378.802	374.69
379.027	395.69
379.253	395.69
379.478	384.69
379.704	389.69
379.929	393.69
380.155	390.69
380.38	391.69
380.606	376.69
380.831	397.69
381.057	394.69
381.282	386.69
381.507	387.69
381.733	414.69
381.958	397.69
382.184	410.69
382.409	408.69
382.634	414.69
382.86	400.69
383.085	415.69
383.31	396.69
383.535	420.69
383.761	403.69
383.986	418.69
384.211	447.69
384.436	427.69
384.662	431.69
384.887	447.69
385.112	432.69
385.337	461.69
385.562	445.69
385.787	434.69
386.013	464.69
386.238	459.69
386.463	446.69
386.688	443.69
386.913	443.69
387.138	445.69
387.363	442.69
387.588	457.69
387.813	455.69
388.038	438.69
388.263	441.69
388.488	446.69
388.713	451.69
388.938	468.69
389.163	443.69
389.387	433.69
389.612	462.69
389.837	446.69
390.062	436.69
390.287	444.69
390.512	452.69
390.736	459.69
390.961	449.69
391.186	458.69
391.411	452.69
391.636	465.69
391.86	474.69
392.085	483.69
392.31	476.69
392.534	468.69
392.759	493.69
392.984	449.69
393.208	461.69
393.433	457.69
393.658	451.69
393.882	468.69
394.107	448.69
394.331	461.69
394.556	474.69
394.78	466.69
395.005	484.69
395.229	460.69
395.454	481.69
395.678	470.69
395.903	506.69
396.127	484.69
396.352	488.69
396.576	466.69
396.801	480.69
397.025	491.69
397.249	481.69
397.474	490.69
397.698	503.69
397.922	498.69
398.147	492.69
398.371	513.69
398.595	531.69
398.82	537.69
399.044	537.69
399.268	593.69
399.492	614.69
399.717	664.69
399.941	668.69
400.165	663.69
400.389	668.69
400.613	616.69
400.837	554.69
401.062	571.69
401.286	539.69
401.51	517.69
401.734	536.69
401.958	524.69
402.182	548.69
402.406	535.69
402.63	519.69
402.854	547.69
403.078	531.69
403.302	525.69
403.526	552.69
403.75	566.69
403.974	585.69
404.198	553.69
404.422	563.69
404.645	564.69
404.869	557.69
405.093	564.69
405.317	606.69
405.541	633.69
405.765	599.69
405.988	563.69
406.212	582.69
406.436	582.69
406.66	576.69
406.883	601.69
407.107	611.69
407.331	634.69
407.555	692.69
407.778	695.69
408.002	657.69
408.226	619.69
408.449	615.69
408.673	613.69
408.896	626.69
409.12	645.69
409.344	600.69
409.567	577.69
409.791	573.69
410.014	585.69
410.238	557.69
410.461	542.69
410.685	561.69
410.908	569.69
411.132	599.69
411.355	602.69
411.578	573.69
411.802	564.69
412.025	526.69
412.249	527.69
412.472	572.69
412.695	611.69
412.919	585.69
413.142	541.69
413.365	522.69
413.589	540.69
413.812	536.69
414.035	535.69
414.258	546.69
414.482	515.69
414.705	520.69
414.928	538.69
415.151	536.69
415.374	530.69
415.597	519.69
415.821	490.69
416.044	514.69
416.267	519.69
416.49	510.69
416.713	506.69
416.936	507.69
417.159	492.69
417.382	501.69
417.605	502.69
417.828	535.69
418.051	521.69
418.274	525.69
418.497	532.69
418.72	524.69
418.943	519.69
419.166	545.69
419.389	555.69
419.611	575.69
419.834	569.69
420.057	544.69
420.28	549.69
420.503	523.69
420.726	519.69
420.948	552.69
421.171	554.69
421.394	588.69
421.617	550.69
421.839	553.69
422.062	531.69
422.285	539.69
422.507	568.69
422.73	618.69
422.953	593.69
423.175	558.69
423.398	551.69
423.621	536.69
423.843	557.69
424.066	570.69
424.288	559.69
424.511	550.69
424.733	589.69
424.956	657.69
425.178	640.69
425.401	637.69
425.623	636.69
425.846	576.69
426.068	568.69
426.291	539.69
426.513	530.69
426.735	535.69
426.958	576.69
427.18	624.69
427.402	725.69
427.625	740.69
427.847	667.69
428.069	603.69
428.292	552.69
428.514	549.69
428.736	504.69
428.958	525.69
429.181	508.69
429.403	477.69
429.625	511.69
429.847	531.69
430.069	563.69
430.292	554.69
430.514	511.69
430.736	486.69
430.958	506.69
431.18	496.69
431.402	488.69
431.624	488.69
431.846	487.69
432.068	470.69
432.29	495.69
432.512	504.69
432.734	511.69
432.956	504.69
433.178	498.69
433.4	493.69
433.622	509.69
433.844	490.69
434.066	461.69
434.287	491.69
434.509	516.69
434.731	510.69
434.953	511.69
435.175	523.69
435.397	528.69
435.618	539.69
435.84	585.69
436.062	641.69
436.284	659.69
436.505	585.69
436.727	535.69
436.949	521.69
437.17	530.69
437.392	507.69
437.614	524.69
437.835	505.69
438.057	563.69
438.278	629.69
438.5	628.69
438.721	711.69
438.943	699.69
439.165	567.69
439.386	523.69
439.608	509.69
439.829	519.69
440.05	515.69
440.272	553.69
440.493	548.69
440.715	524.69
440.936	504.69
441.158	522.69
441.379	538.69
441.6	556.69
441.822	533.69
442.043	580.69
442.264	615.69
442.486	657.69
442.707	592.69
442.928	535.69
443.149	539.69
443.371	575.69
443.592	599.69
443.813	659.69
444.034	682.69
444.255	621.69
444.476	581.69
444.698	578.69
444.919	574.69
445.14	689.69
445.361	647.69
445.582	600.69
445.803	620.69
446.024	671.69
446.245	657.69
446.466	598.69
446.687	542.69
446.908	534.69
447.129	490.69
447.35	488.69
447.571	499.69
447.792	475.69
448.013	491.69
448.234	491.69
448.455	529.69
448.675	573.69
448.896	665.69
449.117	587.69
449.338	572.69
449.559	657.69
449.779	715.69
450	608.69
450.221	502.69
450.442	479.69
450.662	471.69
450.883	457.69
451.104	485.69
451.324	461.69
451.545	449.69
451.766	439.69
451.986	457.69
452.207	454.69
452.428	447.69
452.648	450.69
452.869	439.69
453.089	451.69
453.31	445.69
453.53	432.69
453.751	443.69
453.971	446.69
454.192	424.69
454.412	428.69
454.633	433.69
454.853	435.69
455.073	418.69
455.294	449.69
455.514	505.69
455.734	471.69
455.955	452.69
456.175	439.69
456.395	425.69
456.616	415.69
456.836	437.69
457.056	423.69
457.276	441.69
457.497	410.69
457.717	427.69
457.937	430.69
458.157	458.69
458.377	434.69
458.598	463.69
458.818	480.69
459.038	533.69
459.258	552.69
459.478	520.69
459.698	498.69
459.918	491.69
460.138	497.69
460.358	503.69
460.578	519.69
460.798	528.69
461.018	527.69
461.238	517.69
461.458	522.69
461.678	519.69
461.898	529.69
462.118	533.69
462.338	561.69
462.558	568.69
462.777	548.69
462.997	576.69
463.217	633.69
463.437	645.69
463.657	585.69
463.876	583.69
464.096	580.69
464.316	587.69
464.536	580.69
464.755	594.69
464.975	551.69
465.195	551.69
465.414	589.69
465.634	531.69
465.854	524.69
466.073	511.69
466.293	482.69
466.512	481.69
466.732	459.69
466.951	481.69
467.171	469.69
467.391	496.69
467.61	465.69
467.829	464.69
468.049	468.69
468.268	466.69
468.488	460.69
468.707	480.69
468.927	461.69
469.146	473.69
469.365	471.69
469.585	457.69
469.804	469.69
470.023	468.69
470.243	466.69
470.462	485.69
470.681	481.69
470.901	487.69
471.12	481.69
471.339	470.69
471.558	465.69
471.777	471.69
471.997	483.69
472.216	474.69
472.435	462.69
472.654	465.69
472.873	437.69
473.092	480.69
473.311	450.69
473.53	464.69
473.749	479.69
473.968	492.69
474.187	555.69
474.406	549.69
474.625	506.69
474.844	477.69
475.063	453.69
475.282	466.69
475.501	478.69
475.72	475.69
475.939	481.69
476.158	508.69
476.377	468.69
476.596	482.69
476.814	476.69
477.033	482.69
477.252	487.69
477.471	512.69
477.69	500.69
477.908	515.69
478.127	548.69
478.346	527.69
478.564	553.69
478.783	526.69
479.002	553.69
479.22	543.69
479.439	545.69
479.658	573.69
479.876	572.69
480.095	569.69
480.313	587.69
480.532	586.69
480.751	588.69
480.969	583.69
481.188	613.69
481.406	603.69
481.624	578.69
481.843	547.69
482.061	541.69
482.28	567.69
482.498	541.69
482.717	541.69
482.935	539.69
483.153	535.69
483.372	538.69
483.59	528.69
483.808	535.69
484.027	530.69
484.245	564.69
484.463	536.69
484.681	590.69
484.9	549.69
485.118	549.69
485.336	528.69
485.554	552.69
485.772	553.69
485.99	573.69
486.209	569.69
486.427	589.69
486.645	562.69
486.863	568.69
487.081	562.69
487.299	583.69
487.517	569.69
487.735	576.69
487.953	579.69
488.171	561.69
488.389	549.69
488.607	563.69
488.825	578.69
489.043	591.69
489.261	583.69
489.479	579.69
489.696	573.69
489.914	580.69
490.132	615.69
490.35	616.69
490.568	598.69
490.786	604.69
491.003	600.69
491.221	606.69
491.439	622.69
491.657	603.69
491.874	614.69
492.092	638.69
492.31	623.69
492.527	633.69
492.745	644.69
492.963	641.69
493.18	638.69
493.398	652.69
493.615	663.69
493.833	636.69
494.05	671.69
494.268	629.69
494.485	637.69
494.703	657.69
494.92	647.69
495.138	636.69
495.355	647.69
495.573	651.69
495.79	677.69
496.008	643.69
496.225	659.69
496.442	667.69
496.66	673.69
496.877	679.69
497.094	681.69
497.312	684.69
497.529	673.69
497.746	706.69
497.963	720.69
498.181	748.69
498.398	764.69
498.615	786.69
498.832	813.69
499.049	868.69
499.267	885.69
499.484	919.69
499.701	983.69
499.918	1034.69
500.135	1094.69
500.352	1189.69
500.569	1207.69
500.786	1205.69
501.003	1135.69
501.22	1122.69
501.437	1049.69
501.654	988.69
501.871	941.69
502.088	878.69
502.305	857.69
502.522	808.69
502.739	801.69
502.956	779.69
503.172	743.69
503.389	730.69
503.606	732.69
503.823	705.69
504.04	694.69
504.256	700.69
504.473	717.69
504.69	734.69
504.907	703.69
505.123	685.69
505.34	662.69
505.557	627.69
505.773	673.69
505.99	642.69
506.207	625.69
506.423	624.69
506.64	605.69
506.856	592.69
507.073	594.69
507.289	572.69
507.506	595.69
507.722	571.69
507.939	589.69
508.155	581.69
508.372	594.69
508.588	575.69
508.805	565.69
509.021	552.69
509.238	561.69
509.454	576.69
509.67	583.69
509.887	579.69
510.103	557.69
510.319	566.69
510.536	601.69
510.752	827.69
510.968	713.69
511.184	570.69
511.401	560.69
511.617	555.69
511.833	535.69
512.049	531.69
512.265	547.69
512.481	541.69
512.698	551.69
512.914	536.69
513.13	538.69
513.346	513.69
513.562	537.69
513.778	556.69
513.994	545.69
514.21	537.69
514.426	558.69
514.642	580.69
514.858	584.69
515.074	604.69
515.29	632.69
515.506	781.69
515.721	716.69
515.937	600.69
516.153	597.69
516.369	604.69
516.585	594.69
516.801	591.69
517.016	611.69
517.232	593.69
517.448	624.69
517.664	616.69
517.879	649.69
518.095	633.69
518.311	636.69
518.527	634.69
518.742	636.69
518.958	593.69
519.173	569.69
519.389	580.69
519.605	565.69
519.82	557.69
520.036	562.69
520.251	563.69
520.467	563.69
520.682	579.69
520.898	557.69
521.113	567.69
521.329	567.69
521.544	597.69
521.76	673.69
521.975	923.69
522.19	875.69
522.406	641.69
522.621	554.69
522.836	507.69
523.052	531.69
523.267	493.69
523.482	499.69
523.698	498.69
523.913	491.69
524.128	504.69
524.343	481.69
524.559	509.69
524.774	497.69
524.989	487.69
525.204	493.69
525.419	483.69
525.634	485.69
525.849	446.69
526.064	479.69
526.28	470.69
526.495	468.69
526.71	493.69
526.925	483.69
527.14	480.69
527.355	470.69
527.57	467.69
527.785	472.69
527.999	468.69
528.214	465.69
528.429	445.69
528.644	485.69
528.859	473.69
529.074	460.69
529.289	468.69
529.503	477.69
529.718	487.69
529.933	478.69
530.148	469.69
530.363	476.69
530.577	451.69
530.792	480.69
531.007	461.69
531.221	477.69
531.436	471.69
531.651	469.69
531.865	486.69
532.08	460.69
532.295	477.69
532.509	453.69
532.724	467.69
532.938	456.69
533.153	462.69
533.367	460.69
533.582	466.69
533.796	435.69
534.011	465.69
534.225	456.69
534.44	424.69
534.654	453.69
534.868	454.69
535.083	441.69
535.297	460.69
535.511	465.69
535.726	447.69
535.94	447.69
536.154	452.69
536.369	432.69
536.583	439.69
536.797	431.69
537.011	440.69
537.225	427.69
537.44	448.69
537.654	453.69
537.868	434.69
538.082	447.69
538.296	448.69
538.51	433.69
538.724	441.69
538.938	443.69
539.153	427.69
539.367	437.69
539.581	450.69
539.795	426.69
540.009	441.69
540.222	451.69
540.436	445.69
540.65	418.69
540.864	425.69
541.078	421.69
541.292	420.69
541.506	435.69
541.72	441.69
541.934	427.69
542.147	453.69
542.361	445.69
542.575	433.69
542.789	423.69
543.002	417.69
543.216	431.69
543.43	421.69
543.644	443.69
543.857	438.69
544.071	420.69
544.285	423.69
544.498	439.69
544.712	431.69
544.925	418.69
545.139	434.69
545.352	445.69
545.566	435.69
545.779	435.69
545.993	433.69
546.206	437.69
546.42	457.69
546.633	436.69
546.847	446.69
547.06	435.69
547.274	437.69
547.487	435.69
547.7	439.69
547.914	421.69
548.127	422.69
548.34	433.69
548.554	428.69
548.767	427.69
548.98	436.69
549.193	437.69
549.407	436.69
549.62	419.69
549.833	435.69
550.046	418.69
550.259	443.69
550.473	414.69
550.686	420.69
550.899	420.69
551.112	418.69
551.325	418.69
551.538	435.69
551.751	443.69
551.964	425.69
552.177	431.69
552.39	422.69
552.603	443.69
552.816	442.69
553.029	439.69
553.242	438.69
553.455	455.69
553.667	463.69
553.88	468.69
554.093	447.69
554.306	452.69
554.519	420.69
554.732	442.69
554.944	436.69
555.157	405.69
555.37	431.69
555.583	421.69
555.795	402.69
556.008	401.69
556.221	387.69
556.433	392.69
556.646	409.69
556.859	390.69
557.071	389.69
557.284	384.69
557.496	404.69
557.709	387.69
557.921	385.69
558.134	385.69
558.346	390.69
558.559	380.69
558.771	369.69
558.984	382.69
559.196	409.69
559.409	380.69
559.621	383.69
559.833	374.69
560.046	369.69
560.258	365.69
560.47	379.69
560.683	380.69
560.895	390.69
561.107	377.69
561.32	378.69
561.532	379.69
561.744	392.69
561.956	398.69
562.168	385.69
562.381	376.69
562.593	362.69
562.805	391.69
563.017	376.69
563.229	390.69
563.441	389.69
563.653	397.69
563.865	409.69
564.077	393.69
564.289	407.69
564.501	407.69
564.713	410.69
564.925	409.69
565.137	415.69
565.349	415.69
565.561	448.69
565.773	422.69
565.985	460.69
566.197	452.69
566.408	481.69
566.62	512.69
566.832	520.69
567.044	533.69
567.255	552.69
567.467	528.69
567.679	551.69
567.891	587.69
568.102	563.69
568.314	572.69
568.526	536.69
568.737	495.69
568.949	466.69
569.161	458.69
569.372	441.69
569.584	417.69
569.795	430.69
570.007	395.69
570.218	436.69
570.43	419.69
570.641	404.69
570.853	391.69
571.064	415.69
571.276	393.69
571.487	401.69
571.698	371.69
571.91	380.69
572.121	368.69
572.333	357.69
572.544	364.69
572.755	358.69
572.966	341.69
573.178	351.69
573.389	336.69
573.6	335.69
573.811	333.69
574.023	357.69
574.234	333.69
574.445	333.69
574.656	328.69
574.867	347.69
575.078	329.69
575.289	332.69
575.501	332.69
575.712	328.69
575.923	316.69
576.134	337.69
576.345	340.69
576.556	318.69
576.767	316.69
576.978	330.69
577.188	313.69
577.399	328.69
577.61	342.69
577.821	321.69
578.032	307.69
578.243	339.69
578.454	412.69
578.665	355.69
578.875	317.69
579.086	310.69
579.297	319.69
579.508	304.69
579.718	324.69
579.929	329.69
580.14	307.69
580.35	301.69
580.561	310.69
580.772	312.69
580.982	299.69
581.193	305.69
581.403	305.69
581.614	298.69
581.825	301.69
582.035	307.69
582.246	311.69
582.456	309.69
582.667	299.69
582.877	311.69
583.087	307.69
583.298	301.69
583.508	302.69
583.719	295.69
583.929	296.69
584.139	297.69
584.35	285.69
584.56	296.69
584.77	305.69
584.981	313.69
585.191	311.69
585.401	294.69
585.611	310.69
585.821	289.69
586.032	319.69
586.242	298.69
586.452	297.69
586.662	285.69
586.872	292.69
587.082	308.69
587.292	283.69
587.502	306.69
587.713	287.69
587.923	314.69
588.133	296.69
588.343	286.69
588.553	306.69
588.762	301.69
588.972	300.69
589.182	358.69
589.392	367.69
589.602	313.69
589.812	321.69
590.022	316.69
590.232	298.69
590.441	289.69
590.651	288.69
590.861	297.69
591.071	300.69
591.281	305.69
591.49	305.69
591.7	317.69
591.91	302.69
592.119	300.69
592.329	303.69
592.539	323.69
592.748	345.69
592.958	341.69
593.167	328.69
593.377	335.69
593.587	344.69
593.796	335.69
594.006	343.69
594.215	353.69
594.424	344.69
594.634	322.69
594.843	327.69
595.053	314.69
595.262	312.69
595.472	296.69
595.681	288.69
595.89	283.69
596.1	307.69
596.309	308.69
596.518	296.69
596.727	292.69
596.937	281.69
597.146	287.69
597.355	283.69
597.564	279.69
597.774	268.69
597.983	268.69
598.192	257.69
598.401	261.69
598.61	264.69
598.819	275.69
599.028	257.69
599.237	261.69
599.446	262.69
599.655	262.69
599.864	262.69
600.073	264.69
600.282	249.69
600.491	263.69
600.7	283.69
600.909	267.69
601.118	284.69
601.327	251.69
601.536	265.69
601.745	255.69
601.953	256.69
602.162	258.69
602.371	248.69
602.58	256.69
602.789	251.69
602.997	240.69
603.206	259.69
603.415	251.69
603.623	227.69
603.832	241.69
604.041	255.69
604.249	233.69
604.458	248.69
604.666	221.69
604.875	247.69
605.084	239.69
605.292	240.69
605.501	241.69
605.709	237.69
605.918	240.69
606.126	247.69
606.334	247.69
606.543	257.69
606.751	236.69
606.96	221.69
607.168	238.69
607.376	227.69
607.585	231.69
607.793	236.69
608.001	236.69
608.21	245.69
608.418	245.69
608.626	228.69
608.834	236.69
609.043	227.69
609.251	230.69
609.459	218.69
609.667	218.69
609.875	235.69
610.083	225.69
610.291	236.69
610.499	232.69
610.707	261.69
610.916	232.69
611.124	227.69
611.332	232.69
611.54	242.69
611.748	250.69
611.955	237.69
612.163	239.69
612.371	227.69
612.579	240.69
612.787	223.69
612.995	243.69
613.203	230.69
613.411	227.69
613.618	219.69
613.826	237.69
614.034	246.69
614.242	225.69
614.449	214.69
614.657	224.69
614.865	241.69
615.072	236.69
615.28	231.69
615.488	212.69
615.695	224.69
615.903	235.69
616.111	226.69
616.318	239.69
616.526	240.69
616.733	236.69
616.941	217.69
617.148	230.69
617.356	219.69
617.563	203.69
617.771	234.69
617.978	231.69
618.185	219.69
618.393	232.69
618.6	223.69
618.807	215.69
619.015	223.69
619.222	227.69
619.429	221.69
619.637	227.69
619.844	217.69
620.051	212.69
620.258	223.69
620.466	240.69
620.673	215.69
620.88	209.69
621.087	208.69
621.294	211.69
621.501	220.69
621.708	211.69
621.915	236.69
622.122	227.69
622.329	219.69
622.536	219.69
622.743	217.69
622.95	226.69
623.157	203.69
623.364	219.69
623.571	196.69
623.778	209.69
623.985	207.69
624.192	211.69
624.399	218.69
624.606	210.69
624.812	206.69
625.019	204.69
625.226	217.69
625.433	229.69
625.639	219.69
625.846	200.69
626.053	212.69
626.259	214.69
626.466	211.69
626.673	213.69
626.879	195.69
627.086	202.69
627.293	203.69
627.499	207.69
627.706	209.69
627.912	188.69
628.119	204.69
628.325	190.69
628.532	188.69
628.738	186.69
628.945	189.69
629.151	200.69
629.357	197.69
629.564	191.69
629.77	204.69
629.976	198.69
630.183	172.69
630.389	187.69
630.595	197.69
630.802	190.69
631.008	192.69
631.214	188.69
631.42	196.69
631.627	199.69
631.833	192.69
632.039	178.69
632.245	192.69
632.451	198.69
632.657	185.69
632.863	182.69
633.069	185.69
633.275	193.69
633.481	177.69
633.688	168.69
633.893	195.69
634.099	181.69
634.305	186.69
634.511	194.69
634.717	187.69
634.923	182.69
635.129	185.69
635.335	182.69
635.541	168.69
635.747	180.69
635.952	182.69
636.158	193.69
636.364	172.69
636.57	183.69
636.775	164.69
636.981	181.69
637.187	174.69
637.392	161.69
637.598	164.69
637.804	173.69
638.009	175.69
638.215	175.69
638.421	186.69
638.626	160.69
638.832	170.69
639.037	170.69
639.243	162.69
639.448	176.69
639.654	173.69
639.859	191.69
640.065	170.69
640.27	175.69
640.475	180.69
640.681	180.69
640.886	167.69
641.091	163.69
641.297	167.69
641.502	166.69
641.707	165.69
641.913	173.69
642.118	165.69
642.323	159.69
642.528	176.69
642.733	175.69
642.939	157.69
643.144	178.69
643.349	172.69
643.554	164.69
643.759	153.69
643.964	163.69
644.169	165.69
644.374	152.69
644.579	151.69
644.784	158.69
644.989	168.69
645.194	178.69
645.399	176.69
645.604	160.69
645.809	163.69
646.014	155.69
646.219	152.69
646.423	160.69
646.628	168.69
646.833	165.69
647.038	164.69
647.243	158.69
647.447	173.69
647.652	173.69
647.857	177.69
648.062	169.69
648.266	170.69
648.471	163.69
648.676	189.69
648.88	179.69
649.085	175.69
649.289	157.69
649.494	170.69
649.698	173.69
649.903	168.69
650.107	163.69
650.312	162.69
650.516	155.69
650.721	165.69
650.925	152.69
651.13	156.69
651.334	159.69
651.539	156.69
651.743	153.69
651.947	138.69
652.152	143.69
652.356	137.69
652.56	135.69
652.764	132.69
652.969	149.69
653.173	149.69
653.377	148.69
653.581	127.69
653.785	149.69
653.99	136.69
654.194	136.69
654.398	128.69
654.602	140.69
654.806	138.69
655.01	144.69
655.214	151.69
655.418	147.69
655.622	133.69
655.826	142.69
656.03	140.69
656.234	139.69
656.438	154.69
656.642	164.69
656.846	151.69
657.049	142.69
657.253	134.69
657.457	130.69
657.661	129.69
657.865	131.69
658.068	117.69
658.272	117.69
658.476	123.69
658.68	109.69
658.883	107.69
659.087	101.69
659.291	102.69
659.494	103.69
659.698	101.69
659.901	105.69
660.105	89.69
660.309	97.69
660.512	93.69
660.716	86.69
660.919	88.69
661.123	111.69
661.326	92.69
661.53	89.69
661.733	95.69
661.936	84.69
662.14	84.69
662.343	83.69
662.546	82.69
662.75	94.69
662.953	86.69
663.156	82.69
663.36	85.69
663.563	69.69
663.766	93.69
663.969	80.69
664.173	80.69
664.376	92.69
664.579	76.69
664.782	77.69
664.985	79.69
665.188	89.69
665.391	74.69
665.594	86.69
665.797	79.69
666	72.69
666.203	88.69
666.406	76.69
666.609	81.69
666.812	89.69
667.015	83.69
667.218	73.69
667.421	70.69
667.624	85.69
667.827	88.69
668.03	97.69
668.232	82.69
668.435	79.69
668.638	79.69
668.841	82.69
669.043	75.69
669.246	80.69
669.449	70.69
669.651	86.69
669.854	88.69
670.057	84.69
670.259	87.69
670.462	98.69
670.665	85.69
670.867	74.69
671.07	85.69
671.272	84.69
671.475	84.69
671.677	88.69
671.88	72.69
672.082	88.69
672.284	92.69
672.487	87.69
672.689	68.69
672.892	83.69
