Data from 1962.PennyLincolnUp.Lamp.En5.5.200Scan.071719.P1._HRD10591_13-55-25-061.txt Node
Date: Thu Jul 18 13:55:25 EDT 2019
User: cochatt
Spectrometer: HR+D1059
Trigger mode: 1
Integration Time (sec): 1.000000E-1
Scans to average: 1
Electric dark correction enabled: true
Nonlinearity correction enabled: false
Boxcar width: 0
XAxis mode: Wavelengths
Number of Pixels in Spectrum: 2048
>>>>>Begin Spectral Data<<<<<
223.165	-7.94
223.4	-7.94
223.635	-7.94
223.869	-14.94
224.104	-31.94
224.338	-8.94
224.573	-17.94
224.808	-6.94
225.042	-5.94
225.277	-13.94
225.511	-0.94
225.746	-4.94
225.98	-5.94
226.215	18.06
226.449	19.06
226.683	26.06
226.918	32.06
227.152	25.06
227.387	32.06
227.621	32.06
227.856	30.06
228.09	43.06
228.324	40.06
228.559	59.06
228.793	66.06
229.027	82.06
229.262	100.06
229.496	92.06
229.73	111.06
229.964	130.06
230.199	115.06
230.433	113.06
230.667	100.06
230.901	103.06
231.136	97.06
231.37	95.06
231.604	107.06
231.838	97.06
232.072	105.06
232.306	106.06
232.541	100.06
232.775	110.06
233.009	105.06
233.243	108.06
233.477	105.06
233.711	112.06
233.945	128.06
234.179	99.06
234.413	103.06
234.647	118.06
234.881	112.06
235.115	123.06
235.349	107.06
235.583	115.06
235.817	120.06
236.051	132.06
236.285	126.06
236.519	119.06
236.753	119.06
236.987	131.06
237.221	159.06
237.455	169.06
237.689	142.06
237.922	141.06
238.156	128.06
238.39	114.06
238.624	111.06
238.858	125.06
239.091	102.06
239.325	121.06
239.559	112.06
239.793	128.06
240.027	132.06
240.26	145.06
240.494	147.06
240.728	138.06
240.961	141.06
241.195	148.06
241.429	121.06
241.662	128.06
241.896	124.06
242.13	122.06
242.363	127.06
242.597	120.06
242.83	132.06
243.064	126.06
243.298	133.06
243.531	128.06
243.765	133.06
243.998	146.06
244.232	130.06
244.465	123.06
244.699	142.06
244.932	146.06
245.166	135.06
245.399	140.06
245.633	128.06
245.866	135.06
246.099	133.06
246.333	141.06
246.566	122.06
246.8	147.06
247.033	147.06
247.266	163.06
247.5	160.06
247.733	158.06
247.966	156.06
248.2	161.06
248.433	152.06
248.666	160.06
248.899	184.06
249.133	166.06
249.366	175.06
249.599	192.06
249.832	162.06
250.066	167.06
250.299	177.06
250.532	188.06
250.765	169.06
250.998	199.06
251.231	215.06
251.465	176.06
251.698	203.06
251.931	181.06
252.164	185.06
252.397	178.06
252.63	186.06
252.863	171.06
253.096	192.06
253.329	208.06
253.562	213.06
253.795	203.06
254.028	196.06
254.261	193.06
254.494	190.06
254.727	226.06
254.96	259.06
255.193	217.06
255.426	213.06
255.659	208.06
255.892	195.06
256.124	205.06
256.357	215.06
256.59	214.06
256.823	199.06
257.056	200.06
257.289	181.06
257.521	176.06
257.754	179.06
257.987	196.06
258.22	196.06
258.452	194.06
258.685	185.06
258.918	186.06
259.151	192.06
259.383	202.06
259.616	192.06
259.849	203.06
260.081	211.06
260.314	225.06
260.547	208.06
260.779	228.06
261.012	202.06
261.244	208.06
261.477	207.06
261.71	207.06
261.942	203.06
262.175	207.06
262.407	207.06
262.64	215.06
262.872	216.06
263.105	211.06
263.337	197.06
263.57	208.06
263.802	195.06
264.035	190.06
264.267	209.06
264.499	188.06
264.732	200.06
264.964	211.06
265.197	209.06
265.429	212.06
265.661	207.06
265.894	200.06
266.126	210.06
266.358	193.06
266.591	212.06
266.823	214.06
267.055	214.06
267.287	223.06
267.52	226.06
267.752	218.06
267.984	232.06
268.216	220.06
268.448	225.06
268.681	216.06
268.913	233.06
269.145	238.06
269.377	255.06
269.609	249.06
269.841	255.06
270.073	255.06
270.306	249.06
270.538	290.06
270.77	280.06
271.002	273.06
271.234	265.06
271.466	269.06
271.698	276.06
271.93	290.06
272.162	273.06
272.394	286.06
272.626	284.06
272.858	278.06
273.09	254.06
273.322	267.06
273.553	260.06
273.785	254.06
274.017	272.06
274.249	272.06
274.481	252.06
274.713	276.06
274.945	262.06
275.176	247.06
275.408	262.06
275.64	256.06
275.872	259.06
276.104	254.06
276.335	271.06
276.567	256.06
276.799	274.06
277.031	298.06
277.262	316.06
277.494	286.06
277.726	272.06
277.957	281.06
278.189	278.06
278.421	255.06
278.652	274.06
278.884	254.06
279.115	277.06
279.347	278.06
279.579	272.06
279.81	262.06
280.042	245.06
280.273	262.06
280.505	272.06
280.736	265.06
280.968	272.06
281.199	272.06
281.431	280.06
281.662	264.06
281.894	267.06
282.125	271.06
282.356	283.06
282.588	302.06
282.819	294.06
283.051	281.06
283.282	279.06
283.513	278.06
283.745	280.06
283.976	283.06
284.207	284.06
284.439	283.06
284.67	301.06
284.901	290.06
285.132	278.06
285.364	283.06
285.595	264.06
285.826	292.06
286.057	278.06
286.288	268.06
286.52	291.06
286.751	286.06
286.982	289.06
287.213	286.06
287.444	290.06
287.675	279.06
287.906	304.06
288.138	328.06
288.369	322.06
288.6	309.06
288.831	294.06
289.062	297.06
289.293	291.06
289.524	293.06
289.755	286.06
289.986	275.06
290.217	282.06
290.448	292.06
290.679	293.06
290.91	307.06
291.141	290.06
291.371	300.06
291.602	297.06
291.833	279.06
292.064	281.06
292.295	314.06
292.526	308.06
292.757	300.06
292.987	293.06
293.218	286.06
293.449	304.06
293.68	299.06
293.91	293.06
294.141	276.06
294.372	304.06
294.603	307.06
294.833	294.06
295.064	284.06
295.295	292.06
295.525	298.06
295.756	304.06
295.987	292.06
296.217	330.06
296.448	318.06
296.679	309.06
296.909	293.06
297.14	304.06
297.37	310.06
297.601	312.06
297.831	307.06
298.062	307.06
298.292	295.06
298.523	306.06
298.753	320.06
298.984	311.06
299.214	307.06
299.445	321.06
299.675	333.06
299.905	325.06
300.136	308.06
300.366	322.06
300.597	319.06
300.827	326.06
301.057	328.06
301.288	362.06
301.518	339.06
301.748	330.06
301.979	328.06
302.209	335.06
302.439	328.06
302.669	331.06
302.9	326.06
303.13	310.06
303.36	336.06
303.59	340.06
303.82	366.06
304.051	348.06
304.281	347.06
304.511	330.06
304.741	341.06
304.971	340.06
305.201	329.06
305.431	342.06
305.661	334.06
305.891	328.06
306.121	338.06
306.352	337.06
306.582	335.06
306.812	331.06
307.042	318.06
307.272	328.06
307.502	336.06
307.731	341.06
307.961	330.06
308.191	338.06
308.421	345.06
308.651	344.06
308.881	321.06
309.111	345.06
309.341	334.06
309.571	352.06
309.8	361.06
310.03	371.06
310.26	363.06
310.49	359.06
310.72	363.06
310.949	375.06
311.179	380.06
311.409	359.06
311.639	352.06
311.868	368.06
312.098	348.06
312.328	374.06
312.557	366.06
312.787	387.06
313.017	376.06
313.246	367.06
313.476	349.06
313.706	375.06
313.935	358.06
314.165	400.06
314.394	366.06
314.624	362.06
314.853	374.06
315.083	394.06
315.312	376.06
315.542	372.06
315.771	367.06
316.001	355.06
316.23	361.06
316.46	374.06
316.689	389.06
316.919	364.06
317.148	382.06
317.377	374.06
317.607	384.06
317.836	384.06
318.065	371.06
318.295	386.06
318.524	366.06
318.753	374.06
318.983	371.06
319.212	359.06
319.441	387.06
319.67	360.06
319.9	382.06
320.129	376.06
320.358	379.06
320.587	378.06
320.816	389.06
321.046	380.06
321.275	380.06
321.504	391.06
321.733	416.06
321.962	384.06
322.191	401.06
322.42	404.06
322.649	409.06
322.878	434.06
323.108	416.06
323.337	444.06
323.566	434.06
323.795	460.06
324.024	487.06
324.253	577.06
324.482	720.06
324.71	1090.06
324.939	1560.06
325.168	1373.06
325.397	754.06
325.626	546.06
325.855	483.06
326.084	461.06
326.313	452.06
326.542	461.06
326.77	481.06
326.999	555.06
327.228	695.06
327.457	997.06
327.686	1178.06
327.914	818.06
328.143	583.06
328.372	520.06
328.6	498.06
328.829	491.06
329.058	483.06
329.287	506.06
329.515	480.06
329.744	480.06
329.972	469.06
330.201	472.06
330.43	487.06
330.658	529.06
330.887	512.06
331.115	529.06
331.344	472.06
331.572	459.06
331.801	455.06
332.03	436.06
332.258	452.06
332.486	456.06
332.715	458.06
332.943	474.06
333.172	460.06
333.4	487.06
333.629	484.06
333.857	464.06
334.085	486.06
334.314	498.06
334.542	522.06
334.771	531.06
334.999	480.06
335.227	491.06
335.455	463.06
335.684	477.06
335.912	459.06
336.14	457.06
336.369	457.06
336.597	463.06
336.825	463.06
337.053	459.06
337.281	445.06
337.51	427.06
337.738	448.06
337.966	448.06
338.194	474.06
338.422	435.06
338.65	446.06
338.878	434.06
339.106	425.06
339.334	428.06
339.562	434.06
339.79	440.06
340.018	423.06
340.246	424.06
340.474	420.06
340.702	449.06
340.93	425.06
341.158	425.06
341.386	433.06
341.614	441.06
341.842	422.06
342.07	403.06
342.298	417.06
342.526	439.06
342.754	426.06
342.981	407.06
343.209	412.06
343.437	432.06
343.665	428.06
343.893	468.06
344.12	458.06
344.348	454.06
344.576	465.06
344.804	451.06
345.031	434.06
345.259	446.06
345.487	430.06
345.714	419.06
345.942	396.06
346.17	404.06
346.397	413.06
346.625	412.06
346.853	412.06
347.08	411.06
347.308	422.06
347.535	422.06
347.763	424.06
347.99	404.06
348.218	421.06
348.445	414.06
348.673	420.06
348.9	418.06
349.128	414.06
349.355	389.06
349.583	404.06
349.81	386.06
350.037	400.06
350.265	402.06
350.492	394.06
350.72	397.06
350.947	404.06
351.174	399.06
351.402	410.06
351.629	404.06
351.856	401.06
352.083	407.06
352.311	395.06
352.538	414.06
352.765	414.06
352.992	403.06
353.22	393.06
353.447	410.06
353.674	384.06
353.901	406.06
354.128	394.06
354.355	383.06
354.583	378.06
354.81	379.06
355.037	397.06
355.264	384.06
355.491	385.06
355.718	379.06
355.945	383.06
356.172	388.06
356.399	376.06
356.626	385.06
356.853	402.06
357.08	384.06
357.307	389.06
357.534	393.06
357.761	365.06
357.988	383.06
358.215	389.06
358.441	401.06
358.668	388.06
358.895	396.06
359.122	382.06
359.349	387.06
359.576	397.06
359.802	440.06
360.029	435.06
360.256	433.06
360.483	429.06
360.709	406.06
360.936	372.06
361.163	401.06
361.39	414.06
361.616	418.06
361.843	386.06
362.07	407.06
362.296	415.06
362.523	403.06
362.749	392.06
362.976	394.06
363.203	409.06
363.429	389.06
363.656	394.06
363.882	385.06
364.109	402.06
364.335	395.06
364.562	408.06
364.788	386.06
365.015	379.06
365.241	405.06
365.468	403.06
365.694	402.06
365.92	408.06
366.147	383.06
366.373	385.06
366.599	396.06
366.826	391.06
367.052	388.06
367.278	374.06
367.505	396.06
367.731	395.06
367.957	391.06
368.184	409.06
368.41	391.06
368.636	380.06
368.862	393.06
369.089	397.06
369.315	394.06
369.541	391.06
369.767	404.06
369.993	386.06
370.219	393.06
370.445	406.06
370.672	411.06
370.898	410.06
371.124	401.06
371.35	416.06
371.576	437.06
371.802	404.06
372.028	398.06
372.254	392.06
372.48	408.06
372.706	409.06
372.932	433.06
373.158	408.06
373.384	422.06
373.61	416.06
373.835	396.06
374.061	396.06
374.287	403.06
374.513	427.06
374.739	400.06
374.965	399.06
375.191	423.06
375.416	418.06
375.642	389.06
375.868	427.06
376.094	403.06
376.319	431.06
376.545	417.06
376.771	407.06
376.997	388.06
377.222	401.06
377.448	411.06
377.674	403.06
377.899	405.06
378.125	410.06
378.35	401.06
378.576	416.06
378.802	400.06
379.027	416.06
379.253	399.06
379.478	391.06
379.704	389.06
379.929	396.06
380.155	409.06
380.38	410.06
380.606	392.06
380.831	422.06
381.057	411.06
381.282	404.06
381.507	401.06
381.733	400.06
381.958	406.06
382.184	402.06
382.409	420.06
382.634	414.06
382.86	429.06
383.085	409.06
383.31	443.06
383.535	430.06
383.761	413.06
383.986	421.06
384.211	443.06
384.436	442.06
384.662	433.06
384.887	455.06
385.112	456.06
385.337	469.06
385.562	446.06
385.787	459.06
386.013	470.06
386.238	461.06
386.463	473.06
386.688	447.06
386.913	443.06
387.138	467.06
387.363	466.06
387.588	452.06
387.813	474.06
388.038	466.06
388.263	454.06
388.488	452.06
388.713	455.06
388.938	454.06
389.163	459.06
389.387	473.06
389.612	444.06
389.837	454.06
390.062	444.06
390.287	423.06
390.512	441.06
390.736	466.06
390.961	488.06
391.186	459.06
391.411	454.06
391.636	496.06
391.86	482.06
392.085	508.06
392.31	515.06
392.534	480.06
392.759	484.06
392.984	498.06
393.208	500.06
393.433	484.06
393.658	473.06
393.882	460.06
394.107	457.06
394.331	470.06
394.556	448.06
394.78	466.06
395.005	503.06
395.229	481.06
395.454	480.06
395.678	498.06
395.903	516.06
396.127	512.06
396.352	524.06
396.576	475.06
396.801	474.06
397.025	494.06
397.249	504.06
397.474	490.06
397.698	486.06
397.922	488.06
398.147	526.06
398.371	530.06
398.595	520.06
398.82	524.06
399.044	583.06
399.268	563.06
399.492	642.06
399.717	652.06
399.941	691.06
400.165	677.06
400.389	661.06
400.613	596.06
400.837	576.06
401.062	574.06
401.286	551.06
401.51	554.06
401.734	539.06
401.958	542.06
402.182	533.06
402.406	551.06
402.63	554.06
402.854	579.06
403.078	557.06
403.302	574.06
403.526	579.06
403.75	579.06
403.974	586.06
404.198	572.06
404.422	567.06
404.645	576.06
404.869	582.06
405.093	594.06
405.317	618.06
405.541	638.06
405.765	596.06
405.988	583.06
406.212	592.06
406.436	602.06
406.66	597.06
406.883	592.06
407.107	608.06
407.331	659.06
407.555	732.06
407.778	717.06
408.002	672.06
408.226	642.06
408.449	624.06
408.673	610.06
408.896	646.06
409.12	671.06
409.344	624.06
409.567	597.06
409.791	587.06
410.014	579.06
410.238	576.06
410.461	577.06
410.685	559.06
410.908	590.06
411.132	607.06
411.355	640.06
411.578	610.06
411.802	575.06
412.025	536.06
412.249	551.06
412.472	561.06
412.695	600.06
412.919	614.06
413.142	574.06
413.365	567.06
413.589	556.06
413.812	522.06
414.035	543.06
414.258	522.06
414.482	539.06
414.705	501.06
414.928	518.06
415.151	532.06
415.374	534.06
415.597	553.06
415.821	516.06
416.044	517.06
416.267	532.06
416.49	502.06
416.713	523.06
416.936	533.06
417.159	490.06
417.382	523.06
417.605	542.06
417.828	551.06
418.051	541.06
418.274	561.06
418.497	499.06
418.72	517.06
418.943	526.06
419.166	542.06
419.389	550.06
419.611	588.06
419.834	563.06
420.057	564.06
420.28	573.06
420.503	538.06
420.726	530.06
420.948	546.06
421.171	577.06
421.394	585.06
421.617	573.06
421.839	542.06
422.062	561.06
422.285	552.06
422.507	609.06
422.73	683.06
422.953	646.06
423.175	590.06
423.398	587.06
423.621	546.06
423.843	598.06
424.066	598.06
424.288	563.06
424.511	592.06
424.733	635.06
424.956	675.06
425.178	667.06
425.401	672.06
425.623	661.06
425.846	589.06
426.068	577.06
426.291	564.06
426.513	564.06
426.735	564.06
426.958	599.06
427.18	644.06
427.402	747.06
427.625	827.06
427.847	701.06
428.069	622.06
428.292	572.06
428.514	563.06
428.736	544.06
428.958	532.06
429.181	515.06
429.403	510.06
429.625	511.06
429.847	572.06
430.069	580.06
430.292	601.06
430.514	515.06
430.736	540.06
430.958	510.06
431.18	511.06
431.402	490.06
431.624	487.06
431.846	490.06
432.068	508.06
432.29	520.06
432.512	509.06
432.734	518.06
432.956	507.06
433.178	531.06
433.4	507.06
433.622	510.06
433.844	503.06
434.066	486.06
434.287	498.06
434.509	500.06
434.731	545.06
434.953	535.06
435.175	533.06
435.397	545.06
435.618	576.06
435.84	592.06
436.062	672.06
436.284	704.06
436.505	607.06
436.727	562.06
436.949	527.06
437.17	510.06
437.392	503.06
437.614	520.06
437.835	540.06
438.057	614.06
438.278	683.06
438.5	660.06
438.721	762.06
438.943	709.06
439.165	586.06
439.386	531.06
439.608	569.06
439.829	550.06
440.05	573.06
440.272	575.06
440.493	563.06
440.715	555.06
440.936	534.06
441.158	538.06
441.379	525.06
441.6	558.06
441.822	562.06
442.043	594.06
442.264	648.06
442.486	689.06
442.707	597.06
442.928	586.06
443.149	578.06
443.371	605.06
443.592	618.06
443.813	682.06
444.034	757.06
444.255	614.06
444.476	626.06
444.698	617.06
444.919	586.06
445.14	675.06
445.361	658.06
445.582	605.06
445.803	631.06
446.024	707.06
446.245	696.06
446.466	634.06
446.687	592.06
446.908	564.06
447.129	518.06
447.35	533.06
447.571	495.06
447.792	499.06
448.013	519.06
448.234	511.06
448.455	571.06
448.675	649.06
448.896	725.06
449.117	633.06
449.338	598.06
449.559	667.06
449.779	759.06
450	628.06
450.221	520.06
450.442	510.06
450.662	496.06
450.883	498.06
451.104	496.06
451.324	480.06
451.545	459.06
451.766	464.06
451.986	470.06
452.207	456.06
452.428	449.06
452.648	465.06
452.869	464.06
453.089	455.06
453.31	471.06
453.53	455.06
453.751	460.06
453.971	448.06
454.192	452.06
454.412	438.06
454.633	443.06
454.853	447.06
455.073	446.06
455.294	470.06
455.514	497.06
455.734	492.06
455.955	449.06
456.175	425.06
456.395	452.06
456.616	448.06
456.836	430.06
457.056	447.06
457.276	424.06
457.497	458.06
457.717	434.06
457.937	446.06
458.157	443.06
458.377	457.06
458.598	484.06
458.818	532.06
459.038	553.06
459.258	572.06
459.478	519.06
459.698	520.06
459.918	497.06
460.138	518.06
460.358	542.06
460.578	536.06
460.798	536.06
461.018	545.06
461.238	536.06
461.458	508.06
461.678	534.06
461.898	530.06
462.118	537.06
462.338	549.06
462.558	561.06
462.777	579.06
462.997	599.06
463.217	643.06
463.437	633.06
463.657	598.06
463.876	572.06
464.096	592.06
464.316	582.06
464.536	583.06
464.755	570.06
464.975	572.06
465.195	581.06
465.414	576.06
465.634	518.06
465.854	530.06
466.073	496.06
466.293	509.06
466.512	513.06
466.732	473.06
466.951	466.06
467.171	479.06
467.391	480.06
467.61	483.06
467.829	492.06
468.049	493.06
468.268	468.06
468.488	478.06
468.707	486.06
468.927	471.06
469.146	492.06
469.365	439.06
469.585	481.06
469.804	478.06
470.023	463.06
470.243	486.06
470.462	489.06
470.681	516.06
470.901	506.06
471.12	494.06
471.339	487.06
471.558	479.06
471.777	497.06
471.997	474.06
472.216	505.06
472.435	488.06
472.654	466.06
472.873	443.06
473.092	458.06
473.311	474.06
473.53	472.06
473.749	477.06
473.968	522.06
474.187	568.06
474.406	611.06
474.625	505.06
474.844	482.06
475.063	516.06
475.282	487.06
475.501	486.06
475.72	488.06
475.939	493.06
476.158	481.06
476.377	508.06
476.596	501.06
476.814	491.06
477.033	510.06
477.252	526.06
477.471	509.06
477.69	524.06
477.908	505.06
478.127	528.06
478.346	555.06
478.564	550.06
478.783	534.06
479.002	539.06
479.22	576.06
479.439	574.06
479.658	572.06
479.876	565.06
480.095	573.06
480.313	627.06
480.532	611.06
480.751	618.06
480.969	608.06
481.188	644.06
481.406	635.06
481.624	610.06
481.843	586.06
482.061	577.06
482.28	540.06
482.498	574.06
482.717	536.06
482.935	568.06
483.153	553.06
483.372	548.06
483.59	548.06
483.808	566.06
484.027	555.06
484.245	562.06
484.463	582.06
484.681	586.06
484.9	569.06
485.118	564.06
485.336	566.06
485.554	566.06
485.772	588.06
485.99	568.06
486.209	569.06
486.427	602.06
486.645	585.06
486.863	592.06
487.081	580.06
487.299	571.06
487.517	582.06
487.735	585.06
487.953	581.06
488.171	581.06
488.389	601.06
488.607	565.06
488.825	619.06
489.043	601.06
489.261	622.06
489.479	592.06
489.696	608.06
489.914	586.06
490.132	613.06
490.35	612.06
490.568	612.06
490.786	620.06
491.003	628.06
491.221	614.06
491.439	662.06
491.657	635.06
491.874	661.06
492.092	657.06
492.31	649.06
492.527	641.06
492.745	644.06
492.963	655.06
493.18	666.06
493.398	657.06
493.615	660.06
493.833	698.06
494.05	688.06
494.268	674.06
494.485	677.06
494.703	670.06
494.92	690.06
495.138	676.06
495.355	690.06
495.573	702.06
495.79	683.06
496.008	685.06
496.225	677.06
496.442	698.06
496.66	694.06
496.877	703.06
497.094	718.06
497.312	706.06
497.529	712.06
497.746	720.06
497.963	754.06
498.181	778.06
498.398	794.06
498.615	808.06
498.832	829.06
499.049	876.06
499.267	882.06
499.484	948.06
499.701	1006.06
499.918	1067.06
500.135	1140.06
500.352	1206.06
500.569	1226.06
500.786	1221.06
501.003	1217.06
501.22	1105.06
501.437	1078.06
501.654	1026.06
501.871	974.06
502.088	911.06
502.305	898.06
502.522	829.06
502.739	838.06
502.956	790.06
503.172	795.06
503.389	768.06
503.606	755.06
503.823	721.06
504.04	750.06
504.256	722.06
504.473	733.06
504.69	735.06
504.907	738.06
505.123	699.06
505.34	686.06
505.557	659.06
505.773	669.06
505.99	670.06
506.207	655.06
506.423	638.06
506.64	632.06
506.856	658.06
507.073	632.06
507.289	639.06
507.506	628.06
507.722	634.06
507.939	607.06
508.155	618.06
508.372	603.06
508.588	589.06
508.805	597.06
509.021	606.06
509.238	630.06
509.454	631.06
509.67	608.06
509.887	587.06
510.103	608.06
510.319	602.06
510.536	650.06
510.752	892.06
510.968	798.06
511.184	590.06
511.401	592.06
511.617	591.06
511.833	568.06
512.049	576.06
512.265	561.06
512.481	558.06
512.698	558.06
512.914	558.06
513.13	587.06
513.346	580.06
513.562	574.06
513.778	579.06
513.994	568.06
514.21	583.06
514.426	567.06
514.642	614.06
514.858	625.06
515.074	626.06
515.29	696.06
515.506	885.06
515.721	766.06
515.937	638.06
516.153	618.06
516.369	618.06
516.585	616.06
516.801	615.06
517.016	616.06
517.232	639.06
517.448	626.06
517.664	619.06
517.879	663.06
518.095	644.06
518.311	635.06
518.527	638.06
518.742	601.06
518.958	588.06
519.173	613.06
519.389	598.06
519.605	598.06
519.82	578.06
520.036	594.06
520.251	586.06
520.467	606.06
520.682	580.06
520.898	578.06
521.113	595.06
521.329	626.06
521.544	673.06
521.76	735.06
521.975	1035.06
522.19	1033.06
522.406	698.06
522.621	585.06
522.836	555.06
523.052	560.06
523.267	516.06
523.482	520.06
523.698	515.06
523.913	522.06
524.128	519.06
524.343	482.06
524.559	516.06
524.774	478.06
524.989	490.06
525.204	517.06
525.419	511.06
525.634	518.06
525.849	498.06
526.064	478.06
526.28	495.06
526.495	496.06
526.71	485.06
526.925	496.06
527.14	451.06
527.355	498.06
527.57	479.06
527.785	477.06
527.999	484.06
528.214	487.06
528.429	486.06
528.644	471.06
528.859	464.06
529.074	482.06
529.289	500.06
529.503	521.06
529.718	522.06
529.933	496.06
530.148	491.06
530.363	479.06
530.577	467.06
530.792	481.06
531.007	489.06
531.221	458.06
531.436	478.06
531.651	468.06
531.865	479.06
532.08	475.06
532.295	475.06
532.509	468.06
532.724	468.06
532.938	461.06
533.153	479.06
533.367	475.06
533.582	456.06
533.796	466.06
534.011	474.06
534.225	468.06
534.44	447.06
534.654	459.06
534.868	478.06
535.083	467.06
535.297	475.06
535.511	473.06
535.726	464.06
535.94	472.06
536.154	462.06
536.369	456.06
536.583	434.06
536.797	443.06
537.011	437.06
537.225	457.06
537.44	437.06
537.654	459.06
537.868	464.06
538.082	448.06
538.296	455.06
538.51	443.06
538.724	449.06
538.938	451.06
539.153	441.06
539.367	442.06
539.581	450.06
539.795	455.06
540.009	438.06
540.222	448.06
540.436	455.06
540.65	451.06
540.864	447.06
541.078	464.06
541.292	470.06
541.506	461.06
541.72	435.06
541.934	437.06
542.147	451.06
542.361	427.06
542.575	443.06
542.789	422.06
543.002	430.06
543.216	441.06
543.43	437.06
543.644	444.06
543.857	435.06
544.071	438.06
544.285	448.06
544.498	465.06
544.712	444.06
544.925	436.06
545.139	423.06
545.352	457.06
545.566	465.06
545.779	448.06
545.993	442.06
546.206	434.06
546.42	449.06
546.633	439.06
546.847	447.06
547.06	419.06
547.274	449.06
547.487	437.06
547.7	432.06
547.914	430.06
548.127	442.06
548.34	453.06
548.554	435.06
548.767	441.06
548.98	443.06
549.193	441.06
549.407	408.06
549.62	443.06
549.833	454.06
550.046	456.06
550.259	431.06
550.473	425.06
550.686	446.06
550.899	449.06
551.112	435.06
551.325	439.06
551.538	436.06
551.751	458.06
551.964	408.06
552.177	417.06
552.39	436.06
552.603	436.06
552.816	441.06
553.029	443.06
553.242	451.06
553.455	459.06
553.667	461.06
553.88	470.06
554.093	464.06
554.306	447.06
554.519	452.06
554.732	440.06
554.944	438.06
555.157	428.06
555.37	430.06
555.583	406.06
555.795	403.06
556.008	400.06
556.221	405.06
556.433	409.06
556.646	418.06
556.859	414.06
557.071	405.06
557.284	396.06
557.496	389.06
557.709	400.06
557.921	393.06
558.134	396.06
558.346	398.06
558.559	363.06
558.771	383.06
558.984	389.06
559.196	386.06
559.409	395.06
559.621	394.06
559.833	379.06
560.046	370.06
560.258	395.06
560.47	396.06
560.683	409.06
560.895	387.06
561.107	394.06
561.32	386.06
561.532	380.06
561.744	389.06
561.956	399.06
562.168	390.06
562.381	362.06
562.593	388.06
562.805	387.06
563.017	400.06
563.229	380.06
563.441	402.06
563.653	406.06
563.865	403.06
564.077	419.06
564.289	408.06
564.501	406.06
564.713	409.06
564.925	417.06
565.137	403.06
565.349	408.06
565.561	430.06
565.773	442.06
565.985	459.06
566.197	486.06
566.408	506.06
566.62	500.06
566.832	530.06
567.044	548.06
567.255	525.06
567.467	555.06
567.679	547.06
567.891	585.06
568.102	586.06
568.314	562.06
568.526	528.06
568.737	494.06
568.949	482.06
569.161	460.06
569.372	458.06
569.584	452.06
569.795	412.06
570.007	424.06
570.218	440.06
570.43	430.06
570.641	420.06
570.853	403.06
571.064	395.06
571.276	403.06
571.487	390.06
571.698	393.06
571.91	354.06
572.121	353.06
572.333	368.06
572.544	361.06
572.755	380.06
572.966	348.06
573.178	378.06
573.389	360.06
573.6	348.06
573.811	348.06
574.023	316.06
574.234	329.06
574.445	336.06
574.656	336.06
574.867	332.06
575.078	343.06
575.289	328.06
575.501	347.06
575.712	339.06
575.923	350.06
576.134	327.06
576.345	350.06
576.556	328.06
576.767	338.06
576.978	305.06
577.188	336.06
577.399	336.06
577.61	312.06
577.821	326.06
578.032	336.06
578.243	336.06
578.454	421.06
578.665	368.06
578.875	303.06
579.086	327.06
579.297	317.06
579.508	309.06
579.718	318.06
579.929	300.06
580.14	320.06
580.35	310.06
580.561	316.06
580.772	294.06
580.982	320.06
581.193	301.06
581.403	311.06
581.614	302.06
581.825	293.06
582.035	288.06
582.246	296.06
582.456	297.06
582.667	305.06
582.877	310.06
583.087	289.06
583.298	302.06
583.508	309.06
583.719	294.06
583.929	293.06
584.139	309.06
584.35	307.06
584.56	297.06
584.77	303.06
584.981	302.06
585.191	287.06
585.401	287.06
585.611	295.06
585.821	294.06
586.032	288.06
586.242	288.06
586.452	298.06
586.662	287.06
586.872	307.06
587.082	315.06
587.292	300.06
587.502	289.06
587.713	284.06
587.923	297.06
588.133	304.06
588.343	305.06
588.553	295.06
588.762	279.06
588.972	301.06
589.182	297.06
589.392	334.06
589.602	283.06
589.812	323.06
590.022	304.06
590.232	290.06
590.441	298.06
590.651	306.06
590.861	296.06
591.071	297.06
591.281	307.06
591.49	304.06
591.7	284.06
591.91	319.06
592.119	307.06
592.329	310.06
592.539	324.06
592.748	340.06
592.958	322.06
593.167	325.06
593.377	343.06
593.587	352.06
593.796	340.06
594.006	330.06
594.215	341.06
594.424	329.06
594.634	341.06
594.843	330.06
595.053	314.06
595.262	315.06
595.472	297.06
595.681	318.06
595.89	315.06
596.1	302.06
596.309	291.06
596.518	292.06
596.727	281.06
596.937	290.06
597.146	288.06
597.355	287.06
597.564	291.06
597.774	277.06
597.983	278.06
598.192	250.06
598.401	265.06
598.61	261.06
598.819	266.06
599.028	266.06
599.237	271.06
599.446	260.06
599.655	256.06
599.864	258.06
600.073	270.06
600.282	249.06
600.491	278.06
600.7	272.06
600.909	256.06
601.118	255.06
601.327	259.06
601.536	267.06
601.745	263.06
601.953	258.06
602.162	260.06
602.371	247.06
602.58	260.06
602.789	249.06
602.997	258.06
603.206	257.06
603.415	261.06
603.623	253.06
603.832	251.06
604.041	239.06
604.249	240.06
604.458	243.06
604.666	227.06
604.875	256.06
605.084	229.06
605.292	249.06
605.501	243.06
605.709	243.06
605.918	234.06
606.126	244.06
606.334	245.06
606.543	247.06
606.751	259.06
606.96	234.06
607.168	252.06
607.376	266.06
607.585	236.06
607.793	239.06
608.001	248.06
608.21	229.06
608.418	258.06
608.626	227.06
608.834	243.06
609.043	231.06
609.251	256.06
609.459	246.06
609.667	227.06
609.875	250.06
610.083	247.06
610.291	234.06
610.499	235.06
610.707	242.06
610.916	238.06
611.124	251.06
611.332	232.06
611.54	248.06
611.748	246.06
611.955	245.06
612.163	233.06
612.371	236.06
612.579	230.06
612.787	241.06
612.995	240.06
613.203	239.06
613.411	225.06
613.618	230.06
613.826	210.06
614.034	231.06
614.242	225.06
614.449	235.06
614.657	232.06
614.865	230.06
615.072	247.06
615.28	231.06
615.488	230.06
615.695	229.06
615.903	238.06
616.111	247.06
616.318	241.06
616.526	224.06
616.733	225.06
616.941	226.06
617.148	232.06
617.356	223.06
617.563	233.06
617.771	219.06
617.978	229.06
618.185	224.06
618.393	241.06
618.6	232.06
618.807	251.06
619.015	226.06
619.222	224.06
619.429	223.06
619.637	234.06
619.844	209.06
620.051	227.06
620.258	220.06
620.466	227.06
620.673	214.06
620.88	214.06
621.087	233.06
621.294	233.06
621.501	206.06
621.708	189.06
621.915	208.06
622.122	221.06
622.329	211.06
622.536	231.06
622.743	206.06
622.95	214.06
623.157	196.06
623.364	226.06
623.571	217.06
623.778	229.06
623.985	200.06
624.192	199.06
624.399	214.06
624.606	207.06
624.812	218.06
625.019	213.06
625.226	198.06
625.433	211.06
625.639	222.06
625.846	209.06
626.053	203.06
626.259	224.06
626.466	223.06
626.673	215.06
626.879	200.06
627.086	194.06
627.293	213.06
627.499	194.06
627.706	202.06
627.912	194.06
628.119	191.06
628.325	202.06
628.532	180.06
628.738	196.06
628.945	195.06
629.151	189.06
629.357	194.06
629.564	195.06
629.77	198.06
629.976	193.06
630.183	186.06
630.389	199.06
630.595	200.06
630.802	186.06
631.008	192.06
631.214	187.06
631.42	200.06
631.627	185.06
631.833	184.06
632.039	178.06
632.245	175.06
632.451	187.06
632.657	187.06
632.863	185.06
633.069	189.06
633.275	166.06
633.481	187.06
633.688	167.06
633.893	183.06
634.099	172.06
634.305	174.06
634.511	182.06
634.717	189.06
634.923	184.06
635.129	170.06
635.335	156.06
635.541	174.06
635.747	171.06
635.952	197.06
636.158	176.06
636.364	188.06
636.57	195.06
636.775	174.06
636.981	184.06
637.187	191.06
637.392	186.06
637.598	162.06
637.804	168.06
638.009	176.06
638.215	190.06
638.421	180.06
638.626	170.06
638.832	176.06
639.037	180.06
639.243	170.06
639.448	166.06
639.654	170.06
639.859	166.06
640.065	177.06
640.27	182.06
640.475	175.06
640.681	171.06
640.886	172.06
641.091	181.06
641.297	174.06
641.502	166.06
641.707	170.06
641.913	163.06
642.118	161.06
642.323	183.06
642.528	178.06
642.733	160.06
642.939	162.06
643.144	167.06
643.349	169.06
643.554	160.06
643.759	176.06
643.964	165.06
644.169	161.06
644.374	154.06
644.579	146.06
644.784	163.06
644.989	166.06
645.194	166.06
645.399	169.06
645.604	172.06
645.809	172.06
646.014	160.06
646.219	155.06
646.423	154.06
646.628	164.06
646.833	180.06
647.038	165.06
647.243	178.06
647.447	151.06
647.652	165.06
647.857	160.06
648.062	175.06
648.266	172.06
648.471	170.06
648.676	163.06
648.88	180.06
649.085	187.06
649.289	175.06
649.494	184.06
649.698	176.06
649.903	169.06
650.107	160.06
650.312	155.06
650.516	162.06
650.721	160.06
650.925	167.06
651.13	151.06
651.334	147.06
651.539	153.06
651.743	151.06
651.947	168.06
652.152	146.06
652.356	140.06
652.56	151.06
652.764	142.06
652.969	141.06
653.173	141.06
653.377	124.06
653.581	153.06
653.785	127.06
653.99	148.06
654.194	151.06
654.398	126.06
654.602	134.06
654.806	135.06
655.01	130.06
655.214	155.06
655.418	144.06
655.622	130.06
655.826	138.06
656.03	140.06
656.234	139.06
656.438	139.06
656.642	160.06
656.846	130.06
657.049	133.06
657.253	128.06
657.457	135.06
657.661	116.06
657.865	130.06
658.068	116.06
658.272	110.06
658.476	117.06
658.68	102.06
658.883	98.06
659.087	101.06
659.291	95.06
659.494	112.06
659.698	101.06
659.901	88.06
660.105	100.06
660.309	98.06
660.512	97.06
660.716	95.06
660.919	94.06
661.123	105.06
661.326	93.06
661.53	93.06
661.733	94.06
661.936	88.06
662.14	88.06
662.343	97.06
662.546	87.06
662.75	87.06
662.953	72.06
663.156	95.06
663.36	75.06
663.563	77.06
663.766	80.06
663.969	73.06
664.173	88.06
664.376	84.06
664.579	79.06
664.782	91.06
664.985	87.06
665.188	83.06
665.391	84.06
665.594	82.06
665.797	87.06
666	71.06
666.203	79.06
666.406	94.06
666.609	82.06
666.812	81.06
667.015	76.06
667.218	91.06
667.421	85.06
667.624	83.06
667.827	78.06
668.03	74.06
668.232	80.06
668.435	84.06
668.638	73.06
668.841	84.06
669.043	76.06
669.246	72.06
669.449	74.06
669.651	93.06
669.854	74.06
670.057	90.06
670.259	86.06
670.462	84.06
670.665	79.06
670.867	76.06
671.07	95.06
671.272	64.06
671.475	71.06
671.677	85.06
671.88	82.06
672.082	78.06
672.284	80.06
672.487	83.06
672.689	83.06
672.892	65.06
