Data from 1962.PennyLincolnUp.Lamp.En5.5.200Scan.071719.P1._HRD10591_13-53-17-060.txt Node
Date: Thu Jul 18 13:53:17 EDT 2019
User: cochatt
Spectrometer: HR+D1059
Trigger mode: 1
Integration Time (sec): 1.000000E-1
Scans to average: 1
Electric dark correction enabled: true
Nonlinearity correction enabled: false
Boxcar width: 0
XAxis mode: Wavelengths
Number of Pixels in Spectrum: 2048
>>>>>Begin Spectral Data<<<<<
223.165	-25.12
223.4	-25.12
223.635	-25.12
223.869	-8.12
224.104	-17.12
224.338	-19.12
224.573	-16.12
224.808	-12.12
225.042	-24.12
225.277	-8.12
225.511	-0.12
225.746	3.88
225.98	2.88
226.215	19.88
226.449	24.88
226.683	28.88
226.918	26.88
227.152	22.88
227.387	48.88
227.621	45.88
227.856	35.88
228.09	46.88
228.324	46.88
228.559	56.88
228.793	62.88
229.027	86.88
229.262	91.88
229.496	105.88
229.73	113.88
229.964	106.88
230.199	97.88
230.433	93.88
230.667	114.88
230.901	112.88
231.136	89.88
231.37	111.88
231.604	110.88
231.838	122.88
232.072	105.88
232.306	102.88
232.541	113.88
232.775	102.88
233.009	104.88
233.243	111.88
233.477	113.88
233.711	106.88
233.945	116.88
234.179	122.88
234.413	95.88
234.647	104.88
234.881	115.88
235.115	111.88
235.349	100.88
235.583	99.88
235.817	103.88
236.051	113.88
236.285	112.88
236.519	118.88
236.753	113.88
236.987	110.88
237.221	130.88
237.455	165.88
237.689	128.88
237.922	110.88
238.156	131.88
238.39	127.88
238.624	118.88
238.858	119.88
239.091	107.88
239.325	114.88
239.559	126.88
239.793	115.88
240.027	116.88
240.26	122.88
240.494	128.88
240.728	120.88
240.961	128.88
241.195	133.88
241.429	150.88
241.662	129.88
241.896	118.88
242.13	122.88
242.363	126.88
242.597	134.88
242.83	128.88
243.064	114.88
243.298	141.88
243.531	134.88
243.765	121.88
243.998	130.88
244.232	129.88
244.465	132.88
244.699	134.88
244.932	135.88
245.166	126.88
245.399	143.88
245.633	143.88
245.866	134.88
246.099	138.88
246.333	132.88
246.566	136.88
246.8	140.88
247.033	154.88
247.266	141.88
247.5	144.88
247.733	148.88
247.966	140.88
248.2	153.88
248.433	148.88
248.666	153.88
248.899	159.88
249.133	156.88
249.366	162.88
249.599	171.88
249.832	159.88
250.066	155.88
250.299	150.88
250.532	163.88
250.765	168.88
250.998	162.88
251.231	177.88
251.465	170.88
251.698	167.88
251.931	165.88
252.164	183.88
252.397	164.88
252.63	176.88
252.863	190.88
253.096	169.88
253.329	195.88
253.562	188.88
253.795	184.88
254.028	174.88
254.261	186.88
254.494	200.88
254.727	213.88
254.96	197.88
255.193	212.88
255.426	198.88
255.659	189.88
255.892	193.88
256.124	203.88
256.357	200.88
256.59	185.88
256.823	181.88
257.056	192.88
257.289	192.88
257.521	186.88
257.754	188.88
257.987	180.88
258.22	190.88
258.452	175.88
258.685	186.88
258.918	196.88
259.151	178.88
259.383	193.88
259.616	185.88
259.849	199.88
260.081	193.88
260.314	215.88
260.547	198.88
260.779	199.88
261.012	206.88
261.244	212.88
261.477	200.88
261.71	194.88
261.942	195.88
262.175	204.88
262.407	201.88
262.64	190.88
262.872	191.88
263.105	189.88
263.337	194.88
263.57	201.88
263.802	187.88
264.035	195.88
264.267	202.88
264.499	192.88
264.732	181.88
264.964	193.88
265.197	203.88
265.429	188.88
265.661	193.88
265.894	188.88
266.126	196.88
266.358	207.88
266.591	198.88
266.823	217.88
267.055	199.88
267.287	204.88
267.52	204.88
267.752	212.88
267.984	207.88
268.216	212.88
268.448	234.88
268.681	216.88
268.913	223.88
269.145	220.88
269.377	227.88
269.609	235.88
269.841	227.88
270.073	235.88
270.306	253.88
270.538	234.88
270.77	252.88
271.002	266.88
271.234	264.88
271.466	241.88
271.698	260.88
271.93	260.88
272.162	264.88
272.394	278.88
272.626	243.88
272.858	224.88
273.09	261.88
273.322	241.88
273.553	220.88
273.785	242.88
274.017	233.88
274.249	245.88
274.481	235.88
274.713	250.88
274.945	233.88
275.176	245.88
275.408	234.88
275.64	233.88
275.872	243.88
276.104	244.88
276.335	238.88
276.567	263.88
276.799	262.88
277.031	269.88
277.262	260.88
277.494	250.88
277.726	259.88
277.957	251.88
278.189	278.88
278.421	262.88
278.652	251.88
278.884	244.88
279.115	259.88
279.347	274.88
279.579	247.88
279.81	275.88
280.042	263.88
280.273	259.88
280.505	236.88
280.736	256.88
280.968	256.88
281.199	263.88
281.431	272.88
281.662	272.88
281.894	258.88
282.125	261.88
282.356	260.88
282.588	265.88
282.819	266.88
283.051	250.88
283.282	267.88
283.513	251.88
283.745	255.88
283.976	272.88
284.207	281.88
284.439	278.88
284.67	281.88
284.901	266.88
285.132	272.88
285.364	273.88
285.595	271.88
285.826	284.88
286.057	271.88
286.288	283.88
286.52	268.88
286.751	289.88
286.982	287.88
287.213	251.88
287.444	287.88
287.675	270.88
287.906	279.88
288.138	282.88
288.369	287.88
288.6	295.88
288.831	276.88
289.062	280.88
289.293	287.88
289.524	278.88
289.755	288.88
289.986	285.88
290.217	281.88
290.448	297.88
290.679	270.88
290.91	276.88
291.141	282.88
291.371	276.88
291.602	280.88
291.833	283.88
292.064	281.88
292.295	289.88
292.526	283.88
292.757	299.88
292.987	288.88
293.218	286.88
293.449	288.88
293.68	288.88
293.91	290.88
294.141	281.88
294.372	289.88
294.603	282.88
294.833	297.88
295.064	282.88
295.295	286.88
295.525	296.88
295.756	295.88
295.987	278.88
296.217	308.88
296.448	312.88
296.679	276.88
296.909	290.88
297.14	283.88
297.37	291.88
297.601	296.88
297.831	289.88
298.062	299.88
298.292	294.88
298.523	296.88
298.753	320.88
298.984	314.88
299.214	321.88
299.445	318.88
299.675	296.88
299.905	316.88
300.136	294.88
300.366	296.88
300.597	303.88
300.827	312.88
301.057	283.88
301.288	299.88
301.518	313.88
301.748	323.88
301.979	300.88
302.209	322.88
302.439	317.88
302.669	306.88
302.9	322.88
303.13	325.88
303.36	299.88
303.59	318.88
303.82	316.88
304.051	323.88
304.281	342.88
304.511	321.88
304.741	318.88
304.971	323.88
305.201	347.88
305.431	301.88
305.661	325.88
305.891	331.88
306.121	322.88
306.352	294.88
306.582	320.88
306.812	323.88
307.042	310.88
307.272	327.88
307.502	312.88
307.731	319.88
307.961	335.88
308.191	321.88
308.421	330.88
308.651	313.88
308.881	319.88
309.111	338.88
309.341	330.88
309.571	325.88
309.8	338.88
310.03	329.88
310.26	343.88
310.49	344.88
310.72	328.88
310.949	338.88
311.179	334.88
311.409	344.88
311.639	328.88
311.868	356.88
312.098	334.88
312.328	361.88
312.557	356.88
312.787	346.88
313.017	357.88
313.246	344.88
313.476	341.88
313.706	338.88
313.935	354.88
314.165	358.88
314.394	355.88
314.624	362.88
314.853	343.88
315.083	354.88
315.312	379.88
315.542	347.88
315.771	362.88
316.001	354.88
316.23	335.88
316.46	333.88
316.689	354.88
316.919	358.88
317.148	364.88
317.377	363.88
317.607	350.88
317.836	348.88
318.065	347.88
318.295	362.88
318.524	371.88
318.753	342.88
318.983	358.88
319.212	347.88
319.441	354.88
319.67	382.88
319.9	362.88
320.129	356.88
320.358	360.88
320.587	356.88
320.816	369.88
321.046	370.88
321.275	376.88
321.504	363.88
321.733	345.88
321.962	355.88
322.191	354.88
322.42	358.88
322.649	372.88
322.878	382.88
323.108	391.88
323.337	395.88
323.566	413.88
323.795	414.88
324.024	436.88
324.253	483.88
324.482	613.88
324.71	819.88
324.939	1148.88
325.168	1026.88
325.397	622.88
325.626	466.88
325.855	435.88
326.084	410.88
326.313	403.88
326.542	408.88
326.77	444.88
326.999	481.88
327.228	577.88
327.457	801.88
327.686	929.88
327.914	667.88
328.143	513.88
328.372	474.88
328.6	451.88
328.829	438.88
329.058	448.88
329.287	435.88
329.515	438.88
329.744	424.88
329.972	405.88
330.201	436.88
330.43	454.88
330.658	436.88
330.887	452.88
331.115	450.88
331.344	440.88
331.572	419.88
331.801	438.88
332.03	419.88
332.258	412.88
332.486	410.88
332.715	420.88
332.943	435.88
333.172	444.88
333.4	463.88
333.629	457.88
333.857	472.88
334.085	482.88
334.314	464.88
334.542	471.88
334.771	460.88
334.999	463.88
335.227	449.88
335.455	442.88
335.684	442.88
335.912	449.88
336.14	451.88
336.369	436.88
336.597	422.88
336.825	417.88
337.053	414.88
337.281	429.88
337.51	404.88
337.738	438.88
337.966	418.88
338.194	424.88
338.422	410.88
338.65	420.88
338.878	393.88
339.106	412.88
339.334	393.88
339.562	406.88
339.79	400.88
340.018	404.88
340.246	405.88
340.474	384.88
340.702	411.88
340.93	418.88
341.158	388.88
341.386	405.88
341.614	402.88
341.842	431.88
342.07	417.88
342.298	394.88
342.526	396.88
342.754	394.88
342.981	411.88
343.209	416.88
343.437	417.88
343.665	409.88
343.893	420.88
344.12	425.88
344.348	423.88
344.576	417.88
344.804	419.88
345.031	430.88
345.259	400.88
345.487	388.88
345.714	398.88
345.942	390.88
346.17	387.88
346.397	392.88
346.625	375.88
346.853	386.88
347.08	389.88
347.308	397.88
347.535	385.88
347.763	397.88
347.99	378.88
348.218	378.88
348.445	375.88
348.673	381.88
348.9	377.88
349.128	382.88
349.355	376.88
349.583	367.88
349.81	395.88
350.037	371.88
350.265	361.88
350.492	376.88
350.72	372.88
350.947	382.88
351.174	402.88
351.402	377.88
351.629	383.88
351.856	386.88
352.083	387.88
352.311	377.88
352.538	387.88
352.765	391.88
352.992	389.88
353.22	379.88
353.447	385.88
353.674	357.88
353.901	372.88
354.128	378.88
354.355	380.88
354.583	386.88
354.81	366.88
355.037	369.88
355.264	346.88
355.491	376.88
355.718	366.88
355.945	385.88
356.172	382.88
356.399	375.88
356.626	351.88
356.853	360.88
357.08	354.88
357.307	380.88
357.534	388.88
357.761	360.88
357.988	391.88
358.215	364.88
358.441	376.88
358.668	368.88
358.895	360.88
359.122	388.88
359.349	386.88
359.576	370.88
359.802	396.88
360.029	390.88
360.256	394.88
360.483	404.88
360.709	360.88
360.936	382.88
361.163	388.88
361.39	370.88
361.616	386.88
361.843	383.88
362.07	406.88
362.296	363.88
362.523	370.88
362.749	394.88
362.976	377.88
363.203	375.88
363.429	365.88
363.656	377.88
363.882	390.88
364.109	378.88
364.335	369.88
364.562	382.88
364.788	372.88
365.015	371.88
365.241	386.88
365.468	380.88
365.694	386.88
365.92	375.88
366.147	368.88
366.373	395.88
366.599	378.88
366.826	386.88
367.052	396.88
367.278	380.88
367.505	374.88
367.731	370.88
367.957	377.88
368.184	391.88
368.41	390.88
368.636	385.88
368.862	394.88
369.089	393.88
369.315	396.88
369.541	381.88
369.767	373.88
369.993	376.88
370.219	357.88
370.445	384.88
370.672	388.88
370.898	359.88
371.124	384.88
371.35	390.88
371.576	383.88
371.802	376.88
372.028	395.88
372.254	393.88
372.48	366.88
372.706	398.88
372.932	402.88
373.158	400.88
373.384	384.88
373.61	396.88
373.835	382.88
374.061	396.88
374.287	406.88
374.513	391.88
374.739	400.88
374.965	418.88
375.191	418.88
375.416	400.88
375.642	406.88
375.868	382.88
376.094	414.88
376.319	380.88
376.545	402.88
376.771	388.88
376.997	378.88
377.222	397.88
377.448	377.88
377.674	377.88
377.899	392.88
378.125	376.88
378.35	391.88
378.576	379.88
378.802	393.88
379.027	371.88
379.253	375.88
379.478	388.88
379.704	392.88
379.929	373.88
380.155	393.88
380.38	391.88
380.606	397.88
380.831	410.88
381.057	400.88
381.282	366.88
381.507	396.88
381.733	383.88
381.958	386.88
382.184	395.88
382.409	383.88
382.634	414.88
382.86	408.88
383.085	406.88
383.31	397.88
383.535	403.88
383.761	431.88
383.986	425.88
384.211	415.88
384.436	426.88
384.662	438.88
384.887	428.88
385.112	444.88
385.337	434.88
385.562	430.88
385.787	431.88
386.013	440.88
386.238	461.88
386.463	451.88
386.688	460.88
386.913	430.88
387.138	417.88
387.363	435.88
387.588	444.88
387.813	441.88
388.038	459.88
388.263	448.88
388.488	426.88
388.713	448.88
388.938	439.88
389.163	422.88
389.387	453.88
389.612	417.88
389.837	458.88
390.062	453.88
390.287	434.88
390.512	424.88
390.736	430.88
390.961	440.88
391.186	432.88
391.411	446.88
391.636	451.88
391.86	464.88
392.085	450.88
392.31	455.88
392.534	474.88
392.759	452.88
392.984	462.88
393.208	456.88
393.433	457.88
393.658	458.88
393.882	455.88
394.107	449.88
394.331	468.88
394.556	417.88
394.78	467.88
395.005	458.88
395.229	459.88
395.454	463.88
395.678	459.88
395.903	456.88
396.127	498.88
396.352	486.88
396.576	458.88
396.801	442.88
397.025	498.88
397.249	481.88
397.474	499.88
397.698	479.88
397.922	494.88
398.147	513.88
398.371	498.88
398.595	487.88
398.82	529.88
399.044	531.88
399.268	556.88
399.492	613.88
399.717	648.88
399.941	665.88
400.165	668.88
400.389	632.88
400.613	593.88
400.837	558.88
401.062	545.88
401.286	522.88
401.51	528.88
401.734	516.88
401.958	530.88
402.182	524.88
402.406	535.88
402.63	566.88
402.854	558.88
403.078	543.88
403.302	531.88
403.526	534.88
403.75	565.88
403.974	549.88
404.198	534.88
404.422	562.88
404.645	564.88
404.869	570.88
405.093	582.88
405.317	603.88
405.541	631.88
405.765	600.88
405.988	557.88
406.212	563.88
406.436	562.88
406.66	580.88
406.883	587.88
407.107	613.88
407.331	642.88
407.555	684.88
407.778	674.88
408.002	646.88
408.226	606.88
408.449	597.88
408.673	588.88
408.896	616.88
409.12	636.88
409.344	595.88
409.567	552.88
409.791	560.88
410.014	558.88
410.238	540.88
410.461	518.88
410.685	547.88
410.908	526.88
411.132	567.88
411.355	599.88
411.578	569.88
411.802	540.88
412.025	539.88
412.249	550.88
412.472	545.88
412.695	561.88
412.919	548.88
413.142	555.88
413.365	519.88
413.589	524.88
413.812	522.88
414.035	483.88
414.258	490.88
414.482	518.88
414.705	519.88
414.928	494.88
415.151	526.88
415.374	487.88
415.597	496.88
415.821	512.88
416.044	504.88
416.267	523.88
416.49	489.88
416.713	497.88
416.936	489.88
417.159	504.88
417.382	494.88
417.605	493.88
417.828	513.88
418.051	528.88
418.274	529.88
418.497	497.88
418.72	488.88
418.943	514.88
419.166	522.88
419.389	546.88
419.611	559.88
419.834	551.88
420.057	538.88
420.28	523.88
420.503	530.88
420.726	518.88
420.948	531.88
421.171	536.88
421.394	572.88
421.617	523.88
421.839	504.88
422.062	512.88
422.285	535.88
422.507	540.88
422.73	597.88
422.953	586.88
423.175	556.88
423.398	534.88
423.621	543.88
423.843	547.88
424.066	559.88
424.288	522.88
424.511	553.88
424.733	564.88
424.956	614.88
425.178	615.88
425.401	587.88
425.623	614.88
425.846	546.88
426.068	532.88
426.291	531.88
426.513	501.88
426.735	528.88
426.958	568.88
427.18	582.88
427.402	685.88
427.625	750.88
427.847	635.88
428.069	558.88
428.292	520.88
428.514	525.88
428.736	509.88
428.958	507.88
429.181	504.88
429.403	462.88
429.625	507.88
429.847	531.88
430.069	534.88
430.292	544.88
430.514	487.88
430.736	477.88
430.958	477.88
431.18	464.88
431.402	477.88
431.624	450.88
431.846	462.88
432.068	489.88
432.29	500.88
432.512	486.88
432.734	465.88
432.956	458.88
433.178	512.88
433.4	498.88
433.622	502.88
433.844	474.88
434.066	482.88
434.287	495.88
434.509	489.88
434.731	512.88
434.953	509.88
435.175	531.88
435.397	544.88
435.618	529.88
435.84	551.88
436.062	603.88
436.284	657.88
436.505	560.88
436.727	512.88
436.949	492.88
437.17	514.88
437.392	495.88
437.614	482.88
437.835	500.88
438.057	564.88
438.278	621.88
438.5	615.88
438.721	675.88
438.943	672.88
439.165	553.88
439.386	520.88
439.608	487.88
439.829	497.88
440.05	524.88
440.272	555.88
440.493	523.88
440.715	494.88
440.936	482.88
441.158	519.88
441.379	512.88
441.6	512.88
441.822	513.88
442.043	552.88
442.264	590.88
442.486	615.88
442.707	559.88
442.928	512.88
443.149	560.88
443.371	518.88
443.592	578.88
443.813	631.88
444.034	677.88
444.255	609.88
444.476	554.88
444.698	550.88
444.919	566.88
445.14	698.88
445.361	635.88
445.582	570.88
445.803	586.88
446.024	624.88
446.245	626.88
446.466	599.88
446.687	544.88
446.908	487.88
447.129	482.88
447.35	496.88
447.571	497.88
447.792	486.88
448.013	496.88
448.234	474.88
448.455	506.88
448.675	565.88
448.896	673.88
449.117	576.88
449.338	564.88
449.559	634.88
449.779	682.88
450	581.88
450.221	504.88
450.442	465.88
450.662	450.88
450.883	439.88
451.104	497.88
451.324	456.88
451.545	430.88
451.766	442.88
451.986	447.88
452.207	435.88
452.428	431.88
452.648	420.88
452.869	435.88
453.089	438.88
453.31	452.88
453.53	428.88
453.751	433.88
453.971	430.88
454.192	433.88
454.412	417.88
454.633	416.88
454.853	420.88
455.073	418.88
455.294	439.88
455.514	488.88
455.734	475.88
455.955	406.88
456.175	411.88
456.395	408.88
456.616	412.88
456.836	410.88
457.056	415.88
457.276	404.88
457.497	428.88
457.717	441.88
457.937	412.88
458.157	418.88
458.377	446.88
458.598	452.88
458.818	471.88
459.038	513.88
459.258	552.88
459.478	521.88
459.698	471.88
459.918	471.88
460.138	468.88
460.358	508.88
460.578	515.88
460.798	522.88
461.018	524.88
461.238	524.88
461.458	527.88
461.678	512.88
461.898	528.88
462.118	537.88
462.338	539.88
462.558	560.88
462.777	555.88
462.997	580.88
463.217	594.88
463.437	622.88
463.657	573.88
463.876	564.88
464.096	579.88
464.316	558.88
464.536	570.88
464.755	566.88
464.975	547.88
465.195	545.88
465.414	549.88
465.634	499.88
465.854	481.88
466.073	486.88
466.293	461.88
466.512	452.88
466.732	466.88
466.951	448.88
467.171	468.88
467.391	478.88
467.61	477.88
467.829	467.88
468.049	492.88
468.268	455.88
468.488	478.88
468.707	429.88
468.927	442.88
469.146	446.88
469.365	456.88
469.585	455.88
469.804	454.88
470.023	453.88
470.243	473.88
470.462	478.88
470.681	473.88
470.901	469.88
471.12	460.88
471.339	485.88
471.558	464.88
471.777	458.88
471.997	478.88
472.216	467.88
472.435	500.88
472.654	460.88
472.873	456.88
473.092	455.88
473.311	452.88
473.53	458.88
473.749	449.88
473.968	480.88
474.187	530.88
474.406	534.88
474.625	487.88
474.844	467.88
475.063	455.88
475.282	450.88
475.501	467.88
475.72	458.88
475.939	487.88
476.158	481.88
476.377	473.88
476.596	473.88
476.814	470.88
477.033	471.88
477.252	491.88
477.471	482.88
477.69	486.88
477.908	502.88
478.127	522.88
478.346	543.88
478.564	544.88
478.783	535.88
479.002	552.88
479.22	543.88
479.439	546.88
479.658	552.88
479.876	543.88
480.095	550.88
480.313	572.88
480.532	571.88
480.751	578.88
480.969	588.88
481.188	578.88
481.406	590.88
481.624	562.88
481.843	559.88
482.061	554.88
482.28	553.88
482.498	523.88
482.717	515.88
482.935	528.88
483.153	523.88
483.372	536.88
483.59	549.88
483.808	532.88
484.027	532.88
484.245	554.88
484.463	523.88
484.681	532.88
484.9	562.88
485.118	538.88
485.336	536.88
485.554	539.88
485.772	537.88
485.99	552.88
486.209	551.88
486.427	565.88
486.645	560.88
486.863	572.88
487.081	554.88
487.299	565.88
487.517	557.88
487.735	555.88
487.953	570.88
488.171	548.88
488.389	555.88
488.607	562.88
488.825	548.88
489.043	563.88
489.261	581.88
489.479	564.88
489.696	588.88
489.914	577.88
490.132	555.88
490.35	587.88
490.568	586.88
490.786	584.88
491.003	566.88
491.221	578.88
491.439	603.88
491.657	594.88
491.874	634.88
492.092	603.88
492.31	598.88
492.527	602.88
492.745	612.88
492.963	616.88
493.18	625.88
493.398	629.88
493.615	622.88
493.833	623.88
494.05	611.88
494.268	620.88
494.485	640.88
494.703	638.88
494.92	610.88
495.138	636.88
495.355	616.88
495.573	640.88
495.79	641.88
496.008	645.88
496.225	656.88
496.442	648.88
496.66	645.88
496.877	666.88
497.094	664.88
497.312	646.88
497.529	670.88
497.746	692.88
497.963	697.88
498.181	735.88
498.398	738.88
498.615	748.88
498.832	784.88
499.049	822.88
499.267	862.88
499.484	901.88
499.701	961.88
499.918	1005.88
500.135	1072.88
500.352	1185.88
500.569	1193.88
500.786	1152.88
501.003	1142.88
501.22	1083.88
501.437	1042.88
501.654	964.88
501.871	930.88
502.088	881.88
502.305	850.88
502.522	822.88
502.739	790.88
502.956	754.88
503.172	717.88
503.389	715.88
503.606	703.88
503.823	704.88
504.04	698.88
504.256	692.88
504.473	688.88
504.69	681.88
504.907	688.88
505.123	664.88
505.34	643.88
505.557	629.88
505.773	622.88
505.99	631.88
506.207	618.88
506.423	616.88
506.64	604.88
506.856	593.88
507.073	584.88
507.289	592.88
507.506	576.88
507.722	579.88
507.939	571.88
508.155	568.88
508.372	557.88
508.588	547.88
508.805	547.88
509.021	582.88
509.238	580.88
509.454	570.88
509.67	551.88
509.887	570.88
510.103	570.88
510.319	564.88
510.536	611.88
510.752	768.88
510.968	671.88
511.184	547.88
511.401	529.88
511.617	549.88
511.833	535.88
512.049	524.88
512.265	549.88
512.481	550.88
512.698	527.88
512.914	544.88
513.13	529.88
513.346	528.88
513.562	540.88
513.778	532.88
513.994	539.88
514.21	513.88
514.426	552.88
514.642	587.88
514.858	579.88
515.074	615.88
515.29	607.88
515.506	741.88
515.721	690.88
515.937	595.88
516.153	570.88
516.369	576.88
516.585	623.88
516.801	572.88
517.016	602.88
517.232	592.88
517.448	604.88
517.664	589.88
517.879	629.88
518.095	611.88
518.311	611.88
518.527	586.88
518.742	597.88
518.958	594.88
519.173	560.88
519.389	553.88
519.605	555.88
519.82	532.88
520.036	578.88
520.251	562.88
520.467	543.88
520.682	531.88
520.898	535.88
521.113	546.88
521.329	558.88
521.544	593.88
521.76	630.88
521.975	849.88
522.19	849.88
522.406	599.88
522.621	533.88
522.836	518.88
523.052	519.88
523.267	507.88
523.482	494.88
523.698	483.88
523.913	488.88
524.128	501.88
524.343	490.88
524.559	497.88
524.774	467.88
524.989	460.88
525.204	470.88
525.419	472.88
525.634	446.88
525.849	487.88
526.064	476.88
526.28	446.88
526.495	476.88
526.71	454.88
526.925	464.88
527.14	476.88
527.355	471.88
527.57	452.88
527.785	457.88
527.999	466.88
528.214	485.88
528.429	451.88
528.644	440.88
528.859	439.88
529.074	443.88
529.289	476.88
529.503	489.88
529.718	491.88
529.933	457.88
530.148	455.88
530.363	443.88
530.577	450.88
530.792	480.88
531.007	466.88
531.221	463.88
531.436	452.88
531.651	464.88
531.865	460.88
532.08	459.88
532.295	441.88
532.509	433.88
532.724	455.88
532.938	454.88
533.153	451.88
533.367	439.88
533.582	447.88
533.796	443.88
534.011	447.88
534.225	439.88
534.44	446.88
534.654	449.88
534.868	438.88
535.083	444.88
535.297	453.88
535.511	450.88
535.726	452.88
535.94	442.88
536.154	447.88
536.369	448.88
536.583	438.88
536.797	436.88
537.011	447.88
537.225	422.88
537.44	444.88
537.654	443.88
537.868	427.88
538.082	430.88
538.296	406.88
538.51	416.88
538.724	425.88
538.938	408.88
539.153	419.88
539.367	449.88
539.581	444.88
539.795	436.88
540.009	443.88
540.222	402.88
540.436	435.88
540.65	420.88
540.864	412.88
541.078	417.88
541.292	419.88
541.506	422.88
541.72	440.88
541.934	419.88
542.147	441.88
542.361	418.88
542.575	426.88
542.789	433.88
543.002	398.88
543.216	427.88
543.43	423.88
543.644	423.88
543.857	416.88
544.071	414.88
544.285	455.88
544.498	407.88
544.712	423.88
544.925	410.88
545.139	416.88
545.352	423.88
545.566	439.88
545.779	438.88
545.993	417.88
546.206	427.88
546.42	436.88
546.633	433.88
546.847	433.88
547.06	415.88
547.274	398.88
547.487	410.88
547.7	439.88
547.914	413.88
548.127	426.88
548.34	417.88
548.554	432.88
548.767	438.88
548.98	440.88
549.193	425.88
549.407	422.88
549.62	414.88
549.833	412.88
550.046	425.88
550.259	455.88
550.473	426.88
550.686	400.88
550.899	423.88
551.112	407.88
551.325	415.88
551.538	423.88
551.751	407.88
551.964	418.88
552.177	413.88
552.39	430.88
552.603	444.88
552.816	424.88
553.029	443.88
553.242	441.88
553.455	439.88
553.667	465.88
553.88	439.88
554.093	435.88
554.306	437.88
554.519	432.88
554.732	414.88
554.944	417.88
555.157	427.88
555.37	400.88
555.583	403.88
555.795	396.88
556.008	415.88
556.221	408.88
556.433	380.88
556.646	396.88
556.859	387.88
557.071	385.88
557.284	399.88
557.496	392.88
557.709	378.88
557.921	394.88
558.134	383.88
558.346	388.88
558.559	377.88
558.771	378.88
558.984	351.88
559.196	358.88
559.409	386.88
559.621	378.88
559.833	370.88
560.046	361.88
560.258	378.88
560.47	374.88
560.683	377.88
560.895	374.88
561.107	375.88
561.32	366.88
561.532	367.88
561.744	386.88
561.956	380.88
562.168	375.88
562.381	381.88
562.593	372.88
562.805	379.88
563.017	373.88
563.229	378.88
563.441	389.88
563.653	402.88
563.865	372.88
564.077	377.88
564.289	377.88
564.501	373.88
564.713	396.88
564.925	390.88
565.137	395.88
565.349	425.88
565.561	407.88
565.773	439.88
565.985	463.88
566.197	464.88
566.408	481.88
566.62	485.88
566.832	519.88
567.044	540.88
567.255	538.88
567.467	524.88
567.679	542.88
567.891	562.88
568.102	558.88
568.314	582.88
568.526	516.88
568.737	489.88
568.949	477.88
569.161	458.88
569.372	431.88
569.584	406.88
569.795	394.88
570.007	394.88
570.218	427.88
570.43	388.88
570.641	389.88
570.853	384.88
571.064	379.88
571.276	382.88
571.487	382.88
571.698	386.88
571.91	362.88
572.121	370.88
572.333	347.88
572.544	357.88
572.755	351.88
572.966	349.88
573.178	340.88
573.389	337.88
573.6	351.88
573.811	349.88
574.023	337.88
574.234	332.88
574.445	327.88
574.656	323.88
574.867	324.88
575.078	330.88
575.289	339.88
575.501	332.88
575.712	327.88
575.923	334.88
576.134	302.88
576.345	311.88
576.556	304.88
576.767	319.88
576.978	329.88
577.188	306.88
577.399	327.88
577.61	312.88
577.821	303.88
578.032	309.88
578.243	327.88
578.454	427.88
578.665	347.88
578.875	307.88
579.086	295.88
579.297	314.88
579.508	294.88
579.718	292.88
579.929	299.88
580.14	280.88
580.35	306.88
580.561	314.88
580.772	299.88
580.982	300.88
581.193	305.88
581.403	302.88
581.614	296.88
581.825	307.88
582.035	298.88
582.246	304.88
582.456	304.88
582.667	283.88
582.877	312.88
583.087	299.88
583.298	287.88
583.508	308.88
583.719	288.88
583.929	292.88
584.139	288.88
584.35	284.88
584.56	286.88
584.77	282.88
584.981	304.88
585.191	286.88
585.401	296.88
585.611	288.88
585.821	290.88
586.032	302.88
586.242	276.88
586.452	276.88
586.662	311.88
586.872	274.88
587.082	289.88
587.292	294.88
587.502	288.88
587.713	290.88
587.923	286.88
588.133	306.88
588.343	289.88
588.553	278.88
588.762	291.88
588.972	319.88
589.182	357.88
589.392	370.88
589.602	294.88
589.812	349.88
590.022	309.88
590.232	293.88
590.441	287.88
590.651	286.88
590.861	284.88
591.071	267.88
591.281	296.88
591.49	310.88
591.7	311.88
591.91	299.88
592.119	285.88
592.329	300.88
592.539	310.88
592.748	305.88
592.958	334.88
593.167	346.88
593.377	340.88
593.587	342.88
593.796	327.88
594.006	345.88
594.215	340.88
594.424	335.88
594.634	303.88
594.843	311.88
595.053	324.88
595.262	330.88
595.472	314.88
595.681	282.88
595.89	289.88
596.1	282.88
596.309	300.88
596.518	284.88
596.727	274.88
596.937	297.88
597.146	287.88
597.355	266.88
597.564	263.88
597.774	275.88
597.983	265.88
598.192	254.88
598.401	262.88
598.61	258.88
598.819	253.88
599.028	262.88
599.237	257.88
599.446	275.88
599.655	260.88
599.864	266.88
600.073	249.88
600.282	254.88
600.491	254.88
600.7	255.88
600.909	250.88
601.118	241.88
601.327	229.88
601.536	244.88
601.745	263.88
601.953	253.88
602.162	257.88
602.371	254.88
602.58	233.88
602.789	237.88
602.997	238.88
603.206	248.88
603.415	252.88
603.623	239.88
603.832	241.88
604.041	242.88
604.249	223.88
604.458	234.88
604.666	250.88
604.875	227.88
605.084	249.88
605.292	226.88
605.501	248.88
605.709	236.88
605.918	236.88
606.126	258.88
606.334	231.88
606.543	235.88
606.751	228.88
606.96	236.88
607.168	232.88
607.376	241.88
607.585	243.88
607.793	229.88
608.001	240.88
608.21	224.88
608.418	233.88
608.626	206.88
608.834	209.88
609.043	216.88
609.251	224.88
609.459	227.88
609.667	246.88
609.875	215.88
610.083	240.88
610.291	238.88
610.499	220.88
610.707	248.88
610.916	224.88
611.124	234.88
611.332	227.88
611.54	234.88
611.748	230.88
611.955	242.88
612.163	231.88
612.371	221.88
612.579	221.88
612.787	215.88
612.995	225.88
613.203	233.88
613.411	227.88
613.618	260.88
613.826	230.88
614.034	227.88
614.242	225.88
614.449	241.88
614.657	219.88
614.865	238.88
615.072	237.88
615.28	212.88
615.488	220.88
615.695	239.88
615.903	215.88
616.111	225.88
616.318	241.88
616.526	238.88
616.733	225.88
616.941	221.88
617.148	224.88
617.356	217.88
617.563	212.88
617.771	217.88
617.978	228.88
618.185	221.88
618.393	216.88
618.6	211.88
618.807	226.88
619.015	211.88
619.222	207.88
619.429	209.88
619.637	218.88
619.844	217.88
620.051	210.88
620.258	212.88
620.466	209.88
620.673	206.88
620.88	198.88
621.087	198.88
621.294	211.88
621.501	211.88
621.708	206.88
621.915	207.88
622.122	229.88
622.329	208.88
622.536	218.88
622.743	198.88
622.95	211.88
623.157	202.88
623.364	202.88
623.571	214.88
623.778	221.88
623.985	204.88
624.192	195.88
624.399	222.88
624.606	202.88
624.812	207.88
625.019	229.88
625.226	206.88
625.433	207.88
625.639	187.88
625.846	199.88
626.053	213.88
626.259	182.88
626.466	217.88
626.673	210.88
626.879	217.88
627.086	197.88
627.293	199.88
627.499	198.88
627.706	210.88
627.912	196.88
628.119	186.88
628.325	182.88
628.532	197.88
628.738	209.88
628.945	192.88
629.151	196.88
629.357	186.88
629.564	191.88
629.77	187.88
629.976	193.88
630.183	186.88
630.389	187.88
630.595	185.88
630.802	183.88
631.008	207.88
631.214	178.88
631.42	184.88
631.627	190.88
631.833	199.88
632.039	182.88
632.245	186.88
632.451	177.88
632.657	164.88
632.863	195.88
633.069	180.88
633.275	186.88
633.481	198.88
633.688	177.88
633.893	181.88
634.099	180.88
634.305	187.88
634.511	167.88
634.717	190.88
634.923	188.88
635.129	178.88
635.335	167.88
635.541	180.88
635.747	174.88
635.952	184.88
636.158	177.88
636.364	180.88
636.57	187.88
636.775	191.88
636.981	182.88
637.187	183.88
637.392	178.88
637.598	154.88
637.804	181.88
638.009	171.88
638.215	187.88
638.421	170.88
638.626	169.88
638.832	171.88
639.037	163.88
639.243	174.88
639.448	172.88
639.654	178.88
639.859	152.88
640.065	159.88
640.27	177.88
640.475	154.88
640.681	169.88
640.886	160.88
641.091	173.88
641.297	166.88
641.502	171.88
641.707	159.88
641.913	175.88
642.118	167.88
642.323	175.88
642.528	166.88
642.733	158.88
642.939	169.88
643.144	178.88
643.349	163.88
643.554	158.88
643.759	160.88
643.964	154.88
644.169	167.88
644.374	160.88
644.579	156.88
644.784	158.88
644.989	167.88
645.194	164.88
645.399	160.88
645.604	166.88
645.809	179.88
646.014	165.88
646.219	158.88
646.423	161.88
646.628	176.88
646.833	172.88
647.038	168.88
647.243	159.88
647.447	166.88
647.652	169.88
647.857	171.88
648.062	172.88
648.266	169.88
648.471	176.88
648.676	167.88
648.88	170.88
649.085	163.88
649.289	176.88
649.494	160.88
649.698	174.88
649.903	174.88
650.107	147.88
650.312	178.88
650.516	148.88
650.721	149.88
650.925	166.88
651.13	146.88
651.334	171.88
651.539	144.88
651.743	150.88
651.947	147.88
652.152	134.88
652.356	138.88
652.56	144.88
652.764	146.88
652.969	127.88
653.173	118.88
653.377	150.88
653.581	147.88
653.785	127.88
653.99	138.88
654.194	146.88
654.398	142.88
654.602	140.88
654.806	143.88
655.01	153.88
655.214	139.88
655.418	121.88
655.622	132.88
655.826	128.88
656.03	134.88
656.234	146.88
656.438	149.88
656.642	134.88
656.846	144.88
657.049	131.88
657.253	142.88
657.457	135.88
657.661	124.88
657.865	119.88
658.068	121.88
658.272	119.88
658.476	109.88
658.68	106.88
658.883	113.88
659.087	112.88
659.291	108.88
659.494	96.88
659.698	110.88
659.901	91.88
660.105	87.88
660.309	91.88
660.512	92.88
660.716	99.88
660.919	104.88
661.123	86.88
661.326	84.88
661.53	96.88
661.733	86.88
661.936	91.88
662.14	90.88
662.343	80.88
662.546	89.88
662.75	99.88
662.953	80.88
663.156	90.88
663.36	93.88
663.563	83.88
663.766	85.88
663.969	70.88
664.173	82.88
664.376	88.88
664.579	84.88
664.782	91.88
664.985	83.88
665.188	76.88
665.391	89.88
665.594	73.88
665.797	77.88
666	63.88
666.203	73.88
666.406	90.88
666.609	80.88
666.812	88.88
667.015	70.88
667.218	74.88
667.421	71.88
667.624	68.88
667.827	78.88
668.03	71.88
668.232	81.88
668.435	85.88
668.638	74.88
668.841	86.88
669.043	79.88
669.246	81.88
669.449	71.88
669.651	88.88
669.854	79.88
670.057	68.88
670.259	63.88
670.462	79.88
670.665	76.88
670.867	87.88
671.07	91.88
671.272	78.88
671.475	89.88
671.677	73.88
671.88	71.88
672.082	86.88
672.284	81.88
672.487	83.88
672.689	80.88
672.892	67.88
