Data from 1962.PennyLincolnUp.Lamp.En5.5.200Scan.071719.P1._HRD10591_13-55-28-061.txt Node
Date: Thu Jul 18 13:55:28 EDT 2019
User: cochatt
Spectrometer: HR+D1059
Trigger mode: 1
Integration Time (sec): 1.000000E-1
Scans to average: 1
Electric dark correction enabled: true
Nonlinearity correction enabled: false
Boxcar width: 0
XAxis mode: Wavelengths
Number of Pixels in Spectrum: 2048
>>>>>Begin Spectral Data<<<<<
223.165	-17.94
223.4	-17.94
223.635	-17.94
223.869	-29.94
224.104	-10.94
224.338	-15.94
224.573	-4.94
224.808	-8.94
225.042	-3.94
225.277	-2.94
225.511	-12.94
225.746	9.06
225.98	11.06
226.215	12.06
226.449	8.06
226.683	31.06
226.918	14.06
227.152	23.06
227.387	30.06
227.621	35.06
227.856	59.06
228.09	50.06
228.324	48.06
228.559	47.06
228.793	64.06
229.027	74.06
229.262	96.06
229.496	104.06
229.73	117.06
229.964	130.06
230.199	106.06
230.433	100.06
230.667	126.06
230.901	105.06
231.136	102.06
231.37	118.06
231.604	109.06
231.838	112.06
232.072	104.06
232.306	112.06
232.541	122.06
232.775	117.06
233.009	112.06
233.243	100.06
233.477	98.06
233.711	109.06
233.945	93.06
234.179	99.06
234.413	112.06
234.647	112.06
234.881	112.06
235.115	123.06
235.349	122.06
235.583	122.06
235.817	118.06
236.051	117.06
236.285	129.06
236.519	136.06
236.753	120.06
236.987	128.06
237.221	160.06
237.455	172.06
237.689	164.06
237.922	141.06
238.156	126.06
238.39	131.06
238.624	112.06
238.858	136.06
239.091	125.06
239.325	123.06
239.559	129.06
239.793	125.06
240.027	128.06
240.26	140.06
240.494	144.06
240.728	139.06
240.961	143.06
241.195	140.06
241.429	132.06
241.662	122.06
241.896	136.06
242.13	133.06
242.363	129.06
242.597	116.06
242.83	132.06
243.064	137.06
243.298	124.06
243.531	137.06
243.765	120.06
243.998	129.06
244.232	126.06
244.465	132.06
244.699	139.06
244.932	140.06
245.166	136.06
245.399	129.06
245.633	134.06
245.866	140.06
246.099	140.06
246.333	140.06
246.566	143.06
246.8	154.06
247.033	152.06
247.266	147.06
247.5	136.06
247.733	149.06
247.966	123.06
248.2	154.06
248.433	166.06
248.666	169.06
248.899	172.06
249.133	177.06
249.366	184.06
249.599	194.06
249.832	174.06
250.066	165.06
250.299	172.06
250.532	163.06
250.765	200.06
250.998	185.06
251.231	192.06
251.465	188.06
251.698	180.06
251.931	169.06
252.164	162.06
252.397	182.06
252.63	182.06
252.863	182.06
253.096	184.06
253.329	192.06
253.562	197.06
253.795	205.06
254.028	209.06
254.261	200.06
254.494	196.06
254.727	220.06
254.96	249.06
255.193	247.06
255.426	209.06
255.659	200.06
255.892	199.06
256.124	212.06
256.357	214.06
256.59	210.06
256.823	210.06
257.056	190.06
257.289	194.06
257.521	184.06
257.754	196.06
257.987	181.06
258.22	187.06
258.452	189.06
258.685	190.06
258.918	184.06
259.151	209.06
259.383	200.06
259.616	208.06
259.849	200.06
260.081	221.06
260.314	232.06
260.547	218.06
260.779	212.06
261.012	224.06
261.244	205.06
261.477	203.06
261.71	210.06
261.942	213.06
262.175	202.06
262.407	203.06
262.64	196.06
262.872	218.06
263.105	215.06
263.337	218.06
263.57	196.06
263.802	225.06
264.035	210.06
264.267	208.06
264.499	199.06
264.732	197.06
264.964	206.06
265.197	217.06
265.429	218.06
265.661	194.06
265.894	213.06
266.126	206.06
266.358	213.06
266.591	217.06
266.823	225.06
267.055	230.06
267.287	232.06
267.52	231.06
267.752	226.06
267.984	218.06
268.216	228.06
268.448	228.06
268.681	235.06
268.913	249.06
269.145	249.06
269.377	270.06
269.609	244.06
269.841	266.06
270.073	251.06
270.306	262.06
270.538	282.06
270.77	295.06
271.002	274.06
271.234	289.06
271.466	264.06
271.698	279.06
271.93	308.06
272.162	292.06
272.394	278.06
272.626	276.06
272.858	259.06
273.09	249.06
273.322	250.06
273.553	256.06
273.785	263.06
274.017	243.06
274.249	264.06
274.481	247.06
274.713	250.06
274.945	254.06
275.176	260.06
275.408	264.06
275.64	245.06
275.872	280.06
276.104	256.06
276.335	261.06
276.567	249.06
276.799	276.06
277.031	298.06
277.262	296.06
277.494	307.06
277.726	294.06
277.957	289.06
278.189	278.06
278.421	269.06
278.652	249.06
278.884	259.06
279.115	276.06
279.347	249.06
279.579	256.06
279.81	263.06
280.042	264.06
280.273	278.06
280.505	274.06
280.736	274.06
280.968	258.06
281.199	284.06
281.431	249.06
281.662	278.06
281.894	258.06
282.125	255.06
282.356	290.06
282.588	274.06
282.819	293.06
283.051	280.06
283.282	276.06
283.513	270.06
283.745	270.06
283.976	297.06
284.207	285.06
284.439	283.06
284.67	278.06
284.901	273.06
285.132	287.06
285.364	279.06
285.595	284.06
285.826	286.06
286.057	284.06
286.288	277.06
286.52	307.06
286.751	286.06
286.982	281.06
287.213	274.06
287.444	270.06
287.675	290.06
287.906	306.06
288.138	285.06
288.369	304.06
288.6	297.06
288.831	284.06
289.062	285.06
289.293	302.06
289.524	309.06
289.755	280.06
289.986	301.06
290.217	298.06
290.448	315.06
290.679	299.06
290.91	286.06
291.141	308.06
291.371	291.06
291.602	312.06
291.833	286.06
292.064	307.06
292.295	284.06
292.526	305.06
292.757	296.06
292.987	299.06
293.218	305.06
293.449	288.06
293.68	301.06
293.91	307.06
294.141	293.06
294.372	274.06
294.603	290.06
294.833	315.06
295.064	288.06
295.295	292.06
295.525	306.06
295.756	316.06
295.987	279.06
296.217	339.06
296.448	327.06
296.679	314.06
296.909	316.06
297.14	309.06
297.37	324.06
297.601	302.06
297.831	318.06
298.062	303.06
298.292	299.06
298.523	308.06
298.753	325.06
298.984	334.06
299.214	307.06
299.445	322.06
299.675	298.06
299.905	324.06
300.136	319.06
300.366	302.06
300.597	322.06
300.827	327.06
301.057	334.06
301.288	332.06
301.518	344.06
301.748	324.06
301.979	332.06
302.209	329.06
302.439	333.06
302.669	340.06
302.9	340.06
303.13	329.06
303.36	327.06
303.59	323.06
303.82	329.06
304.051	345.06
304.281	348.06
304.511	324.06
304.741	330.06
304.971	308.06
305.201	315.06
305.431	335.06
305.661	330.06
305.891	325.06
306.121	342.06
306.352	319.06
306.582	340.06
306.812	326.06
307.042	340.06
307.272	355.06
307.502	326.06
307.731	328.06
307.961	323.06
308.191	329.06
308.421	337.06
308.651	328.06
308.881	348.06
309.111	341.06
309.341	365.06
309.571	365.06
309.8	359.06
310.03	363.06
310.26	352.06
310.49	358.06
310.72	381.06
310.949	375.06
311.179	379.06
311.409	374.06
311.639	375.06
311.868	347.06
312.098	372.06
312.328	354.06
312.557	374.06
312.787	379.06
313.017	373.06
313.246	361.06
313.476	359.06
313.706	363.06
313.935	360.06
314.165	404.06
314.394	393.06
314.624	370.06
314.853	387.06
315.083	364.06
315.312	373.06
315.542	363.06
315.771	363.06
316.001	375.06
316.23	370.06
316.46	358.06
316.689	377.06
316.919	373.06
317.148	374.06
317.377	389.06
317.607	370.06
317.836	381.06
318.065	376.06
318.295	348.06
318.524	374.06
318.753	388.06
318.983	377.06
319.212	365.06
319.441	370.06
319.67	372.06
319.9	361.06
320.129	373.06
320.358	366.06
320.587	392.06
320.816	372.06
321.046	373.06
321.275	355.06
321.504	375.06
321.733	386.06
321.962	406.06
322.191	385.06
322.42	410.06
322.649	394.06
322.878	422.06
323.108	429.06
323.337	447.06
323.566	441.06
323.795	454.06
324.024	484.06
324.253	539.06
324.482	732.06
324.71	1070.06
324.939	1517.06
325.168	1345.06
325.397	740.06
325.626	531.06
325.855	501.06
326.084	465.06
326.313	444.06
326.542	462.06
326.77	496.06
326.999	566.06
327.228	680.06
327.457	968.06
327.686	1182.06
327.914	860.06
328.143	593.06
328.372	518.06
328.6	506.06
328.829	494.06
329.058	489.06
329.287	498.06
329.515	466.06
329.744	457.06
329.972	462.06
330.201	469.06
330.43	474.06
330.658	505.06
330.887	529.06
331.115	521.06
331.344	462.06
331.572	461.06
331.801	477.06
332.03	462.06
332.258	443.06
332.486	449.06
332.715	448.06
332.943	455.06
333.172	468.06
333.4	453.06
333.629	467.06
333.857	484.06
334.085	474.06
334.314	501.06
334.542	515.06
334.771	522.06
334.999	508.06
335.227	489.06
335.455	459.06
335.684	462.06
335.912	466.06
336.14	486.06
336.369	461.06
336.597	431.06
336.825	442.06
337.053	473.06
337.281	452.06
337.51	444.06
337.738	448.06
337.966	450.06
338.194	429.06
338.422	428.06
338.65	433.06
338.878	453.06
339.106	440.06
339.334	425.06
339.562	422.06
339.79	436.06
340.018	436.06
340.246	441.06
340.474	436.06
340.702	453.06
340.93	404.06
341.158	429.06
341.386	433.06
341.614	418.06
341.842	436.06
342.07	417.06
342.298	438.06
342.526	418.06
342.754	406.06
342.981	425.06
343.209	411.06
343.437	436.06
343.665	438.06
343.893	437.06
344.12	446.06
344.348	461.06
344.576	445.06
344.804	436.06
345.031	451.06
345.259	451.06
345.487	434.06
345.714	418.06
345.942	401.06
346.17	416.06
346.397	424.06
346.625	384.06
346.853	421.06
347.08	433.06
347.308	416.06
347.535	416.06
347.763	403.06
347.99	399.06
348.218	413.06
348.445	422.06
348.673	398.06
348.9	404.06
349.128	408.06
349.355	378.06
349.583	392.06
349.81	386.06
350.037	398.06
350.265	390.06
350.492	399.06
350.72	401.06
350.947	405.06
351.174	392.06
351.402	412.06
351.629	402.06
351.856	398.06
352.083	413.06
352.311	406.06
352.538	376.06
352.765	414.06
352.992	414.06
353.22	398.06
353.447	401.06
353.674	388.06
353.901	432.06
354.128	421.06
354.355	388.06
354.583	400.06
354.81	401.06
355.037	412.06
355.264	392.06
355.491	362.06
355.718	386.06
355.945	382.06
356.172	370.06
356.399	376.06
356.626	395.06
356.853	380.06
357.08	394.06
357.307	387.06
357.534	391.06
357.761	380.06
357.988	402.06
358.215	374.06
358.441	368.06
358.668	394.06
358.895	398.06
359.122	382.06
359.349	380.06
359.576	397.06
359.802	422.06
360.029	429.06
360.256	437.06
360.483	422.06
360.709	401.06
360.936	406.06
361.163	405.06
361.39	387.06
361.616	387.06
361.843	397.06
362.07	393.06
362.296	410.06
362.523	401.06
362.749	386.06
362.976	397.06
363.203	394.06
363.429	395.06
363.656	386.06
363.882	380.06
364.109	420.06
364.335	405.06
364.562	389.06
364.788	377.06
365.015	394.06
365.241	403.06
365.468	378.06
365.694	380.06
365.92	406.06
366.147	414.06
366.373	396.06
366.599	408.06
366.826	385.06
367.052	392.06
367.278	381.06
367.505	400.06
367.731	391.06
367.957	406.06
368.184	400.06
368.41	399.06
368.636	403.06
368.862	420.06
369.089	407.06
369.315	401.06
369.541	390.06
369.767	401.06
369.993	397.06
370.219	373.06
370.445	405.06
370.672	374.06
370.898	389.06
371.124	373.06
371.35	377.06
371.576	408.06
371.802	409.06
372.028	396.06
372.254	422.06
372.48	424.06
372.706	394.06
372.932	398.06
373.158	428.06
373.384	404.06
373.61	411.06
373.835	408.06
374.061	374.06
374.287	392.06
374.513	397.06
374.739	433.06
374.965	423.06
375.191	410.06
375.416	418.06
375.642	417.06
375.868	411.06
376.094	395.06
376.319	417.06
376.545	415.06
376.771	418.06
376.997	396.06
377.222	395.06
377.448	394.06
377.674	406.06
377.899	405.06
378.125	396.06
378.35	424.06
378.576	395.06
378.802	408.06
379.027	407.06
379.253	392.06
379.478	401.06
379.704	397.06
379.929	393.06
380.155	393.06
380.38	398.06
380.606	392.06
380.831	408.06
381.057	402.06
381.282	403.06
381.507	407.06
381.733	413.06
381.958	420.06
382.184	394.06
382.409	409.06
382.634	411.06
382.86	414.06
383.085	413.06
383.31	432.06
383.535	426.06
383.761	415.06
383.986	428.06
384.211	441.06
384.436	449.06
384.662	461.06
384.887	451.06
385.112	449.06
385.337	449.06
385.562	460.06
385.787	454.06
386.013	469.06
386.238	454.06
386.463	480.06
386.688	469.06
386.913	442.06
387.138	454.06
387.363	469.06
387.588	450.06
387.813	457.06
388.038	457.06
388.263	462.06
388.488	475.06
388.713	454.06
388.938	451.06
389.163	448.06
389.387	472.06
389.612	460.06
389.837	450.06
390.062	448.06
390.287	471.06
390.512	450.06
390.736	467.06
390.961	442.06
391.186	462.06
391.411	471.06
391.636	471.06
391.86	500.06
392.085	489.06
392.31	488.06
392.534	485.06
392.759	484.06
392.984	461.06
393.208	453.06
393.433	461.06
393.658	483.06
393.882	466.06
394.107	467.06
394.331	466.06
394.556	473.06
394.78	467.06
395.005	460.06
395.229	490.06
395.454	471.06
395.678	496.06
395.903	487.06
396.127	500.06
396.352	488.06
396.576	478.06
396.801	483.06
397.025	473.06
397.249	484.06
397.474	489.06
397.698	492.06
397.922	523.06
398.147	528.06
398.371	512.06
398.595	528.06
398.82	527.06
399.044	579.06
399.268	599.06
399.492	614.06
399.717	701.06
399.941	690.06
400.165	702.06
400.389	661.06
400.613	605.06
400.837	566.06
401.062	552.06
401.286	554.06
401.51	536.06
401.734	551.06
401.958	536.06
402.182	573.06
402.406	559.06
402.63	560.06
402.854	545.06
403.078	536.06
403.302	558.06
403.526	567.06
403.75	574.06
403.974	573.06
404.198	576.06
404.422	576.06
404.645	586.06
404.869	589.06
405.093	602.06
405.317	637.06
405.541	666.06
405.765	586.06
405.988	601.06
406.212	596.06
406.436	606.06
406.66	598.06
406.883	585.06
407.107	626.06
407.331	661.06
407.555	704.06
407.778	736.06
408.002	668.06
408.226	630.06
408.449	620.06
408.673	613.06
408.896	629.06
409.12	651.06
409.344	617.06
409.567	583.06
409.791	592.06
410.014	550.06
410.238	550.06
410.461	545.06
410.685	561.06
410.908	586.06
411.132	575.06
411.355	614.06
411.578	633.06
411.802	573.06
412.025	547.06
412.249	570.06
412.472	580.06
412.695	598.06
412.919	606.06
413.142	566.06
413.365	562.06
413.589	563.06
413.812	529.06
414.035	529.06
414.258	543.06
414.482	536.06
414.705	531.06
414.928	518.06
415.151	546.06
415.374	530.06
415.597	558.06
415.821	500.06
416.044	502.06
416.267	541.06
416.49	520.06
416.713	521.06
416.936	546.06
417.159	513.06
417.382	536.06
417.605	529.06
417.828	527.06
418.051	551.06
418.274	550.06
418.497	529.06
418.72	530.06
418.943	529.06
419.166	544.06
419.389	587.06
419.611	577.06
419.834	552.06
420.057	570.06
420.28	551.06
420.503	549.06
420.726	548.06
420.948	562.06
421.171	554.06
421.394	600.06
421.617	539.06
421.839	548.06
422.062	537.06
422.285	555.06
422.507	598.06
422.73	663.06
422.953	636.06
423.175	576.06
423.398	574.06
423.621	562.06
423.843	596.06
424.066	575.06
424.288	561.06
424.511	599.06
424.733	630.06
424.956	700.06
425.178	663.06
425.401	672.06
425.623	677.06
425.846	614.06
426.068	563.06
426.291	554.06
426.513	538.06
426.735	563.06
426.958	611.06
427.18	658.06
427.402	726.06
427.625	823.06
427.847	712.06
428.069	629.06
428.292	579.06
428.514	548.06
428.736	534.06
428.958	541.06
429.181	505.06
429.403	520.06
429.625	509.06
429.847	537.06
430.069	591.06
430.292	576.06
430.514	540.06
430.736	517.06
430.958	533.06
431.18	482.06
431.402	518.06
431.624	493.06
431.846	478.06
432.068	524.06
432.29	514.06
432.512	487.06
432.734	506.06
432.956	502.06
433.178	508.06
433.4	516.06
433.622	505.06
433.844	485.06
434.066	488.06
434.287	494.06
434.509	506.06
434.731	534.06
434.953	550.06
435.175	542.06
435.397	572.06
435.618	585.06
435.84	583.06
436.062	641.06
436.284	693.06
436.505	617.06
436.727	554.06
436.949	549.06
437.17	524.06
437.392	516.06
437.614	522.06
437.835	525.06
438.057	608.06
438.278	665.06
438.5	718.06
438.721	758.06
438.943	713.06
439.165	585.06
439.386	556.06
439.608	558.06
439.829	535.06
440.05	565.06
440.272	595.06
440.493	566.06
440.715	543.06
440.936	514.06
441.158	556.06
441.379	545.06
441.6	546.06
441.822	564.06
442.043	580.06
442.264	636.06
442.486	686.06
442.707	587.06
442.928	571.06
443.149	559.06
443.371	567.06
443.592	621.06
443.813	702.06
444.034	738.06
444.255	635.06
444.476	609.06
444.698	601.06
444.919	610.06
445.14	712.06
445.361	653.06
445.582	602.06
445.803	640.06
446.024	700.06
446.245	704.06
446.466	659.06
446.687	600.06
446.908	538.06
447.129	532.06
447.35	522.06
447.571	504.06
447.792	488.06
448.013	504.06
448.234	534.06
448.455	547.06
448.675	638.06
448.896	748.06
449.117	638.06
449.338	613.06
449.559	679.06
449.779	759.06
450	614.06
450.221	534.06
450.442	505.06
450.662	497.06
450.883	500.06
451.104	497.06
451.324	510.06
451.545	478.06
451.766	465.06
451.986	448.06
452.207	469.06
452.428	463.06
452.648	441.06
452.869	470.06
453.089	437.06
453.31	465.06
453.53	470.06
453.751	481.06
453.971	477.06
454.192	474.06
454.412	461.06
454.633	452.06
454.853	456.06
455.073	454.06
455.294	472.06
455.514	508.06
455.734	509.06
455.955	458.06
456.175	461.06
456.395	452.06
456.616	453.06
456.836	442.06
457.056	429.06
457.276	416.06
457.497	420.06
457.717	428.06
457.937	451.06
458.157	434.06
458.377	470.06
458.598	462.06
458.818	493.06
459.038	573.06
459.258	597.06
459.478	533.06
459.698	499.06
459.918	523.06
460.138	493.06
460.358	524.06
460.578	530.06
460.798	530.06
461.018	531.06
461.238	547.06
461.458	534.06
461.678	546.06
461.898	563.06
462.118	534.06
462.338	556.06
462.558	572.06
462.777	588.06
462.997	591.06
463.217	636.06
463.437	643.06
463.657	625.06
463.876	585.06
464.096	583.06
464.316	586.06
464.536	594.06
464.755	581.06
464.975	556.06
465.195	568.06
465.414	598.06
465.634	561.06
465.854	545.06
466.073	521.06
466.293	485.06
466.512	486.06
466.732	472.06
466.951	480.06
467.171	475.06
467.391	487.06
467.61	504.06
467.829	490.06
468.049	475.06
468.268	482.06
468.488	458.06
468.707	473.06
468.927	460.06
469.146	480.06
469.365	471.06
469.585	462.06
469.804	469.06
470.023	486.06
470.243	488.06
470.462	471.06
470.681	498.06
470.901	516.06
471.12	493.06
471.339	478.06
471.558	476.06
471.777	474.06
471.997	493.06
472.216	474.06
472.435	490.06
472.654	483.06
472.873	477.06
473.092	462.06
473.311	478.06
473.53	485.06
473.749	478.06
473.968	519.06
474.187	580.06
474.406	610.06
474.625	542.06
474.844	504.06
475.063	484.06
475.282	498.06
475.501	492.06
475.72	503.06
475.939	468.06
476.158	482.06
476.377	507.06
476.596	491.06
476.814	512.06
477.033	488.06
477.252	501.06
477.471	513.06
477.69	529.06
477.908	501.06
478.127	534.06
478.346	550.06
478.564	558.06
478.783	564.06
479.002	544.06
479.22	572.06
479.439	560.06
479.658	572.06
479.876	587.06
480.095	590.06
480.313	641.06
480.532	612.06
480.751	587.06
480.969	622.06
481.188	637.06
481.406	646.06
481.624	606.06
481.843	566.06
482.061	587.06
482.28	562.06
482.498	570.06
482.717	561.06
482.935	556.06
483.153	558.06
483.372	546.06
483.59	598.06
483.808	581.06
484.027	580.06
484.245	550.06
484.463	550.06
484.681	550.06
484.9	569.06
485.118	570.06
485.336	577.06
485.554	576.06
485.772	574.06
485.99	569.06
486.209	584.06
486.427	580.06
486.645	568.06
486.863	564.06
487.081	578.06
487.299	584.06
487.517	584.06
487.735	598.06
487.953	589.06
488.171	606.06
488.389	579.06
488.607	578.06
488.825	579.06
489.043	570.06
489.261	591.06
489.479	606.06
489.696	609.06
489.914	604.06
490.132	604.06
490.35	618.06
490.568	590.06
490.786	616.06
491.003	632.06
491.221	635.06
491.439	633.06
491.657	655.06
491.874	636.06
492.092	644.06
492.31	660.06
492.527	664.06
492.745	676.06
492.963	666.06
493.18	672.06
493.398	673.06
493.615	662.06
493.833	682.06
494.05	673.06
494.268	664.06
494.485	660.06
494.703	661.06
494.92	674.06
495.138	677.06
495.355	678.06
495.573	684.06
495.79	677.06
496.008	667.06
496.225	700.06
496.442	708.06
496.66	694.06
496.877	683.06
497.094	731.06
497.312	717.06
497.529	716.06
497.746	748.06
497.963	732.06
498.181	778.06
498.398	798.06
498.615	835.06
498.832	836.06
499.049	864.06
499.267	926.06
499.484	931.06
499.701	992.06
499.918	1049.06
500.135	1097.06
500.352	1179.06
500.569	1237.06
500.786	1220.06
501.003	1190.06
501.22	1122.06
501.437	1068.06
501.654	998.06
501.871	980.06
502.088	949.06
502.305	868.06
502.522	849.06
502.739	836.06
502.956	774.06
503.172	754.06
503.389	762.06
503.606	747.06
503.823	735.06
504.04	731.06
504.256	744.06
504.473	715.06
504.69	698.06
504.907	722.06
505.123	691.06
505.34	676.06
505.557	658.06
505.773	664.06
505.99	667.06
506.207	654.06
506.423	645.06
506.64	635.06
506.856	631.06
507.073	630.06
507.289	640.06
507.506	623.06
507.722	604.06
507.939	620.06
508.155	601.06
508.372	607.06
508.588	592.06
508.805	612.06
509.021	588.06
509.238	598.06
509.454	605.06
509.67	605.06
509.887	612.06
510.103	613.06
510.319	585.06
510.536	650.06
510.752	907.06
510.968	779.06
511.184	591.06
511.401	578.06
511.617	576.06
511.833	562.06
512.049	571.06
512.265	567.06
512.481	576.06
512.698	557.06
512.914	565.06
513.13	573.06
513.346	567.06
513.562	567.06
513.778	571.06
513.994	574.06
514.21	588.06
514.426	592.06
514.642	588.06
514.858	634.06
515.074	622.06
515.29	699.06
515.506	859.06
515.721	786.06
515.937	640.06
516.153	618.06
516.369	629.06
516.585	614.06
516.801	584.06
517.016	616.06
517.232	679.06
517.448	654.06
517.664	642.06
517.879	649.06
518.095	645.06
518.311	654.06
518.527	631.06
518.742	632.06
518.958	617.06
519.173	619.06
519.389	620.06
519.605	602.06
519.82	579.06
520.036	586.06
520.251	581.06
520.467	591.06
520.682	600.06
520.898	571.06
521.113	590.06
521.329	595.06
521.544	648.06
521.76	722.06
521.975	1020.06
522.19	980.06
522.406	672.06
522.621	590.06
522.836	539.06
523.052	552.06
523.267	506.06
523.482	519.06
523.698	526.06
523.913	526.06
524.128	520.06
524.343	520.06
524.559	484.06
524.774	516.06
524.989	501.06
525.204	520.06
525.419	496.06
525.634	507.06
525.849	513.06
526.064	476.06
526.28	510.06
526.495	505.06
526.71	495.06
526.925	483.06
527.14	489.06
527.355	467.06
527.57	468.06
527.785	488.06
527.999	456.06
528.214	479.06
528.429	501.06
528.644	489.06
528.859	510.06
529.074	476.06
529.289	488.06
529.503	536.06
529.718	530.06
529.933	489.06
530.148	503.06
530.363	474.06
530.577	483.06
530.792	502.06
531.007	487.06
531.221	466.06
531.436	469.06
531.651	470.06
531.865	492.06
532.08	478.06
532.295	478.06
532.509	468.06
532.724	461.06
532.938	476.06
533.153	453.06
533.367	460.06
533.582	462.06
533.796	478.06
534.011	473.06
534.225	470.06
534.44	476.06
534.654	479.06
534.868	459.06
535.083	483.06
535.297	451.06
535.511	460.06
535.726	471.06
535.94	481.06
536.154	470.06
536.369	455.06
536.583	460.06
536.797	442.06
537.011	457.06
537.225	439.06
537.44	453.06
537.654	450.06
537.868	452.06
538.082	456.06
538.296	449.06
538.51	442.06
538.724	448.06
538.938	461.06
539.153	449.06
539.367	465.06
539.581	459.06
539.795	443.06
540.009	459.06
540.222	457.06
540.436	448.06
540.65	450.06
540.864	449.06
541.078	450.06
541.292	447.06
541.506	437.06
541.72	434.06
541.934	440.06
542.147	457.06
542.361	448.06
542.575	432.06
542.789	422.06
543.002	436.06
543.216	435.06
543.43	462.06
543.644	434.06
543.857	443.06
544.071	440.06
544.285	447.06
544.498	444.06
544.712	438.06
544.925	472.06
545.139	444.06
545.352	432.06
545.566	453.06
545.779	449.06
545.993	435.06
546.206	437.06
546.42	459.06
546.633	459.06
546.847	427.06
547.06	431.06
547.274	455.06
547.487	438.06
547.7	428.06
547.914	436.06
548.127	451.06
548.34	422.06
548.554	433.06
548.767	434.06
548.98	437.06
549.193	437.06
549.407	423.06
549.62	440.06
549.833	453.06
550.046	427.06
550.259	412.06
550.473	450.06
550.686	439.06
550.899	452.06
551.112	441.06
551.325	426.06
551.538	411.06
551.751	445.06
551.964	426.06
552.177	421.06
552.39	444.06
552.603	456.06
552.816	451.06
553.029	457.06
553.242	466.06
553.455	438.06
553.667	439.06
553.88	450.06
554.093	460.06
554.306	435.06
554.519	441.06
554.732	438.06
554.944	422.06
555.157	425.06
555.37	409.06
555.583	409.06
555.795	425.06
556.008	410.06
556.221	401.06
556.433	393.06
556.646	387.06
556.859	394.06
557.071	392.06
557.284	393.06
557.496	405.06
557.709	390.06
557.921	411.06
558.134	394.06
558.346	373.06
558.559	380.06
558.771	382.06
558.984	386.06
559.196	377.06
559.409	356.06
559.621	384.06
559.833	396.06
560.046	389.06
560.258	374.06
560.47	380.06
560.683	378.06
560.895	385.06
561.107	386.06
561.32	384.06
561.532	380.06
561.744	376.06
561.956	397.06
562.168	384.06
562.381	389.06
562.593	381.06
562.805	380.06
563.017	380.06
563.229	369.06
563.441	374.06
563.653	385.06
563.865	372.06
564.077	399.06
564.289	393.06
564.501	403.06
564.713	413.06
564.925	417.06
565.137	414.06
565.349	434.06
565.561	446.06
565.773	447.06
565.985	482.06
566.197	499.06
566.408	489.06
566.62	523.06
566.832	539.06
567.044	537.06
567.255	552.06
567.467	546.06
567.679	562.06
567.891	583.06
568.102	588.06
568.314	557.06
568.526	538.06
568.737	522.06
568.949	478.06
569.161	460.06
569.372	446.06
569.584	427.06
569.795	418.06
570.007	428.06
570.218	423.06
570.43	420.06
570.641	398.06
570.853	390.06
571.064	398.06
571.276	389.06
571.487	378.06
571.698	371.06
571.91	392.06
572.121	368.06
572.333	398.06
572.544	366.06
572.755	346.06
572.966	355.06
573.178	360.06
573.389	328.06
573.6	346.06
573.811	352.06
574.023	352.06
574.234	334.06
574.445	319.06
574.656	336.06
574.867	316.06
575.078	355.06
575.289	353.06
575.501	347.06
575.712	318.06
575.923	337.06
576.134	334.06
576.345	337.06
576.556	334.06
576.767	329.06
576.978	305.06
577.188	340.06
577.399	343.06
577.61	321.06
577.821	315.06
578.032	323.06
578.243	354.06
578.454	452.06
578.665	354.06
578.875	332.06
579.086	323.06
579.297	337.06
579.508	301.06
579.718	307.06
579.929	296.06
580.14	308.06
580.35	310.06
580.561	306.06
580.772	324.06
580.982	319.06
581.193	315.06
581.403	301.06
581.614	318.06
581.825	310.06
582.035	290.06
582.246	308.06
582.456	292.06
582.667	294.06
582.877	305.06
583.087	304.06
583.298	299.06
583.508	296.06
583.719	321.06
583.929	334.06
584.139	297.06
584.35	302.06
584.56	305.06
584.77	312.06
584.981	294.06
585.191	276.06
585.401	304.06
585.611	304.06
585.821	320.06
586.032	302.06
586.242	290.06
586.452	285.06
586.662	292.06
586.872	289.06
587.082	281.06
587.292	314.06
587.502	306.06
587.713	298.06
587.923	301.06
588.133	285.06
588.343	299.06
588.553	286.06
588.762	297.06
588.972	313.06
589.182	330.06
589.392	325.06
589.602	305.06
589.812	315.06
590.022	309.06
590.232	300.06
590.441	296.06
590.651	296.06
590.861	294.06
591.071	294.06
591.281	287.06
591.49	284.06
591.7	300.06
591.91	302.06
592.119	322.06
592.329	328.06
592.539	308.06
592.748	317.06
592.958	338.06
593.167	320.06
593.377	340.06
593.587	357.06
593.796	349.06
594.006	355.06
594.215	349.06
594.424	355.06
594.634	339.06
594.843	316.06
595.053	320.06
595.262	313.06
595.472	315.06
595.681	312.06
595.89	306.06
596.1	284.06
596.309	291.06
596.518	284.06
596.727	279.06
596.937	292.06
597.146	269.06
597.355	285.06
597.564	281.06
597.774	292.06
597.983	293.06
598.192	267.06
598.401	267.06
598.61	251.06
598.819	269.06
599.028	270.06
599.237	260.06
599.446	270.06
599.655	282.06
599.864	272.06
600.073	261.06
600.282	266.06
600.491	268.06
600.7	263.06
600.909	249.06
601.118	258.06
601.327	273.06
601.536	268.06
601.745	256.06
601.953	257.06
602.162	264.06
602.371	258.06
602.58	242.06
602.789	258.06
602.997	254.06
603.206	254.06
603.415	252.06
603.623	244.06
603.832	237.06
604.041	243.06
604.249	258.06
604.458	261.06
604.666	265.06
604.875	252.06
605.084	237.06
605.292	247.06
605.501	232.06
605.709	254.06
605.918	241.06
606.126	249.06
606.334	244.06
606.543	259.06
606.751	237.06
606.96	244.06
607.168	228.06
607.376	234.06
607.585	252.06
607.793	224.06
608.001	242.06
608.21	238.06
608.418	237.06
608.626	249.06
608.834	243.06
609.043	217.06
609.251	210.06
609.459	241.06
609.667	256.06
609.875	242.06
610.083	250.06
610.291	229.06
610.499	235.06
610.707	237.06
610.916	232.06
611.124	250.06
611.332	233.06
611.54	247.06
611.748	207.06
611.955	254.06
612.163	235.06
612.371	235.06
612.579	226.06
612.787	209.06
612.995	214.06
613.203	225.06
613.411	219.06
613.618	238.06
613.826	228.06
614.034	246.06
614.242	240.06
614.449	227.06
614.657	239.06
614.865	228.06
615.072	226.06
615.28	228.06
615.488	240.06
615.695	234.06
615.903	247.06
616.111	241.06
616.318	235.06
616.526	243.06
616.733	244.06
616.941	237.06
617.148	216.06
617.356	223.06
617.563	231.06
617.771	234.06
617.978	231.06
618.185	244.06
618.393	231.06
618.6	248.06
618.807	238.06
619.015	224.06
619.222	229.06
619.429	226.06
619.637	224.06
619.844	229.06
620.051	241.06
620.258	207.06
620.466	225.06
620.673	205.06
620.88	215.06
621.087	221.06
621.294	216.06
621.501	221.06
621.708	226.06
621.915	227.06
622.122	225.06
622.329	229.06
622.536	214.06
622.743	220.06
622.95	221.06
623.157	216.06
623.364	214.06
623.571	234.06
623.778	218.06
623.985	205.06
624.192	214.06
624.399	222.06
624.606	218.06
624.812	201.06
625.019	229.06
625.226	212.06
625.433	202.06
625.639	214.06
625.846	208.06
626.053	212.06
626.259	202.06
626.466	201.06
626.673	202.06
626.879	210.06
627.086	221.06
627.293	212.06
627.499	208.06
627.706	198.06
627.912	213.06
628.119	216.06
628.325	210.06
628.532	208.06
628.738	197.06
628.945	192.06
629.151	202.06
629.357	196.06
629.564	209.06
629.77	212.06
629.976	192.06
630.183	197.06
630.389	197.06
630.595	194.06
630.802	178.06
631.008	199.06
631.214	182.06
631.42	197.06
631.627	184.06
631.833	184.06
632.039	192.06
632.245	196.06
632.451	193.06
632.657	200.06
632.863	184.06
633.069	198.06
633.275	184.06
633.481	185.06
633.688	182.06
633.893	194.06
634.099	182.06
634.305	167.06
634.511	180.06
634.717	184.06
634.923	186.06
635.129	189.06
635.335	189.06
635.541	190.06
635.747	183.06
635.952	195.06
636.158	189.06
636.364	191.06
636.57	187.06
636.775	176.06
636.981	177.06
637.187	178.06
637.392	194.06
637.598	182.06
637.804	170.06
638.009	165.06
638.215	182.06
638.421	170.06
638.626	163.06
638.832	185.06
639.037	178.06
639.243	161.06
639.448	182.06
639.654	168.06
639.859	166.06
640.065	171.06
640.27	178.06
640.475	184.06
640.681	178.06
640.886	180.06
641.091	179.06
641.297	193.06
641.502	153.06
641.707	179.06
641.913	179.06
642.118	183.06
642.323	164.06
642.528	171.06
642.733	169.06
642.939	168.06
643.144	172.06
643.349	172.06
643.554	178.06
643.759	176.06
643.964	181.06
644.169	165.06
644.374	162.06
644.579	171.06
644.784	168.06
644.989	161.06
645.194	160.06
645.399	173.06
645.604	155.06
645.809	157.06
646.014	166.06
646.219	169.06
646.423	171.06
646.628	171.06
646.833	181.06
647.038	157.06
647.243	167.06
647.447	157.06
647.652	179.06
647.857	166.06
648.062	164.06
648.266	174.06
648.471	172.06
648.676	163.06
648.88	174.06
649.085	188.06
649.289	171.06
649.494	163.06
649.698	169.06
649.903	167.06
650.107	179.06
650.312	188.06
650.516	161.06
650.721	146.06
650.925	132.06
651.13	165.06
651.334	156.06
651.539	148.06
651.743	165.06
651.947	152.06
652.152	146.06
652.356	157.06
652.56	139.06
652.764	144.06
652.969	134.06
653.173	148.06
653.377	141.06
653.581	143.06
653.785	147.06
653.99	139.06
654.194	148.06
654.398	136.06
654.602	123.06
654.806	149.06
655.01	149.06
655.214	138.06
655.418	144.06
655.622	141.06
655.826	142.06
656.03	134.06
656.234	149.06
656.438	157.06
656.642	156.06
656.846	128.06
657.049	130.06
657.253	136.06
657.457	135.06
657.661	132.06
657.865	117.06
658.068	120.06
658.272	99.06
658.476	100.06
658.68	118.06
658.883	105.06
659.087	96.06
659.291	111.06
659.494	111.06
659.698	107.06
659.901	120.06
660.105	102.06
660.309	93.06
660.512	113.06
660.716	97.06
660.919	101.06
661.123	97.06
661.326	102.06
661.53	81.06
661.733	88.06
661.936	95.06
662.14	74.06
662.343	94.06
662.546	88.06
662.75	106.06
662.953	85.06
663.156	86.06
663.36	87.06
663.563	86.06
663.766	64.06
663.969	70.06
664.173	74.06
664.376	80.06
664.579	89.06
664.782	98.06
664.985	82.06
665.188	83.06
665.391	72.06
665.594	73.06
665.797	76.06
666	82.06
666.203	77.06
666.406	87.06
666.609	91.06
666.812	100.06
667.015	77.06
667.218	93.06
667.421	83.06
667.624	87.06
667.827	101.06
668.03	96.06
668.232	91.06
668.435	65.06
668.638	88.06
668.841	75.06
669.043	87.06
669.246	83.06
669.449	83.06
669.651	91.06
669.854	78.06
670.057	94.06
670.259	84.06
670.462	86.06
670.665	82.06
670.867	90.06
671.07	96.06
671.272	92.06
671.475	106.06
671.677	77.06
671.88	83.06
672.082	83.06
672.284	75.06
672.487	86.06
672.689	88.06
672.892	85.06
