Data from 1962.PennyLincolnUp.Lamp.En5.5.200Scan.071719.P1._HRD10591_13-53-25-060.txt Node
Date: Thu Jul 18 13:53:25 EDT 2019
User: cochatt
Spectrometer: HR+D1059
Trigger mode: 1
Integration Time (sec): 1.000000E-1
Scans to average: 1
Electric dark correction enabled: true
Nonlinearity correction enabled: false
Boxcar width: 0
XAxis mode: Wavelengths
Number of Pixels in Spectrum: 2048
>>>>>Begin Spectral Data<<<<<
223.165	-15.25
223.4	-15.25
223.635	-15.25
223.869	-15.25
224.104	-16.25
224.338	-12.25
224.573	-12.25
224.808	-10.25
225.042	-17.25
225.277	-14.25
225.511	0.75
225.746	17.75
225.98	4.75
226.215	11.75
226.449	23.75
226.683	13.75
226.918	13.75
227.152	26.75
227.387	13.75
227.621	36.75
227.856	51.75
228.09	38.75
228.324	42.75
228.559	57.75
228.793	59.75
229.027	89.75
229.262	88.75
229.496	92.75
229.73	108.75
229.964	115.75
230.199	105.75
230.433	97.75
230.667	108.75
230.901	99.75
231.136	103.75
231.37	103.75
231.604	104.75
231.838	119.75
232.072	101.75
232.306	98.75
232.541	116.75
232.775	120.75
233.009	93.75
233.243	117.75
233.477	105.75
233.711	121.75
233.945	111.75
234.179	103.75
234.413	121.75
234.647	113.75
234.881	91.75
235.115	102.75
235.349	113.75
235.583	106.75
235.817	113.75
236.051	118.75
236.285	108.75
236.519	120.75
236.753	105.75
236.987	113.75
237.221	139.75
237.455	162.75
237.689	142.75
237.922	133.75
238.156	133.75
238.39	124.75
238.624	117.75
238.858	113.75
239.091	97.75
239.325	124.75
239.559	123.75
239.793	116.75
240.027	132.75
240.26	125.75
240.494	132.75
240.728	132.75
240.961	117.75
241.195	132.75
241.429	131.75
241.662	126.75
241.896	116.75
242.13	126.75
242.363	116.75
242.597	132.75
242.83	123.75
243.064	127.75
243.298	137.75
243.531	117.75
243.765	132.75
243.998	137.75
244.232	128.75
244.465	149.75
244.699	138.75
244.932	137.75
245.166	150.75
245.399	143.75
245.633	132.75
245.866	135.75
246.099	125.75
246.333	135.75
246.566	134.75
246.8	132.75
247.033	144.75
247.266	135.75
247.5	148.75
247.733	158.75
247.966	164.75
248.2	155.75
248.433	151.75
248.666	148.75
248.899	176.75
249.133	163.75
249.366	171.75
249.599	171.75
249.832	159.75
250.066	155.75
250.299	164.75
250.532	156.75
250.765	171.75
250.998	171.75
251.231	183.75
251.465	163.75
251.698	183.75
251.931	179.75
252.164	182.75
252.397	168.75
252.63	186.75
252.863	195.75
253.096	198.75
253.329	198.75
253.562	187.75
253.795	182.75
254.028	192.75
254.261	204.75
254.494	202.75
254.727	200.75
254.96	218.75
255.193	223.75
255.426	212.75
255.659	189.75
255.892	206.75
256.124	184.75
256.357	192.75
256.59	204.75
256.823	201.75
257.056	190.75
257.289	194.75
257.521	199.75
257.754	192.75
257.987	193.75
258.22	191.75
258.452	184.75
258.685	197.75
258.918	181.75
259.151	171.75
259.383	185.75
259.616	197.75
259.849	208.75
260.081	211.75
260.314	209.75
260.547	208.75
260.779	199.75
261.012	201.75
261.244	215.75
261.477	205.75
261.71	177.75
261.942	191.75
262.175	199.75
262.407	190.75
262.64	189.75
262.872	181.75
263.105	196.75
263.337	197.75
263.57	185.75
263.802	217.75
264.035	202.75
264.267	197.75
264.499	187.75
264.732	199.75
264.964	180.75
265.197	204.75
265.429	202.75
265.661	198.75
265.894	209.75
266.126	211.75
266.358	233.75
266.591	202.75
266.823	215.75
267.055	194.75
267.287	203.75
267.52	210.75
267.752	214.75
267.984	209.75
268.216	216.75
268.448	213.75
268.681	225.75
268.913	210.75
269.145	226.75
269.377	235.75
269.609	229.75
269.841	232.75
270.073	249.75
270.306	257.75
270.538	261.75
270.77	269.75
271.002	259.75
271.234	265.75
271.466	256.75
271.698	256.75
271.93	256.75
272.162	280.75
272.394	260.75
272.626	256.75
272.858	247.75
273.09	241.75
273.322	246.75
273.553	229.75
273.785	244.75
274.017	229.75
274.249	257.75
274.481	257.75
274.713	254.75
274.945	244.75
275.176	232.75
275.408	251.75
275.64	239.75
275.872	240.75
276.104	254.75
276.335	249.75
276.567	247.75
276.799	260.75
277.031	263.75
277.262	281.75
277.494	275.75
277.726	255.75
277.957	271.75
278.189	259.75
278.421	272.75
278.652	255.75
278.884	249.75
279.115	245.75
279.347	250.75
279.579	258.75
279.81	247.75
280.042	260.75
280.273	239.75
280.505	276.75
280.736	241.75
280.968	256.75
281.199	269.75
281.431	283.75
281.662	255.75
281.894	263.75
282.125	264.75
282.356	275.75
282.588	282.75
282.819	286.75
283.051	258.75
283.282	279.75
283.513	273.75
283.745	263.75
283.976	277.75
284.207	294.75
284.439	271.75
284.67	273.75
284.901	261.75
285.132	269.75
285.364	267.75
285.595	270.75
285.826	285.75
286.057	288.75
286.288	268.75
286.52	259.75
286.751	270.75
286.982	279.75
287.213	273.75
287.444	284.75
287.675	287.75
287.906	289.75
288.138	287.75
288.369	291.75
288.6	283.75
288.831	293.75
289.062	283.75
289.293	300.75
289.524	285.75
289.755	275.75
289.986	294.75
290.217	268.75
290.448	278.75
290.679	310.75
290.91	297.75
291.141	280.75
291.371	297.75
291.602	282.75
291.833	292.75
292.064	275.75
292.295	263.75
292.526	281.75
292.757	290.75
292.987	292.75
293.218	264.75
293.449	278.75
293.68	279.75
293.91	278.75
294.141	277.75
294.372	288.75
294.603	283.75
294.833	311.75
295.064	277.75
295.295	310.75
295.525	287.75
295.756	292.75
295.987	298.75
296.217	293.75
296.448	307.75
296.679	283.75
296.909	289.75
297.14	301.75
297.37	292.75
297.601	305.75
297.831	293.75
298.062	297.75
298.292	311.75
298.523	307.75
298.753	303.75
298.984	285.75
299.214	306.75
299.445	301.75
299.675	310.75
299.905	288.75
300.136	301.75
300.366	307.75
300.597	321.75
300.827	308.75
301.057	306.75
301.288	308.75
301.518	309.75
301.748	293.75
301.979	311.75
302.209	305.75
302.439	320.75
302.669	313.75
302.9	312.75
303.13	318.75
303.36	333.75
303.59	327.75
303.82	320.75
304.051	335.75
304.281	307.75
304.511	327.75
304.741	328.75
304.971	330.75
305.201	331.75
305.431	331.75
305.661	332.75
305.891	331.75
306.121	323.75
306.352	333.75
306.582	324.75
306.812	339.75
307.042	327.75
307.272	325.75
307.502	333.75
307.731	322.75
307.961	333.75
308.191	317.75
308.421	321.75
308.651	313.75
308.881	328.75
309.111	322.75
309.341	328.75
309.571	320.75
309.8	336.75
310.03	326.75
310.26	332.75
310.49	347.75
310.72	349.75
310.949	345.75
311.179	361.75
311.409	347.75
311.639	360.75
311.868	357.75
312.098	338.75
312.328	367.75
312.557	349.75
312.787	358.75
313.017	343.75
313.246	353.75
313.476	341.75
313.706	364.75
313.935	357.75
314.165	382.75
314.394	369.75
314.624	371.75
314.853	377.75
315.083	351.75
315.312	358.75
315.542	337.75
315.771	365.75
316.001	360.75
316.23	361.75
316.46	357.75
316.689	348.75
316.919	349.75
317.148	385.75
317.377	368.75
317.607	373.75
317.836	361.75
318.065	349.75
318.295	362.75
318.524	340.75
318.753	369.75
318.983	379.75
319.212	352.75
319.441	347.75
319.67	357.75
319.9	348.75
320.129	336.75
320.358	347.75
320.587	357.75
320.816	373.75
321.046	373.75
321.275	401.75
321.504	362.75
321.733	367.75
321.962	373.75
322.191	368.75
322.42	367.75
322.649	385.75
322.878	405.75
323.108	373.75
323.337	386.75
323.566	423.75
323.795	424.75
324.024	480.75
324.253	475.75
324.482	615.75
324.71	899.75
324.939	1199.75
325.168	1085.75
325.397	620.75
325.626	510.75
325.855	439.75
326.084	424.75
326.313	445.75
326.542	429.75
326.77	440.75
326.999	479.75
327.228	592.75
327.457	808.75
327.686	956.75
327.914	666.75
328.143	505.75
328.372	475.75
328.6	469.75
328.829	440.75
329.058	456.75
329.287	428.75
329.515	431.75
329.744	437.75
329.972	423.75
330.201	438.75
330.43	461.75
330.658	446.75
330.887	465.75
331.115	456.75
331.344	440.75
331.572	437.75
331.801	436.75
332.03	440.75
332.258	444.75
332.486	452.75
332.715	424.75
332.943	443.75
333.172	458.75
333.4	446.75
333.629	446.75
333.857	479.75
334.085	457.75
334.314	474.75
334.542	492.75
334.771	497.75
334.999	473.75
335.227	458.75
335.455	470.75
335.684	444.75
335.912	447.75
336.14	424.75
336.369	440.75
336.597	433.75
336.825	438.75
337.053	423.75
337.281	445.75
337.51	426.75
337.738	422.75
337.966	429.75
338.194	426.75
338.422	425.75
338.65	422.75
338.878	440.75
339.106	403.75
339.334	404.75
339.562	408.75
339.79	416.75
340.018	423.75
340.246	406.75
340.474	404.75
340.702	404.75
340.93	400.75
341.158	393.75
341.386	403.75
341.614	395.75
341.842	413.75
342.07	413.75
342.298	412.75
342.526	392.75
342.754	397.75
342.981	402.75
343.209	409.75
343.437	419.75
343.665	423.75
343.893	428.75
344.12	440.75
344.348	444.75
344.576	434.75
344.804	414.75
345.031	429.75
345.259	407.75
345.487	392.75
345.714	397.75
345.942	386.75
346.17	390.75
346.397	394.75
346.625	400.75
346.853	373.75
347.08	391.75
347.308	409.75
347.535	402.75
347.763	401.75
347.99	385.75
348.218	403.75
348.445	397.75
348.673	409.75
348.9	393.75
349.128	359.75
349.355	371.75
349.583	375.75
349.81	391.75
350.037	377.75
350.265	400.75
350.492	396.75
350.72	399.75
350.947	373.75
351.174	387.75
351.402	387.75
351.629	380.75
351.856	381.75
352.083	399.75
352.311	394.75
352.538	375.75
352.765	372.75
352.992	374.75
353.22	376.75
353.447	388.75
353.674	377.75
353.901	391.75
354.128	395.75
354.355	353.75
354.583	383.75
354.81	385.75
355.037	379.75
355.264	361.75
355.491	393.75
355.718	373.75
355.945	363.75
356.172	362.75
356.399	369.75
356.626	369.75
356.853	363.75
357.08	381.75
357.307	356.75
357.534	383.75
357.761	385.75
357.988	370.75
358.215	388.75
358.441	390.75
358.668	381.75
358.895	385.75
359.122	343.75
359.349	374.75
359.576	396.75
359.802	381.75
360.029	381.75
360.256	397.75
360.483	400.75
360.709	375.75
360.936	377.75
361.163	373.75
361.39	390.75
361.616	391.75
361.843	372.75
362.07	368.75
362.296	395.75
362.523	369.75
362.749	373.75
362.976	392.75
363.203	395.75
363.429	385.75
363.656	387.75
363.882	385.75
364.109	381.75
364.335	376.75
364.562	368.75
364.788	383.75
365.015	359.75
365.241	367.75
365.468	377.75
365.694	374.75
365.92	385.75
366.147	372.75
366.373	377.75
366.599	380.75
366.826	373.75
367.052	368.75
367.278	360.75
367.505	377.75
367.731	381.75
367.957	381.75
368.184	383.75
368.41	377.75
368.636	381.75
368.862	375.75
369.089	384.75
369.315	386.75
369.541	361.75
369.767	383.75
369.993	372.75
370.219	376.75
370.445	399.75
370.672	376.75
370.898	369.75
371.124	400.75
371.35	377.75
371.576	368.75
371.802	394.75
372.028	377.75
372.254	399.75
372.48	407.75
372.706	384.75
372.932	414.75
373.158	394.75
373.384	436.75
373.61	385.75
373.835	403.75
374.061	403.75
374.287	411.75
374.513	408.75
374.739	420.75
374.965	398.75
375.191	394.75
375.416	410.75
375.642	390.75
375.868	390.75
376.094	394.75
376.319	385.75
376.545	403.75
376.771	385.75
376.997	388.75
377.222	385.75
377.448	391.75
377.674	375.75
377.899	397.75
378.125	377.75
378.35	376.75
378.576	381.75
378.802	380.75
379.027	385.75
379.253	400.75
379.478	380.75
379.704	377.75
379.929	399.75
380.155	375.75
380.38	388.75
380.606	397.75
380.831	389.75
381.057	396.75
381.282	379.75
381.507	374.75
381.733	392.75
381.958	373.75
382.184	372.75
382.409	400.75
382.634	403.75
382.86	400.75
383.085	411.75
383.31	416.75
383.535	419.75
383.761	410.75
383.986	421.75
384.211	403.75
384.436	422.75
384.662	428.75
384.887	439.75
385.112	447.75
385.337	439.75
385.562	436.75
385.787	459.75
386.013	447.75
386.238	434.75
386.463	453.75
386.688	449.75
386.913	421.75
387.138	443.75
387.363	465.75
387.588	451.75
387.813	443.75
388.038	438.75
388.263	458.75
388.488	452.75
388.713	433.75
388.938	444.75
389.163	454.75
389.387	457.75
389.612	421.75
389.837	434.75
390.062	459.75
390.287	449.75
390.512	448.75
390.736	433.75
390.961	450.75
391.186	452.75
391.411	454.75
391.636	468.75
391.86	469.75
392.085	467.75
392.31	470.75
392.534	465.75
392.759	436.75
392.984	465.75
393.208	486.75
393.433	460.75
393.658	460.75
393.882	456.75
394.107	449.75
394.331	451.75
394.556	448.75
394.78	460.75
395.005	473.75
395.229	442.75
395.454	488.75
395.678	487.75
395.903	487.75
396.127	478.75
396.352	502.75
396.576	469.75
396.801	470.75
397.025	474.75
397.249	476.75
397.474	464.75
397.698	501.75
397.922	481.75
398.147	501.75
398.371	491.75
398.595	507.75
398.82	517.75
399.044	525.75
399.268	578.75
399.492	593.75
399.717	668.75
399.941	678.75
400.165	658.75
400.389	646.75
400.613	593.75
400.837	565.75
401.062	537.75
401.286	562.75
401.51	524.75
401.734	515.75
401.958	559.75
402.182	523.75
402.406	543.75
402.63	535.75
402.854	530.75
403.078	536.75
403.302	553.75
403.526	564.75
403.75	554.75
403.974	561.75
404.198	571.75
404.422	568.75
404.645	586.75
404.869	552.75
405.093	572.75
405.317	613.75
405.541	632.75
405.765	588.75
405.988	569.75
406.212	569.75
406.436	580.75
406.66	595.75
406.883	569.75
407.107	631.75
407.331	674.75
407.555	692.75
407.778	677.75
408.002	634.75
408.226	617.75
408.449	608.75
408.673	589.75
408.896	587.75
409.12	640.75
409.344	612.75
409.567	568.75
409.791	539.75
410.014	552.75
410.238	537.75
410.461	564.75
410.685	547.75
410.908	575.75
411.132	573.75
411.355	610.75
411.578	572.75
411.802	563.75
412.025	544.75
412.249	548.75
412.472	569.75
412.695	570.75
412.919	547.75
413.142	537.75
413.365	531.75
413.589	522.75
413.812	518.75
414.035	506.75
414.258	524.75
414.482	535.75
414.705	525.75
414.928	507.75
415.151	502.75
415.374	499.75
415.597	504.75
415.821	520.75
416.044	511.75
416.267	502.75
416.49	505.75
416.713	491.75
416.936	503.75
417.159	485.75
417.382	500.75
417.605	492.75
417.828	513.75
418.051	536.75
418.274	511.75
418.497	517.75
418.72	506.75
418.943	525.75
419.166	547.75
419.389	546.75
419.611	554.75
419.834	549.75
420.057	555.75
420.28	508.75
420.503	524.75
420.726	531.75
420.948	551.75
421.171	540.75
421.394	566.75
421.617	545.75
421.839	514.75
422.062	551.75
422.285	529.75
422.507	552.75
422.73	615.75
422.953	602.75
423.175	554.75
423.398	553.75
423.621	531.75
423.843	559.75
424.066	574.75
424.288	553.75
424.511	566.75
424.733	603.75
424.956	634.75
425.178	593.75
425.401	609.75
425.623	620.75
425.846	556.75
426.068	529.75
426.291	523.75
426.513	529.75
426.735	557.75
426.958	561.75
427.18	604.75
427.402	687.75
427.625	729.75
427.847	639.75
428.069	570.75
428.292	557.75
428.514	518.75
428.736	511.75
428.958	509.75
429.181	515.75
429.403	503.75
429.625	495.75
429.847	508.75
430.069	528.75
430.292	559.75
430.514	497.75
430.736	483.75
430.958	490.75
431.18	492.75
431.402	483.75
431.624	483.75
431.846	486.75
432.068	484.75
432.29	503.75
432.512	488.75
432.734	495.75
432.956	480.75
433.178	476.75
433.4	514.75
433.622	477.75
433.844	494.75
434.066	483.75
434.287	482.75
434.509	497.75
434.731	501.75
434.953	525.75
435.175	511.75
435.397	519.75
435.618	529.75
435.84	572.75
436.062	626.75
436.284	652.75
436.505	531.75
436.727	546.75
436.949	513.75
437.17	515.75
437.392	490.75
437.614	497.75
437.835	521.75
438.057	545.75
438.278	611.75
438.5	625.75
438.721	691.75
438.943	671.75
439.165	544.75
439.386	487.75
439.608	525.75
439.829	502.75
440.05	504.75
440.272	557.75
440.493	541.75
440.715	507.75
440.936	503.75
441.158	490.75
441.379	503.75
441.6	521.75
441.822	523.75
442.043	567.75
442.264	595.75
442.486	616.75
442.707	569.75
442.928	564.75
443.149	552.75
443.371	561.75
443.592	594.75
443.813	650.75
444.034	693.75
444.255	601.75
444.476	559.75
444.698	566.75
444.919	595.75
445.14	651.75
445.361	599.75
445.582	569.75
445.803	571.75
446.024	661.75
446.245	644.75
446.466	616.75
446.687	542.75
446.908	516.75
447.129	518.75
447.35	498.75
447.571	465.75
447.792	470.75
448.013	485.75
448.234	476.75
448.455	531.75
448.675	578.75
448.896	674.75
449.117	577.75
449.338	573.75
449.559	626.75
449.779	697.75
450	585.75
450.221	495.75
450.442	476.75
450.662	451.75
450.883	469.75
451.104	441.75
451.324	445.75
451.545	465.75
451.766	470.75
451.986	438.75
452.207	427.75
452.428	441.75
452.648	435.75
452.869	431.75
453.089	450.75
453.31	443.75
453.53	424.75
453.751	436.75
453.971	437.75
454.192	449.75
454.412	428.75
454.633	427.75
454.853	445.75
455.073	426.75
455.294	444.75
455.514	477.75
455.734	478.75
455.955	436.75
456.175	425.75
456.395	425.75
456.616	407.75
456.836	441.75
457.056	418.75
457.276	421.75
457.497	428.75
457.717	435.75
457.937	433.75
458.157	422.75
458.377	434.75
458.598	451.75
458.818	459.75
459.038	485.75
459.258	534.75
459.478	488.75
459.698	491.75
459.918	478.75
460.138	506.75
460.358	509.75
460.578	519.75
460.798	524.75
461.018	519.75
461.238	537.75
461.458	520.75
461.678	520.75
461.898	492.75
462.118	515.75
462.338	547.75
462.558	573.75
462.777	543.75
462.997	604.75
463.217	609.75
463.437	601.75
463.657	581.75
463.876	569.75
464.096	567.75
464.316	571.75
464.536	556.75
464.755	568.75
464.975	537.75
465.195	555.75
465.414	587.75
465.634	544.75
465.854	492.75
466.073	484.75
466.293	498.75
466.512	473.75
466.732	480.75
466.951	476.75
467.171	458.75
467.391	453.75
467.61	467.75
467.829	468.75
468.049	472.75
468.268	457.75
468.488	450.75
468.707	451.75
468.927	464.75
469.146	447.75
469.365	443.75
469.585	456.75
469.804	475.75
470.023	446.75
470.243	472.75
470.462	462.75
470.681	497.75
470.901	473.75
471.12	481.75
471.339	470.75
471.558	465.75
471.777	462.75
471.997	452.75
472.216	448.75
472.435	476.75
472.654	459.75
472.873	441.75
473.092	459.75
473.311	436.75
473.53	448.75
473.749	466.75
473.968	481.75
474.187	526.75
474.406	557.75
474.625	499.75
474.844	457.75
475.063	460.75
475.282	458.75
475.501	456.75
475.72	477.75
475.939	475.75
476.158	463.75
476.377	477.75
476.596	490.75
476.814	487.75
477.033	476.75
477.252	483.75
477.471	479.75
477.69	495.75
477.908	501.75
478.127	489.75
478.346	521.75
478.564	508.75
478.783	522.75
479.002	533.75
479.22	528.75
479.439	562.75
479.658	570.75
479.876	575.75
480.095	566.75
480.313	585.75
480.532	585.75
480.751	588.75
480.969	582.75
481.188	601.75
481.406	608.75
481.624	564.75
481.843	574.75
482.061	550.75
482.28	547.75
482.498	527.75
482.717	513.75
482.935	526.75
483.153	537.75
483.372	541.75
483.59	554.75
483.808	547.75
484.027	538.75
484.245	537.75
484.463	542.75
484.681	549.75
484.9	556.75
485.118	551.75
485.336	549.75
485.554	550.75
485.772	571.75
485.99	551.75
486.209	556.75
486.427	538.75
486.645	549.75
486.863	565.75
487.081	564.75
487.299	577.75
487.517	557.75
487.735	584.75
487.953	585.75
488.171	590.75
488.389	549.75
488.607	568.75
488.825	562.75
489.043	543.75
489.261	575.75
489.479	594.75
489.696	585.75
489.914	590.75
490.132	604.75
490.35	582.75
490.568	594.75
490.786	597.75
491.003	579.75
491.221	613.75
491.439	583.75
491.657	598.75
491.874	609.75
492.092	609.75
492.31	588.75
492.527	618.75
492.745	625.75
492.963	631.75
493.18	639.75
493.398	623.75
493.615	620.75
493.833	618.75
494.05	634.75
494.268	634.75
494.485	637.75
494.703	640.75
494.92	639.75
495.138	613.75
495.355	636.75
495.573	647.75
495.79	640.75
496.008	663.75
496.225	628.75
496.442	640.75
496.66	653.75
496.877	653.75
497.094	669.75
497.312	685.75
497.529	662.75
497.746	697.75
497.963	701.75
498.181	755.75
498.398	766.75
498.615	768.75
498.832	808.75
499.049	808.75
499.267	853.75
499.484	900.75
499.701	955.75
499.918	1014.75
500.135	1052.75
500.352	1164.75
500.569	1208.75
500.786	1193.75
501.003	1153.75
501.22	1096.75
501.437	1041.75
501.654	977.75
501.871	929.75
502.088	872.75
502.305	840.75
502.522	781.75
502.739	774.75
502.956	756.75
503.172	753.75
503.389	716.75
503.606	729.75
503.823	684.75
504.04	691.75
504.256	705.75
504.473	700.75
504.69	695.75
504.907	662.75
505.123	667.75
505.34	663.75
505.557	640.75
505.773	645.75
505.99	610.75
506.207	605.75
506.423	613.75
506.64	614.75
506.856	607.75
507.073	572.75
507.289	581.75
507.506	601.75
507.722	582.75
507.939	575.75
508.155	581.75
508.372	550.75
508.588	565.75
508.805	575.75
509.021	555.75
509.238	581.75
509.454	587.75
509.67	569.75
509.887	563.75
510.103	559.75
510.319	563.75
510.536	603.75
510.752	805.75
510.968	697.75
511.184	560.75
511.401	543.75
511.617	529.75
511.833	541.75
512.049	548.75
512.265	539.75
512.481	543.75
512.698	541.75
512.914	533.75
513.13	543.75
513.346	534.75
513.562	549.75
513.778	554.75
513.994	518.75
514.21	529.75
514.426	545.75
514.642	555.75
514.858	527.75
515.074	607.75
515.29	626.75
515.506	730.75
515.721	713.75
515.937	579.75
516.153	579.75
516.369	562.75
516.585	582.75
516.801	572.75
517.016	593.75
517.232	613.75
517.448	613.75
517.664	636.75
517.879	613.75
518.095	639.75
518.311	612.75
518.527	589.75
518.742	595.75
518.958	578.75
519.173	583.75
519.389	563.75
519.605	572.75
519.82	550.75
520.036	527.75
520.251	536.75
520.467	567.75
520.682	551.75
520.898	552.75
521.113	550.75
521.329	564.75
521.544	580.75
521.76	657.75
521.975	865.75
522.19	859.75
522.406	605.75
522.621	559.75
522.836	520.75
523.052	501.75
523.267	511.75
523.482	499.75
523.698	489.75
523.913	482.75
524.128	507.75
524.343	497.75
524.559	459.75
524.774	493.75
524.989	474.75
525.204	476.75
525.419	481.75
525.634	480.75
525.849	473.75
526.064	475.75
526.28	477.75
526.495	476.75
526.71	455.75
526.925	444.75
527.14	464.75
527.355	454.75
527.57	463.75
527.785	444.75
527.999	471.75
528.214	482.75
528.429	457.75
528.644	467.75
528.859	460.75
529.074	469.75
529.289	491.75
529.503	482.75
529.718	483.75
529.933	464.75
530.148	443.75
530.363	480.75
530.577	475.75
530.792	419.75
531.007	458.75
531.221	473.75
531.436	449.75
531.651	460.75
531.865	455.75
532.08	467.75
532.295	449.75
532.509	467.75
532.724	447.75
532.938	459.75
533.153	447.75
533.367	460.75
533.582	449.75
533.796	447.75
534.011	461.75
534.225	463.75
534.44	446.75
534.654	462.75
534.868	451.75
535.083	435.75
535.297	457.75
535.511	443.75
535.726	467.75
535.94	452.75
536.154	453.75
536.369	443.75
536.583	428.75
536.797	431.75
537.011	443.75
537.225	420.75
537.44	442.75
537.654	433.75
537.868	432.75
538.082	437.75
538.296	443.75
538.51	435.75
538.724	435.75
538.938	426.75
539.153	438.75
539.367	431.75
539.581	428.75
539.795	441.75
540.009	426.75
540.222	429.75
540.436	431.75
540.65	447.75
540.864	432.75
541.078	436.75
541.292	427.75
541.506	437.75
541.72	420.75
541.934	436.75
542.147	432.75
542.361	428.75
542.575	427.75
542.789	434.75
543.002	428.75
543.216	455.75
543.43	441.75
543.644	441.75
543.857	436.75
544.071	429.75
544.285	419.75
544.498	451.75
544.712	418.75
544.925	429.75
545.139	418.75
545.352	412.75
545.566	425.75
545.779	411.75
545.993	429.75
546.206	450.75
546.42	431.75
546.633	433.75
546.847	425.75
547.06	439.75
547.274	440.75
547.487	425.75
547.7	422.75
547.914	433.75
548.127	420.75
548.34	442.75
548.554	427.75
548.767	406.75
548.98	430.75
549.193	427.75
549.407	435.75
549.62	429.75
549.833	445.75
550.046	400.75
550.259	431.75
550.473	428.75
550.686	414.75
550.899	421.75
551.112	426.75
551.325	401.75
551.538	421.75
551.751	405.75
551.964	425.75
552.177	417.75
552.39	434.75
552.603	455.75
552.816	436.75
553.029	443.75
553.242	441.75
553.455	442.75
553.667	480.75
553.88	471.75
554.093	451.75
554.306	445.75
554.519	440.75
554.732	436.75
554.944	431.75
555.157	419.75
555.37	405.75
555.583	425.75
555.795	424.75
556.008	432.75
556.221	387.75
556.433	406.75
556.646	391.75
556.859	395.75
557.071	405.75
557.284	390.75
557.496	390.75
557.709	371.75
557.921	385.75
558.134	380.75
558.346	373.75
558.559	377.75
558.771	381.75
558.984	371.75
559.196	378.75
559.409	370.75
559.621	373.75
559.833	392.75
560.046	368.75
560.258	392.75
560.47	377.75
560.683	379.75
560.895	359.75
561.107	379.75
561.32	378.75
561.532	411.75
561.744	378.75
561.956	385.75
562.168	379.75
562.381	380.75
562.593	380.75
562.805	384.75
563.017	370.75
563.229	379.75
563.441	385.75
563.653	397.75
563.865	385.75
564.077	388.75
564.289	388.75
564.501	421.75
564.713	394.75
564.925	403.75
565.137	399.75
565.349	412.75
565.561	431.75
565.773	428.75
565.985	463.75
566.197	481.75
566.408	486.75
566.62	492.75
566.832	520.75
567.044	517.75
567.255	523.75
567.467	554.75
567.679	535.75
567.891	577.75
568.102	590.75
568.314	563.75
568.526	549.75
568.737	516.75
568.949	485.75
569.161	442.75
569.372	429.75
569.584	419.75
569.795	395.75
570.007	400.75
570.218	424.75
570.43	416.75
570.641	410.75
570.853	416.75
571.064	379.75
571.276	357.75
571.487	381.75
571.698	363.75
571.91	355.75
572.121	352.75
572.333	373.75
572.544	364.75
572.755	331.75
572.966	351.75
573.178	353.75
573.389	338.75
573.6	333.75
573.811	344.75
574.023	339.75
574.234	353.75
574.445	341.75
574.656	359.75
574.867	352.75
575.078	332.75
575.289	329.75
575.501	315.75
575.712	334.75
575.923	335.75
576.134	326.75
576.345	319.75
576.556	329.75
576.767	313.75
576.978	333.75
577.188	320.75
577.399	332.75
577.61	325.75
577.821	302.75
578.032	316.75
578.243	314.75
578.454	417.75
578.665	360.75
578.875	297.75
579.086	300.75
579.297	311.75
579.508	305.75
579.718	306.75
579.929	307.75
580.14	307.75
580.35	307.75
580.561	314.75
580.772	313.75
580.982	308.75
581.193	294.75
581.403	319.75
581.614	314.75
581.825	296.75
582.035	284.75
582.246	311.75
582.456	289.75
582.667	296.75
582.877	300.75
583.087	296.75
583.298	296.75
583.508	299.75
583.719	300.75
583.929	296.75
584.139	297.75
584.35	299.75
584.56	289.75
584.77	285.75
584.981	295.75
585.191	291.75
585.401	287.75
585.611	276.75
585.821	283.75
586.032	295.75
586.242	277.75
586.452	294.75
586.662	277.75
586.872	286.75
587.082	290.75
587.292	288.75
587.502	285.75
587.713	289.75
587.923	292.75
588.133	277.75
588.343	276.75
588.553	301.75
588.762	288.75
588.972	299.75
589.182	338.75
589.392	312.75
589.602	316.75
589.812	349.75
590.022	317.75
590.232	303.75
590.441	278.75
590.651	287.75
590.861	281.75
591.071	299.75
591.281	305.75
591.49	297.75
591.7	311.75
591.91	303.75
592.119	319.75
592.329	315.75
592.539	317.75
592.748	327.75
592.958	308.75
593.167	343.75
593.377	324.75
593.587	348.75
593.796	333.75
594.006	332.75
594.215	345.75
594.424	346.75
594.634	329.75
594.843	334.75
595.053	319.75
595.262	300.75
595.472	294.75
595.681	322.75
595.89	300.75
596.1	323.75
596.309	296.75
596.518	299.75
596.727	277.75
596.937	276.75
597.146	280.75
597.355	264.75
597.564	268.75
597.774	284.75
597.983	261.75
598.192	263.75
598.401	261.75
598.61	269.75
598.819	281.75
599.028	259.75
599.237	257.75
599.446	285.75
599.655	251.75
599.864	256.75
600.073	253.75
600.282	249.75
600.491	259.75
600.7	268.75
600.909	235.75
601.118	241.75
601.327	257.75
601.536	245.75
601.745	269.75
601.953	251.75
602.162	256.75
602.371	257.75
602.58	246.75
602.789	219.75
602.997	239.75
603.206	240.75
603.415	244.75
603.623	260.75
603.832	239.75
604.041	228.75
604.249	255.75
604.458	246.75
604.666	237.75
604.875	227.75
605.084	233.75
605.292	236.75
605.501	221.75
605.709	241.75
605.918	237.75
606.126	253.75
606.334	232.75
606.543	232.75
606.751	250.75
606.96	235.75
607.168	226.75
607.376	233.75
607.585	249.75
607.793	233.75
608.001	239.75
608.21	228.75
608.418	228.75
608.626	240.75
608.834	223.75
609.043	233.75
609.251	223.75
609.459	227.75
609.667	240.75
609.875	226.75
610.083	234.75
610.291	226.75
610.499	231.75
610.707	220.75
610.916	235.75
611.124	232.75
611.332	243.75
611.54	243.75
611.748	235.75
611.955	243.75
612.163	228.75
612.371	232.75
612.579	219.75
612.787	235.75
612.995	225.75
613.203	228.75
613.411	240.75
613.618	226.75
613.826	236.75
614.034	228.75
614.242	231.75
614.449	243.75
614.657	233.75
614.865	225.75
615.072	234.75
615.28	236.75
615.488	225.75
615.695	241.75
615.903	228.75
616.111	229.75
616.318	240.75
616.526	231.75
616.733	240.75
616.941	237.75
617.148	234.75
617.356	237.75
617.563	219.75
617.771	224.75
617.978	224.75
618.185	221.75
618.393	223.75
618.6	231.75
618.807	219.75
619.015	229.75
619.222	244.75
619.429	228.75
619.637	224.75
619.844	231.75
620.051	217.75
620.258	207.75
620.466	235.75
620.673	211.75
620.88	220.75
621.087	229.75
621.294	205.75
621.501	217.75
621.708	232.75
621.915	217.75
622.122	210.75
622.329	215.75
622.536	213.75
622.743	218.75
622.95	197.75
623.157	211.75
623.364	219.75
623.571	200.75
623.778	226.75
623.985	208.75
624.192	197.75
624.399	208.75
624.606	220.75
624.812	213.75
625.019	218.75
625.226	210.75
625.433	218.75
625.639	220.75
625.846	207.75
626.053	196.75
626.259	204.75
626.466	197.75
626.673	193.75
626.879	202.75
627.086	199.75
627.293	193.75
627.499	205.75
627.706	210.75
627.912	196.75
628.119	192.75
628.325	202.75
628.532	199.75
628.738	187.75
628.945	200.75
629.151	187.75
629.357	184.75
629.564	195.75
629.77	179.75
629.976	199.75
630.183	197.75
630.389	181.75
630.595	212.75
630.802	186.75
631.008	187.75
631.214	185.75
631.42	184.75
631.627	183.75
631.833	188.75
632.039	192.75
632.245	187.75
632.451	184.75
632.657	187.75
632.863	175.75
633.069	172.75
633.275	189.75
633.481	159.75
633.688	181.75
633.893	181.75
634.099	180.75
634.305	176.75
634.511	163.75
634.717	199.75
634.923	184.75
635.129	170.75
635.335	175.75
635.541	179.75
635.747	171.75
635.952	177.75
636.158	163.75
636.364	190.75
636.57	176.75
636.775	192.75
636.981	197.75
637.187	169.75
637.392	183.75
637.598	182.75
637.804	164.75
638.009	177.75
638.215	177.75
638.421	180.75
638.626	172.75
638.832	171.75
639.037	154.75
639.243	167.75
639.448	169.75
639.654	165.75
639.859	165.75
640.065	172.75
640.27	171.75
640.475	156.75
640.681	165.75
640.886	170.75
641.091	168.75
641.297	166.75
641.502	178.75
641.707	173.75
641.913	170.75
642.118	153.75
642.323	167.75
642.528	178.75
642.733	157.75
642.939	148.75
643.144	164.75
643.349	156.75
643.554	156.75
643.759	154.75
643.964	158.75
644.169	164.75
644.374	169.75
644.579	159.75
644.784	180.75
644.989	166.75
645.194	161.75
645.399	160.75
645.604	170.75
645.809	175.75
646.014	156.75
646.219	157.75
646.423	166.75
646.628	160.75
646.833	169.75
647.038	165.75
647.243	148.75
647.447	156.75
647.652	167.75
647.857	172.75
648.062	172.75
648.266	165.75
648.471	181.75
648.676	165.75
648.88	168.75
649.085	155.75
649.289	174.75
649.494	199.75
649.698	172.75
649.903	178.75
650.107	171.75
650.312	171.75
650.516	154.75
650.721	148.75
650.925	150.75
651.13	154.75
651.334	160.75
651.539	149.75
651.743	140.75
651.947	145.75
652.152	150.75
652.356	159.75
652.56	144.75
652.764	148.75
652.969	141.75
653.173	138.75
653.377	131.75
653.581	142.75
653.785	132.75
653.99	140.75
654.194	145.75
654.398	141.75
654.602	127.75
654.806	137.75
655.01	127.75
655.214	150.75
655.418	134.75
655.622	144.75
655.826	131.75
656.03	152.75
656.234	155.75
656.438	148.75
656.642	148.75
656.846	146.75
657.049	131.75
657.253	129.75
657.457	118.75
657.661	128.75
657.865	112.75
658.068	125.75
658.272	131.75
658.476	116.75
658.68	125.75
658.883	104.75
659.087	119.75
659.291	109.75
659.494	113.75
659.698	106.75
659.901	90.75
660.105	97.75
660.309	91.75
660.512	91.75
660.716	97.75
660.919	90.75
661.123	103.75
661.326	92.75
661.53	84.75
661.733	86.75
661.936	88.75
662.14	81.75
662.343	85.75
662.546	88.75
662.75	82.75
662.953	79.75
663.156	86.75
663.36	80.75
663.563	87.75
663.766	86.75
663.969	77.75
664.173	84.75
664.376	77.75
664.579	88.75
664.782	77.75
664.985	91.75
665.188	92.75
665.391	82.75
665.594	83.75
665.797	76.75
666	75.75
666.203	94.75
666.406	77.75
666.609	79.75
666.812	80.75
667.015	75.75
667.218	88.75
667.421	83.75
667.624	84.75
667.827	80.75
668.03	83.75
668.232	78.75
668.435	87.75
668.638	83.75
668.841	89.75
669.043	79.75
669.246	93.75
669.449	77.75
669.651	77.75
669.854	69.75
670.057	79.75
670.259	78.75
670.462	87.75
670.665	90.75
670.867	67.75
671.07	83.75
671.272	92.75
671.475	77.75
671.677	86.75
671.88	84.75
672.082	79.75
672.284	96.75
672.487	92.75
672.689	77.75
672.892	89.75
