Data from 1962.PennyLincolnUp.Lamp.En5.5.200Scan.071719.P1._HRD10591_13-54-37-061.txt Node
Date: Thu Jul 18 13:54:37 EDT 2019
User: cochatt
Spectrometer: HR+D1059
Trigger mode: 1
Integration Time (sec): 1.000000E-1
Scans to average: 1
Electric dark correction enabled: true
Nonlinearity correction enabled: false
Boxcar width: 0
XAxis mode: Wavelengths
Number of Pixels in Spectrum: 2048
>>>>>Begin Spectral Data<<<<<
223.165	-11.94
223.4	-11.94
223.635	-11.94
223.869	-27.94
224.104	-10.94
224.338	-13.94
224.573	-15.94
224.808	-0.94
225.042	3.06
225.277	7.06
225.511	-14.94
225.746	-8.94
225.98	0.06
226.215	9.06
226.449	21.06
226.683	11.06
226.918	22.06
227.152	32.06
227.387	31.06
227.621	46.06
227.856	43.06
228.09	45.06
228.324	48.06
228.559	53.06
228.793	73.06
229.027	93.06
229.262	94.06
229.496	101.06
229.73	119.06
229.964	125.06
230.199	117.06
230.433	108.06
230.667	102.06
230.901	107.06
231.136	122.06
231.37	114.06
231.604	106.06
231.838	120.06
232.072	120.06
232.306	114.06
232.541	123.06
232.775	104.06
233.009	122.06
233.243	110.06
233.477	106.06
233.711	118.06
233.945	98.06
234.179	108.06
234.413	128.06
234.647	114.06
234.881	109.06
235.115	106.06
235.349	112.06
235.583	114.06
235.817	133.06
236.051	116.06
236.285	114.06
236.519	116.06
236.753	131.06
236.987	125.06
237.221	144.06
237.455	188.06
237.689	148.06
237.922	142.06
238.156	122.06
238.39	122.06
238.624	121.06
238.858	128.06
239.091	116.06
239.325	128.06
239.559	125.06
239.793	126.06
240.027	120.06
240.26	114.06
240.494	133.06
240.728	128.06
240.961	133.06
241.195	160.06
241.429	132.06
241.662	132.06
241.896	116.06
242.13	125.06
242.363	132.06
242.597	132.06
242.83	120.06
243.064	135.06
243.298	133.06
243.531	132.06
243.765	129.06
243.998	145.06
244.232	132.06
244.465	138.06
244.699	141.06
244.932	135.06
245.166	155.06
245.399	144.06
245.633	138.06
245.866	138.06
246.099	147.06
246.333	142.06
246.566	140.06
246.8	132.06
247.033	167.06
247.266	151.06
247.5	157.06
247.733	157.06
247.966	152.06
248.2	152.06
248.433	167.06
248.666	178.06
248.899	167.06
249.133	168.06
249.366	181.06
249.599	170.06
249.832	168.06
250.066	180.06
250.299	174.06
250.532	180.06
250.765	204.06
250.998	215.06
251.231	217.06
251.465	190.06
251.698	187.06
251.931	187.06
252.164	182.06
252.397	173.06
252.63	189.06
252.863	196.06
253.096	179.06
253.329	191.06
253.562	201.06
253.795	205.06
254.028	205.06
254.261	201.06
254.494	212.06
254.727	207.06
254.96	235.06
255.193	224.06
255.426	214.06
255.659	210.06
255.892	211.06
256.124	208.06
256.357	206.06
256.59	213.06
256.823	218.06
257.056	205.06
257.289	204.06
257.521	198.06
257.754	200.06
257.987	208.06
258.22	204.06
258.452	202.06
258.685	189.06
258.918	203.06
259.151	203.06
259.383	220.06
259.616	210.06
259.849	198.06
260.081	218.06
260.314	220.06
260.547	234.06
260.779	230.06
261.012	226.06
261.244	239.06
261.477	207.06
261.71	206.06
261.942	224.06
262.175	222.06
262.407	203.06
262.64	212.06
262.872	190.06
263.105	207.06
263.337	222.06
263.57	211.06
263.802	230.06
264.035	198.06
264.267	211.06
264.499	218.06
264.732	228.06
264.964	203.06
265.197	211.06
265.429	201.06
265.661	215.06
265.894	201.06
266.126	214.06
266.358	226.06
266.591	212.06
266.823	221.06
267.055	225.06
267.287	226.06
267.52	220.06
267.752	226.06
267.984	224.06
268.216	191.06
268.448	221.06
268.681	250.06
268.913	234.06
269.145	245.06
269.377	252.06
269.609	249.06
269.841	249.06
270.073	249.06
270.306	269.06
270.538	276.06
270.77	270.06
271.002	288.06
271.234	284.06
271.466	277.06
271.698	286.06
271.93	288.06
272.162	288.06
272.394	273.06
272.626	276.06
272.858	266.06
273.09	253.06
273.322	246.06
273.553	241.06
273.785	266.06
274.017	254.06
274.249	247.06
274.481	248.06
274.713	260.06
274.945	262.06
275.176	262.06
275.408	248.06
275.64	258.06
275.872	265.06
276.104	263.06
276.335	255.06
276.567	265.06
276.799	282.06
277.031	277.06
277.262	297.06
277.494	299.06
277.726	276.06
277.957	263.06
278.189	276.06
278.421	276.06
278.652	275.06
278.884	279.06
279.115	273.06
279.347	267.06
279.579	278.06
279.81	266.06
280.042	281.06
280.273	278.06
280.505	272.06
280.736	264.06
280.968	275.06
281.199	284.06
281.431	263.06
281.662	267.06
281.894	265.06
282.125	290.06
282.356	280.06
282.588	305.06
282.819	310.06
283.051	274.06
283.282	280.06
283.513	286.06
283.745	285.06
283.976	301.06
284.207	286.06
284.439	291.06
284.67	279.06
284.901	304.06
285.132	292.06
285.364	297.06
285.595	284.06
285.826	294.06
286.057	296.06
286.288	270.06
286.52	306.06
286.751	285.06
286.982	290.06
287.213	296.06
287.444	299.06
287.675	311.06
287.906	294.06
288.138	296.06
288.369	318.06
288.6	297.06
288.831	310.06
289.062	290.06
289.293	298.06
289.524	317.06
289.755	298.06
289.986	301.06
290.217	306.06
290.448	312.06
290.679	311.06
290.91	285.06
291.141	295.06
291.371	289.06
291.602	297.06
291.833	291.06
292.064	312.06
292.295	284.06
292.526	287.06
292.757	315.06
292.987	305.06
293.218	289.06
293.449	293.06
293.68	312.06
293.91	302.06
294.141	301.06
294.372	306.06
294.603	304.06
294.833	291.06
295.064	306.06
295.295	314.06
295.525	299.06
295.756	315.06
295.987	297.06
296.217	334.06
296.448	336.06
296.679	315.06
296.909	310.06
297.14	304.06
297.37	324.06
297.601	308.06
297.831	311.06
298.062	309.06
298.292	304.06
298.523	315.06
298.753	307.06
298.984	317.06
299.214	318.06
299.445	333.06
299.675	330.06
299.905	332.06
300.136	316.06
300.366	335.06
300.597	316.06
300.827	316.06
301.057	328.06
301.288	350.06
301.518	348.06
301.748	338.06
301.979	340.06
302.209	337.06
302.439	324.06
302.669	318.06
302.9	342.06
303.13	337.06
303.36	335.06
303.59	345.06
303.82	359.06
304.051	334.06
304.281	354.06
304.511	344.06
304.741	359.06
304.971	340.06
305.201	327.06
305.431	328.06
305.661	337.06
305.891	331.06
306.121	369.06
306.352	353.06
306.582	346.06
306.812	331.06
307.042	337.06
307.272	338.06
307.502	353.06
307.731	341.06
307.961	339.06
308.191	349.06
308.421	336.06
308.651	340.06
308.881	366.06
309.111	344.06
309.341	328.06
309.571	338.06
309.8	376.06
310.03	353.06
310.26	378.06
310.49	360.06
310.72	362.06
310.949	366.06
311.179	354.06
311.409	371.06
311.639	361.06
311.868	372.06
312.098	376.06
312.328	371.06
312.557	379.06
312.787	373.06
313.017	378.06
313.246	375.06
313.476	380.06
313.706	380.06
313.935	371.06
314.165	375.06
314.394	381.06
314.624	383.06
314.853	377.06
315.083	376.06
315.312	381.06
315.542	349.06
315.771	358.06
316.001	371.06
316.23	361.06
316.46	380.06
316.689	366.06
316.919	378.06
317.148	385.06
317.377	385.06
317.607	372.06
317.836	379.06
318.065	370.06
318.295	363.06
318.524	380.06
318.753	376.06
318.983	379.06
319.212	393.06
319.441	374.06
319.67	392.06
319.9	383.06
320.129	387.06
320.358	375.06
320.587	395.06
320.816	388.06
321.046	388.06
321.275	372.06
321.504	395.06
321.733	402.06
321.962	398.06
322.191	394.06
322.42	391.06
322.649	417.06
322.878	426.06
323.108	421.06
323.337	414.06
323.566	446.06
323.795	454.06
324.024	475.06
324.253	540.06
324.482	730.06
324.71	1051.06
324.939	1472.06
325.168	1315.06
325.397	745.06
325.626	544.06
325.855	490.06
326.084	466.06
326.313	467.06
326.542	449.06
326.77	488.06
326.999	539.06
327.228	667.06
327.457	937.06
327.686	1142.06
327.914	805.06
328.143	591.06
328.372	544.06
328.6	516.06
328.829	478.06
329.058	498.06
329.287	506.06
329.515	498.06
329.744	504.06
329.972	452.06
330.201	484.06
330.43	491.06
330.658	474.06
330.887	524.06
331.115	494.06
331.344	490.06
331.572	465.06
331.801	460.06
332.03	461.06
332.258	453.06
332.486	448.06
332.715	455.06
332.943	437.06
333.172	480.06
333.4	494.06
333.629	477.06
333.857	516.06
334.085	521.06
334.314	533.06
334.542	514.06
334.771	516.06
334.999	496.06
335.227	487.06
335.455	473.06
335.684	488.06
335.912	478.06
336.14	463.06
336.369	460.06
336.597	470.06
336.825	479.06
337.053	471.06
337.281	470.06
337.51	447.06
337.738	455.06
337.966	445.06
338.194	428.06
338.422	437.06
338.65	461.06
338.878	449.06
339.106	436.06
339.334	448.06
339.562	444.06
339.79	422.06
340.018	440.06
340.246	432.06
340.474	439.06
340.702	439.06
340.93	430.06
341.158	422.06
341.386	427.06
341.614	425.06
341.842	433.06
342.07	416.06
342.298	410.06
342.526	414.06
342.754	419.06
342.981	417.06
343.209	408.06
343.437	436.06
343.665	438.06
343.893	482.06
344.12	473.06
344.348	457.06
344.576	454.06
344.804	438.06
345.031	443.06
345.259	443.06
345.487	428.06
345.714	435.06
345.942	428.06
346.17	423.06
346.397	437.06
346.625	429.06
346.853	435.06
347.08	404.06
347.308	405.06
347.535	401.06
347.763	422.06
347.99	396.06
348.218	419.06
348.445	409.06
348.673	420.06
348.9	406.06
349.128	401.06
349.355	412.06
349.583	426.06
349.81	406.06
350.037	392.06
350.265	414.06
350.492	406.06
350.72	395.06
350.947	422.06
351.174	404.06
351.402	411.06
351.629	420.06
351.856	410.06
352.083	427.06
352.311	424.06
352.538	405.06
352.765	406.06
352.992	402.06
353.22	412.06
353.447	414.06
353.674	401.06
353.901	402.06
354.128	397.06
354.355	390.06
354.583	412.06
354.81	410.06
355.037	409.06
355.264	425.06
355.491	382.06
355.718	382.06
355.945	397.06
356.172	398.06
356.399	416.06
356.626	401.06
356.853	370.06
357.08	368.06
357.307	385.06
357.534	398.06
357.761	398.06
357.988	391.06
358.215	403.06
358.441	382.06
358.668	387.06
358.895	394.06
359.122	392.06
359.349	422.06
359.576	404.06
359.802	394.06
360.029	429.06
360.256	437.06
360.483	429.06
360.709	417.06
360.936	419.06
361.163	416.06
361.39	403.06
361.616	403.06
361.843	371.06
362.07	413.06
362.296	391.06
362.523	407.06
362.749	420.06
362.976	399.06
363.203	389.06
363.429	390.06
363.656	378.06
363.882	372.06
364.109	389.06
364.335	392.06
364.562	402.06
364.788	390.06
365.015	407.06
365.241	410.06
365.468	404.06
365.694	385.06
365.92	420.06
366.147	386.06
366.373	393.06
366.599	394.06
366.826	376.06
367.052	389.06
367.278	402.06
367.505	384.06
367.731	403.06
367.957	418.06
368.184	391.06
368.41	394.06
368.636	391.06
368.862	429.06
369.089	396.06
369.315	405.06
369.541	405.06
369.767	406.06
369.993	415.06
370.219	396.06
370.445	425.06
370.672	417.06
370.898	398.06
371.124	404.06
371.35	412.06
371.576	419.06
371.802	438.06
372.028	428.06
372.254	389.06
372.48	413.06
372.706	408.06
372.932	422.06
373.158	430.06
373.384	408.06
373.61	402.06
373.835	423.06
374.061	426.06
374.287	416.06
374.513	420.06
374.739	427.06
374.965	437.06
375.191	412.06
375.416	433.06
375.642	430.06
375.868	426.06
376.094	429.06
376.319	405.06
376.545	409.06
376.771	418.06
376.997	402.06
377.222	420.06
377.448	398.06
377.674	395.06
377.899	409.06
378.125	413.06
378.35	395.06
378.576	404.06
378.802	389.06
379.027	402.06
379.253	419.06
379.478	404.06
379.704	408.06
379.929	411.06
380.155	399.06
380.38	413.06
380.606	414.06
380.831	392.06
381.057	435.06
381.282	391.06
381.507	427.06
381.733	428.06
381.958	422.06
382.184	429.06
382.409	426.06
382.634	427.06
382.86	416.06
383.085	414.06
383.31	432.06
383.535	416.06
383.761	437.06
383.986	436.06
384.211	439.06
384.436	442.06
384.662	452.06
384.887	442.06
385.112	473.06
385.337	462.06
385.562	477.06
385.787	445.06
386.013	466.06
386.238	465.06
386.463	468.06
386.688	490.06
386.913	462.06
387.138	449.06
387.363	474.06
387.588	453.06
387.813	459.06
388.038	475.06
388.263	479.06
388.488	444.06
388.713	473.06
388.938	452.06
389.163	460.06
389.387	459.06
389.612	457.06
389.837	462.06
390.062	445.06
390.287	441.06
390.512	453.06
390.736	462.06
390.961	448.06
391.186	460.06
391.411	473.06
391.636	480.06
391.86	501.06
392.085	496.06
392.31	473.06
392.534	474.06
392.759	478.06
392.984	482.06
393.208	478.06
393.433	472.06
393.658	489.06
393.882	472.06
394.107	468.06
394.331	464.06
394.556	473.06
394.78	483.06
395.005	497.06
395.229	470.06
395.454	482.06
395.678	497.06
395.903	507.06
396.127	513.06
396.352	484.06
396.576	485.06
396.801	485.06
397.025	501.06
397.249	490.06
397.474	501.06
397.698	499.06
397.922	523.06
398.147	523.06
398.371	524.06
398.595	531.06
398.82	563.06
399.044	572.06
399.268	615.06
399.492	645.06
399.717	681.06
399.941	683.06
400.165	689.06
400.389	671.06
400.613	630.06
400.837	586.06
401.062	571.06
401.286	566.06
401.51	544.06
401.734	554.06
401.958	562.06
402.182	563.06
402.406	572.06
402.63	548.06
402.854	557.06
403.078	562.06
403.302	561.06
403.526	560.06
403.75	574.06
403.974	583.06
404.198	584.06
404.422	610.06
404.645	589.06
404.869	587.06
405.093	618.06
405.317	641.06
405.541	668.06
405.765	609.06
405.988	596.06
406.212	590.06
406.436	618.06
406.66	623.06
406.883	630.06
407.107	642.06
407.331	676.06
407.555	734.06
407.778	733.06
408.002	684.06
408.226	674.06
408.449	620.06
408.673	646.06
408.896	631.06
409.12	668.06
409.344	657.06
409.567	588.06
409.791	570.06
410.014	592.06
410.238	554.06
410.461	579.06
410.685	577.06
410.908	593.06
411.132	608.06
411.355	629.06
411.578	626.06
411.802	580.06
412.025	565.06
412.249	575.06
412.472	595.06
412.695	621.06
412.919	616.06
413.142	580.06
413.365	564.06
413.589	542.06
413.812	528.06
414.035	558.06
414.258	528.06
414.482	551.06
414.705	539.06
414.928	533.06
415.151	526.06
415.374	542.06
415.597	546.06
415.821	525.06
416.044	543.06
416.267	530.06
416.49	520.06
416.713	534.06
416.936	538.06
417.159	534.06
417.382	539.06
417.605	538.06
417.828	542.06
418.051	544.06
418.274	567.06
418.497	531.06
418.72	548.06
418.943	541.06
419.166	565.06
419.389	602.06
419.611	571.06
419.834	581.06
420.057	555.06
420.28	547.06
420.503	545.06
420.726	545.06
420.948	555.06
421.171	589.06
421.394	622.06
421.617	590.06
421.839	549.06
422.062	555.06
422.285	551.06
422.507	597.06
422.73	663.06
422.953	634.06
423.175	590.06
423.398	565.06
423.621	568.06
423.843	612.06
424.066	590.06
424.288	598.06
424.511	591.06
424.733	647.06
424.956	690.06
425.178	636.06
425.401	654.06
425.623	667.06
425.846	614.06
426.068	582.06
426.291	583.06
426.513	563.06
426.735	565.06
426.958	604.06
427.18	666.06
427.402	761.06
427.625	817.06
427.847	691.06
428.069	648.06
428.292	571.06
428.514	552.06
428.736	539.06
428.958	532.06
429.181	526.06
429.403	537.06
429.625	527.06
429.847	541.06
430.069	582.06
430.292	576.06
430.514	514.06
430.736	524.06
430.958	536.06
431.18	520.06
431.402	503.06
431.624	494.06
431.846	515.06
432.068	520.06
432.29	513.06
432.512	500.06
432.734	513.06
432.956	508.06
433.178	530.06
433.4	493.06
433.622	518.06
433.844	502.06
434.066	510.06
434.287	513.06
434.509	525.06
434.731	541.06
434.953	548.06
435.175	541.06
435.397	561.06
435.618	573.06
435.84	595.06
436.062	653.06
436.284	722.06
436.505	594.06
436.727	568.06
436.949	523.06
437.17	542.06
437.392	533.06
437.614	533.06
437.835	535.06
438.057	617.06
438.278	658.06
438.5	686.06
438.721	738.06
438.943	721.06
439.165	630.06
439.386	550.06
439.608	555.06
439.829	570.06
440.05	585.06
440.272	594.06
440.493	560.06
440.715	584.06
440.936	532.06
441.158	543.06
441.379	549.06
441.6	553.06
441.822	554.06
442.043	605.06
442.264	656.06
442.486	711.06
442.707	596.06
442.928	562.06
443.149	568.06
443.371	593.06
443.592	611.06
443.813	694.06
444.034	760.06
444.255	663.06
444.476	606.06
444.698	588.06
444.919	619.06
445.14	738.06
445.361	647.06
445.582	592.06
445.803	662.06
446.024	694.06
446.245	720.06
446.466	655.06
446.687	611.06
446.908	555.06
447.129	534.06
447.35	513.06
447.571	533.06
447.792	518.06
448.013	512.06
448.234	528.06
448.455	562.06
448.675	636.06
448.896	744.06
449.117	632.06
449.338	608.06
449.559	692.06
449.779	784.06
450	655.06
450.221	560.06
450.442	510.06
450.662	500.06
450.883	471.06
451.104	492.06
451.324	482.06
451.545	473.06
451.766	483.06
451.986	465.06
452.207	454.06
452.428	442.06
452.648	448.06
452.869	458.06
453.089	480.06
453.31	464.06
453.53	462.06
453.751	461.06
453.971	469.06
454.192	475.06
454.412	434.06
454.633	460.06
454.853	445.06
455.073	480.06
455.294	478.06
455.514	533.06
455.734	510.06
455.955	463.06
456.175	443.06
456.395	420.06
456.616	461.06
456.836	458.06
457.056	444.06
457.276	442.06
457.497	420.06
457.717	460.06
457.937	462.06
458.157	462.06
458.377	476.06
458.598	469.06
458.818	487.06
459.038	568.06
459.258	579.06
459.478	526.06
459.698	520.06
459.918	487.06
460.138	533.06
460.358	540.06
460.578	542.06
460.798	547.06
461.018	554.06
461.238	541.06
461.458	559.06
461.678	540.06
461.898	579.06
462.118	563.06
462.338	564.06
462.558	595.06
462.777	581.06
462.997	621.06
463.217	639.06
463.437	640.06
463.657	620.06
463.876	616.06
464.096	597.06
464.316	592.06
464.536	585.06
464.755	590.06
464.975	584.06
465.195	587.06
465.414	606.06
465.634	572.06
465.854	529.06
466.073	510.06
466.293	524.06
466.512	503.06
466.732	489.06
466.951	501.06
467.171	487.06
467.391	502.06
467.61	480.06
467.829	508.06
468.049	491.06
468.268	487.06
468.488	478.06
468.707	461.06
468.927	472.06
469.146	491.06
469.365	485.06
469.585	463.06
469.804	478.06
470.023	503.06
470.243	481.06
470.462	494.06
470.681	496.06
470.901	492.06
471.12	520.06
471.339	506.06
471.558	492.06
471.777	481.06
471.997	500.06
472.216	506.06
472.435	500.06
472.654	505.06
472.873	483.06
473.092	459.06
473.311	480.06
473.53	477.06
473.749	468.06
473.968	524.06
474.187	587.06
474.406	588.06
474.625	521.06
474.844	481.06
475.063	481.06
475.282	490.06
475.501	462.06
475.72	507.06
475.939	481.06
476.158	498.06
476.377	475.06
476.596	484.06
476.814	521.06
477.033	508.06
477.252	529.06
477.471	502.06
477.69	530.06
477.908	522.06
478.127	551.06
478.346	546.06
478.564	547.06
478.783	586.06
479.002	576.06
479.22	561.06
479.439	581.06
479.658	576.06
479.876	595.06
480.095	596.06
480.313	622.06
480.532	613.06
480.751	631.06
480.969	632.06
481.188	641.06
481.406	630.06
481.624	614.06
481.843	594.06
482.061	592.06
482.28	597.06
482.498	602.06
482.717	576.06
482.935	578.06
483.153	564.06
483.372	542.06
483.59	551.06
483.808	556.06
484.027	563.06
484.245	558.06
484.463	570.06
484.681	582.06
484.9	576.06
485.118	571.06
485.336	576.06
485.554	574.06
485.772	590.06
485.99	574.06
486.209	569.06
486.427	592.06
486.645	595.06
486.863	609.06
487.081	617.06
487.299	616.06
487.517	628.06
487.735	586.06
487.953	597.06
488.171	612.06
488.389	586.06
488.607	618.06
488.825	613.06
489.043	598.06
489.261	599.06
489.479	595.06
489.696	626.06
489.914	619.06
490.132	630.06
490.35	618.06
490.568	605.06
490.786	640.06
491.003	634.06
491.221	638.06
491.439	646.06
491.657	634.06
491.874	660.06
492.092	684.06
492.31	667.06
492.527	652.06
492.745	648.06
492.963	678.06
493.18	692.06
493.398	672.06
493.615	666.06
493.833	706.06
494.05	694.06
494.268	698.06
494.485	691.06
494.703	676.06
494.92	671.06
495.138	671.06
495.355	723.06
495.573	715.06
495.79	697.06
496.008	704.06
496.225	694.06
496.442	706.06
496.66	706.06
496.877	716.06
497.094	746.06
497.312	724.06
497.529	728.06
497.746	750.06
497.963	765.06
498.181	776.06
498.398	822.06
498.615	833.06
498.832	838.06
499.049	892.06
499.267	931.06
499.484	957.06
499.701	1018.06
499.918	1046.06
500.135	1132.06
500.352	1222.06
500.569	1250.06
500.786	1252.06
501.003	1191.06
501.22	1137.06
501.437	1090.06
501.654	993.06
501.871	1011.06
502.088	944.06
502.305	884.06
502.522	858.06
502.739	845.06
502.956	796.06
503.172	785.06
503.389	746.06
503.606	752.06
503.823	758.06
504.04	740.06
504.256	757.06
504.473	756.06
504.69	720.06
504.907	726.06
505.123	701.06
505.34	692.06
505.557	667.06
505.773	654.06
505.99	667.06
506.207	688.06
506.423	661.06
506.64	642.06
506.856	649.06
507.073	617.06
507.289	653.06
507.506	638.06
507.722	644.06
507.939	630.06
508.155	620.06
508.372	632.06
508.588	618.06
508.805	640.06
509.021	625.06
509.238	626.06
509.454	582.06
509.67	614.06
509.887	589.06
510.103	619.06
510.319	624.06
510.536	642.06
510.752	901.06
510.968	768.06
511.184	618.06
511.401	568.06
511.617	576.06
511.833	598.06
512.049	583.06
512.265	563.06
512.481	566.06
512.698	583.06
512.914	606.06
513.13	582.06
513.346	602.06
513.562	608.06
513.778	552.06
513.994	568.06
514.21	581.06
514.426	584.06
514.642	620.06
514.858	603.06
515.074	652.06
515.29	698.06
515.506	873.06
515.721	782.06
515.937	644.06
516.153	615.06
516.369	644.06
516.585	638.06
516.801	612.06
517.016	634.06
517.232	644.06
517.448	638.06
517.664	667.06
517.879	647.06
518.095	670.06
518.311	650.06
518.527	620.06
518.742	634.06
518.958	613.06
519.173	615.06
519.389	598.06
519.605	590.06
519.82	596.06
520.036	599.06
520.251	600.06
520.467	593.06
520.682	606.06
520.898	590.06
521.113	618.06
521.329	632.06
521.544	654.06
521.76	714.06
521.975	1001.06
522.19	994.06
522.406	705.06
522.621	589.06
522.836	562.06
523.052	571.06
523.267	539.06
523.482	515.06
523.698	566.06
523.913	520.06
524.128	520.06
524.343	504.06
524.559	482.06
524.774	512.06
524.989	512.06
525.204	513.06
525.419	525.06
525.634	509.06
525.849	507.06
526.064	494.06
526.28	497.06
526.495	484.06
526.71	477.06
526.925	515.06
527.14	491.06
527.355	470.06
527.57	508.06
527.785	498.06
527.999	488.06
528.214	496.06
528.429	491.06
528.644	512.06
528.859	499.06
529.074	498.06
529.289	481.06
529.503	533.06
529.718	509.06
529.933	503.06
530.148	483.06
530.363	505.06
530.577	490.06
530.792	489.06
531.007	481.06
531.221	488.06
531.436	488.06
531.651	480.06
531.865	495.06
532.08	483.06
532.295	481.06
532.509	494.06
532.724	460.06
532.938	474.06
533.153	470.06
533.367	472.06
533.582	474.06
533.796	471.06
534.011	469.06
534.225	470.06
534.44	477.06
534.654	502.06
534.868	484.06
535.083	467.06
535.297	474.06
535.511	480.06
535.726	476.06
535.94	473.06
536.154	474.06
536.369	469.06
536.583	464.06
536.797	459.06
537.011	474.06
537.225	460.06
537.44	468.06
537.654	450.06
537.868	449.06
538.082	457.06
538.296	445.06
538.51	453.06
538.724	454.06
538.938	453.06
539.153	473.06
539.367	453.06
539.581	448.06
539.795	440.06
540.009	463.06
540.222	441.06
540.436	467.06
540.65	452.06
540.864	442.06
541.078	443.06
541.292	448.06
541.506	480.06
541.72	473.06
541.934	454.06
542.147	465.06
542.361	458.06
542.575	465.06
542.789	463.06
543.002	443.06
543.216	450.06
543.43	430.06
543.644	456.06
543.857	461.06
544.071	442.06
544.285	468.06
544.498	461.06
544.712	449.06
544.925	462.06
545.139	455.06
545.352	449.06
545.566	457.06
545.779	442.06
545.993	440.06
546.206	457.06
546.42	444.06
546.633	450.06
546.847	445.06
547.06	460.06
547.274	444.06
547.487	454.06
547.7	445.06
547.914	433.06
548.127	454.06
548.34	444.06
548.554	459.06
548.767	449.06
548.98	464.06
549.193	459.06
549.407	454.06
549.62	455.06
549.833	478.06
550.046	470.06
550.259	451.06
550.473	413.06
550.686	486.06
550.899	442.06
551.112	438.06
551.325	429.06
551.538	444.06
551.751	427.06
551.964	452.06
552.177	442.06
552.39	444.06
552.603	450.06
552.816	444.06
553.029	472.06
553.242	483.06
553.455	470.06
553.667	476.06
553.88	496.06
554.093	452.06
554.306	444.06
554.519	442.06
554.732	458.06
554.944	425.06
555.157	437.06
555.37	419.06
555.583	424.06
555.795	435.06
556.008	414.06
556.221	417.06
556.433	405.06
556.646	413.06
556.859	402.06
557.071	412.06
557.284	389.06
557.496	394.06
557.709	395.06
557.921	388.06
558.134	395.06
558.346	379.06
558.559	411.06
558.771	409.06
558.984	390.06
559.196	388.06
559.409	391.06
559.621	386.06
559.833	388.06
560.046	381.06
560.258	379.06
560.47	381.06
560.683	372.06
560.895	392.06
561.107	402.06
561.32	385.06
561.532	389.06
561.744	409.06
561.956	385.06
562.168	385.06
562.381	418.06
562.593	390.06
562.805	386.06
563.017	394.06
563.229	377.06
563.441	393.06
563.653	398.06
563.865	396.06
564.077	424.06
564.289	409.06
564.501	432.06
564.713	432.06
564.925	413.06
565.137	420.06
565.349	427.06
565.561	454.06
565.773	482.06
565.985	483.06
566.197	487.06
566.408	479.06
566.62	511.06
566.832	557.06
567.044	562.06
567.255	556.06
567.467	536.06
567.679	584.06
567.891	603.06
568.102	596.06
568.314	585.06
568.526	551.06
568.737	526.06
568.949	510.06
569.161	481.06
569.372	442.06
569.584	450.06
569.795	427.06
570.007	431.06
570.218	448.06
570.43	419.06
570.641	429.06
570.853	433.06
571.064	408.06
571.276	402.06
571.487	391.06
571.698	403.06
571.91	368.06
572.121	361.06
572.333	373.06
572.544	372.06
572.755	361.06
572.966	323.06
573.178	358.06
573.389	355.06
573.6	352.06
573.811	358.06
574.023	345.06
574.234	341.06
574.445	350.06
574.656	381.06
574.867	357.06
575.078	361.06
575.289	334.06
575.501	344.06
575.712	349.06
575.923	355.06
576.134	341.06
576.345	347.06
576.556	347.06
576.767	342.06
576.978	330.06
577.188	340.06
577.399	337.06
577.61	320.06
577.821	329.06
578.032	349.06
578.243	349.06
578.454	444.06
578.665	369.06
578.875	337.06
579.086	320.06
579.297	326.06
579.508	313.06
579.718	306.06
579.929	322.06
580.14	321.06
580.35	313.06
580.561	314.06
580.772	302.06
580.982	314.06
581.193	301.06
581.403	313.06
581.614	324.06
581.825	314.06
582.035	308.06
582.246	298.06
582.456	315.06
582.667	317.06
582.877	316.06
583.087	326.06
583.298	315.06
583.508	306.06
583.719	306.06
583.929	326.06
584.139	317.06
584.35	311.06
584.56	308.06
584.77	310.06
584.981	306.06
585.191	306.06
585.401	317.06
585.611	316.06
585.821	299.06
586.032	301.06
586.242	317.06
586.452	291.06
586.662	294.06
586.872	275.06
587.082	297.06
587.292	301.06
587.502	296.06
587.713	288.06
587.923	299.06
588.133	289.06
588.343	291.06
588.553	281.06
588.762	294.06
588.972	329.06
589.182	340.06
589.392	328.06
589.602	299.06
589.812	314.06
590.022	324.06
590.232	292.06
590.441	298.06
590.651	309.06
590.861	296.06
591.071	297.06
591.281	289.06
591.49	309.06
591.7	314.06
591.91	310.06
592.119	297.06
592.329	324.06
592.539	348.06
592.748	344.06
592.958	321.06
593.167	340.06
593.377	350.06
593.587	352.06
593.796	362.06
594.006	356.06
594.215	349.06
594.424	354.06
594.634	342.06
594.843	337.06
595.053	338.06
595.262	339.06
595.472	308.06
595.681	314.06
595.89	295.06
596.1	280.06
596.309	292.06
596.518	300.06
596.727	298.06
596.937	288.06
597.146	276.06
597.355	275.06
597.564	277.06
597.774	278.06
597.983	292.06
598.192	279.06
598.401	304.06
598.61	289.06
598.819	279.06
599.028	280.06
599.237	274.06
599.446	276.06
599.655	268.06
599.864	274.06
600.073	257.06
600.282	247.06
600.491	276.06
600.7	264.06
600.909	268.06
601.118	261.06
601.327	266.06
601.536	264.06
601.745	253.06
601.953	269.06
602.162	251.06
602.371	270.06
602.58	268.06
602.789	262.06
602.997	243.06
603.206	258.06
603.415	255.06
603.623	251.06
603.832	244.06
604.041	252.06
604.249	234.06
604.458	246.06
604.666	258.06
604.875	266.06
605.084	257.06
605.292	254.06
605.501	259.06
605.709	253.06
605.918	231.06
606.126	252.06
606.334	236.06
606.543	250.06
606.751	257.06
606.96	253.06
607.168	259.06
607.376	237.06
607.585	259.06
607.793	222.06
608.001	241.06
608.21	251.06
608.418	245.06
608.626	233.06
608.834	245.06
609.043	260.06
609.251	238.06
609.459	220.06
609.667	258.06
609.875	233.06
610.083	242.06
610.291	238.06
610.499	240.06
610.707	239.06
610.916	238.06
611.124	271.06
611.332	237.06
611.54	235.06
611.748	260.06
611.955	250.06
612.163	226.06
612.371	232.06
612.579	259.06
612.787	243.06
612.995	244.06
613.203	244.06
613.411	242.06
613.618	231.06
613.826	252.06
614.034	245.06
614.242	237.06
614.449	266.06
614.657	244.06
614.865	236.06
615.072	256.06
615.28	224.06
615.488	230.06
615.695	229.06
615.903	207.06
616.111	226.06
616.318	250.06
616.526	232.06
616.733	227.06
616.941	236.06
617.148	241.06
617.356	250.06
617.563	229.06
617.771	232.06
617.978	236.06
618.185	232.06
618.393	230.06
618.6	222.06
618.807	219.06
619.015	239.06
619.222	230.06
619.429	200.06
619.637	244.06
619.844	235.06
620.051	230.06
620.258	236.06
620.466	229.06
620.673	228.06
620.88	216.06
621.087	212.06
621.294	221.06
621.501	238.06
621.708	220.06
621.915	232.06
622.122	225.06
622.329	228.06
622.536	222.06
622.743	224.06
622.95	206.06
623.157	227.06
623.364	226.06
623.571	206.06
623.778	210.06
623.985	201.06
624.192	230.06
624.399	210.06
624.606	228.06
624.812	226.06
625.019	210.06
625.226	224.06
625.433	215.06
625.639	218.06
625.846	196.06
626.053	205.06
626.259	198.06
626.466	201.06
626.673	218.06
626.879	213.06
627.086	219.06
627.293	185.06
627.499	196.06
627.706	187.06
627.912	216.06
628.119	206.06
628.325	206.06
628.532	209.06
628.738	186.06
628.945	194.06
629.151	201.06
629.357	200.06
629.564	205.06
629.77	200.06
629.976	196.06
630.183	192.06
630.389	201.06
630.595	189.06
630.802	195.06
631.008	206.06
631.214	204.06
631.42	203.06
631.627	196.06
631.833	187.06
632.039	196.06
632.245	180.06
632.451	195.06
632.657	184.06
632.863	176.06
633.069	187.06
633.275	197.06
633.481	204.06
633.688	189.06
633.893	184.06
634.099	188.06
634.305	186.06
634.511	192.06
634.717	180.06
634.923	180.06
635.129	201.06
635.335	181.06
635.541	186.06
635.747	186.06
635.952	185.06
636.158	181.06
636.364	188.06
636.57	185.06
636.775	180.06
636.981	166.06
637.187	189.06
637.392	173.06
637.598	179.06
637.804	182.06
638.009	174.06
638.215	172.06
638.421	169.06
638.626	156.06
638.832	169.06
639.037	181.06
639.243	188.06
639.448	169.06
639.654	163.06
639.859	191.06
640.065	179.06
640.27	180.06
640.475	184.06
640.681	184.06
640.886	190.06
641.091	165.06
641.297	172.06
641.502	165.06
641.707	172.06
641.913	157.06
642.118	189.06
642.323	178.06
642.528	180.06
642.733	178.06
642.939	160.06
643.144	172.06
643.349	163.06
643.554	161.06
643.759	174.06
643.964	170.06
644.169	162.06
644.374	153.06
644.579	170.06
644.784	178.06
644.989	149.06
645.194	176.06
645.399	180.06
645.604	176.06
645.809	165.06
646.014	172.06
646.219	171.06
646.423	170.06
646.628	152.06
646.833	173.06
647.038	186.06
647.243	162.06
647.447	173.06
647.652	177.06
647.857	172.06
648.062	176.06
648.266	172.06
648.471	169.06
648.676	180.06
648.88	179.06
649.085	174.06
649.289	176.06
649.494	173.06
649.698	182.06
649.903	184.06
650.107	169.06
650.312	184.06
650.516	167.06
650.721	144.06
650.925	165.06
651.13	158.06
651.334	139.06
651.539	158.06
651.743	159.06
651.947	178.06
652.152	157.06
652.356	146.06
652.56	152.06
652.764	162.06
652.969	140.06
653.173	152.06
653.377	146.06
653.581	125.06
653.785	146.06
653.99	136.06
654.194	130.06
654.398	134.06
654.602	143.06
654.806	128.06
655.01	156.06
655.214	143.06
655.418	147.06
655.622	136.06
655.826	151.06
656.03	141.06
656.234	150.06
656.438	140.06
656.642	150.06
656.846	142.06
657.049	119.06
657.253	147.06
657.457	140.06
657.661	136.06
657.865	118.06
658.068	117.06
658.272	107.06
658.476	112.06
658.68	119.06
658.883	110.06
659.087	90.06
659.291	106.06
659.494	113.06
659.698	109.06
659.901	101.06
660.105	99.06
660.309	104.06
660.512	96.06
660.716	106.06
660.919	96.06
661.123	102.06
661.326	102.06
661.53	92.06
661.733	92.06
661.936	92.06
662.14	105.06
662.343	84.06
662.546	95.06
662.75	81.06
662.953	78.06
663.156	83.06
663.36	76.06
663.563	87.06
663.766	93.06
663.969	84.06
664.173	92.06
664.376	92.06
664.579	82.06
664.782	67.06
664.985	90.06
665.188	87.06
665.391	81.06
665.594	92.06
665.797	61.06
666	85.06
666.203	85.06
666.406	76.06
666.609	78.06
666.812	72.06
667.015	84.06
667.218	84.06
667.421	78.06
667.624	90.06
667.827	79.06
668.03	76.06
668.232	79.06
668.435	79.06
668.638	85.06
668.841	74.06
669.043	87.06
669.246	78.06
669.449	96.06
669.651	80.06
669.854	78.06
670.057	96.06
670.259	84.06
670.462	88.06
670.665	84.06
670.867	82.06
671.07	82.06
671.272	80.06
671.475	81.06
671.677	73.06
671.88	81.06
672.082	92.06
672.284	76.06
672.487	91.06
672.689	81.06
672.892	79.06
