Data from 1962.PennyLincolnUp.Lamp.En5.5.200Scan.071719.P1._HRD10591_13-54-19-060.txt Node
Date: Thu Jul 18 13:54:19 EDT 2019
User: cochatt
Spectrometer: HR+D1059
Trigger mode: 1
Integration Time (sec): 1.000000E-1
Scans to average: 1
Electric dark correction enabled: true
Nonlinearity correction enabled: false
Boxcar width: 0
XAxis mode: Wavelengths
Number of Pixels in Spectrum: 2048
>>>>>Begin Spectral Data<<<<<
223.165	1.38
223.4	1.38
223.635	1.38
223.869	-3.62
224.104	-17.62
224.338	-17.62
224.573	-14.62
224.808	-19.62
225.042	-6.62
225.277	-2.62
225.511	-24.62
225.746	6.38
225.98	3.38
226.215	21.38
226.449	13.38
226.683	13.38
226.918	22.38
227.152	25.38
227.387	33.38
227.621	31.38
227.856	40.38
228.09	42.38
228.324	42.38
228.559	60.38
228.793	65.38
229.027	74.38
229.262	88.38
229.496	94.38
229.73	109.38
229.964	127.38
230.199	119.38
230.433	111.38
230.667	118.38
230.901	95.38
231.136	105.38
231.37	109.38
231.604	109.38
231.838	113.38
232.072	118.38
232.306	116.38
232.541	109.38
232.775	109.38
233.009	104.38
233.243	115.38
233.477	113.38
233.711	117.38
233.945	115.38
234.179	123.38
234.413	125.38
234.647	123.38
234.881	112.38
235.115	114.38
235.349	95.38
235.583	116.38
235.817	115.38
236.051	120.38
236.285	117.38
236.519	108.38
236.753	111.38
236.987	125.38
237.221	147.38
237.455	166.38
237.689	152.38
237.922	128.38
238.156	113.38
238.39	128.38
238.624	108.38
238.858	117.38
239.091	122.38
239.325	121.38
239.559	99.38
239.793	123.38
240.027	141.38
240.26	130.38
240.494	135.38
240.728	136.38
240.961	117.38
241.195	127.38
241.429	127.38
241.662	147.38
241.896	125.38
242.13	134.38
242.363	133.38
242.597	125.38
242.83	133.38
243.064	132.38
243.298	151.38
243.531	135.38
243.765	139.38
243.998	140.38
244.232	125.38
244.465	138.38
244.699	133.38
244.932	151.38
245.166	141.38
245.399	151.38
245.633	154.38
245.866	149.38
246.099	145.38
246.333	135.38
246.566	140.38
246.8	138.38
247.033	130.38
247.266	146.38
247.5	175.38
247.733	156.38
247.966	164.38
248.2	157.38
248.433	155.38
248.666	149.38
248.899	162.38
249.133	177.38
249.366	169.38
249.599	179.38
249.832	168.38
250.066	167.38
250.299	150.38
250.532	172.38
250.765	175.38
250.998	182.38
251.231	194.38
251.465	181.38
251.698	185.38
251.931	187.38
252.164	175.38
252.397	192.38
252.63	162.38
252.863	203.38
253.096	180.38
253.329	199.38
253.562	185.38
253.795	207.38
254.028	195.38
254.261	179.38
254.494	186.38
254.727	209.38
254.96	221.38
255.193	221.38
255.426	205.38
255.659	198.38
255.892	202.38
256.124	195.38
256.357	203.38
256.59	204.38
256.823	185.38
257.056	167.38
257.289	183.38
257.521	182.38
257.754	177.38
257.987	202.38
258.22	185.38
258.452	172.38
258.685	185.38
258.918	190.38
259.151	196.38
259.383	207.38
259.616	209.38
259.849	195.38
260.081	210.38
260.314	217.38
260.547	229.38
260.779	221.38
261.012	190.38
261.244	198.38
261.477	210.38
261.71	196.38
261.942	204.38
262.175	210.38
262.407	207.38
262.64	209.38
262.872	203.38
263.105	203.38
263.337	205.38
263.57	189.38
263.802	190.38
264.035	199.38
264.267	193.38
264.499	202.38
264.732	211.38
264.964	216.38
265.197	210.38
265.429	212.38
265.661	213.38
265.894	193.38
266.126	212.38
266.358	201.38
266.591	205.38
266.823	226.38
267.055	214.38
267.287	225.38
267.52	223.38
267.752	207.38
267.984	230.38
268.216	240.38
268.448	237.38
268.681	244.38
268.913	215.38
269.145	259.38
269.377	241.38
269.609	257.38
269.841	238.38
270.073	248.38
270.306	237.38
270.538	271.38
270.77	271.38
271.002	266.38
271.234	258.38
271.466	268.38
271.698	270.38
271.93	271.38
272.162	276.38
272.394	266.38
272.626	277.38
272.858	244.38
273.09	233.38
273.322	253.38
273.553	254.38
273.785	232.38
274.017	252.38
274.249	257.38
274.481	238.38
274.713	256.38
274.945	253.38
275.176	254.38
275.408	253.38
275.64	236.38
275.872	262.38
276.104	250.38
276.335	244.38
276.567	261.38
276.799	252.38
277.031	280.38
277.262	281.38
277.494	279.38
277.726	282.38
277.957	278.38
278.189	259.38
278.421	256.38
278.652	254.38
278.884	254.38
279.115	253.38
279.347	269.38
279.579	263.38
279.81	260.38
280.042	285.38
280.273	260.38
280.505	253.38
280.736	255.38
280.968	272.38
281.199	253.38
281.431	254.38
281.662	263.38
281.894	267.38
282.125	261.38
282.356	279.38
282.588	263.38
282.819	291.38
283.051	295.38
283.282	269.38
283.513	278.38
283.745	259.38
283.976	282.38
284.207	271.38
284.439	268.38
284.67	284.38
284.901	282.38
285.132	282.38
285.364	284.38
285.595	277.38
285.826	281.38
286.057	289.38
286.288	259.38
286.52	275.38
286.751	282.38
286.982	280.38
287.213	282.38
287.444	288.38
287.675	282.38
287.906	298.38
288.138	282.38
288.369	286.38
288.6	293.38
288.831	282.38
289.062	273.38
289.293	289.38
289.524	288.38
289.755	279.38
289.986	288.38
290.217	274.38
290.448	285.38
290.679	294.38
290.91	285.38
291.141	276.38
291.371	299.38
291.602	279.38
291.833	291.38
292.064	305.38
292.295	269.38
292.526	317.38
292.757	301.38
292.987	286.38
293.218	296.38
293.449	307.38
293.68	293.38
293.91	289.38
294.141	297.38
294.372	281.38
294.603	291.38
294.833	282.38
295.064	293.38
295.295	284.38
295.525	277.38
295.756	292.38
295.987	298.38
296.217	301.38
296.448	319.38
296.679	319.38
296.909	313.38
297.14	307.38
297.37	294.38
297.601	317.38
297.831	290.38
298.062	298.38
298.292	293.38
298.523	319.38
298.753	309.38
298.984	320.38
299.214	298.38
299.445	316.38
299.675	293.38
299.905	311.38
300.136	305.38
300.366	307.38
300.597	330.38
300.827	329.38
301.057	319.38
301.288	333.38
301.518	318.38
301.748	326.38
301.979	321.38
302.209	337.38
302.439	313.38
302.669	312.38
302.9	305.38
303.13	317.38
303.36	318.38
303.59	316.38
303.82	341.38
304.051	329.38
304.281	338.38
304.511	334.38
304.741	301.38
304.971	294.38
305.201	333.38
305.431	327.38
305.661	338.38
305.891	323.38
306.121	306.38
306.352	342.38
306.582	333.38
306.812	323.38
307.042	317.38
307.272	342.38
307.502	321.38
307.731	330.38
307.961	334.38
308.191	326.38
308.421	326.38
308.651	330.38
308.881	334.38
309.111	348.38
309.341	346.38
309.571	327.38
309.8	348.38
310.03	355.38
310.26	341.38
310.49	353.38
310.72	351.38
310.949	343.38
311.179	377.38
311.409	344.38
311.639	329.38
311.868	343.38
312.098	337.38
312.328	358.38
312.557	366.38
312.787	372.38
313.017	364.38
313.246	376.38
313.476	366.38
313.706	343.38
313.935	373.38
314.165	365.38
314.394	365.38
314.624	372.38
314.853	365.38
315.083	363.38
315.312	362.38
315.542	342.38
315.771	378.38
316.001	347.38
316.23	354.38
316.46	365.38
316.689	353.38
316.919	372.38
317.148	379.38
317.377	377.38
317.607	362.38
317.836	370.38
318.065	357.38
318.295	366.38
318.524	351.38
318.753	340.38
318.983	350.38
319.212	369.38
319.441	369.38
319.67	372.38
319.9	369.38
320.129	360.38
320.358	367.38
320.587	372.38
320.816	357.38
321.046	381.38
321.275	377.38
321.504	382.38
321.733	362.38
321.962	369.38
322.191	383.38
322.42	378.38
322.649	374.38
322.878	387.38
323.108	409.38
323.337	393.38
323.566	413.38
323.795	432.38
324.024	471.38
324.253	511.38
324.482	663.38
324.71	1002.38
324.939	1345.38
325.168	1163.38
325.397	693.38
325.626	531.38
325.855	466.38
326.084	436.38
326.313	412.38
326.542	437.38
326.77	450.38
326.999	517.38
327.228	606.38
327.457	872.38
327.686	1057.38
327.914	723.38
328.143	587.38
328.372	527.38
328.6	466.38
328.829	457.38
329.058	454.38
329.287	472.38
329.515	466.38
329.744	450.38
329.972	445.38
330.201	435.38
330.43	480.38
330.658	462.38
330.887	499.38
331.115	486.38
331.344	449.38
331.572	450.38
331.801	418.38
332.03	450.38
332.258	446.38
332.486	441.38
332.715	439.38
332.943	448.38
333.172	450.38
333.4	443.38
333.629	464.38
333.857	474.38
334.085	496.38
334.314	500.38
334.542	492.38
334.771	475.38
334.999	493.38
335.227	477.38
335.455	446.38
335.684	449.38
335.912	468.38
336.14	439.38
336.369	434.38
336.597	431.38
336.825	448.38
337.053	441.38
337.281	429.38
337.51	425.38
337.738	428.38
337.966	428.38
338.194	441.38
338.422	447.38
338.65	434.38
338.878	446.38
339.106	414.38
339.334	433.38
339.562	396.38
339.79	420.38
340.018	439.38
340.246	419.38
340.474	409.38
340.702	407.38
340.93	422.38
341.158	395.38
341.386	399.38
341.614	425.38
341.842	429.38
342.07	414.38
342.298	394.38
342.526	418.38
342.754	414.38
342.981	414.38
343.209	417.38
343.437	420.38
343.665	427.38
343.893	457.38
344.12	459.38
344.348	440.38
344.576	422.38
344.804	441.38
345.031	419.38
345.259	443.38
345.487	425.38
345.714	389.38
345.942	413.38
346.17	419.38
346.397	399.38
346.625	399.38
346.853	409.38
347.08	394.38
347.308	411.38
347.535	397.38
347.763	391.38
347.99	415.38
348.218	407.38
348.445	393.38
348.673	397.38
348.9	423.38
349.128	402.38
349.355	378.38
349.583	383.38
349.81	391.38
350.037	373.38
350.265	382.38
350.492	383.38
350.72	392.38
350.947	395.38
351.174	396.38
351.402	397.38
351.629	386.38
351.856	390.38
352.083	403.38
352.311	385.38
352.538	406.38
352.765	397.38
352.992	397.38
353.22	392.38
353.447	389.38
353.674	380.38
353.901	391.38
354.128	390.38
354.355	371.38
354.583	387.38
354.81	380.38
355.037	386.38
355.264	384.38
355.491	374.38
355.718	371.38
355.945	386.38
356.172	391.38
356.399	383.38
356.626	383.38
356.853	372.38
357.08	394.38
357.307	364.38
357.534	375.38
357.761	379.38
357.988	386.38
358.215	364.38
358.441	378.38
358.668	377.38
358.895	392.38
359.122	385.38
359.349	380.38
359.576	377.38
359.802	406.38
360.029	418.38
360.256	409.38
360.483	416.38
360.709	385.38
360.936	413.38
361.163	405.38
361.39	383.38
361.616	410.38
361.843	385.38
362.07	390.38
362.296	382.38
362.523	374.38
362.749	397.38
362.976	397.38
363.203	371.38
363.429	387.38
363.656	388.38
363.882	381.38
364.109	375.38
364.335	400.38
364.562	379.38
364.788	372.38
365.015	379.38
365.241	388.38
365.468	390.38
365.694	382.38
365.92	392.38
366.147	381.38
366.373	394.38
366.599	391.38
366.826	365.38
367.052	381.38
367.278	386.38
367.505	398.38
367.731	383.38
367.957	375.38
368.184	371.38
368.41	385.38
368.636	403.38
368.862	406.38
369.089	381.38
369.315	395.38
369.541	375.38
369.767	403.38
369.993	374.38
370.219	375.38
370.445	358.38
370.672	383.38
370.898	411.38
371.124	388.38
371.35	397.38
371.576	415.38
371.802	409.38
372.028	390.38
372.254	398.38
372.48	393.38
372.706	400.38
372.932	404.38
373.158	407.38
373.384	404.38
373.61	399.38
373.835	395.38
374.061	412.38
374.287	385.38
374.513	409.38
374.739	404.38
374.965	411.38
375.191	416.38
375.416	409.38
375.642	395.38
375.868	402.38
376.094	383.38
376.319	401.38
376.545	377.38
376.771	397.38
376.997	387.38
377.222	390.38
377.448	391.38
377.674	382.38
377.899	387.38
378.125	394.38
378.35	397.38
378.576	383.38
378.802	397.38
379.027	397.38
379.253	375.38
379.478	388.38
379.704	381.38
379.929	379.38
380.155	396.38
380.38	407.38
380.606	403.38
380.831	386.38
381.057	419.38
381.282	378.38
381.507	389.38
381.733	387.38
381.958	402.38
382.184	404.38
382.409	405.38
382.634	425.38
382.86	421.38
383.085	420.38
383.31	434.38
383.535	409.38
383.761	418.38
383.986	429.38
384.211	427.38
384.436	419.38
384.662	413.38
384.887	452.38
385.112	430.38
385.337	454.38
385.562	449.38
385.787	422.38
386.013	433.38
386.238	470.38
386.463	449.38
386.688	446.38
386.913	445.38
387.138	459.38
387.363	441.38
387.588	438.38
387.813	440.38
388.038	467.38
388.263	439.38
388.488	452.38
388.713	436.38
388.938	447.38
389.163	455.38
389.387	457.38
389.612	446.38
389.837	439.38
390.062	419.38
390.287	432.38
390.512	443.38
390.736	450.38
390.961	437.38
391.186	458.38
391.411	444.38
391.636	457.38
391.86	465.38
392.085	473.38
392.31	484.38
392.534	473.38
392.759	473.38
392.984	470.38
393.208	467.38
393.433	460.38
393.658	462.38
393.882	448.38
394.107	493.38
394.331	473.38
394.556	463.38
394.78	448.38
395.005	457.38
395.229	480.38
395.454	451.38
395.678	485.38
395.903	475.38
396.127	498.38
396.352	479.38
396.576	481.38
396.801	475.38
397.025	484.38
397.249	483.38
397.474	520.38
397.698	491.38
397.922	501.38
398.147	481.38
398.371	531.38
398.595	519.38
398.82	529.38
399.044	554.38
399.268	564.38
399.492	622.38
399.717	663.38
399.941	701.38
400.165	674.38
400.389	637.38
400.613	584.38
400.837	547.38
401.062	553.38
401.286	534.38
401.51	512.38
401.734	529.38
401.958	526.38
402.182	544.38
402.406	561.38
402.63	543.38
402.854	549.38
403.078	544.38
403.302	541.38
403.526	545.38
403.75	559.38
403.974	579.38
404.198	552.38
404.422	554.38
404.645	577.38
404.869	553.38
405.093	609.38
405.317	600.38
405.541	638.38
405.765	594.38
405.988	567.38
406.212	578.38
406.436	585.38
406.66	595.38
406.883	604.38
407.107	609.38
407.331	646.38
407.555	709.38
407.778	707.38
408.002	633.38
408.226	627.38
408.449	628.38
408.673	611.38
408.896	615.38
409.12	643.38
409.344	614.38
409.567	583.38
409.791	562.38
410.014	561.38
410.238	556.38
410.461	547.38
410.685	555.38
410.908	581.38
411.132	569.38
411.355	608.38
411.578	582.38
411.802	579.38
412.025	561.38
412.249	566.38
412.472	559.38
412.695	603.38
412.919	586.38
413.142	564.38
413.365	531.38
413.589	548.38
413.812	522.38
414.035	519.38
414.258	522.38
414.482	490.38
414.705	502.38
414.928	530.38
415.151	515.38
415.374	520.38
415.597	540.38
415.821	513.38
416.044	519.38
416.267	521.38
416.49	513.38
416.713	520.38
416.936	521.38
417.159	521.38
417.382	525.38
417.605	519.38
417.828	537.38
418.051	515.38
418.274	521.38
418.497	494.38
418.72	523.38
418.943	521.38
419.166	557.38
419.389	574.38
419.611	563.38
419.834	576.38
420.057	542.38
420.28	541.38
420.503	528.38
420.726	537.38
420.948	538.38
421.171	548.38
421.394	595.38
421.617	541.38
421.839	532.38
422.062	526.38
422.285	547.38
422.507	581.38
422.73	614.38
422.953	599.38
423.175	566.38
423.398	563.38
423.621	517.38
423.843	550.38
424.066	582.38
424.288	564.38
424.511	597.38
424.733	617.38
424.956	674.38
425.178	644.38
425.401	637.38
425.623	645.38
425.846	578.38
426.068	551.38
426.291	527.38
426.513	555.38
426.735	539.38
426.958	572.38
427.18	634.38
427.402	717.38
427.625	771.38
427.847	675.38
428.069	598.38
428.292	553.38
428.514	541.38
428.736	525.38
428.958	505.38
429.181	505.38
429.403	504.38
429.625	492.38
429.847	531.38
430.069	565.38
430.292	557.38
430.514	512.38
430.736	527.38
430.958	499.38
431.18	518.38
431.402	486.38
431.624	490.38
431.846	502.38
432.068	484.38
432.29	491.38
432.512	485.38
432.734	474.38
432.956	477.38
433.178	513.38
433.4	498.38
433.622	483.38
433.844	517.38
434.066	494.38
434.287	497.38
434.509	489.38
434.731	509.38
434.953	537.38
435.175	546.38
435.397	515.38
435.618	554.38
435.84	555.38
436.062	623.38
436.284	677.38
436.505	571.38
436.727	531.38
436.949	519.38
437.17	507.38
437.392	505.38
437.614	501.38
437.835	512.38
438.057	586.38
438.278	652.38
438.5	659.38
438.721	698.38
438.943	690.38
439.165	578.38
439.386	517.38
439.608	534.38
439.829	541.38
440.05	547.38
440.272	573.38
440.493	565.38
440.715	525.38
440.936	517.38
441.158	511.38
441.379	535.38
441.6	548.38
441.822	551.38
442.043	563.38
442.264	629.38
442.486	637.38
442.707	581.38
442.928	567.38
443.149	568.38
443.371	565.38
443.592	591.38
443.813	663.38
444.034	728.38
444.255	611.38
444.476	575.38
444.698	589.38
444.919	570.38
445.14	693.38
445.361	639.38
445.582	573.38
445.803	587.38
446.024	674.38
446.245	669.38
446.466	614.38
446.687	563.38
446.908	537.38
447.129	525.38
447.35	487.38
447.571	491.38
447.792	489.38
448.013	444.38
448.234	498.38
448.455	525.38
448.675	623.38
448.896	705.38
449.117	614.38
449.338	579.38
449.559	642.38
449.779	733.38
450	604.38
450.221	514.38
450.442	494.38
450.662	488.38
450.883	485.38
451.104	486.38
451.324	467.38
451.545	455.38
451.766	460.38
451.986	447.38
452.207	451.38
452.428	440.38
452.648	435.38
452.869	444.38
453.089	470.38
453.31	448.38
453.53	437.38
453.751	451.38
453.971	444.38
454.192	462.38
454.412	435.38
454.633	437.38
454.853	455.38
455.073	438.38
455.294	455.38
455.514	497.38
455.734	469.38
455.955	440.38
456.175	442.38
456.395	429.38
456.616	413.38
456.836	419.38
457.056	420.38
457.276	439.38
457.497	429.38
457.717	433.38
457.937	434.38
458.157	444.38
458.377	439.38
458.598	473.38
458.818	499.38
459.038	544.38
459.258	575.38
459.478	513.38
459.698	495.38
459.918	509.38
460.138	487.38
460.358	520.38
460.578	523.38
460.798	519.38
461.018	535.38
461.238	535.38
461.458	503.38
461.678	535.38
461.898	512.38
462.118	521.38
462.338	535.38
462.558	558.38
462.777	582.38
462.997	602.38
463.217	614.38
463.437	607.38
463.657	596.38
463.876	579.38
464.096	585.38
464.316	575.38
464.536	570.38
464.755	567.38
464.975	565.38
465.195	563.38
465.414	592.38
465.634	535.38
465.854	528.38
466.073	498.38
466.293	474.38
466.512	483.38
466.732	476.38
466.951	444.38
467.171	481.38
467.391	431.38
467.61	458.38
467.829	479.38
468.049	478.38
468.268	478.38
468.488	482.38
468.707	449.38
468.927	449.38
469.146	442.38
469.365	466.38
469.585	459.38
469.804	474.38
470.023	476.38
470.243	475.38
470.462	470.38
470.681	482.38
470.901	481.38
471.12	479.38
471.339	494.38
471.558	464.38
471.777	477.38
471.997	470.38
472.216	472.38
472.435	490.38
472.654	470.38
472.873	452.38
473.092	480.38
473.311	474.38
473.53	476.38
473.749	487.38
473.968	513.38
474.187	561.38
474.406	569.38
474.625	519.38
474.844	468.38
475.063	470.38
475.282	478.38
475.501	441.38
475.72	471.38
475.939	502.38
476.158	470.38
476.377	482.38
476.596	478.38
476.814	484.38
477.033	488.38
477.252	506.38
477.471	506.38
477.69	520.38
477.908	505.38
478.127	518.38
478.346	525.38
478.564	530.38
478.783	537.38
479.002	549.38
479.22	540.38
479.439	573.38
479.658	572.38
479.876	549.38
480.095	565.38
480.313	593.38
480.532	594.38
480.751	583.38
480.969	608.38
481.188	600.38
481.406	599.38
481.624	569.38
481.843	581.38
482.061	576.38
482.28	554.38
482.498	558.38
482.717	549.38
482.935	535.38
483.153	535.38
483.372	535.38
483.59	547.38
483.808	524.38
484.027	547.38
484.245	555.38
484.463	546.38
484.681	557.38
484.9	549.38
485.118	563.38
485.336	537.38
485.554	554.38
485.772	584.38
485.99	575.38
486.209	571.38
486.427	563.38
486.645	586.38
486.863	565.38
487.081	595.38
487.299	569.38
487.517	567.38
487.735	572.38
487.953	562.38
488.171	579.38
488.389	581.38
488.607	590.38
488.825	583.38
489.043	591.38
489.261	582.38
489.479	580.38
489.696	588.38
489.914	583.38
490.132	579.38
490.35	600.38
490.568	571.38
490.786	603.38
491.003	583.38
491.221	621.38
491.439	640.38
491.657	617.38
491.874	635.38
492.092	615.38
492.31	637.38
492.527	640.38
492.745	640.38
492.963	639.38
493.18	657.38
493.398	633.38
493.615	644.38
493.833	651.38
494.05	642.38
494.268	638.38
494.485	634.38
494.703	646.38
494.92	635.38
495.138	666.38
495.355	662.38
495.573	667.38
495.79	649.38
496.008	677.38
496.225	670.38
496.442	679.38
496.66	691.38
496.877	682.38
497.094	700.38
497.312	691.38
497.529	701.38
497.746	693.38
497.963	737.38
498.181	738.38
498.398	757.38
498.615	791.38
498.832	832.38
499.049	850.38
499.267	877.38
499.484	919.38
499.701	973.38
499.918	1010.38
500.135	1089.38
500.352	1189.38
500.569	1236.38
500.786	1154.38
501.003	1173.38
501.22	1075.38
501.437	1065.38
501.654	982.38
501.871	943.38
502.088	888.38
502.305	843.38
502.522	819.38
502.739	797.38
502.956	775.38
503.172	757.38
503.389	714.38
503.606	716.38
503.823	714.38
504.04	711.38
504.256	694.38
504.473	702.38
504.69	702.38
504.907	699.38
505.123	683.38
505.34	666.38
505.557	646.38
505.773	657.38
505.99	626.38
506.207	600.38
506.423	599.38
506.64	604.38
506.856	606.38
507.073	601.38
507.289	592.38
507.506	611.38
507.722	598.38
507.939	608.38
508.155	588.38
508.372	587.38
508.588	573.38
508.805	587.38
509.021	577.38
509.238	565.38
509.454	587.38
509.67	575.38
509.887	556.38
510.103	578.38
510.319	570.38
510.536	629.38
510.752	844.38
510.968	742.38
511.184	569.38
511.401	553.38
511.617	549.38
511.833	529.38
512.049	559.38
512.265	559.38
512.481	561.38
512.698	563.38
512.914	523.38
513.13	551.38
513.346	551.38
513.562	543.38
513.778	528.38
513.994	555.38
514.21	539.38
514.426	579.38
514.642	566.38
514.858	580.38
515.074	617.38
515.29	667.38
515.506	814.38
515.721	728.38
515.937	623.38
516.153	595.38
516.369	587.38
516.585	598.38
516.801	601.38
517.016	607.38
517.232	599.38
517.448	625.38
517.664	650.38
517.879	651.38
518.095	614.38
518.311	631.38
518.527	623.38
518.742	618.38
518.958	602.38
519.173	625.38
519.389	580.38
519.605	547.38
519.82	554.38
520.036	554.38
520.251	563.38
520.467	575.38
520.682	567.38
520.898	562.38
521.113	564.38
521.329	588.38
521.544	613.38
521.76	675.38
521.975	962.38
522.19	940.38
522.406	659.38
522.621	565.38
522.836	537.38
523.052	527.38
523.267	495.38
523.482	477.38
523.698	494.38
523.913	519.38
524.128	523.38
524.343	492.38
524.559	482.38
524.774	489.38
524.989	498.38
525.204	469.38
525.419	477.38
525.634	479.38
525.849	473.38
526.064	479.38
526.28	474.38
526.495	460.38
526.71	469.38
526.925	466.38
527.14	468.38
527.355	464.38
527.57	471.38
527.785	470.38
527.999	451.38
528.214	464.38
528.429	475.38
528.644	460.38
528.859	485.38
529.074	461.38
529.289	477.38
529.503	513.38
529.718	493.38
529.933	496.38
530.148	445.38
530.363	460.38
530.577	475.38
530.792	475.38
531.007	461.38
531.221	482.38
531.436	475.38
531.651	454.38
531.865	480.38
532.08	451.38
532.295	473.38
532.509	444.38
532.724	456.38
532.938	449.38
533.153	454.38
533.367	441.38
533.582	457.38
533.796	470.38
534.011	461.38
534.225	457.38
534.44	450.38
534.654	435.38
534.868	449.38
535.083	446.38
535.297	444.38
535.511	460.38
535.726	437.38
535.94	458.38
536.154	476.38
536.369	431.38
536.583	457.38
536.797	443.38
537.011	437.38
537.225	426.38
537.44	444.38
537.654	432.38
537.868	445.38
538.082	457.38
538.296	436.38
538.51	424.38
538.724	418.38
538.938	430.38
539.153	429.38
539.367	440.38
539.581	429.38
539.795	431.38
540.009	445.38
540.222	447.38
540.436	442.38
540.65	434.38
540.864	450.38
541.078	430.38
541.292	425.38
541.506	433.38
541.72	443.38
541.934	416.38
542.147	435.38
542.361	435.38
542.575	426.38
542.789	415.38
543.002	427.38
543.216	428.38
543.43	449.38
543.644	419.38
543.857	426.38
544.071	446.38
544.285	441.38
544.498	442.38
544.712	425.38
544.925	429.38
545.139	432.38
545.352	441.38
545.566	427.38
545.779	433.38
545.993	422.38
546.206	431.38
546.42	437.38
546.633	421.38
546.847	433.38
547.06	421.38
547.274	434.38
547.487	437.38
547.7	424.38
547.914	415.38
548.127	404.38
548.34	434.38
548.554	429.38
548.767	452.38
548.98	418.38
549.193	426.38
549.407	426.38
549.62	432.38
549.833	426.38
550.046	413.38
550.259	412.38
550.473	423.38
550.686	439.38
550.899	437.38
551.112	422.38
551.325	397.38
551.538	428.38
551.751	414.38
551.964	419.38
552.177	425.38
552.39	424.38
552.603	418.38
552.816	430.38
553.029	440.38
553.242	451.38
553.455	433.38
553.667	450.38
553.88	447.38
554.093	447.38
554.306	442.38
554.519	448.38
554.732	433.38
554.944	445.38
555.157	404.38
555.37	427.38
555.583	445.38
555.795	397.38
556.008	399.38
556.221	412.38
556.433	388.38
556.646	400.38
556.859	383.38
557.071	368.38
557.284	403.38
557.496	400.38
557.709	383.38
557.921	400.38
558.134	385.38
558.346	385.38
558.559	382.38
558.771	376.38
558.984	387.38
559.196	390.38
559.409	381.38
559.621	399.38
559.833	382.38
560.046	384.38
560.258	379.38
560.47	398.38
560.683	369.38
560.895	365.38
561.107	380.38
561.32	367.38
561.532	405.38
561.744	377.38
561.956	402.38
562.168	370.38
562.381	387.38
562.593	389.38
562.805	371.38
563.017	381.38
563.229	391.38
563.441	370.38
563.653	373.38
563.865	378.38
564.077	399.38
564.289	408.38
564.501	421.38
564.713	399.38
564.925	417.38
565.137	396.38
565.349	419.38
565.561	437.38
565.773	437.38
565.985	439.38
566.197	466.38
566.408	489.38
566.62	509.38
566.832	514.38
567.044	516.38
567.255	543.38
567.467	553.38
567.679	535.38
567.891	565.38
568.102	567.38
568.314	540.38
568.526	527.38
568.737	501.38
568.949	490.38
569.161	444.38
569.372	430.38
569.584	419.38
569.795	431.38
570.007	405.38
570.218	414.38
570.43	426.38
570.641	393.38
570.853	391.38
571.064	397.38
571.276	384.38
571.487	381.38
571.698	377.38
571.91	364.38
572.121	381.38
572.333	358.38
572.544	371.38
572.755	360.38
572.966	347.38
573.178	349.38
573.389	341.38
573.6	329.38
573.811	357.38
574.023	357.38
574.234	341.38
574.445	341.38
574.656	316.38
574.867	341.38
575.078	329.38
575.289	335.38
575.501	337.38
575.712	332.38
575.923	334.38
576.134	345.38
576.345	322.38
576.556	311.38
576.767	330.38
576.978	326.38
577.188	336.38
577.399	331.38
577.61	329.38
577.821	320.38
578.032	311.38
578.243	326.38
578.454	438.38
578.665	353.38
578.875	323.38
579.086	317.38
579.297	304.38
579.508	315.38
579.718	331.38
579.929	315.38
580.14	325.38
580.35	310.38
580.561	311.38
580.772	317.38
580.982	310.38
581.193	301.38
581.403	316.38
581.614	277.38
581.825	314.38
582.035	300.38
582.246	300.38
582.456	307.38
582.667	326.38
582.877	319.38
583.087	297.38
583.298	296.38
583.508	299.38
583.719	299.38
583.929	301.38
584.139	289.38
584.35	295.38
584.56	310.38
584.77	286.38
584.981	286.38
585.191	297.38
585.401	282.38
585.611	295.38
585.821	297.38
586.032	299.38
586.242	295.38
586.452	295.38
586.662	288.38
586.872	295.38
587.082	305.38
587.292	293.38
587.502	290.38
587.713	286.38
587.923	288.38
588.133	285.38
588.343	290.38
588.553	293.38
588.762	292.38
588.972	311.38
589.182	333.38
589.392	320.38
589.602	297.38
589.812	308.38
590.022	322.38
590.232	286.38
590.441	298.38
590.651	276.38
590.861	284.38
591.071	302.38
591.281	296.38
591.49	309.38
591.7	302.38
591.91	316.38
592.119	310.38
592.329	305.38
592.539	305.38
592.748	330.38
592.958	338.38
593.167	328.38
593.377	336.38
593.587	326.38
593.796	331.38
594.006	333.38
594.215	326.38
594.424	334.38
594.634	343.38
594.843	321.38
595.053	314.38
595.262	315.38
595.472	321.38
595.681	301.38
595.89	289.38
596.1	296.38
596.309	303.38
596.518	294.38
596.727	285.38
596.937	274.38
597.146	281.38
597.355	291.38
597.564	272.38
597.774	275.38
597.983	252.38
598.192	263.38
598.401	276.38
598.61	267.38
598.819	259.38
599.028	266.38
599.237	257.38
599.446	250.38
599.655	262.38
599.864	276.38
600.073	245.38
600.282	254.38
600.491	265.38
600.7	268.38
600.909	262.38
601.118	255.38
601.327	249.38
601.536	237.38
601.745	239.38
601.953	262.38
602.162	241.38
602.371	241.38
602.58	254.38
602.789	233.38
602.997	255.38
603.206	250.38
603.415	247.38
603.623	238.38
603.832	239.38
604.041	264.38
604.249	241.38
604.458	237.38
604.666	249.38
604.875	233.38
605.084	236.38
605.292	240.38
605.501	260.38
605.709	235.38
605.918	248.38
606.126	266.38
606.334	234.38
606.543	246.38
606.751	238.38
606.96	245.38
607.168	251.38
607.376	245.38
607.585	241.38
607.793	249.38
608.001	242.38
608.21	234.38
608.418	241.38
608.626	237.38
608.834	227.38
609.043	245.38
609.251	231.38
609.459	261.38
609.667	228.38
609.875	254.38
610.083	228.38
610.291	229.38
610.499	242.38
610.707	232.38
610.916	231.38
611.124	233.38
611.332	243.38
611.54	244.38
611.748	238.38
611.955	235.38
612.163	233.38
612.371	226.38
612.579	249.38
612.787	206.38
612.995	217.38
613.203	229.38
613.411	245.38
613.618	223.38
613.826	235.38
614.034	236.38
614.242	227.38
614.449	226.38
614.657	221.38
614.865	232.38
615.072	220.38
615.28	223.38
615.488	211.38
615.695	221.38
615.903	225.38
616.111	225.38
616.318	244.38
616.526	217.38
616.733	238.38
616.941	228.38
617.148	234.38
617.356	235.38
617.563	241.38
617.771	239.38
617.978	246.38
618.185	239.38
618.393	221.38
618.6	235.38
618.807	236.38
619.015	224.38
619.222	223.38
619.429	225.38
619.637	211.38
619.844	221.38
620.051	229.38
620.258	222.38
620.466	217.38
620.673	212.38
620.88	218.38
621.087	209.38
621.294	222.38
621.501	217.38
621.708	217.38
621.915	201.38
622.122	203.38
622.329	228.38
622.536	215.38
622.743	225.38
622.95	216.38
623.157	208.38
623.364	225.38
623.571	204.38
623.778	205.38
623.985	205.38
624.192	194.38
624.399	219.38
624.606	214.38
624.812	213.38
625.019	206.38
625.226	222.38
625.433	206.38
625.639	201.38
625.846	199.38
626.053	213.38
626.259	213.38
626.466	198.38
626.673	209.38
626.879	197.38
627.086	217.38
627.293	189.38
627.499	208.38
627.706	220.38
627.912	205.38
628.119	179.38
628.325	214.38
628.532	202.38
628.738	211.38
628.945	215.38
629.151	198.38
629.357	195.38
629.564	191.38
629.77	197.38
629.976	198.38
630.183	198.38
630.389	199.38
630.595	215.38
630.802	188.38
631.008	195.38
631.214	200.38
631.42	204.38
631.627	215.38
631.833	202.38
632.039	188.38
632.245	186.38
632.451	196.38
632.657	196.38
632.863	186.38
633.069	191.38
633.275	181.38
633.481	168.38
633.688	189.38
633.893	185.38
634.099	185.38
634.305	185.38
634.511	190.38
634.717	172.38
634.923	171.38
635.129	181.38
635.335	183.38
635.541	177.38
635.747	162.38
635.952	179.38
636.158	185.38
636.364	186.38
636.57	192.38
636.775	165.38
636.981	184.38
637.187	190.38
637.392	185.38
637.598	163.38
637.804	170.38
638.009	168.38
638.215	179.38
638.421	174.38
638.626	168.38
638.832	179.38
639.037	156.38
639.243	167.38
639.448	169.38
639.654	168.38
639.859	163.38
640.065	178.38
640.27	165.38
640.475	172.38
640.681	163.38
640.886	173.38
641.091	183.38
641.297	184.38
641.502	168.38
641.707	179.38
641.913	161.38
642.118	174.38
642.323	162.38
642.528	174.38
642.733	177.38
642.939	174.38
643.144	154.38
643.349	167.38
643.554	181.38
643.759	169.38
643.964	166.38
644.169	168.38
644.374	173.38
644.579	167.38
644.784	169.38
644.989	150.38
645.194	156.38
645.399	179.38
645.604	177.38
645.809	155.38
646.014	164.38
646.219	171.38
646.423	162.38
646.628	170.38
646.833	159.38
647.038	189.38
647.243	163.38
647.447	177.38
647.652	171.38
647.857	174.38
648.062	169.38
648.266	170.38
648.471	178.38
648.676	164.38
648.88	178.38
649.085	184.38
649.289	162.38
649.494	179.38
649.698	161.38
649.903	169.38
650.107	174.38
650.312	173.38
650.516	174.38
650.721	173.38
650.925	148.38
651.13	144.38
651.334	154.38
651.539	146.38
651.743	163.38
651.947	150.38
652.152	142.38
652.356	147.38
652.56	145.38
652.764	135.38
652.969	155.38
653.173	156.38
653.377	141.38
653.581	142.38
653.785	142.38
653.99	149.38
654.194	153.38
654.398	144.38
654.602	144.38
654.806	141.38
655.01	140.38
655.214	151.38
655.418	149.38
655.622	154.38
655.826	135.38
656.03	156.38
656.234	154.38
656.438	153.38
656.642	165.38
656.846	147.38
657.049	137.38
657.253	135.38
657.457	125.38
657.661	110.38
657.865	113.38
658.068	121.38
658.272	110.38
658.476	106.38
658.68	101.38
658.883	109.38
659.087	100.38
659.291	112.38
659.494	93.38
659.698	95.38
659.901	92.38
660.105	98.38
660.309	105.38
660.512	94.38
660.716	96.38
660.919	84.38
661.123	95.38
661.326	90.38
661.53	91.38
661.733	98.38
661.936	83.38
662.14	81.38
662.343	95.38
662.546	82.38
662.75	91.38
662.953	103.38
663.156	88.38
663.36	84.38
663.563	79.38
663.766	83.38
663.969	87.38
664.173	75.38
664.376	97.38
664.579	86.38
664.782	87.38
664.985	84.38
665.188	94.38
665.391	75.38
665.594	95.38
665.797	71.38
666	96.38
666.203	75.38
666.406	84.38
666.609	71.38
666.812	82.38
667.015	97.38
667.218	85.38
667.421	74.38
667.624	87.38
667.827	85.38
668.03	88.38
668.232	92.38
668.435	87.38
668.638	96.38
668.841	84.38
669.043	74.38
669.246	92.38
669.449	93.38
669.651	78.38
669.854	90.38
670.057	82.38
670.259	67.38
670.462	99.38
670.665	91.38
670.867	85.38
671.07	81.38
671.272	90.38
671.475	79.38
671.677	79.38
671.88	83.38
672.082	94.38
672.284	73.38
672.487	85.38
672.689	97.38
672.892	62.38
