Data from 1962.PennyLincolnUp.Lamp.En5.5.200Scan.071719.P1._HRD10591_13-55-32-061.txt Node
Date: Thu Jul 18 13:55:32 EDT 2019
User: cochatt
Spectrometer: HR+D1059
Trigger mode: 1
Integration Time (sec): 1.000000E-1
Scans to average: 1
Electric dark correction enabled: true
Nonlinearity correction enabled: false
Boxcar width: 0
XAxis mode: Wavelengths
Number of Pixels in Spectrum: 2048
>>>>>Begin Spectral Data<<<<<
223.165	-15.19
223.4	-15.19
223.635	-15.19
223.869	-24.19
224.104	-23.19
224.338	-3.19
224.573	-4.19
224.808	-14.19
225.042	-1.19
225.277	-4.19
225.511	-4.19
225.746	-0.19
225.98	3.81
226.215	9.81
226.449	1.81
226.683	20.81
226.918	22.81
227.152	34.81
227.387	27.81
227.621	42.81
227.856	26.81
228.09	49.81
228.324	42.81
228.559	34.81
228.793	68.81
229.027	78.81
229.262	86.81
229.496	93.81
229.73	100.81
229.964	117.81
230.199	126.81
230.433	86.81
230.667	107.81
230.901	100.81
231.136	93.81
231.37	109.81
231.604	106.81
231.838	107.81
232.072	99.81
232.306	104.81
232.541	103.81
232.775	116.81
233.009	103.81
233.243	94.81
233.477	96.81
233.711	119.81
233.945	98.81
234.179	121.81
234.413	93.81
234.647	102.81
234.881	117.81
235.115	116.81
235.349	117.81
235.583	121.81
235.817	112.81
236.051	110.81
236.285	110.81
236.519	112.81
236.753	116.81
236.987	118.81
237.221	140.81
237.455	184.81
237.689	150.81
237.922	133.81
238.156	134.81
238.39	120.81
238.624	106.81
238.858	106.81
239.091	114.81
239.325	111.81
239.559	114.81
239.793	117.81
240.027	120.81
240.26	126.81
240.494	124.81
240.728	135.81
240.961	119.81
241.195	130.81
241.429	125.81
241.662	130.81
241.896	131.81
242.13	128.81
242.363	136.81
242.597	125.81
242.83	125.81
243.064	132.81
243.298	143.81
243.531	135.81
243.765	126.81
243.998	122.81
244.232	128.81
244.465	139.81
244.699	132.81
244.932	142.81
245.166	144.81
245.399	133.81
245.633	141.81
245.866	139.81
246.099	156.81
246.333	151.81
246.566	123.81
246.8	132.81
247.033	151.81
247.266	151.81
247.5	151.81
247.733	144.81
247.966	149.81
248.2	163.81
248.433	153.81
248.666	162.81
248.899	162.81
249.133	178.81
249.366	177.81
249.599	153.81
249.832	157.81
250.066	148.81
250.299	173.81
250.532	175.81
250.765	166.81
250.998	182.81
251.231	186.81
251.465	191.81
251.698	170.81
251.931	187.81
252.164	186.81
252.397	190.81
252.63	163.81
252.863	199.81
253.096	189.81
253.329	205.81
253.562	189.81
253.795	196.81
254.028	191.81
254.261	193.81
254.494	203.81
254.727	229.81
254.96	221.81
255.193	221.81
255.426	226.81
255.659	188.81
255.892	200.81
256.124	218.81
256.357	205.81
256.59	194.81
256.823	199.81
257.056	193.81
257.289	169.81
257.521	185.81
257.754	189.81
257.987	187.81
258.22	184.81
258.452	192.81
258.685	184.81
258.918	192.81
259.151	166.81
259.383	208.81
259.616	194.81
259.849	202.81
260.081	210.81
260.314	210.81
260.547	232.81
260.779	215.81
261.012	207.81
261.244	216.81
261.477	217.81
261.71	197.81
261.942	193.81
262.175	207.81
262.407	216.81
262.64	185.81
262.872	200.81
263.105	200.81
263.337	209.81
263.57	199.81
263.802	200.81
264.035	210.81
264.267	198.81
264.499	197.81
264.732	221.81
264.964	204.81
265.197	203.81
265.429	191.81
265.661	202.81
265.894	205.81
266.126	216.81
266.358	220.81
266.591	206.81
266.823	222.81
267.055	210.81
267.287	203.81
267.52	208.81
267.752	221.81
267.984	209.81
268.216	218.81
268.448	212.81
268.681	209.81
268.913	224.81
269.145	255.81
269.377	258.81
269.609	243.81
269.841	223.81
270.073	252.81
270.306	242.81
270.538	285.81
270.77	290.81
271.002	267.81
271.234	262.81
271.466	266.81
271.698	271.81
271.93	270.81
272.162	262.81
272.394	270.81
272.626	264.81
272.858	250.81
273.09	256.81
273.322	251.81
273.553	239.81
273.785	265.81
274.017	258.81
274.249	238.81
274.481	257.81
274.713	228.81
274.945	249.81
275.176	259.81
275.408	251.81
275.64	272.81
275.872	238.81
276.104	246.81
276.335	256.81
276.567	241.81
276.799	255.81
277.031	272.81
277.262	281.81
277.494	295.81
277.726	282.81
277.957	261.81
278.189	273.81
278.421	262.81
278.652	264.81
278.884	258.81
279.115	256.81
279.347	263.81
279.579	239.81
279.81	256.81
280.042	258.81
280.273	264.81
280.505	267.81
280.736	258.81
280.968	262.81
281.199	262.81
281.431	259.81
281.662	238.81
281.894	290.81
282.125	266.81
282.356	307.81
282.588	288.81
282.819	285.81
283.051	260.81
283.282	266.81
283.513	271.81
283.745	271.81
283.976	281.81
284.207	273.81
284.439	279.81
284.67	288.81
284.901	277.81
285.132	278.81
285.364	271.81
285.595	271.81
285.826	297.81
286.057	282.81
286.288	275.81
286.52	279.81
286.751	286.81
286.982	278.81
287.213	278.81
287.444	283.81
287.675	277.81
287.906	284.81
288.138	281.81
288.369	291.81
288.6	307.81
288.831	303.81
289.062	284.81
289.293	277.81
289.524	296.81
289.755	302.81
289.986	288.81
290.217	303.81
290.448	294.81
290.679	308.81
290.91	288.81
291.141	283.81
291.371	284.81
291.602	302.81
291.833	268.81
292.064	298.81
292.295	295.81
292.526	295.81
292.757	293.81
292.987	282.81
293.218	282.81
293.449	278.81
293.68	305.81
293.91	307.81
294.141	279.81
294.372	290.81
294.603	293.81
294.833	285.81
295.064	288.81
295.295	302.81
295.525	298.81
295.756	305.81
295.987	293.81
296.217	315.81
296.448	318.81
296.679	303.81
296.909	298.81
297.14	295.81
297.37	297.81
297.601	304.81
297.831	306.81
298.062	307.81
298.292	320.81
298.523	296.81
298.753	304.81
298.984	330.81
299.214	297.81
299.445	272.81
299.675	317.81
299.905	309.81
300.136	323.81
300.366	315.81
300.597	312.81
300.827	320.81
301.057	325.81
301.288	319.81
301.518	318.81
301.748	327.81
301.979	315.81
302.209	345.81
302.439	326.81
302.669	319.81
302.9	319.81
303.13	331.81
303.36	322.81
303.59	347.81
303.82	339.81
304.051	333.81
304.281	325.81
304.511	350.81
304.741	312.81
304.971	309.81
305.201	312.81
305.431	311.81
305.661	323.81
305.891	321.81
306.121	333.81
306.352	307.81
306.582	329.81
306.812	308.81
307.042	307.81
307.272	336.81
307.502	336.81
307.731	318.81
307.961	321.81
308.191	333.81
308.421	331.81
308.651	334.81
308.881	311.81
309.111	331.81
309.341	319.81
309.571	342.81
309.8	328.81
310.03	356.81
310.26	349.81
310.49	352.81
310.72	361.81
310.949	357.81
311.179	355.81
311.409	357.81
311.639	353.81
311.868	358.81
312.098	352.81
312.328	358.81
312.557	376.81
312.787	361.81
313.017	374.81
313.246	355.81
313.476	365.81
313.706	354.81
313.935	377.81
314.165	389.81
314.394	370.81
314.624	377.81
314.853	358.81
315.083	369.81
315.312	370.81
315.542	374.81
315.771	367.81
316.001	352.81
316.23	373.81
316.46	359.81
316.689	373.81
316.919	361.81
317.148	383.81
317.377	373.81
317.607	383.81
317.836	365.81
318.065	343.81
318.295	365.81
318.524	377.81
318.753	374.81
318.983	350.81
319.212	367.81
319.441	360.81
319.67	378.81
319.9	353.81
320.129	365.81
320.358	369.81
320.587	359.81
320.816	358.81
321.046	375.81
321.275	369.81
321.504	377.81
321.733	375.81
321.962	380.81
322.191	382.81
322.42	393.81
322.649	408.81
322.878	399.81
323.108	404.81
323.337	423.81
323.566	452.81
323.795	481.81
324.024	481.81
324.253	532.81
324.482	734.81
324.71	1049.81
324.939	1510.81
325.168	1306.81
325.397	739.81
325.626	537.81
325.855	498.81
326.084	447.81
326.313	442.81
326.542	451.81
326.77	481.81
326.999	531.81
327.228	691.81
327.457	952.81
327.686	1152.81
327.914	814.81
328.143	591.81
328.372	552.81
328.6	473.81
328.829	490.81
329.058	491.81
329.287	499.81
329.515	484.81
329.744	449.81
329.972	462.81
330.201	479.81
330.43	490.81
330.658	501.81
330.887	499.81
331.115	526.81
331.344	456.81
331.572	463.81
331.801	467.81
332.03	450.81
332.258	442.81
332.486	436.81
332.715	444.81
332.943	432.81
333.172	480.81
333.4	455.81
333.629	483.81
333.857	484.81
334.085	503.81
334.314	503.81
334.542	518.81
334.771	537.81
334.999	465.81
335.227	451.81
335.455	447.81
335.684	471.81
335.912	435.81
336.14	447.81
336.369	463.81
336.597	456.81
336.825	446.81
337.053	453.81
337.281	431.81
337.51	438.81
337.738	444.81
337.966	443.81
338.194	408.81
338.422	433.81
338.65	443.81
338.878	417.81
339.106	416.81
339.334	422.81
339.562	424.81
339.79	406.81
340.018	406.81
340.246	403.81
340.474	424.81
340.702	437.81
340.93	416.81
341.158	411.81
341.386	408.81
341.614	446.81
341.842	411.81
342.07	413.81
342.298	408.81
342.526	415.81
342.754	416.81
342.981	395.81
343.209	412.81
343.437	425.81
343.665	436.81
343.893	435.81
344.12	457.81
344.348	440.81
344.576	431.81
344.804	427.81
345.031	432.81
345.259	417.81
345.487	438.81
345.714	420.81
345.942	416.81
346.17	406.81
346.397	400.81
346.625	395.81
346.853	394.81
347.08	392.81
347.308	395.81
347.535	397.81
347.763	408.81
347.99	400.81
348.218	401.81
348.445	386.81
348.673	393.81
348.9	385.81
349.128	395.81
349.355	373.81
349.583	377.81
349.81	391.81
350.037	383.81
350.265	385.81
350.492	406.81
350.72	399.81
350.947	412.81
351.174	384.81
351.402	398.81
351.629	391.81
351.856	395.81
352.083	375.81
352.311	393.81
352.538	392.81
352.765	394.81
352.992	410.81
353.22	380.81
353.447	372.81
353.674	375.81
353.901	381.81
354.128	388.81
354.355	393.81
354.583	374.81
354.81	375.81
355.037	378.81
355.264	384.81
355.491	366.81
355.718	377.81
355.945	370.81
356.172	386.81
356.399	370.81
356.626	377.81
356.853	384.81
357.08	392.81
357.307	393.81
357.534	380.81
357.761	385.81
357.988	377.81
358.215	359.81
358.441	371.81
358.668	360.81
358.895	371.81
359.122	375.81
359.349	389.81
359.576	397.81
359.802	394.81
360.029	405.81
360.256	404.81
360.483	387.81
360.709	396.81
360.936	405.81
361.163	394.81
361.39	392.81
361.616	406.81
361.843	379.81
362.07	396.81
362.296	399.81
362.523	397.81
362.749	386.81
362.976	389.81
363.203	377.81
363.429	382.81
363.656	385.81
363.882	393.81
364.109	382.81
364.335	393.81
364.562	389.81
364.788	377.81
365.015	384.81
365.241	366.81
365.468	389.81
365.694	383.81
365.92	392.81
366.147	381.81
366.373	391.81
366.599	384.81
366.826	393.81
367.052	383.81
367.278	380.81
367.505	387.81
367.731	381.81
367.957	381.81
368.184	377.81
368.41	399.81
368.636	396.81
368.862	398.81
369.089	378.81
369.315	380.81
369.541	421.81
369.767	399.81
369.993	380.81
370.219	374.81
370.445	399.81
370.672	399.81
370.898	406.81
371.124	384.81
371.35	380.81
371.576	380.81
371.802	388.81
372.028	406.81
372.254	390.81
372.48	411.81
372.706	390.81
372.932	392.81
373.158	395.81
373.384	381.81
373.61	388.81
373.835	392.81
374.061	406.81
374.287	409.81
374.513	415.81
374.739	406.81
374.965	415.81
375.191	421.81
375.416	418.81
375.642	398.81
375.868	429.81
376.094	397.81
376.319	387.81
376.545	382.81
376.771	384.81
376.997	387.81
377.222	398.81
377.448	405.81
377.674	389.81
377.899	377.81
378.125	381.81
378.35	400.81
378.576	420.81
378.802	392.81
379.027	382.81
379.253	395.81
379.478	405.81
379.704	400.81
379.929	390.81
380.155	391.81
380.38	388.81
380.606	385.81
380.831	381.81
381.057	413.81
381.282	394.81
381.507	408.81
381.733	389.81
381.958	394.81
382.184	389.81
382.409	414.81
382.634	414.81
382.86	419.81
383.085	400.81
383.31	423.81
383.535	424.81
383.761	422.81
383.986	425.81
384.211	421.81
384.436	421.81
384.662	418.81
384.887	435.81
385.112	431.81
385.337	466.81
385.562	443.81
385.787	426.81
386.013	470.81
386.238	449.81
386.463	439.81
386.688	441.81
386.913	456.81
387.138	446.81
387.363	456.81
387.588	445.81
387.813	430.81
388.038	449.81
388.263	463.81
388.488	451.81
388.713	453.81
388.938	447.81
389.163	436.81
389.387	448.81
389.612	434.81
389.837	455.81
390.062	430.81
390.287	420.81
390.512	439.81
390.736	461.81
390.961	445.81
391.186	438.81
391.411	480.81
391.636	453.81
391.86	465.81
392.085	473.81
392.31	475.81
392.534	469.81
392.759	477.81
392.984	469.81
393.208	467.81
393.433	470.81
393.658	465.81
393.882	445.81
394.107	454.81
394.331	459.81
394.556	451.81
394.78	457.81
395.005	484.81
395.229	450.81
395.454	466.81
395.678	474.81
395.903	488.81
396.127	507.81
396.352	471.81
396.576	472.81
396.801	460.81
397.025	479.81
397.249	469.81
397.474	496.81
397.698	495.81
397.922	489.81
398.147	517.81
398.371	509.81
398.595	516.81
398.82	517.81
399.044	535.81
399.268	560.81
399.492	613.81
399.717	647.81
399.941	680.81
400.165	663.81
400.389	660.81
400.613	587.81
400.837	561.81
401.062	539.81
401.286	543.81
401.51	538.81
401.734	529.81
401.958	543.81
402.182	547.81
402.406	537.81
402.63	525.81
402.854	539.81
403.078	559.81
403.302	541.81
403.526	567.81
403.75	557.81
403.974	571.81
404.198	558.81
404.422	542.81
404.645	574.81
404.869	578.81
405.093	587.81
405.317	619.81
405.541	651.81
405.765	598.81
405.988	571.81
406.212	587.81
406.436	593.81
406.66	605.81
406.883	610.81
407.107	615.81
407.331	669.81
407.555	694.81
407.778	718.81
408.002	674.81
408.226	632.81
408.449	593.81
408.673	598.81
408.896	619.81
409.12	660.81
409.344	624.81
409.567	586.81
409.791	564.81
410.014	537.81
410.238	555.81
410.461	552.81
410.685	562.81
410.908	570.81
411.132	587.81
411.355	604.81
411.578	575.81
411.802	539.81
412.025	521.81
412.249	544.81
412.472	579.81
412.695	588.81
412.919	602.81
413.142	564.81
413.365	541.81
413.589	531.81
413.812	533.81
414.035	544.81
414.258	508.81
414.482	518.81
414.705	537.81
414.928	505.81
415.151	520.81
415.374	536.81
415.597	524.81
415.821	501.81
416.044	490.81
416.267	498.81
416.49	512.81
416.713	512.81
416.936	507.81
417.159	527.81
417.382	528.81
417.605	525.81
417.828	523.81
418.051	531.81
418.274	558.81
418.497	512.81
418.72	536.81
418.943	522.81
419.166	551.81
419.389	571.81
419.611	563.81
419.834	545.81
420.057	562.81
420.28	569.81
420.503	542.81
420.726	535.81
420.948	544.81
421.171	561.81
421.394	590.81
421.617	531.81
421.839	523.81
422.062	557.81
422.285	543.81
422.507	573.81
422.73	643.81
422.953	617.81
423.175	566.81
423.398	559.81
423.621	545.81
423.843	571.81
424.066	554.81
424.288	563.81
424.511	587.81
424.733	600.81
424.956	651.81
425.178	637.81
425.401	656.81
425.623	687.81
425.846	581.81
426.068	573.81
426.291	567.81
426.513	541.81
426.735	541.81
426.958	562.81
427.18	617.81
427.402	749.81
427.625	786.81
427.847	683.81
428.069	624.81
428.292	584.81
428.514	518.81
428.736	491.81
428.958	511.81
429.181	505.81
429.403	499.81
429.625	497.81
429.847	532.81
430.069	571.81
430.292	582.81
430.514	502.81
430.736	507.81
430.958	504.81
431.18	472.81
431.402	482.81
431.624	473.81
431.846	488.81
432.068	499.81
432.29	493.81
432.512	506.81
432.734	469.81
432.956	497.81
433.178	497.81
433.4	496.81
433.622	494.81
433.844	497.81
434.066	490.81
434.287	495.81
434.509	499.81
434.731	513.81
434.953	533.81
435.175	528.81
435.397	546.81
435.618	541.81
435.84	567.81
436.062	630.81
436.284	702.81
436.505	598.81
436.727	541.81
436.949	534.81
437.17	514.81
437.392	503.81
437.614	493.81
437.835	516.81
438.057	581.81
438.278	648.81
438.5	674.81
438.721	739.81
438.943	723.81
439.165	573.81
439.386	548.81
439.608	543.81
439.829	541.81
440.05	576.81
440.272	579.81
440.493	564.81
440.715	528.81
440.936	513.81
441.158	537.81
441.379	522.81
441.6	555.81
441.822	551.81
442.043	591.81
442.264	635.81
442.486	655.81
442.707	578.81
442.928	543.81
443.149	575.81
443.371	566.81
443.592	581.81
443.813	685.81
444.034	723.81
444.255	639.81
444.476	612.81
444.698	582.81
444.919	589.81
445.14	678.81
445.361	601.81
445.582	576.81
445.803	646.81
446.024	666.81
446.245	679.81
446.466	646.81
446.687	546.81
446.908	550.81
447.129	530.81
447.35	509.81
447.571	494.81
447.792	471.81
448.013	497.81
448.234	499.81
448.455	529.81
448.675	601.81
448.896	724.81
449.117	618.81
449.338	591.81
449.559	668.81
449.779	749.81
450	637.81
450.221	522.81
450.442	502.81
450.662	466.81
450.883	467.81
451.104	482.81
451.324	472.81
451.545	450.81
451.766	448.81
451.986	457.81
452.207	446.81
452.428	452.81
452.648	440.81
452.869	469.81
453.089	457.81
453.31	478.81
453.53	475.81
453.751	455.81
453.971	440.81
454.192	439.81
454.412	444.81
454.633	438.81
454.853	442.81
455.073	429.81
455.294	456.81
455.514	477.81
455.734	517.81
455.955	440.81
456.175	431.81
456.395	425.81
456.616	417.81
456.836	431.81
457.056	415.81
457.276	422.81
457.497	424.81
457.717	416.81
457.937	457.81
458.157	431.81
458.377	437.81
458.598	469.81
458.818	499.81
459.038	529.81
459.258	555.81
459.478	509.81
459.698	495.81
459.918	509.81
460.138	512.81
460.358	541.81
460.578	502.81
460.798	515.81
461.018	553.81
461.238	528.81
461.458	527.81
461.678	545.81
461.898	528.81
462.118	522.81
462.338	560.81
462.558	546.81
462.777	559.81
462.997	566.81
463.217	613.81
463.437	602.81
463.657	586.81
463.876	579.81
464.096	584.81
464.316	586.81
464.536	591.81
464.755	571.81
464.975	571.81
465.195	578.81
465.414	597.81
465.634	522.81
465.854	517.81
466.073	508.81
466.293	481.81
466.512	487.81
466.732	490.81
466.951	453.81
467.171	470.81
467.391	459.81
467.61	466.81
467.829	474.81
468.049	473.81
468.268	460.81
468.488	461.81
468.707	441.81
468.927	464.81
469.146	437.81
469.365	472.81
469.585	459.81
469.804	459.81
470.023	485.81
470.243	474.81
470.462	488.81
470.681	504.81
470.901	514.81
471.12	488.81
471.339	463.81
471.558	461.81
471.777	468.81
471.997	445.81
472.216	467.81
472.435	499.81
472.654	473.81
472.873	459.81
473.092	450.81
473.311	465.81
473.53	458.81
473.749	470.81
473.968	501.81
474.187	574.81
474.406	584.81
474.625	513.81
474.844	479.81
475.063	478.81
475.282	468.81
475.501	471.81
475.72	475.81
475.939	467.81
476.158	489.81
476.377	477.81
476.596	473.81
476.814	479.81
477.033	485.81
477.252	494.81
477.471	499.81
477.69	501.81
477.908	534.81
478.127	524.81
478.346	519.81
478.564	527.81
478.783	532.81
479.002	546.81
479.22	525.81
479.439	559.81
479.658	559.81
479.876	554.81
480.095	581.81
480.313	583.81
480.532	607.81
480.751	595.81
480.969	589.81
481.188	609.81
481.406	642.81
481.624	585.81
481.843	583.81
482.061	536.81
482.28	549.81
482.498	531.81
482.717	551.81
482.935	554.81
483.153	524.81
483.372	553.81
483.59	530.81
483.808	550.81
484.027	551.81
484.245	559.81
484.463	542.81
484.681	557.81
484.9	571.81
485.118	539.81
485.336	529.81
485.554	563.81
485.772	571.81
485.99	578.81
486.209	542.81
486.427	554.81
486.645	563.81
486.863	578.81
487.081	596.81
487.299	582.81
487.517	590.81
487.735	602.81
487.953	574.81
488.171	590.81
488.389	539.81
488.607	589.81
488.825	577.81
489.043	560.81
489.261	579.81
489.479	559.81
489.696	583.81
489.914	585.81
490.132	587.81
490.35	608.81
490.568	585.81
490.786	591.81
491.003	593.81
491.221	607.81
491.439	609.81
491.657	633.81
491.874	637.81
492.092	641.81
492.31	639.81
492.527	621.81
492.745	664.81
492.963	648.81
493.18	650.81
493.398	659.81
493.615	655.81
493.833	648.81
494.05	671.81
494.268	671.81
494.485	649.81
494.703	645.81
494.92	667.81
495.138	646.81
495.355	663.81
495.573	656.81
495.79	666.81
496.008	657.81
496.225	663.81
496.442	659.81
496.66	684.81
496.877	686.81
497.094	664.81
497.312	712.81
497.529	725.81
497.746	743.81
497.963	758.81
498.181	764.81
498.398	775.81
498.615	787.81
498.832	839.81
499.049	841.81
499.267	867.81
499.484	949.81
499.701	976.81
499.918	1008.81
500.135	1084.81
500.352	1173.81
500.569	1205.81
500.786	1207.81
501.003	1195.81
501.22	1105.81
501.437	1036.81
501.654	1027.81
501.871	970.81
502.088	897.81
502.305	877.81
502.522	844.81
502.739	794.81
502.956	765.81
503.172	755.81
503.389	730.81
503.606	752.81
503.823	705.81
504.04	733.81
504.256	710.81
504.473	704.81
504.69	714.81
504.907	722.81
505.123	702.81
505.34	654.81
505.557	642.81
505.773	664.81
505.99	655.81
506.207	644.81
506.423	629.81
506.64	627.81
506.856	622.81
507.073	630.81
507.289	624.81
507.506	590.81
507.722	605.81
507.939	626.81
508.155	595.81
508.372	614.81
508.588	606.81
508.805	591.81
509.021	583.81
509.238	599.81
509.454	587.81
509.67	608.81
509.887	583.81
510.103	584.81
510.319	582.81
510.536	642.81
510.752	875.81
510.968	778.81
511.184	583.81
511.401	576.81
511.617	579.81
511.833	571.81
512.049	561.81
512.265	548.81
512.481	561.81
512.698	563.81
512.914	549.81
513.13	536.81
513.346	536.81
513.562	550.81
513.778	562.81
513.994	552.81
514.21	569.81
514.426	570.81
514.642	583.81
514.858	601.81
515.074	618.81
515.29	677.81
515.506	870.81
515.721	769.81
515.937	651.81
516.153	597.81
516.369	621.81
516.585	601.81
516.801	599.81
517.016	632.81
517.232	618.81
517.448	639.81
517.664	651.81
517.879	649.81
518.095	621.81
518.311	627.81
518.527	616.81
518.742	615.81
518.958	610.81
519.173	593.81
519.389	544.81
519.605	567.81
519.82	565.81
520.036	578.81
520.251	565.81
520.467	570.81
520.682	570.81
520.898	572.81
521.113	593.81
521.329	615.81
521.544	651.81
521.76	712.81
521.975	1001.81
522.19	1019.81
522.406	663.81
522.621	585.81
522.836	571.81
523.052	543.81
523.267	485.81
523.482	530.81
523.698	508.81
523.913	507.81
524.128	509.81
524.343	503.81
524.559	475.81
524.774	495.81
524.989	497.81
525.204	499.81
525.419	508.81
525.634	491.81
525.849	485.81
526.064	475.81
526.28	459.81
526.495	478.81
526.71	473.81
526.925	464.81
527.14	480.81
527.355	478.81
527.57	450.81
527.785	477.81
527.999	474.81
528.214	477.81
528.429	477.81
528.644	458.81
528.859	463.81
529.074	477.81
529.289	472.81
529.503	527.81
529.718	501.81
529.933	507.81
530.148	489.81
530.363	469.81
530.577	466.81
530.792	462.81
531.007	459.81
531.221	456.81
531.436	464.81
531.651	464.81
531.865	449.81
532.08	481.81
532.295	488.81
532.509	471.81
532.724	459.81
532.938	457.81
533.153	466.81
533.367	443.81
533.582	463.81
533.796	443.81
534.011	451.81
534.225	449.81
534.44	458.81
534.654	453.81
534.868	438.81
535.083	450.81
535.297	435.81
535.511	435.81
535.726	458.81
535.94	445.81
536.154	442.81
536.369	445.81
536.583	439.81
536.797	443.81
537.011	435.81
537.225	430.81
537.44	434.81
537.654	438.81
537.868	450.81
538.082	440.81
538.296	427.81
538.51	456.81
538.724	450.81
538.938	443.81
539.153	444.81
539.367	452.81
539.581	432.81
539.795	422.81
540.009	425.81
540.222	441.81
540.436	434.81
540.65	429.81
540.864	429.81
541.078	420.81
541.292	453.81
541.506	432.81
541.72	446.81
541.934	440.81
542.147	432.81
542.361	446.81
542.575	406.81
542.789	433.81
543.002	426.81
543.216	441.81
543.43	433.81
543.644	443.81
543.857	444.81
544.071	426.81
544.285	451.81
544.498	454.81
544.712	424.81
544.925	421.81
545.139	432.81
545.352	444.81
545.566	440.81
545.779	431.81
545.993	427.81
546.206	447.81
546.42	447.81
546.633	428.81
546.847	439.81
547.06	422.81
547.274	414.81
547.487	414.81
547.7	434.81
547.914	420.81
548.127	434.81
548.34	424.81
548.554	419.81
548.767	438.81
548.98	435.81
549.193	415.81
549.407	425.81
549.62	424.81
549.833	422.81
550.046	414.81
550.259	428.81
550.473	429.81
550.686	443.81
550.899	436.81
551.112	439.81
551.325	426.81
551.538	414.81
551.751	424.81
551.964	423.81
552.177	421.81
552.39	446.81
552.603	438.81
552.816	448.81
553.029	459.81
553.242	433.81
553.455	449.81
553.667	457.81
553.88	444.81
554.093	431.81
554.306	440.81
554.519	454.81
554.732	444.81
554.944	396.81
555.157	411.81
555.37	390.81
555.583	397.81
555.795	409.81
556.008	396.81
556.221	416.81
556.433	386.81
556.646	400.81
556.859	378.81
557.071	387.81
557.284	384.81
557.496	376.81
557.709	372.81
557.921	382.81
558.134	387.81
558.346	384.81
558.559	381.81
558.771	373.81
558.984	386.81
559.196	367.81
559.409	385.81
559.621	364.81
559.833	369.81
560.046	352.81
560.258	381.81
560.47	371.81
560.683	379.81
560.895	379.81
561.107	378.81
561.32	368.81
561.532	374.81
561.744	378.81
561.956	374.81
562.168	387.81
562.381	381.81
562.593	378.81
562.805	387.81
563.017	388.81
563.229	376.81
563.441	371.81
563.653	391.81
563.865	399.81
564.077	379.81
564.289	385.81
564.501	403.81
564.713	403.81
564.925	409.81
565.137	426.81
565.349	421.81
565.561	425.81
565.773	449.81
565.985	450.81
566.197	461.81
566.408	472.81
566.62	519.81
566.832	534.81
567.044	513.81
567.255	521.81
567.467	532.81
567.679	569.81
567.891	569.81
568.102	551.81
568.314	573.81
568.526	521.81
568.737	476.81
568.949	466.81
569.161	463.81
569.372	436.81
569.584	416.81
569.795	416.81
570.007	411.81
570.218	428.81
570.43	409.81
570.641	399.81
570.853	389.81
571.064	393.81
571.276	376.81
571.487	370.81
571.698	377.81
571.91	364.81
572.121	367.81
572.333	362.81
572.544	361.81
572.755	350.81
572.966	359.81
573.178	358.81
573.389	342.81
573.6	335.81
573.811	343.81
574.023	331.81
574.234	336.81
574.445	343.81
574.656	325.81
574.867	331.81
575.078	326.81
575.289	330.81
575.501	318.81
575.712	318.81
575.923	315.81
576.134	353.81
576.345	338.81
576.556	305.81
576.767	317.81
576.978	310.81
577.188	309.81
577.399	292.81
577.61	321.81
577.821	303.81
578.032	323.81
578.243	323.81
578.454	445.81
578.665	377.81
578.875	301.81
579.086	295.81
579.297	307.81
579.508	315.81
579.718	303.81
579.929	312.81
580.14	319.81
580.35	291.81
580.561	296.81
580.772	297.81
580.982	277.81
581.193	288.81
581.403	315.81
581.614	314.81
581.825	313.81
582.035	308.81
582.246	305.81
582.456	313.81
582.667	296.81
582.877	285.81
583.087	281.81
583.298	298.81
583.508	305.81
583.719	282.81
583.929	294.81
584.139	287.81
584.35	305.81
584.56	290.81
584.77	291.81
584.981	278.81
585.191	298.81
585.401	285.81
585.611	290.81
585.821	311.81
586.032	289.81
586.242	315.81
586.452	275.81
586.662	302.81
586.872	273.81
587.082	293.81
587.292	279.81
587.502	296.81
587.713	281.81
587.923	284.81
588.133	292.81
588.343	301.81
588.553	292.81
588.762	274.81
588.972	281.81
589.182	336.81
589.392	314.81
589.602	286.81
589.812	322.81
590.022	309.81
590.232	282.81
590.441	293.81
590.651	309.81
590.861	299.81
591.071	290.81
591.281	302.81
591.49	289.81
591.7	285.81
591.91	305.81
592.119	287.81
592.329	327.81
592.539	314.81
592.748	323.81
592.958	329.81
593.167	325.81
593.377	331.81
593.587	340.81
593.796	322.81
594.006	321.81
594.215	327.81
594.424	337.81
594.634	333.81
594.843	322.81
595.053	319.81
595.262	298.81
595.472	278.81
595.681	282.81
595.89	297.81
596.1	295.81
596.309	280.81
596.518	291.81
596.727	287.81
596.937	274.81
597.146	281.81
597.355	269.81
597.564	249.81
597.774	269.81
597.983	274.81
598.192	261.81
598.401	248.81
598.61	276.81
598.819	265.81
599.028	267.81
599.237	248.81
599.446	256.81
599.655	257.81
599.864	264.81
600.073	259.81
600.282	252.81
600.491	253.81
600.7	263.81
600.909	242.81
601.118	242.81
601.327	240.81
601.536	242.81
601.745	242.81
601.953	260.81
602.162	254.81
602.371	237.81
602.58	253.81
602.789	258.81
602.997	225.81
603.206	251.81
603.415	231.81
603.623	223.81
603.832	230.81
604.041	245.81
604.249	240.81
604.458	261.81
604.666	245.81
604.875	234.81
605.084	244.81
605.292	246.81
605.501	245.81
605.709	246.81
605.918	234.81
606.126	239.81
606.334	237.81
606.543	234.81
606.751	241.81
606.96	237.81
607.168	232.81
607.376	204.81
607.585	228.81
607.793	243.81
608.001	238.81
608.21	233.81
608.418	231.81
608.626	218.81
608.834	213.81
609.043	232.81
609.251	227.81
609.459	241.81
609.667	234.81
609.875	233.81
610.083	231.81
610.291	233.81
610.499	238.81
610.707	222.81
610.916	245.81
611.124	227.81
611.332	238.81
611.54	257.81
611.748	247.81
611.955	214.81
612.163	241.81
612.371	235.81
612.579	237.81
612.787	229.81
612.995	207.81
613.203	236.81
613.411	215.81
613.618	217.81
613.826	245.81
614.034	234.81
614.242	249.81
614.449	219.81
614.657	222.81
614.865	219.81
615.072	218.81
615.28	227.81
615.488	216.81
615.695	224.81
615.903	207.81
616.111	216.81
616.318	239.81
616.526	225.81
616.733	235.81
616.941	215.81
617.148	227.81
617.356	233.81
617.563	225.81
617.771	228.81
617.978	212.81
618.185	218.81
618.393	208.81
618.6	218.81
618.807	232.81
619.015	233.81
619.222	228.81
619.429	221.81
619.637	233.81
619.844	229.81
620.051	224.81
620.258	202.81
620.466	205.81
620.673	211.81
620.88	208.81
621.087	202.81
621.294	219.81
621.501	226.81
621.708	220.81
621.915	208.81
622.122	212.81
622.329	209.81
622.536	211.81
622.743	214.81
622.95	224.81
623.157	222.81
623.364	206.81
623.571	224.81
623.778	219.81
623.985	221.81
624.192	201.81
624.399	217.81
624.606	221.81
624.812	203.81
625.019	218.81
625.226	207.81
625.433	199.81
625.639	197.81
625.846	203.81
626.053	199.81
626.259	196.81
626.466	199.81
626.673	213.81
626.879	197.81
627.086	207.81
627.293	192.81
627.499	200.81
627.706	202.81
627.912	208.81
628.119	177.81
628.325	195.81
628.532	191.81
628.738	182.81
628.945	191.81
629.151	192.81
629.357	203.81
629.564	192.81
629.77	182.81
629.976	182.81
630.183	195.81
630.389	181.81
630.595	168.81
630.802	189.81
631.008	186.81
631.214	194.81
631.42	182.81
631.627	196.81
631.833	187.81
632.039	183.81
632.245	171.81
632.451	182.81
632.657	175.81
632.863	179.81
633.069	193.81
633.275	164.81
633.481	187.81
633.688	160.81
633.893	187.81
634.099	168.81
634.305	176.81
634.511	177.81
634.717	179.81
634.923	171.81
635.129	178.81
635.335	198.81
635.541	173.81
635.747	159.81
635.952	193.81
636.158	184.81
636.364	171.81
636.57	190.81
636.775	180.81
636.981	182.81
637.187	185.81
637.392	179.81
637.598	170.81
637.804	166.81
638.009	183.81
638.215	166.81
638.421	171.81
638.626	161.81
638.832	173.81
639.037	155.81
639.243	163.81
639.448	177.81
639.654	181.81
639.859	175.81
640.065	159.81
640.27	168.81
640.475	153.81
640.681	152.81
640.886	163.81
641.091	165.81
641.297	165.81
641.502	176.81
641.707	153.81
641.913	171.81
642.118	153.81
642.323	153.81
642.528	171.81
642.733	182.81
642.939	151.81
643.144	165.81
643.349	169.81
643.554	174.81
643.759	173.81
643.964	138.81
644.169	155.81
644.374	163.81
644.579	176.81
644.784	147.81
644.989	178.81
645.194	170.81
645.399	178.81
645.604	153.81
645.809	147.81
646.014	165.81
646.219	139.81
646.423	156.81
646.628	161.81
646.833	158.81
647.038	171.81
647.243	169.81
647.447	152.81
647.652	157.81
647.857	167.81
648.062	163.81
648.266	171.81
648.471	163.81
648.676	174.81
648.88	185.81
649.085	172.81
649.289	164.81
649.494	162.81
649.698	169.81
649.903	163.81
650.107	158.81
650.312	154.81
650.516	156.81
650.721	154.81
650.925	138.81
651.13	129.81
651.334	157.81
651.539	137.81
651.743	145.81
651.947	157.81
652.152	151.81
652.356	140.81
652.56	126.81
652.764	130.81
652.969	144.81
653.173	129.81
653.377	127.81
653.581	122.81
653.785	125.81
653.99	118.81
654.194	136.81
654.398	138.81
654.602	130.81
654.806	137.81
655.01	141.81
655.214	121.81
655.418	143.81
655.622	129.81
655.826	129.81
656.03	140.81
656.234	127.81
656.438	134.81
656.642	148.81
656.846	133.81
657.049	118.81
657.253	114.81
657.457	115.81
657.661	107.81
657.865	127.81
658.068	113.81
658.272	97.81
658.476	122.81
658.68	105.81
658.883	79.81
659.087	91.81
659.291	94.81
659.494	103.81
659.698	99.81
659.901	88.81
660.105	95.81
660.309	88.81
660.512	89.81
660.716	81.81
660.919	109.81
661.123	93.81
661.326	98.81
661.53	86.81
661.733	84.81
661.936	94.81
662.14	88.81
662.343	87.81
662.546	89.81
662.75	79.81
662.953	79.81
663.156	94.81
663.36	88.81
663.563	91.81
663.766	84.81
663.969	79.81
664.173	74.81
664.376	86.81
664.579	67.81
664.782	72.81
664.985	83.81
665.188	81.81
665.391	79.81
665.594	98.81
665.797	73.81
666	88.81
666.203	83.81
666.406	75.81
666.609	88.81
666.812	86.81
667.015	82.81
667.218	95.81
667.421	82.81
667.624	75.81
667.827	79.81
668.03	97.81
668.232	91.81
668.435	71.81
668.638	67.81
668.841	82.81
669.043	93.81
669.246	71.81
669.449	82.81
669.651	85.81
669.854	79.81
670.057	91.81
670.259	72.81
670.462	80.81
670.665	87.81
670.867	79.81
671.07	82.81
671.272	72.81
671.475	88.81
671.677	58.81
671.88	75.81
672.082	81.81
672.284	70.81
672.487	85.81
672.689	85.81
672.892	89.81
