Data from 1962.PennyLincolnUp.Lamp.En5.5.200Scan.071719.P1._HRD10591_13-54-03-061.txt Node
Date: Thu Jul 18 13:54:03 EDT 2019
User: cochatt
Spectrometer: HR+D1059
Trigger mode: 1
Integration Time (sec): 1.000000E-1
Scans to average: 1
Electric dark correction enabled: true
Nonlinearity correction enabled: false
Boxcar width: 0
XAxis mode: Wavelengths
Number of Pixels in Spectrum: 2048
>>>>>Begin Spectral Data<<<<<
223.165	-1.25
223.4	-1.25
223.635	-1.25
223.869	-31.25
224.104	-22.25
224.338	-11.25
224.573	-14.25
224.808	-10.25
225.042	-12.25
225.277	-3.25
225.511	-2.25
225.746	-1.25
225.98	3.75
226.215	1.75
226.449	27.75
226.683	16.75
226.918	28.75
227.152	30.75
227.387	27.75
227.621	31.75
227.856	39.75
228.09	54.75
228.324	41.75
228.559	51.75
228.793	67.75
229.027	87.75
229.262	87.75
229.496	97.75
229.73	105.75
229.964	122.75
230.199	99.75
230.433	101.75
230.667	97.75
230.901	108.75
231.136	94.75
231.37	104.75
231.604	121.75
231.838	97.75
232.072	115.75
232.306	124.75
232.541	127.75
232.775	114.75
233.009	100.75
233.243	126.75
233.477	113.75
233.711	100.75
233.945	111.75
234.179	100.75
234.413	100.75
234.647	122.75
234.881	103.75
235.115	121.75
235.349	121.75
235.583	117.75
235.817	102.75
236.051	116.75
236.285	121.75
236.519	112.75
236.753	111.75
236.987	130.75
237.221	144.75
237.455	184.75
237.689	153.75
237.922	123.75
238.156	135.75
238.39	135.75
238.624	96.75
238.858	115.75
239.091	122.75
239.325	117.75
239.559	119.75
239.793	107.75
240.027	122.75
240.26	138.75
240.494	128.75
240.728	129.75
240.961	139.75
241.195	137.75
241.429	126.75
241.662	136.75
241.896	134.75
242.13	132.75
242.363	118.75
242.597	123.75
242.83	128.75
243.064	128.75
243.298	117.75
243.531	123.75
243.765	147.75
243.998	139.75
244.232	138.75
244.465	139.75
244.699	141.75
244.932	134.75
245.166	143.75
245.399	129.75
245.633	131.75
245.866	115.75
246.099	145.75
246.333	131.75
246.566	123.75
246.8	139.75
247.033	140.75
247.266	143.75
247.5	146.75
247.733	151.75
247.966	159.75
248.2	166.75
248.433	144.75
248.666	159.75
248.899	160.75
249.133	175.75
249.366	184.75
249.599	180.75
249.832	168.75
250.066	169.75
250.299	182.75
250.532	194.75
250.765	200.75
250.998	191.75
251.231	190.75
251.465	182.75
251.698	180.75
251.931	175.75
252.164	175.75
252.397	187.75
252.63	174.75
252.863	191.75
253.096	197.75
253.329	204.75
253.562	190.75
253.795	188.75
254.028	185.75
254.261	199.75
254.494	187.75
254.727	217.75
254.96	222.75
255.193	214.75
255.426	218.75
255.659	198.75
255.892	217.75
256.124	203.75
256.357	198.75
256.59	189.75
256.823	195.75
257.056	193.75
257.289	208.75
257.521	193.75
257.754	193.75
257.987	193.75
258.22	189.75
258.452	186.75
258.685	197.75
258.918	210.75
259.151	196.75
259.383	211.75
259.616	206.75
259.849	217.75
260.081	209.75
260.314	241.75
260.547	226.75
260.779	219.75
261.012	207.75
261.244	203.75
261.477	214.75
261.71	193.75
261.942	218.75
262.175	211.75
262.407	211.75
262.64	203.75
262.872	206.75
263.105	202.75
263.337	194.75
263.57	203.75
263.802	208.75
264.035	209.75
264.267	194.75
264.499	187.75
264.732	207.75
264.964	204.75
265.197	216.75
265.429	229.75
265.661	219.75
265.894	190.75
266.126	199.75
266.358	207.75
266.591	207.75
266.823	206.75
267.055	217.75
267.287	217.75
267.52	225.75
267.752	229.75
267.984	227.75
268.216	236.75
268.448	227.75
268.681	224.75
268.913	231.75
269.145	242.75
269.377	249.75
269.609	255.75
269.841	222.75
270.073	240.75
270.306	262.75
270.538	261.75
270.77	274.75
271.002	263.75
271.234	254.75
271.466	284.75
271.698	284.75
271.93	285.75
272.162	280.75
272.394	262.75
272.626	290.75
272.858	254.75
273.09	252.75
273.322	254.75
273.553	233.75
273.785	261.75
274.017	254.75
274.249	253.75
274.481	275.75
274.713	260.75
274.945	249.75
275.176	254.75
275.408	246.75
275.64	241.75
275.872	235.75
276.104	258.75
276.335	266.75
276.567	247.75
276.799	257.75
277.031	272.75
277.262	294.75
277.494	274.75
277.726	283.75
277.957	276.75
278.189	279.75
278.421	261.75
278.652	262.75
278.884	267.75
279.115	266.75
279.347	275.75
279.579	275.75
279.81	264.75
280.042	256.75
280.273	271.75
280.505	264.75
280.736	261.75
280.968	273.75
281.199	262.75
281.431	275.75
281.662	271.75
281.894	273.75
282.125	284.75
282.356	287.75
282.588	311.75
282.819	300.75
283.051	281.75
283.282	262.75
283.513	295.75
283.745	279.75
283.976	275.75
284.207	288.75
284.439	291.75
284.67	278.75
284.901	264.75
285.132	291.75
285.364	260.75
285.595	265.75
285.826	271.75
286.057	266.75
286.288	295.75
286.52	283.75
286.751	269.75
286.982	305.75
287.213	290.75
287.444	286.75
287.675	287.75
287.906	299.75
288.138	314.75
288.369	286.75
288.6	292.75
288.831	295.75
289.062	303.75
289.293	299.75
289.524	299.75
289.755	303.75
289.986	295.75
290.217	305.75
290.448	307.75
290.679	293.75
290.91	291.75
291.141	286.75
291.371	305.75
291.602	299.75
291.833	303.75
292.064	296.75
292.295	291.75
292.526	312.75
292.757	296.75
292.987	291.75
293.218	291.75
293.449	306.75
293.68	300.75
293.91	286.75
294.141	311.75
294.372	298.75
294.603	291.75
294.833	302.75
295.064	302.75
295.295	315.75
295.525	310.75
295.756	302.75
295.987	302.75
296.217	313.75
296.448	334.75
296.679	312.75
296.909	310.75
297.14	296.75
297.37	302.75
297.601	319.75
297.831	318.75
298.062	300.75
298.292	300.75
298.523	311.75
298.753	307.75
298.984	305.75
299.214	330.75
299.445	314.75
299.675	305.75
299.905	342.75
300.136	324.75
300.366	329.75
300.597	325.75
300.827	314.75
301.057	327.75
301.288	336.75
301.518	343.75
301.748	346.75
301.979	331.75
302.209	338.75
302.439	319.75
302.669	317.75
302.9	332.75
303.13	332.75
303.36	316.75
303.59	349.75
303.82	353.75
304.051	343.75
304.281	347.75
304.511	329.75
304.741	336.75
304.971	327.75
305.201	343.75
305.431	338.75
305.661	325.75
305.891	334.75
306.121	318.75
306.352	312.75
306.582	342.75
306.812	326.75
307.042	319.75
307.272	335.75
307.502	326.75
307.731	338.75
307.961	335.75
308.191	323.75
308.421	341.75
308.651	329.75
308.881	344.75
309.111	346.75
309.341	323.75
309.571	349.75
309.8	343.75
310.03	362.75
310.26	353.75
310.49	374.75
310.72	356.75
310.949	369.75
311.179	355.75
311.409	360.75
311.639	343.75
311.868	348.75
312.098	354.75
312.328	364.75
312.557	375.75
312.787	374.75
313.017	369.75
313.246	400.75
313.476	365.75
313.706	377.75
313.935	358.75
314.165	350.75
314.394	383.75
314.624	395.75
314.853	389.75
315.083	372.75
315.312	368.75
315.542	365.75
315.771	368.75
316.001	354.75
316.23	349.75
316.46	356.75
316.689	358.75
316.919	386.75
317.148	361.75
317.377	372.75
317.607	382.75
317.836	374.75
318.065	371.75
318.295	363.75
318.524	382.75
318.753	346.75
318.983	359.75
319.212	369.75
319.441	380.75
319.67	367.75
319.9	376.75
320.129	377.75
320.358	357.75
320.587	363.75
320.816	372.75
321.046	374.75
321.275	388.75
321.504	379.75
321.733	369.75
321.962	372.75
322.191	383.75
322.42	393.75
322.649	401.75
322.878	404.75
323.108	398.75
323.337	408.75
323.566	432.75
323.795	426.75
324.024	461.75
324.253	531.75
324.482	677.75
324.71	991.75
324.939	1376.75
325.168	1211.75
325.397	662.75
325.626	522.75
325.855	468.75
326.084	433.75
326.313	440.75
326.542	438.75
326.77	451.75
326.999	500.75
327.228	632.75
327.457	910.75
327.686	1059.75
327.914	781.75
328.143	554.75
328.372	507.75
328.6	494.75
328.829	463.75
329.058	499.75
329.287	487.75
329.515	470.75
329.744	445.75
329.972	448.75
330.201	474.75
330.43	467.75
330.658	496.75
330.887	502.75
331.115	489.75
331.344	467.75
331.572	448.75
331.801	446.75
332.03	468.75
332.258	431.75
332.486	455.75
332.715	459.75
332.943	436.75
333.172	456.75
333.4	492.75
333.629	499.75
333.857	499.75
334.085	507.75
334.314	485.75
334.542	505.75
334.771	514.75
334.999	477.75
335.227	470.75
335.455	460.75
335.684	469.75
335.912	466.75
336.14	443.75
336.369	459.75
336.597	449.75
336.825	440.75
337.053	462.75
337.281	442.75
337.51	441.75
337.738	437.75
337.966	449.75
338.194	438.75
338.422	437.75
338.65	428.75
338.878	457.75
339.106	434.75
339.334	443.75
339.562	433.75
339.79	441.75
340.018	408.75
340.246	426.75
340.474	434.75
340.702	414.75
340.93	418.75
341.158	427.75
341.386	405.75
341.614	437.75
341.842	414.75
342.07	410.75
342.298	425.75
342.526	424.75
342.754	419.75
342.981	409.75
343.209	417.75
343.437	439.75
343.665	454.75
343.893	459.75
344.12	470.75
344.348	452.75
344.576	435.75
344.804	434.75
345.031	434.75
345.259	434.75
345.487	423.75
345.714	416.75
345.942	415.75
346.17	423.75
346.397	409.75
346.625	395.75
346.853	401.75
347.08	410.75
347.308	404.75
347.535	397.75
347.763	424.75
347.99	419.75
348.218	403.75
348.445	410.75
348.673	416.75
348.9	425.75
349.128	402.75
349.355	398.75
349.583	384.75
349.81	387.75
350.037	408.75
350.265	394.75
350.492	388.75
350.72	386.75
350.947	376.75
351.174	399.75
351.402	408.75
351.629	418.75
351.856	404.75
352.083	400.75
352.311	419.75
352.538	401.75
352.765	414.75
352.992	411.75
353.22	403.75
353.447	393.75
353.674	388.75
353.901	384.75
354.128	376.75
354.355	372.75
354.583	375.75
354.81	395.75
355.037	391.75
355.264	393.75
355.491	374.75
355.718	412.75
355.945	379.75
356.172	392.75
356.399	388.75
356.626	392.75
356.853	379.75
357.08	391.75
357.307	381.75
357.534	375.75
357.761	395.75
357.988	396.75
358.215	391.75
358.441	389.75
358.668	384.75
358.895	390.75
359.122	389.75
359.349	405.75
359.576	387.75
359.802	404.75
360.029	430.75
360.256	405.75
360.483	384.75
360.709	390.75
360.936	396.75
361.163	390.75
361.39	383.75
361.616	407.75
361.843	369.75
362.07	397.75
362.296	409.75
362.523	396.75
362.749	407.75
362.976	371.75
363.203	386.75
363.429	379.75
363.656	371.75
363.882	375.75
364.109	393.75
364.335	389.75
364.562	405.75
364.788	397.75
365.015	386.75
365.241	391.75
365.468	371.75
365.694	391.75
365.92	413.75
366.147	395.75
366.373	388.75
366.599	390.75
366.826	400.75
367.052	394.75
367.278	386.75
367.505	382.75
367.731	387.75
367.957	373.75
368.184	399.75
368.41	400.75
368.636	409.75
368.862	399.75
369.089	386.75
369.315	395.75
369.541	400.75
369.767	400.75
369.993	371.75
370.219	406.75
370.445	410.75
370.672	397.75
370.898	400.75
371.124	400.75
371.35	397.75
371.576	385.75
371.802	398.75
372.028	406.75
372.254	403.75
372.48	389.75
372.706	403.75
372.932	394.75
373.158	421.75
373.384	400.75
373.61	405.75
373.835	386.75
374.061	397.75
374.287	427.75
374.513	408.75
374.739	405.75
374.965	411.75
375.191	423.75
375.416	426.75
375.642	434.75
375.868	425.75
376.094	397.75
376.319	387.75
376.545	407.75
376.771	409.75
376.997	411.75
377.222	414.75
377.448	416.75
377.674	417.75
377.899	384.75
378.125	395.75
378.35	380.75
378.576	420.75
378.802	394.75
379.027	388.75
379.253	399.75
379.478	391.75
379.704	380.75
379.929	411.75
380.155	406.75
380.38	390.75
380.606	414.75
380.831	400.75
381.057	421.75
381.282	392.75
381.507	414.75
381.733	390.75
381.958	418.75
382.184	422.75
382.409	404.75
382.634	407.75
382.86	427.75
383.085	404.75
383.31	434.75
383.535	429.75
383.761	432.75
383.986	440.75
384.211	433.75
384.436	442.75
384.662	434.75
384.887	452.75
385.112	461.75
385.337	471.75
385.562	443.75
385.787	439.75
386.013	470.75
386.238	469.75
386.463	453.75
386.688	458.75
386.913	440.75
387.138	449.75
387.363	463.75
387.588	438.75
387.813	442.75
388.038	472.75
388.263	466.75
388.488	468.75
388.713	452.75
388.938	472.75
389.163	466.75
389.387	459.75
389.612	451.75
389.837	451.75
390.062	457.75
390.287	430.75
390.512	445.75
390.736	455.75
390.961	433.75
391.186	468.75
391.411	479.75
391.636	483.75
391.86	475.75
392.085	493.75
392.31	500.75
392.534	482.75
392.759	492.75
392.984	472.75
393.208	465.75
393.433	490.75
393.658	476.75
393.882	457.75
394.107	464.75
394.331	496.75
394.556	468.75
394.78	451.75
395.005	476.75
395.229	457.75
395.454	476.75
395.678	497.75
395.903	482.75
396.127	509.75
396.352	507.75
396.576	478.75
396.801	471.75
397.025	501.75
397.249	508.75
397.474	487.75
397.698	492.75
397.922	507.75
398.147	520.75
398.371	534.75
398.595	523.75
398.82	534.75
399.044	564.75
399.268	592.75
399.492	631.75
399.717	697.75
399.941	702.75
400.165	679.75
400.389	683.75
400.613	612.75
400.837	567.75
401.062	573.75
401.286	565.75
401.51	547.75
401.734	556.75
401.958	565.75
402.182	533.75
402.406	559.75
402.63	566.75
402.854	564.75
403.078	586.75
403.302	536.75
403.526	582.75
403.75	578.75
403.974	561.75
404.198	556.75
404.422	595.75
404.645	608.75
404.869	589.75
405.093	599.75
405.317	630.75
405.541	669.75
405.765	594.75
405.988	568.75
406.212	583.75
406.436	584.75
406.66	621.75
406.883	597.75
407.107	622.75
407.331	665.75
407.555	703.75
407.778	716.75
408.002	642.75
408.226	627.75
408.449	616.75
408.673	617.75
408.896	626.75
409.12	637.75
409.344	630.75
409.567	591.75
409.791	596.75
410.014	575.75
410.238	573.75
410.461	589.75
410.685	561.75
410.908	565.75
411.132	584.75
411.355	606.75
411.578	578.75
411.802	550.75
412.025	554.75
412.249	542.75
412.472	568.75
412.695	609.75
412.919	601.75
413.142	573.75
413.365	545.75
413.589	564.75
413.812	539.75
414.035	528.75
414.258	523.75
414.482	514.75
414.705	539.75
414.928	550.75
415.151	554.75
415.374	545.75
415.597	524.75
415.821	524.75
416.044	544.75
416.267	531.75
416.49	512.75
416.713	500.75
416.936	525.75
417.159	517.75
417.382	542.75
417.605	536.75
417.828	535.75
418.051	524.75
418.274	532.75
418.497	521.75
418.72	496.75
418.943	551.75
419.166	566.75
419.389	613.75
419.611	573.75
419.834	564.75
420.057	550.75
420.28	533.75
420.503	541.75
420.726	555.75
420.948	552.75
421.171	568.75
421.394	610.75
421.617	536.75
421.839	537.75
422.062	552.75
422.285	550.75
422.507	589.75
422.73	635.75
422.953	618.75
423.175	566.75
423.398	560.75
423.621	549.75
423.843	570.75
424.066	578.75
424.288	581.75
424.511	582.75
424.733	619.75
424.956	640.75
425.178	642.75
425.401	639.75
425.623	661.75
425.846	589.75
426.068	548.75
426.291	550.75
426.513	530.75
426.735	536.75
426.958	576.75
427.18	654.75
427.402	733.75
427.625	814.75
427.847	674.75
428.069	598.75
428.292	551.75
428.514	544.75
428.736	512.75
428.958	532.75
429.181	516.75
429.403	533.75
429.625	532.75
429.847	535.75
430.069	567.75
430.292	590.75
430.514	530.75
430.736	507.75
430.958	496.75
431.18	514.75
431.402	503.75
431.624	499.75
431.846	489.75
432.068	490.75
432.29	516.75
432.512	507.75
432.734	507.75
432.956	503.75
433.178	484.75
433.4	508.75
433.622	505.75
433.844	487.75
434.066	512.75
434.287	522.75
434.509	507.75
434.731	523.75
434.953	533.75
435.175	544.75
435.397	554.75
435.618	559.75
435.84	591.75
436.062	640.75
436.284	676.75
436.505	582.75
436.727	550.75
436.949	516.75
437.17	510.75
437.392	524.75
437.614	500.75
437.835	522.75
438.057	582.75
438.278	665.75
438.5	666.75
438.721	716.75
438.943	681.75
439.165	585.75
439.386	540.75
439.608	553.75
439.829	561.75
440.05	544.75
440.272	576.75
440.493	554.75
440.715	523.75
440.936	518.75
441.158	545.75
441.379	530.75
441.6	529.75
441.822	565.75
442.043	568.75
442.264	651.75
442.486	664.75
442.707	587.75
442.928	568.75
443.149	578.75
443.371	568.75
443.592	614.75
443.813	664.75
444.034	734.75
444.255	603.75
444.476	613.75
444.698	601.75
444.919	600.75
445.14	728.75
445.361	629.75
445.582	584.75
445.803	631.75
446.024	678.75
446.245	688.75
446.466	638.75
446.687	587.75
446.908	541.75
447.129	514.75
447.35	503.75
447.571	517.75
447.792	505.75
448.013	518.75
448.234	512.75
448.455	549.75
448.675	611.75
448.896	720.75
449.117	622.75
449.338	576.75
449.559	645.75
449.779	738.75
450	602.75
450.221	524.75
450.442	492.75
450.662	470.75
450.883	487.75
451.104	480.75
451.324	479.75
451.545	476.75
451.766	471.75
451.986	448.75
452.207	434.75
452.428	466.75
452.648	469.75
452.869	448.75
453.089	474.75
453.31	466.75
453.53	478.75
453.751	445.75
453.971	448.75
454.192	474.75
454.412	445.75
454.633	452.75
454.853	458.75
455.073	441.75
455.294	470.75
455.514	511.75
455.734	506.75
455.955	446.75
456.175	432.75
456.395	410.75
456.616	418.75
456.836	437.75
457.056	443.75
457.276	425.75
457.497	438.75
457.717	433.75
457.937	433.75
458.157	441.75
458.377	476.75
458.598	456.75
458.818	488.75
459.038	553.75
459.258	563.75
459.478	523.75
459.698	507.75
459.918	502.75
460.138	505.75
460.358	505.75
460.578	525.75
460.798	529.75
461.018	546.75
461.238	530.75
461.458	552.75
461.678	538.75
461.898	542.75
462.118	537.75
462.338	552.75
462.558	559.75
462.777	580.75
462.997	603.75
463.217	618.75
463.437	624.75
463.657	633.75
463.876	594.75
464.096	580.75
464.316	589.75
464.536	582.75
464.755	587.75
464.975	560.75
465.195	588.75
465.414	586.75
465.634	542.75
465.854	528.75
466.073	515.75
466.293	484.75
466.512	485.75
466.732	463.75
466.951	467.75
467.171	470.75
467.391	490.75
467.61	466.75
467.829	460.75
468.049	481.75
468.268	460.75
468.488	471.75
468.707	460.75
468.927	440.75
469.146	469.75
469.365	470.75
469.585	469.75
469.804	478.75
470.023	487.75
470.243	478.75
470.462	495.75
470.681	508.75
470.901	495.75
471.12	486.75
471.339	488.75
471.558	481.75
471.777	494.75
471.997	486.75
472.216	494.75
472.435	491.75
472.654	495.75
472.873	488.75
473.092	468.75
473.311	458.75
473.53	463.75
473.749	483.75
473.968	511.75
474.187	545.75
474.406	576.75
474.625	530.75
474.844	488.75
475.063	461.75
475.282	465.75
475.501	482.75
475.72	465.75
475.939	498.75
476.158	508.75
476.377	490.75
476.596	487.75
476.814	487.75
477.033	501.75
477.252	496.75
477.471	527.75
477.69	511.75
477.908	505.75
478.127	528.75
478.346	530.75
478.564	545.75
478.783	538.75
479.002	553.75
479.22	574.75
479.439	558.75
479.658	552.75
479.876	576.75
480.095	589.75
480.313	611.75
480.532	597.75
480.751	608.75
480.969	616.75
481.188	614.75
481.406	597.75
481.624	603.75
481.843	571.75
482.061	560.75
482.28	553.75
482.498	572.75
482.717	540.75
482.935	567.75
483.153	556.75
483.372	554.75
483.59	581.75
483.808	547.75
484.027	569.75
484.245	580.75
484.463	571.75
484.681	566.75
484.9	558.75
485.118	555.75
485.336	569.75
485.554	585.75
485.772	587.75
485.99	579.75
486.209	596.75
486.427	548.75
486.645	582.75
486.863	582.75
487.081	609.75
487.299	605.75
487.517	602.75
487.735	583.75
487.953	578.75
488.171	606.75
488.389	575.75
488.607	568.75
488.825	572.75
489.043	571.75
489.261	567.75
489.479	563.75
489.696	577.75
489.914	596.75
490.132	606.75
490.35	607.75
490.568	599.75
490.786	610.75
491.003	611.75
491.221	631.75
491.439	630.75
491.657	600.75
491.874	626.75
492.092	643.75
492.31	665.75
492.527	649.75
492.745	634.75
492.963	668.75
493.18	685.75
493.398	660.75
493.615	649.75
493.833	665.75
494.05	643.75
494.268	657.75
494.485	655.75
494.703	645.75
494.92	668.75
495.138	647.75
495.355	665.75
495.573	686.75
495.79	686.75
496.008	665.75
496.225	670.75
496.442	664.75
496.66	706.75
496.877	690.75
497.094	674.75
497.312	708.75
497.529	740.75
497.746	731.75
497.963	756.75
498.181	721.75
498.398	801.75
498.615	798.75
498.832	825.75
499.049	849.75
499.267	888.75
499.484	922.75
499.701	998.75
499.918	1041.75
500.135	1103.75
500.352	1195.75
500.569	1225.75
500.786	1222.75
501.003	1191.75
501.22	1154.75
501.437	1065.75
501.654	990.75
501.871	970.75
502.088	912.75
502.305	896.75
502.522	849.75
502.739	814.75
502.956	767.75
503.172	773.75
503.389	742.75
503.606	730.75
503.823	710.75
504.04	743.75
504.256	732.75
504.473	728.75
504.69	733.75
504.907	746.75
505.123	700.75
505.34	665.75
505.557	628.75
505.773	631.75
505.99	622.75
506.207	663.75
506.423	630.75
506.64	634.75
506.856	633.75
507.073	611.75
507.289	610.75
507.506	614.75
507.722	622.75
507.939	615.75
508.155	609.75
508.372	607.75
508.588	578.75
508.805	593.75
509.021	583.75
509.238	594.75
509.454	590.75
509.67	608.75
509.887	599.75
510.103	568.75
510.319	566.75
510.536	641.75
510.752	869.75
510.968	728.75
511.184	595.75
511.401	564.75
511.617	550.75
511.833	575.75
512.049	607.75
512.265	570.75
512.481	566.75
512.698	570.75
512.914	567.75
513.13	570.75
513.346	551.75
513.562	559.75
513.778	540.75
513.994	569.75
514.21	576.75
514.426	575.75
514.642	587.75
514.858	602.75
515.074	616.75
515.29	680.75
515.506	832.75
515.721	779.75
515.937	610.75
516.153	606.75
516.369	580.75
516.585	599.75
516.801	606.75
517.016	638.75
517.232	627.75
517.448	642.75
517.664	645.75
517.879	656.75
518.095	662.75
518.311	638.75
518.527	624.75
518.742	596.75
518.958	607.75
519.173	595.75
519.389	574.75
519.605	586.75
519.82	567.75
520.036	573.75
520.251	592.75
520.467	594.75
520.682	590.75
520.898	598.75
521.113	600.75
521.329	595.75
521.544	610.75
521.76	711.75
521.975	992.75
522.19	969.75
522.406	646.75
522.621	564.75
522.836	542.75
523.052	552.75
523.267	521.75
523.482	521.75
523.698	535.75
523.913	523.75
524.128	523.75
524.343	523.75
524.559	496.75
524.774	477.75
524.989	512.75
525.204	517.75
525.419	494.75
525.634	491.75
525.849	490.75
526.064	494.75
526.28	489.75
526.495	502.75
526.71	494.75
526.925	485.75
527.14	466.75
527.355	480.75
527.57	503.75
527.785	484.75
527.999	476.75
528.214	496.75
528.429	474.75
528.644	466.75
528.859	460.75
529.074	464.75
529.289	492.75
529.503	510.75
529.718	488.75
529.933	488.75
530.148	490.75
530.363	488.75
530.577	466.75
530.792	474.75
531.007	466.75
531.221	439.75
531.436	462.75
531.651	450.75
531.865	480.75
532.08	465.75
532.295	457.75
532.509	468.75
532.724	461.75
532.938	463.75
533.153	459.75
533.367	468.75
533.582	476.75
533.796	462.75
534.011	494.75
534.225	473.75
534.44	462.75
534.654	490.75
534.868	463.75
535.083	446.75
535.297	460.75
535.511	466.75
535.726	461.75
535.94	447.75
536.154	449.75
536.369	452.75
536.583	450.75
536.797	431.75
537.011	434.75
537.225	457.75
537.44	463.75
537.654	441.75
537.868	439.75
538.082	438.75
538.296	457.75
538.51	458.75
538.724	449.75
538.938	462.75
539.153	451.75
539.367	448.75
539.581	451.75
539.795	434.75
540.009	436.75
540.222	422.75
540.436	447.75
540.65	430.75
540.864	448.75
541.078	454.75
541.292	440.75
541.506	446.75
541.72	423.75
541.934	435.75
542.147	448.75
542.361	456.75
542.575	449.75
542.789	426.75
543.002	442.75
543.216	445.75
543.43	456.75
543.644	442.75
543.857	437.75
544.071	448.75
544.285	439.75
544.498	443.75
544.712	444.75
544.925	439.75
545.139	434.75
545.352	452.75
545.566	431.75
545.779	437.75
545.993	446.75
546.206	466.75
546.42	430.75
546.633	448.75
546.847	438.75
547.06	448.75
547.274	441.75
547.487	439.75
547.7	443.75
547.914	438.75
548.127	428.75
548.34	443.75
548.554	433.75
548.767	436.75
548.98	420.75
549.193	441.75
549.407	464.75
549.62	442.75
549.833	434.75
550.046	451.75
550.259	426.75
550.473	423.75
550.686	438.75
550.899	436.75
551.112	441.75
551.325	442.75
551.538	427.75
551.751	459.75
551.964	436.75
552.177	447.75
552.39	442.75
552.603	438.75
552.816	457.75
553.029	461.75
553.242	457.75
553.455	471.75
553.667	488.75
553.88	463.75
554.093	447.75
554.306	450.75
554.519	439.75
554.732	430.75
554.944	438.75
555.157	415.75
555.37	429.75
555.583	414.75
555.795	395.75
556.008	414.75
556.221	422.75
556.433	401.75
556.646	407.75
556.859	385.75
557.071	390.75
557.284	402.75
557.496	405.75
557.709	367.75
557.921	385.75
558.134	384.75
558.346	390.75
558.559	395.75
558.771	396.75
558.984	401.75
559.196	377.75
559.409	358.75
559.621	363.75
559.833	377.75
560.046	382.75
560.258	382.75
560.47	386.75
560.683	374.75
560.895	376.75
561.107	382.75
561.32	385.75
561.532	377.75
561.744	392.75
561.956	390.75
562.168	387.75
562.381	390.75
562.593	375.75
562.805	406.75
563.017	409.75
563.229	369.75
563.441	392.75
563.653	397.75
563.865	399.75
564.077	391.75
564.289	394.75
564.501	411.75
564.713	416.75
564.925	442.75
565.137	434.75
565.349	416.75
565.561	422.75
565.773	448.75
565.985	444.75
566.197	460.75
566.408	469.75
566.62	509.75
566.832	527.75
567.044	561.75
567.255	540.75
567.467	547.75
567.679	553.75
567.891	572.75
568.102	594.75
568.314	576.75
568.526	555.75
568.737	537.75
568.949	487.75
569.161	462.75
569.372	444.75
569.584	436.75
569.795	447.75
570.007	414.75
570.218	427.75
570.43	427.75
570.641	396.75
570.853	408.75
571.064	416.75
571.276	406.75
571.487	392.75
571.698	388.75
571.91	383.75
572.121	398.75
572.333	374.75
572.544	375.75
572.755	345.75
572.966	350.75
573.178	352.75
573.389	346.75
573.6	347.75
573.811	368.75
574.023	350.75
574.234	340.75
574.445	344.75
574.656	357.75
574.867	348.75
575.078	335.75
575.289	324.75
575.501	327.75
575.712	314.75
575.923	314.75
576.134	324.75
576.345	341.75
576.556	335.75
576.767	326.75
576.978	338.75
577.188	317.75
577.399	336.75
577.61	325.75
577.821	314.75
578.032	323.75
578.243	351.75
578.454	454.75
578.665	355.75
578.875	318.75
579.086	348.75
579.297	316.75
579.508	312.75
579.718	314.75
579.929	306.75
580.14	306.75
580.35	297.75
580.561	294.75
580.772	322.75
580.982	307.75
581.193	318.75
581.403	299.75
581.614	324.75
581.825	295.75
582.035	288.75
582.246	319.75
582.456	302.75
582.667	316.75
582.877	296.75
583.087	299.75
583.298	297.75
583.508	307.75
583.719	324.75
583.929	303.75
584.139	292.75
584.35	318.75
584.56	291.75
584.77	302.75
584.981	302.75
585.191	305.75
585.401	287.75
585.611	292.75
585.821	304.75
586.032	313.75
586.242	284.75
586.452	292.75
586.662	305.75
586.872	295.75
587.082	296.75
587.292	311.75
587.502	288.75
587.713	299.75
587.923	277.75
588.133	290.75
588.343	296.75
588.553	293.75
588.762	313.75
588.972	296.75
589.182	342.75
589.392	345.75
589.602	324.75
589.812	340.75
590.022	335.75
590.232	319.75
590.441	309.75
590.651	302.75
590.861	298.75
591.071	294.75
591.281	304.75
591.49	309.75
591.7	307.75
591.91	307.75
592.119	305.75
592.329	321.75
592.539	312.75
592.748	338.75
592.958	333.75
593.167	331.75
593.377	349.75
593.587	352.75
593.796	337.75
594.006	337.75
594.215	338.75
594.424	344.75
594.634	326.75
594.843	349.75
595.053	329.75
595.262	313.75
595.472	322.75
595.681	302.75
595.89	305.75
596.1	294.75
596.309	295.75
596.518	292.75
596.727	283.75
596.937	290.75
597.146	289.75
597.355	284.75
597.564	277.75
597.774	274.75
597.983	295.75
598.192	280.75
598.401	263.75
598.61	268.75
598.819	274.75
599.028	251.75
599.237	250.75
599.446	245.75
599.655	259.75
599.864	270.75
600.073	268.75
600.282	256.75
600.491	282.75
600.7	249.75
600.909	251.75
601.118	236.75
601.327	250.75
601.536	261.75
601.745	272.75
601.953	270.75
602.162	258.75
602.371	244.75
602.58	260.75
602.789	269.75
602.997	262.75
603.206	274.75
603.415	247.75
603.623	240.75
603.832	255.75
604.041	261.75
604.249	234.75
604.458	241.75
604.666	221.75
604.875	241.75
605.084	225.75
605.292	246.75
605.501	241.75
605.709	241.75
605.918	236.75
606.126	243.75
606.334	242.75
606.543	250.75
606.751	241.75
606.96	232.75
607.168	251.75
607.376	249.75
607.585	233.75
607.793	233.75
608.001	246.75
608.21	254.75
608.418	236.75
608.626	230.75
608.834	232.75
609.043	229.75
609.251	258.75
609.459	256.75
609.667	233.75
609.875	227.75
610.083	241.75
610.291	234.75
610.499	230.75
610.707	244.75
610.916	224.75
611.124	230.75
611.332	245.75
611.54	235.75
611.748	237.75
611.955	218.75
612.163	222.75
612.371	235.75
612.579	241.75
612.787	230.75
612.995	232.75
613.203	229.75
613.411	242.75
613.618	208.75
613.826	225.75
614.034	231.75
614.242	215.75
614.449	230.75
614.657	238.75
614.865	239.75
615.072	232.75
615.28	232.75
615.488	234.75
615.695	248.75
615.903	232.75
616.111	214.75
616.318	217.75
616.526	234.75
616.733	223.75
616.941	219.75
617.148	229.75
617.356	229.75
617.563	240.75
617.771	238.75
617.978	223.75
618.185	227.75
618.393	228.75
618.6	207.75
618.807	192.75
619.015	224.75
619.222	220.75
619.429	230.75
619.637	221.75
619.844	219.75
620.051	227.75
620.258	234.75
620.466	215.75
620.673	230.75
620.88	204.75
621.087	226.75
621.294	229.75
621.501	225.75
621.708	208.75
621.915	217.75
622.122	222.75
622.329	222.75
622.536	215.75
622.743	215.75
622.95	211.75
623.157	233.75
623.364	216.75
623.571	205.75
623.778	215.75
623.985	236.75
624.192	222.75
624.399	208.75
624.606	197.75
624.812	208.75
625.019	217.75
625.226	194.75
625.433	197.75
625.639	223.75
625.846	203.75
626.053	214.75
626.259	190.75
626.466	208.75
626.673	213.75
626.879	203.75
627.086	203.75
627.293	187.75
627.499	199.75
627.706	207.75
627.912	205.75
628.119	192.75
628.325	210.75
628.532	212.75
628.738	201.75
628.945	212.75
629.151	208.75
629.357	197.75
629.564	194.75
629.77	200.75
629.976	183.75
630.183	221.75
630.389	191.75
630.595	192.75
630.802	208.75
631.008	191.75
631.214	178.75
631.42	209.75
631.627	197.75
631.833	191.75
632.039	190.75
632.245	181.75
632.451	193.75
632.657	204.75
632.863	163.75
633.069	186.75
633.275	181.75
633.481	188.75
633.688	192.75
633.893	186.75
634.099	188.75
634.305	179.75
634.511	184.75
634.717	188.75
634.923	175.75
635.129	190.75
635.335	158.75
635.541	175.75
635.747	178.75
635.952	187.75
636.158	191.75
636.364	181.75
636.57	184.75
636.775	196.75
636.981	171.75
637.187	186.75
637.392	183.75
637.598	190.75
637.804	184.75
638.009	174.75
638.215	181.75
638.421	184.75
638.626	178.75
638.832	182.75
639.037	171.75
639.243	167.75
639.448	163.75
639.654	186.75
639.859	166.75
640.065	166.75
640.27	188.75
640.475	178.75
640.681	161.75
640.886	174.75
641.091	169.75
641.297	178.75
641.502	163.75
641.707	168.75
641.913	158.75
642.118	177.75
642.323	186.75
642.528	176.75
642.733	182.75
642.939	177.75
643.144	159.75
643.349	162.75
643.554	162.75
643.759	169.75
643.964	161.75
644.169	160.75
644.374	161.75
644.579	160.75
644.784	169.75
644.989	173.75
645.194	154.75
645.399	160.75
645.604	172.75
645.809	171.75
646.014	168.75
646.219	159.75
646.423	173.75
646.628	164.75
646.833	171.75
647.038	176.75
647.243	185.75
647.447	174.75
647.652	183.75
647.857	174.75
648.062	179.75
648.266	166.75
648.471	178.75
648.676	167.75
648.88	174.75
649.085	184.75
649.289	176.75
649.494	159.75
649.698	174.75
649.903	184.75
650.107	178.75
650.312	162.75
650.516	159.75
650.721	159.75
650.925	147.75
651.13	150.75
651.334	160.75
651.539	166.75
651.743	152.75
651.947	164.75
652.152	154.75
652.356	157.75
652.56	134.75
652.764	129.75
652.969	142.75
653.173	129.75
653.377	134.75
653.581	136.75
653.785	151.75
653.99	134.75
654.194	137.75
654.398	158.75
654.602	140.75
654.806	131.75
655.01	144.75
655.214	142.75
655.418	149.75
655.622	139.75
655.826	134.75
656.03	151.75
656.234	152.75
656.438	149.75
656.642	160.75
656.846	140.75
657.049	125.75
657.253	142.75
657.457	114.75
657.661	115.75
657.865	129.75
658.068	121.75
658.272	115.75
658.476	101.75
658.68	101.75
658.883	109.75
659.087	103.75
659.291	92.75
659.494	94.75
659.698	120.75
659.901	101.75
660.105	85.75
660.309	98.75
660.512	89.75
660.716	84.75
660.919	89.75
661.123	86.75
661.326	89.75
661.53	87.75
661.733	102.75
661.936	97.75
662.14	90.75
662.343	78.75
662.546	77.75
662.75	74.75
662.953	76.75
663.156	73.75
663.36	65.75
663.563	81.75
663.766	82.75
663.969	96.75
664.173	68.75
664.376	79.75
664.579	85.75
664.782	87.75
664.985	66.75
665.188	85.75
665.391	84.75
665.594	77.75
665.797	90.75
666	82.75
666.203	80.75
666.406	79.75
666.609	87.75
666.812	86.75
667.015	72.75
667.218	95.75
667.421	86.75
667.624	88.75
667.827	61.75
668.03	90.75
668.232	79.75
668.435	81.75
668.638	84.75
668.841	94.75
669.043	74.75
669.246	65.75
669.449	81.75
669.651	76.75
669.854	76.75
670.057	73.75
670.259	69.75
670.462	84.75
670.665	76.75
670.867	90.75
671.07	75.75
671.272	91.75
671.475	65.75
671.677	80.75
671.88	88.75
672.082	82.75
672.284	74.75
672.487	77.75
672.689	86.75
672.892	79.75
