Data from 1962.PennyLincolnUp.Lamp.En5.5.200Scan.071719.P1._HRD10591_13-55-11-061.txt Node
Date: Thu Jul 18 13:55:11 EDT 2019
User: cochatt
Spectrometer: HR+D1059
Trigger mode: 1
Integration Time (sec): 1.000000E-1
Scans to average: 1
Electric dark correction enabled: true
Nonlinearity correction enabled: false
Boxcar width: 0
XAxis mode: Wavelengths
Number of Pixels in Spectrum: 2048
>>>>>Begin Spectral Data<<<<<
223.165	-22.31
223.4	-22.31
223.635	-22.31
223.869	-13.31
224.104	-7.31
224.338	-10.31
224.573	-12.31
224.808	-17.31
225.042	2.69
225.277	0.69
225.511	4.69
225.746	-2.31
225.98	2.69
226.215	19.69
226.449	9.69
226.683	14.69
226.918	8.69
227.152	21.69
227.387	38.69
227.621	30.69
227.856	37.69
228.09	37.69
228.324	37.69
228.559	59.69
228.793	59.69
229.027	92.69
229.262	113.69
229.496	91.69
229.73	123.69
229.964	120.69
230.199	101.69
230.433	102.69
230.667	96.69
230.901	99.69
231.136	103.69
231.37	103.69
231.604	100.69
231.838	114.69
232.072	98.69
232.306	89.69
232.541	101.69
232.775	106.69
233.009	106.69
233.243	95.69
233.477	113.69
233.711	115.69
233.945	130.69
234.179	130.69
234.413	108.69
234.647	115.69
234.881	118.69
235.115	102.69
235.349	116.69
235.583	118.69
235.817	119.69
236.051	109.69
236.285	124.69
236.519	119.69
236.753	124.69
236.987	128.69
237.221	144.69
237.455	176.69
237.689	150.69
237.922	135.69
238.156	122.69
238.39	126.69
238.624	113.69
238.858	114.69
239.091	116.69
239.325	124.69
239.559	110.69
239.793	115.69
240.027	135.69
240.26	141.69
240.494	135.69
240.728	141.69
240.961	136.69
241.195	128.69
241.429	126.69
241.662	132.69
241.896	131.69
242.13	121.69
242.363	126.69
242.597	128.69
242.83	129.69
243.064	128.69
243.298	128.69
243.531	125.69
243.765	139.69
243.998	135.69
244.232	121.69
244.465	136.69
244.699	124.69
244.932	134.69
245.166	134.69
245.399	154.69
245.633	135.69
245.866	144.69
246.099	138.69
246.333	133.69
246.566	149.69
246.8	141.69
247.033	152.69
247.266	152.69
247.5	156.69
247.733	156.69
247.966	161.69
248.2	153.69
248.433	154.69
248.666	161.69
248.899	152.69
249.133	164.69
249.366	192.69
249.599	174.69
249.832	168.69
250.066	167.69
250.299	157.69
250.532	166.69
250.765	176.69
250.998	177.69
251.231	179.69
251.465	187.69
251.698	188.69
251.931	174.69
252.164	175.69
252.397	169.69
252.63	174.69
252.863	182.69
253.096	202.69
253.329	193.69
253.562	193.69
253.795	206.69
254.028	186.69
254.261	201.69
254.494	189.69
254.727	211.69
254.96	230.69
255.193	232.69
255.426	205.69
255.659	214.69
255.892	203.69
256.124	194.69
256.357	210.69
256.59	207.69
256.823	207.69
257.056	190.69
257.289	189.69
257.521	190.69
257.754	191.69
257.987	189.69
258.22	197.69
258.452	191.69
258.685	197.69
258.918	192.69
259.151	179.69
259.383	197.69
259.616	211.69
259.849	205.69
260.081	202.69
260.314	222.69
260.547	231.69
260.779	224.69
261.012	231.69
261.244	206.69
261.477	225.69
261.71	204.69
261.942	206.69
262.175	212.69
262.407	209.69
262.64	207.69
262.872	201.69
263.105	200.69
263.337	202.69
263.57	188.69
263.802	206.69
264.035	204.69
264.267	193.69
264.499	215.69
264.732	202.69
264.964	199.69
265.197	213.69
265.429	231.69
265.661	204.69
265.894	229.69
266.126	210.69
266.358	212.69
266.591	216.69
266.823	225.69
267.055	202.69
267.287	213.69
267.52	211.69
267.752	228.69
267.984	229.69
268.216	221.69
268.448	212.69
268.681	222.69
268.913	238.69
269.145	252.69
269.377	270.69
269.609	233.69
269.841	234.69
270.073	245.69
270.306	260.69
270.538	279.69
270.77	285.69
271.002	279.69
271.234	268.69
271.466	271.69
271.698	280.69
271.93	281.69
272.162	269.69
272.394	274.69
272.626	285.69
272.858	278.69
273.09	261.69
273.322	258.69
273.553	241.69
273.785	252.69
274.017	276.69
274.249	262.69
274.481	261.69
274.713	256.69
274.945	260.69
275.176	266.69
275.408	267.69
275.64	248.69
275.872	257.69
276.104	256.69
276.335	248.69
276.567	243.69
276.799	260.69
277.031	278.69
277.262	286.69
277.494	272.69
277.726	276.69
277.957	279.69
278.189	279.69
278.421	266.69
278.652	265.69
278.884	272.69
279.115	246.69
279.347	260.69
279.579	276.69
279.81	263.69
280.042	263.69
280.273	268.69
280.505	247.69
280.736	266.69
280.968	242.69
281.199	263.69
281.431	262.69
281.662	280.69
281.894	269.69
282.125	266.69
282.356	287.69
282.588	287.69
282.819	297.69
283.051	274.69
283.282	284.69
283.513	284.69
283.745	276.69
283.976	285.69
284.207	269.69
284.439	284.69
284.67	290.69
284.901	287.69
285.132	276.69
285.364	295.69
285.595	265.69
285.826	284.69
286.057	264.69
286.288	287.69
286.52	296.69
286.751	283.69
286.982	273.69
287.213	281.69
287.444	275.69
287.675	282.69
287.906	300.69
288.138	313.69
288.369	316.69
288.6	304.69
288.831	305.69
289.062	303.69
289.293	310.69
289.524	287.69
289.755	289.69
289.986	307.69
290.217	313.69
290.448	283.69
290.679	311.69
290.91	292.69
291.141	276.69
291.371	290.69
291.602	311.69
291.833	294.69
292.064	301.69
292.295	292.69
292.526	295.69
292.757	289.69
292.987	284.69
293.218	307.69
293.449	309.69
293.68	287.69
293.91	286.69
294.141	289.69
294.372	288.69
294.603	292.69
294.833	289.69
295.064	298.69
295.295	298.69
295.525	312.69
295.756	306.69
295.987	311.69
296.217	338.69
296.448	327.69
296.679	310.69
296.909	298.69
297.14	302.69
297.37	308.69
297.601	321.69
297.831	320.69
298.062	325.69
298.292	314.69
298.523	351.69
298.753	324.69
298.984	310.69
299.214	320.69
299.445	331.69
299.675	308.69
299.905	318.69
300.136	308.69
300.366	316.69
300.597	304.69
300.827	323.69
301.057	327.69
301.288	321.69
301.518	321.69
301.748	346.69
301.979	344.69
302.209	344.69
302.439	352.69
302.669	339.69
302.9	326.69
303.13	342.69
303.36	325.69
303.59	347.69
303.82	334.69
304.051	335.69
304.281	353.69
304.511	349.69
304.741	345.69
304.971	347.69
305.201	321.69
305.431	336.69
305.661	344.69
305.891	336.69
306.121	329.69
306.352	326.69
306.582	326.69
306.812	305.69
307.042	317.69
307.272	352.69
307.502	330.69
307.731	348.69
307.961	334.69
308.191	339.69
308.421	330.69
308.651	340.69
308.881	338.69
309.111	363.69
309.341	334.69
309.571	353.69
309.8	348.69
310.03	351.69
310.26	357.69
310.49	355.69
310.72	363.69
310.949	376.69
311.179	373.69
311.409	368.69
311.639	376.69
311.868	364.69
312.098	365.69
312.328	360.69
312.557	375.69
312.787	378.69
313.017	382.69
313.246	365.69
313.476	373.69
313.706	357.69
313.935	369.69
314.165	390.69
314.394	374.69
314.624	374.69
314.853	367.69
315.083	357.69
315.312	384.69
315.542	380.69
315.771	376.69
316.001	359.69
316.23	372.69
316.46	358.69
316.689	374.69
316.919	368.69
317.148	398.69
317.377	370.69
317.607	384.69
317.836	346.69
318.065	366.69
318.295	380.69
318.524	370.69
318.753	377.69
318.983	393.69
319.212	369.69
319.441	375.69
319.67	375.69
319.9	367.69
320.129	374.69
320.358	380.69
320.587	370.69
320.816	406.69
321.046	395.69
321.275	377.69
321.504	359.69
321.733	403.69
321.962	388.69
322.191	388.69
322.42	414.69
322.649	415.69
322.878	413.69
323.108	417.69
323.337	426.69
323.566	423.69
323.795	466.69
324.024	476.69
324.253	561.69
324.482	718.69
324.71	1053.69
324.939	1476.69
325.168	1328.69
325.397	720.69
325.626	544.69
325.855	491.69
326.084	481.69
326.313	455.69
326.542	446.69
326.77	478.69
326.999	545.69
327.228	667.69
327.457	970.69
327.686	1178.69
327.914	826.69
328.143	607.69
328.372	538.69
328.6	498.69
328.829	483.69
329.058	470.69
329.287	493.69
329.515	493.69
329.744	482.69
329.972	473.69
330.201	468.69
330.43	501.69
330.658	508.69
330.887	487.69
331.115	505.69
331.344	481.69
331.572	460.69
331.801	440.69
332.03	457.69
332.258	465.69
332.486	450.69
332.715	430.69
332.943	457.69
333.172	472.69
333.4	460.69
333.629	489.69
333.857	492.69
334.085	484.69
334.314	523.69
334.542	514.69
334.771	522.69
334.999	499.69
335.227	487.69
335.455	485.69
335.684	466.69
335.912	475.69
336.14	462.69
336.369	472.69
336.597	444.69
336.825	458.69
337.053	441.69
337.281	463.69
337.51	442.69
337.738	433.69
337.966	436.69
338.194	447.69
338.422	413.69
338.65	431.69
338.878	426.69
339.106	427.69
339.334	456.69
339.562	445.69
339.79	424.69
340.018	416.69
340.246	412.69
340.474	418.69
340.702	431.69
340.93	437.69
341.158	438.69
341.386	439.69
341.614	433.69
341.842	423.69
342.07	410.69
342.298	422.69
342.526	435.69
342.754	432.69
342.981	405.69
343.209	410.69
343.437	427.69
343.665	421.69
343.893	446.69
344.12	463.69
344.348	462.69
344.576	452.69
344.804	452.69
345.031	435.69
345.259	442.69
345.487	424.69
345.714	423.69
345.942	417.69
346.17	394.69
346.397	417.69
346.625	425.69
346.853	419.69
347.08	417.69
347.308	419.69
347.535	399.69
347.763	400.69
347.99	405.69
348.218	418.69
348.445	422.69
348.673	403.69
348.9	396.69
349.128	398.69
349.355	404.69
349.583	389.69
349.81	401.69
350.037	398.69
350.265	394.69
350.492	393.69
350.72	394.69
350.947	407.69
351.174	408.69
351.402	387.69
351.629	412.69
351.856	408.69
352.083	421.69
352.311	420.69
352.538	404.69
352.765	424.69
352.992	403.69
353.22	400.69
353.447	408.69
353.674	408.69
353.901	401.69
354.128	403.69
354.355	409.69
354.583	390.69
354.81	397.69
355.037	364.69
355.264	379.69
355.491	366.69
355.718	384.69
355.945	398.69
356.172	409.69
356.399	386.69
356.626	393.69
356.853	393.69
357.08	393.69
357.307	382.69
357.534	384.69
357.761	391.69
357.988	380.69
358.215	385.69
358.441	389.69
358.668	401.69
358.895	389.69
359.122	392.69
359.349	406.69
359.576	409.69
359.802	409.69
360.029	419.69
360.256	425.69
360.483	429.69
360.709	399.69
360.936	407.69
361.163	393.69
361.39	407.69
361.616	428.69
361.843	394.69
362.07	402.69
362.296	413.69
362.523	387.69
362.749	397.69
362.976	393.69
363.203	411.69
363.429	406.69
363.656	422.69
363.882	406.69
364.109	402.69
364.335	397.69
364.562	389.69
364.788	406.69
365.015	378.69
365.241	383.69
365.468	412.69
365.694	390.69
365.92	391.69
366.147	381.69
366.373	398.69
366.599	420.69
366.826	398.69
367.052	384.69
367.278	384.69
367.505	382.69
367.731	393.69
367.957	394.69
368.184	401.69
368.41	378.69
368.636	387.69
368.862	442.69
369.089	402.69
369.315	401.69
369.541	385.69
369.767	390.69
369.993	413.69
370.219	403.69
370.445	423.69
370.672	421.69
370.898	407.69
371.124	377.69
371.35	394.69
371.576	407.69
371.802	412.69
372.028	389.69
372.254	396.69
372.48	389.69
372.706	421.69
372.932	404.69
373.158	393.69
373.384	412.69
373.61	398.69
373.835	413.69
374.061	426.69
374.287	410.69
374.513	406.69
374.739	427.69
374.965	439.69
375.191	441.69
375.416	430.69
375.642	410.69
375.868	416.69
376.094	408.69
376.319	416.69
376.545	410.69
376.771	419.69
376.997	416.69
377.222	410.69
377.448	389.69
377.674	404.69
377.899	389.69
378.125	398.69
378.35	398.69
378.576	385.69
378.802	390.69
379.027	370.69
379.253	403.69
379.478	407.69
379.704	392.69
379.929	389.69
380.155	390.69
380.38	395.69
380.606	408.69
380.831	394.69
381.057	412.69
381.282	418.69
381.507	392.69
381.733	422.69
381.958	392.69
382.184	418.69
382.409	410.69
382.634	430.69
382.86	414.69
383.085	408.69
383.31	412.69
383.535	403.69
383.761	425.69
383.986	440.69
384.211	413.69
384.436	436.69
384.662	444.69
384.887	471.69
385.112	445.69
385.337	467.69
385.562	446.69
385.787	462.69
386.013	477.69
386.238	457.69
386.463	460.69
386.688	442.69
386.913	452.69
387.138	452.69
387.363	457.69
387.588	442.69
387.813	457.69
388.038	433.69
388.263	444.69
388.488	462.69
388.713	450.69
388.938	448.69
389.163	450.69
389.387	470.69
389.612	449.69
389.837	458.69
390.062	465.69
390.287	430.69
390.512	447.69
390.736	463.69
390.961	463.69
391.186	458.69
391.411	460.69
391.636	479.69
391.86	492.69
392.085	478.69
392.31	470.69
392.534	486.69
392.759	478.69
392.984	479.69
393.208	464.69
393.433	486.69
393.658	468.69
393.882	467.69
394.107	446.69
394.331	473.69
394.556	481.69
394.78	457.69
395.005	470.69
395.229	470.69
395.454	478.69
395.678	464.69
395.903	482.69
396.127	497.69
396.352	502.69
396.576	470.69
396.801	463.69
397.025	476.69
397.249	476.69
397.474	492.69
397.698	505.69
397.922	495.69
398.147	500.69
398.371	538.69
398.595	531.69
398.82	545.69
399.044	558.69
399.268	602.69
399.492	656.69
399.717	668.69
399.941	691.69
400.165	679.69
400.389	667.69
400.613	629.69
400.837	578.69
401.062	587.69
401.286	565.69
401.51	540.69
401.734	542.69
401.958	534.69
402.182	533.69
402.406	540.69
402.63	542.69
402.854	550.69
403.078	529.69
403.302	582.69
403.526	562.69
403.75	600.69
403.974	566.69
404.198	592.69
404.422	599.69
404.645	570.69
404.869	600.69
405.093	627.69
405.317	640.69
405.541	638.69
405.765	627.69
405.988	575.69
406.212	570.69
406.436	621.69
406.66	632.69
406.883	592.69
407.107	636.69
407.331	677.69
407.555	739.69
407.778	733.69
408.002	673.69
408.226	642.69
408.449	628.69
408.673	596.69
408.896	627.69
409.12	668.69
409.344	633.69
409.567	599.69
409.791	586.69
410.014	585.69
410.238	579.69
410.461	569.69
410.685	552.69
410.908	565.69
411.132	604.69
411.355	625.69
411.578	605.69
411.802	552.69
412.025	569.69
412.249	575.69
412.472	578.69
412.695	597.69
412.919	592.69
413.142	573.69
413.365	534.69
413.589	552.69
413.812	519.69
414.035	520.69
414.258	540.69
414.482	535.69
414.705	557.69
414.928	545.69
415.151	521.69
415.374	532.69
415.597	548.69
415.821	535.69
416.044	517.69
416.267	509.69
416.49	518.69
416.713	528.69
416.936	534.69
417.159	520.69
417.382	526.69
417.605	544.69
417.828	561.69
418.051	542.69
418.274	531.69
418.497	533.69
418.72	552.69
418.943	537.69
419.166	552.69
419.389	591.69
419.611	558.69
419.834	572.69
420.057	557.69
420.28	558.69
420.503	538.69
420.726	549.69
420.948	551.69
421.171	574.69
421.394	607.69
421.617	576.69
421.839	556.69
422.062	546.69
422.285	564.69
422.507	638.69
422.73	662.69
422.953	650.69
423.175	580.69
423.398	562.69
423.621	560.69
423.843	604.69
424.066	571.69
424.288	563.69
424.511	593.69
424.733	637.69
424.956	680.69
425.178	674.69
425.401	657.69
425.623	685.69
425.846	585.69
426.068	575.69
426.291	554.69
426.513	525.69
426.735	574.69
426.958	613.69
427.18	655.69
427.402	756.69
427.625	822.69
427.847	698.69
428.069	617.69
428.292	547.69
428.514	548.69
428.736	512.69
428.958	530.69
429.181	514.69
429.403	510.69
429.625	521.69
429.847	565.69
430.069	599.69
430.292	565.69
430.514	530.69
430.736	512.69
430.958	490.69
431.18	499.69
431.402	504.69
431.624	492.69
431.846	489.69
432.068	520.69
432.29	493.69
432.512	531.69
432.734	495.69
432.956	512.69
433.178	507.69
433.4	504.69
433.622	497.69
433.844	509.69
434.066	476.69
434.287	494.69
434.509	510.69
434.731	522.69
434.953	545.69
435.175	556.69
435.397	552.69
435.618	562.69
435.84	588.69
436.062	634.69
436.284	706.69
436.505	604.69
436.727	556.69
436.949	528.69
437.17	529.69
437.392	521.69
437.614	519.69
437.835	536.69
438.057	596.69
438.278	689.69
438.5	681.69
438.721	759.69
438.943	725.69
439.165	588.69
439.386	543.69
439.608	544.69
439.829	542.69
440.05	554.69
440.272	627.69
440.493	549.69
440.715	539.69
440.936	532.69
441.158	542.69
441.379	551.69
441.6	564.69
441.822	569.69
442.043	583.69
442.264	661.69
442.486	698.69
442.707	599.69
442.928	574.69
443.149	575.69
443.371	591.69
443.592	622.69
443.813	706.69
444.034	774.69
444.255	650.69
444.476	599.69
444.698	591.69
444.919	608.69
445.14	734.69
445.361	649.69
445.582	599.69
445.803	606.69
446.024	697.69
446.245	692.69
446.466	613.69
446.687	568.69
446.908	560.69
447.129	551.69
447.35	503.69
447.571	496.69
447.792	488.69
448.013	490.69
448.234	509.69
448.455	553.69
448.675	631.69
448.896	755.69
449.117	634.69
449.338	602.69
449.559	656.69
449.779	775.69
450	640.69
450.221	541.69
450.442	474.69
450.662	480.69
450.883	483.69
451.104	496.69
451.324	512.69
451.545	474.69
451.766	470.69
451.986	470.69
452.207	461.69
452.428	450.69
452.648	455.69
452.869	475.69
453.089	466.69
453.31	469.69
453.53	465.69
453.751	451.69
453.971	456.69
454.192	445.69
454.412	460.69
454.633	442.69
454.853	449.69
455.073	454.69
455.294	462.69
455.514	510.69
455.734	530.69
455.955	443.69
456.175	429.69
456.395	433.69
456.616	437.69
456.836	436.69
457.056	433.69
457.276	444.69
457.497	446.69
457.717	434.69
457.937	454.69
458.157	457.69
458.377	436.69
458.598	472.69
458.818	512.69
459.038	546.69
459.258	579.69
459.478	533.69
459.698	506.69
459.918	516.69
460.138	525.69
460.358	540.69
460.578	549.69
460.798	558.69
461.018	564.69
461.238	545.69
461.458	548.69
461.678	529.69
461.898	549.69
462.118	544.69
462.338	585.69
462.558	571.69
462.777	577.69
462.997	602.69
463.217	637.69
463.437	631.69
463.657	610.69
463.876	599.69
464.096	595.69
464.316	576.69
464.536	587.69
464.755	576.69
464.975	560.69
465.195	585.69
465.414	603.69
465.634	558.69
465.854	533.69
466.073	520.69
466.293	496.69
466.512	504.69
466.732	485.69
466.951	478.69
467.171	484.69
467.391	483.69
467.61	505.69
467.829	492.69
468.049	484.69
468.268	474.69
468.488	461.69
468.707	472.69
468.927	467.69
469.146	486.69
469.365	473.69
469.585	465.69
469.804	479.69
470.023	475.69
470.243	498.69
470.462	488.69
470.681	484.69
470.901	488.69
471.12	478.69
471.339	475.69
471.558	493.69
471.777	505.69
471.997	473.69
472.216	491.69
472.435	496.69
472.654	503.69
472.873	485.69
473.092	474.69
473.311	460.69
473.53	479.69
473.749	489.69
473.968	501.69
474.187	585.69
474.406	632.69
474.625	520.69
474.844	496.69
475.063	487.69
475.282	485.69
475.501	483.69
475.72	462.69
475.939	490.69
476.158	480.69
476.377	496.69
476.596	490.69
476.814	513.69
477.033	512.69
477.252	503.69
477.471	496.69
477.69	526.69
477.908	536.69
478.127	517.69
478.346	532.69
478.564	555.69
478.783	557.69
479.002	565.69
479.22	571.69
479.439	563.69
479.658	567.69
479.876	581.69
480.095	598.69
480.313	607.69
480.532	603.69
480.751	604.69
480.969	607.69
481.188	641.69
481.406	629.69
481.624	601.69
481.843	574.69
482.061	566.69
482.28	578.69
482.498	555.69
482.717	567.69
482.935	547.69
483.153	568.69
483.372	563.69
483.59	550.69
483.808	548.69
484.027	551.69
484.245	569.69
484.463	572.69
484.681	574.69
484.9	574.69
485.118	566.69
485.336	586.69
485.554	592.69
485.772	583.69
485.99	586.69
486.209	574.69
486.427	576.69
486.645	586.69
486.863	600.69
487.081	578.69
487.299	600.69
487.517	608.69
487.735	572.69
487.953	601.69
488.171	591.69
488.389	580.69
488.607	596.69
488.825	599.69
489.043	582.69
489.261	601.69
489.479	573.69
489.696	568.69
489.914	602.69
490.132	612.69
490.35	602.69
490.568	614.69
490.786	612.69
491.003	622.69
491.221	641.69
491.439	660.69
491.657	639.69
491.874	654.69
492.092	653.69
492.31	664.69
492.527	665.69
492.745	642.69
492.963	668.69
493.18	655.69
493.398	671.69
493.615	645.69
493.833	669.69
494.05	665.69
494.268	673.69
494.485	674.69
494.703	682.69
494.92	694.69
495.138	664.69
495.355	700.69
495.573	701.69
495.79	670.69
496.008	677.69
496.225	693.69
496.442	696.69
496.66	676.69
496.877	718.69
497.094	700.69
497.312	728.69
497.529	729.69
497.746	749.69
497.963	766.69
498.181	777.69
498.398	798.69
498.615	814.69
498.832	820.69
499.049	885.69
499.267	879.69
499.484	962.69
499.701	993.69
499.918	1027.69
500.135	1093.69
500.352	1206.69
500.569	1213.69
500.786	1248.69
501.003	1188.69
501.22	1139.69
501.437	1080.69
501.654	1016.69
501.871	990.69
502.088	914.69
502.305	896.69
502.522	856.69
502.739	846.69
502.956	807.69
503.172	753.69
503.389	766.69
503.606	742.69
503.823	727.69
504.04	734.69
504.256	716.69
504.473	729.69
504.69	713.69
504.907	731.69
505.123	700.69
505.34	684.69
505.557	697.69
505.773	663.69
505.99	661.69
506.207	656.69
506.423	656.69
506.64	645.69
506.856	633.69
507.073	631.69
507.289	628.69
507.506	613.69
507.722	638.69
507.939	644.69
508.155	615.69
508.372	610.69
508.588	604.69
508.805	594.69
509.021	605.69
509.238	622.69
509.454	604.69
509.67	587.69
509.887	578.69
510.103	601.69
510.319	577.69
510.536	642.69
510.752	897.69
510.968	787.69
511.184	600.69
511.401	585.69
511.617	580.69
511.833	547.69
512.049	578.69
512.265	565.69
512.481	570.69
512.698	562.69
512.914	575.69
513.13	575.69
513.346	561.69
513.562	567.69
513.778	534.69
513.994	550.69
514.21	593.69
514.426	585.69
514.642	607.69
514.858	604.69
515.074	636.69
515.29	705.69
515.506	850.69
515.721	792.69
515.937	640.69
516.153	617.69
516.369	640.69
516.585	617.69
516.801	642.69
517.016	644.69
517.232	636.69
517.448	651.69
517.664	646.69
517.879	644.69
518.095	668.69
518.311	639.69
518.527	629.69
518.742	615.69
518.958	609.69
519.173	596.69
519.389	583.69
519.605	594.69
519.82	568.69
520.036	598.69
520.251	594.69
520.467	576.69
520.682	598.69
520.898	598.69
521.113	599.69
521.329	597.69
521.544	633.69
521.76	734.69
521.975	980.69
522.19	964.69
522.406	658.69
522.621	592.69
522.836	540.69
523.052	547.69
523.267	527.69
523.482	543.69
523.698	521.69
523.913	528.69
524.128	520.69
524.343	528.69
524.559	502.69
524.774	503.69
524.989	510.69
525.204	514.69
525.419	485.69
525.634	494.69
525.849	488.69
526.064	497.69
526.28	495.69
526.495	478.69
526.71	494.69
526.925	486.69
527.14	483.69
527.355	484.69
527.57	494.69
527.785	485.69
527.999	484.69
528.214	489.69
528.429	493.69
528.644	504.69
528.859	481.69
529.074	480.69
529.289	471.69
529.503	522.69
529.718	524.69
529.933	477.69
530.148	486.69
530.363	488.69
530.577	488.69
530.792	472.69
531.007	462.69
531.221	466.69
531.436	472.69
531.651	485.69
531.865	479.69
532.08	467.69
532.295	455.69
532.509	512.69
532.724	468.69
532.938	467.69
533.153	463.69
533.367	455.69
533.582	471.69
533.796	475.69
534.011	487.69
534.225	459.69
534.44	484.69
534.654	450.69
534.868	477.69
535.083	469.69
535.297	465.69
535.511	471.69
535.726	490.69
535.94	457.69
536.154	462.69
536.369	448.69
536.583	454.69
536.797	454.69
537.011	447.69
537.225	450.69
537.44	443.69
537.654	460.69
537.868	456.69
538.082	439.69
538.296	445.69
538.51	454.69
538.724	442.69
538.938	438.69
539.153	454.69
539.367	453.69
539.581	456.69
539.795	473.69
540.009	447.69
540.222	448.69
540.436	446.69
540.65	456.69
540.864	437.69
541.078	433.69
541.292	448.69
541.506	433.69
541.72	433.69
541.934	421.69
542.147	452.69
542.361	416.69
542.575	435.69
542.789	426.69
543.002	429.69
543.216	448.69
543.43	446.69
543.644	448.69
543.857	454.69
544.071	426.69
544.285	429.69
544.498	428.69
544.712	436.69
544.925	425.69
545.139	420.69
545.352	434.69
545.566	430.69
545.779	440.69
545.993	448.69
546.206	445.69
546.42	448.69
546.633	430.69
546.847	445.69
547.06	444.69
547.274	426.69
547.487	430.69
547.7	442.69
547.914	435.69
548.127	455.69
548.34	438.69
548.554	441.69
548.767	445.69
548.98	435.69
549.193	439.69
549.407	457.69
549.62	444.69
549.833	454.69
550.046	444.69
550.259	434.69
550.473	440.69
550.686	441.69
550.899	426.69
551.112	445.69
551.325	425.69
551.538	433.69
551.751	424.69
551.964	435.69
552.177	445.69
552.39	448.69
552.603	433.69
552.816	434.69
553.029	466.69
553.242	457.69
553.455	462.69
553.667	467.69
553.88	451.69
554.093	436.69
554.306	436.69
554.519	460.69
554.732	459.69
554.944	429.69
555.157	419.69
555.37	425.69
555.583	432.69
555.795	393.69
556.008	417.69
556.221	410.69
556.433	413.69
556.646	405.69
556.859	398.69
557.071	406.69
557.284	398.69
557.496	404.69
557.709	379.69
557.921	388.69
558.134	379.69
558.346	386.69
558.559	388.69
558.771	385.69
558.984	407.69
559.196	392.69
559.409	386.69
559.621	374.69
559.833	391.69
560.046	374.69
560.258	392.69
560.47	377.69
560.683	395.69
560.895	386.69
561.107	392.69
561.32	381.69
561.532	398.69
561.744	380.69
561.956	381.69
562.168	384.69
562.381	383.69
562.593	382.69
562.805	398.69
563.017	388.69
563.229	382.69
563.441	414.69
563.653	395.69
563.865	386.69
564.077	418.69
564.289	386.69
564.501	406.69
564.713	418.69
564.925	412.69
565.137	428.69
565.349	438.69
565.561	452.69
565.773	447.69
565.985	456.69
566.197	467.69
566.408	494.69
566.62	510.69
566.832	531.69
567.044	558.69
567.255	543.69
567.467	561.69
567.679	565.69
567.891	608.69
568.102	582.69
568.314	591.69
568.526	543.69
568.737	502.69
568.949	485.69
569.161	484.69
569.372	443.69
569.584	432.69
569.795	422.69
570.007	427.69
570.218	420.69
570.43	415.69
570.641	422.69
570.853	408.69
571.064	413.69
571.276	381.69
571.487	401.69
571.698	372.69
571.91	352.69
572.121	371.69
572.333	354.69
572.544	342.69
572.755	360.69
572.966	353.69
573.178	335.69
573.389	348.69
573.6	355.69
573.811	352.69
574.023	334.69
574.234	350.69
574.445	342.69
574.656	341.69
574.867	342.69
575.078	353.69
575.289	322.69
575.501	327.69
575.712	331.69
575.923	348.69
576.134	353.69
576.345	326.69
576.556	328.69
576.767	311.69
576.978	330.69
577.188	330.69
577.399	319.69
577.61	332.69
577.821	322.69
578.032	312.69
578.243	317.69
578.454	426.69
578.665	368.69
578.875	332.69
579.086	324.69
579.297	340.69
579.508	308.69
579.718	316.69
579.929	330.69
580.14	314.69
580.35	314.69
580.561	324.69
580.772	294.69
580.982	305.69
581.193	305.69
581.403	313.69
581.614	313.69
581.825	307.69
582.035	307.69
582.246	289.69
582.456	318.69
582.667	305.69
582.877	311.69
583.087	310.69
583.298	295.69
583.508	304.69
583.719	298.69
583.929	298.69
584.139	303.69
584.35	292.69
584.56	300.69
584.77	288.69
584.981	290.69
585.191	282.69
585.401	294.69
585.611	309.69
585.821	300.69
586.032	296.69
586.242	291.69
586.452	289.69
586.662	310.69
586.872	293.69
587.082	282.69
587.292	299.69
587.502	295.69
587.713	317.69
587.923	302.69
588.133	287.69
588.343	295.69
588.553	294.69
588.762	301.69
588.972	282.69
589.182	301.69
589.392	321.69
589.602	293.69
589.812	317.69
590.022	308.69
590.232	304.69
590.441	279.69
590.651	288.69
590.861	301.69
591.071	309.69
591.281	315.69
591.49	317.69
591.7	316.69
591.91	312.69
592.119	296.69
592.329	309.69
592.539	334.69
592.748	318.69
592.958	312.69
593.167	334.69
593.377	321.69
593.587	342.69
593.796	348.69
594.006	350.69
594.215	340.69
594.424	357.69
594.634	317.69
594.843	327.69
595.053	325.69
595.262	324.69
595.472	324.69
595.681	292.69
595.89	288.69
596.1	289.69
596.309	281.69
596.518	298.69
596.727	279.69
596.937	288.69
597.146	268.69
597.355	281.69
597.564	299.69
597.774	260.69
597.983	290.69
598.192	281.69
598.401	266.69
598.61	272.69
598.819	264.69
599.028	258.69
599.237	261.69
599.446	261.69
599.655	258.69
599.864	257.69
600.073	259.69
600.282	259.69
600.491	278.69
600.7	262.69
600.909	256.69
601.118	271.69
601.327	233.69
601.536	258.69
601.745	256.69
601.953	267.69
602.162	270.69
602.371	253.69
602.58	239.69
602.789	256.69
602.997	239.69
603.206	252.69
603.415	242.69
603.623	235.69
603.832	248.69
604.041	241.69
604.249	248.69
604.458	246.69
604.666	237.69
604.875	261.69
605.084	242.69
605.292	240.69
605.501	230.69
605.709	244.69
605.918	229.69
606.126	229.69
606.334	260.69
606.543	239.69
606.751	239.69
606.96	254.69
607.168	233.69
607.376	242.69
607.585	251.69
607.793	239.69
608.001	237.69
608.21	232.69
608.418	239.69
608.626	240.69
608.834	246.69
609.043	229.69
609.251	225.69
609.459	224.69
609.667	229.69
609.875	245.69
610.083	238.69
610.291	239.69
610.499	240.69
610.707	248.69
610.916	224.69
611.124	251.69
611.332	240.69
611.54	249.69
611.748	244.69
611.955	241.69
612.163	227.69
612.371	228.69
612.579	242.69
612.787	234.69
612.995	248.69
613.203	228.69
613.411	260.69
613.618	235.69
613.826	224.69
614.034	230.69
614.242	229.69
614.449	247.69
614.657	232.69
614.865	234.69
615.072	240.69
615.28	240.69
615.488	217.69
615.695	220.69
615.903	231.69
616.111	242.69
616.318	253.69
616.526	244.69
616.733	241.69
616.941	223.69
617.148	232.69
617.356	232.69
617.563	246.69
617.771	236.69
617.978	228.69
618.185	239.69
618.393	245.69
618.6	215.69
618.807	203.69
619.015	233.69
619.222	238.69
619.429	232.69
619.637	220.69
619.844	212.69
620.051	219.69
620.258	218.69
620.466	221.69
620.673	225.69
620.88	221.69
621.087	212.69
621.294	228.69
621.501	220.69
621.708	217.69
621.915	215.69
622.122	213.69
622.329	236.69
622.536	220.69
622.743	225.69
622.95	210.69
623.157	230.69
623.364	229.69
623.571	225.69
623.778	228.69
623.985	206.69
624.192	211.69
624.399	200.69
624.606	204.69
624.812	208.69
625.019	208.69
625.226	215.69
625.433	205.69
625.639	212.69
625.846	187.69
626.053	190.69
626.259	212.69
626.466	207.69
626.673	210.69
626.879	191.69
627.086	201.69
627.293	225.69
627.499	202.69
627.706	202.69
627.912	202.69
628.119	208.69
628.325	190.69
628.532	191.69
628.738	195.69
628.945	202.69
629.151	188.69
629.357	213.69
629.564	221.69
629.77	202.69
629.976	172.69
630.183	192.69
630.389	191.69
630.595	204.69
630.802	195.69
631.008	191.69
631.214	185.69
631.42	191.69
631.627	197.69
631.833	196.69
632.039	199.69
632.245	184.69
632.451	178.69
632.657	190.69
632.863	185.69
633.069	176.69
633.275	172.69
633.481	180.69
633.688	170.69
633.893	173.69
634.099	176.69
634.305	202.69
634.511	188.69
634.717	199.69
634.923	192.69
635.129	183.69
635.335	183.69
635.541	183.69
635.747	174.69
635.952	172.69
636.158	182.69
636.364	183.69
636.57	199.69
636.775	185.69
636.981	160.69
637.187	180.69
637.392	176.69
637.598	176.69
637.804	183.69
638.009	168.69
638.215	151.69
638.421	167.69
638.626	173.69
638.832	168.69
639.037	172.69
639.243	172.69
639.448	160.69
639.654	176.69
639.859	176.69
640.065	157.69
640.27	162.69
640.475	167.69
640.681	175.69
640.886	180.69
641.091	158.69
641.297	181.69
641.502	170.69
641.707	168.69
641.913	160.69
642.118	161.69
642.323	172.69
642.528	178.69
642.733	175.69
642.939	165.69
643.144	158.69
643.349	153.69
643.554	168.69
643.759	177.69
643.964	158.69
644.169	156.69
644.374	156.69
644.579	177.69
644.784	174.69
644.989	161.69
645.194	167.69
645.399	171.69
645.604	164.69
645.809	165.69
646.014	154.69
646.219	164.69
646.423	157.69
646.628	160.69
646.833	153.69
647.038	168.69
647.243	159.69
647.447	176.69
647.652	175.69
647.857	170.69
648.062	166.69
648.266	150.69
648.471	176.69
648.676	187.69
648.88	167.69
649.085	160.69
649.289	164.69
649.494	167.69
649.698	176.69
649.903	178.69
650.107	162.69
650.312	165.69
650.516	154.69
650.721	151.69
650.925	153.69
651.13	148.69
651.334	149.69
651.539	147.69
651.743	146.69
651.947	156.69
652.152	143.69
652.356	139.69
652.56	141.69
652.764	139.69
652.969	128.69
653.173	138.69
653.377	142.69
653.581	131.69
653.785	120.69
653.99	135.69
654.194	144.69
654.398	141.69
654.602	144.69
654.806	144.69
655.01	143.69
655.214	123.69
655.418	143.69
655.622	134.69
655.826	126.69
656.03	144.69
656.234	137.69
656.438	142.69
656.642	151.69
656.846	152.69
657.049	119.69
657.253	120.69
657.457	118.69
657.661	116.69
657.865	121.69
658.068	120.69
658.272	120.69
658.476	115.69
658.68	108.69
658.883	104.69
659.087	110.69
659.291	93.69
659.494	94.69
659.698	83.69
659.901	100.69
660.105	91.69
660.309	77.69
660.512	92.69
660.716	105.69
660.919	99.69
661.123	97.69
661.326	85.69
661.53	89.69
661.733	91.69
661.936	91.69
662.14	96.69
662.343	95.69
662.546	80.69
662.75	91.69
662.953	88.69
663.156	94.69
663.36	80.69
663.563	83.69
663.766	76.69
663.969	77.69
664.173	69.69
664.376	79.69
664.579	74.69
664.782	67.69
664.985	82.69
665.188	81.69
665.391	81.69
665.594	90.69
665.797	88.69
666	78.69
666.203	84.69
666.406	60.69
666.609	72.69
666.812	85.69
667.015	84.69
667.218	86.69
667.421	72.69
667.624	85.69
667.827	74.69
668.03	86.69
668.232	79.69
668.435	92.69
668.638	72.69
668.841	70.69
669.043	66.69
669.246	71.69
669.449	80.69
669.651	86.69
669.854	90.69
670.057	84.69
670.259	84.69
670.462	80.69
670.665	85.69
670.867	86.69
671.07	74.69
671.272	81.69
671.475	90.69
671.677	74.69
671.88	69.69
672.082	75.69
672.284	93.69
672.487	75.69
672.689	83.69
672.892	81.69
