Data from 1962.PennyLincolnUp.Lamp.En5.5.200Scan.071719.P1._HRD10591_13-53-43-062.txt Node
Date: Thu Jul 18 13:53:43 EDT 2019
User: cochatt
Spectrometer: HR+D1059
Trigger mode: 1
Integration Time (sec): 1.000000E-1
Scans to average: 1
Electric dark correction enabled: true
Nonlinearity correction enabled: false
Boxcar width: 0
XAxis mode: Wavelengths
Number of Pixels in Spectrum: 2048
>>>>>Begin Spectral Data<<<<<
223.165	-18.31
223.4	-18.31
223.635	-18.31
223.869	-24.31
224.104	-15.31
224.338	-25.31
224.573	-11.31
224.808	-10.31
225.042	-3.31
225.277	4.69
225.511	-14.31
225.746	-8.31
225.98	19.69
226.215	9.69
226.449	26.69
226.683	20.69
226.918	11.69
227.152	37.69
227.387	30.69
227.621	33.69
227.856	37.69
228.09	33.69
228.324	37.69
228.559	49.69
228.793	52.69
229.027	83.69
229.262	90.69
229.496	99.69
229.73	115.69
229.964	130.69
230.199	113.69
230.433	106.69
230.667	100.69
230.901	86.69
231.136	106.69
231.37	114.69
231.604	98.69
231.838	96.69
232.072	98.69
232.306	102.69
232.541	106.69
232.775	128.69
233.009	98.69
233.243	108.69
233.477	100.69
233.711	130.69
233.945	116.69
234.179	107.69
234.413	101.69
234.647	108.69
234.881	110.69
235.115	102.69
235.349	104.69
235.583	104.69
235.817	101.69
236.051	114.69
236.285	110.69
236.519	133.69
236.753	108.69
236.987	135.69
237.221	135.69
237.455	175.69
237.689	132.69
237.922	120.69
238.156	129.69
238.39	132.69
238.624	109.69
238.858	99.69
239.091	116.69
239.325	103.69
239.559	126.69
239.793	115.69
240.027	129.69
240.26	116.69
240.494	140.69
240.728	127.69
240.961	130.69
241.195	134.69
241.429	122.69
241.662	119.69
241.896	119.69
242.13	117.69
242.363	121.69
242.597	126.69
242.83	128.69
243.064	120.69
243.298	135.69
243.531	119.69
243.765	130.69
243.998	131.69
244.232	127.69
244.465	125.69
244.699	133.69
244.932	134.69
245.166	132.69
245.399	143.69
245.633	134.69
245.866	147.69
246.099	130.69
246.333	122.69
246.566	135.69
246.8	147.69
247.033	136.69
247.266	155.69
247.5	144.69
247.733	135.69
247.966	157.69
248.2	149.69
248.433	157.69
248.666	159.69
248.899	167.69
249.133	159.69
249.366	167.69
249.599	165.69
249.832	158.69
250.066	158.69
250.299	164.69
250.532	159.69
250.765	183.69
250.998	193.69
251.231	188.69
251.465	203.69
251.698	199.69
251.931	167.69
252.164	180.69
252.397	189.69
252.63	187.69
252.863	182.69
253.096	186.69
253.329	192.69
253.562	187.69
253.795	198.69
254.028	193.69
254.261	203.69
254.494	183.69
254.727	200.69
254.96	228.69
255.193	217.69
255.426	208.69
255.659	195.69
255.892	186.69
256.124	205.69
256.357	191.69
256.59	199.69
256.823	200.69
257.056	182.69
257.289	176.69
257.521	176.69
257.754	183.69
257.987	180.69
258.22	192.69
258.452	186.69
258.685	191.69
258.918	164.69
259.151	186.69
259.383	205.69
259.616	208.69
259.849	189.69
260.081	193.69
260.314	213.69
260.547	213.69
260.779	214.69
261.012	183.69
261.244	198.69
261.477	207.69
261.71	192.69
261.942	207.69
262.175	215.69
262.407	209.69
262.64	194.69
262.872	187.69
263.105	206.69
263.337	210.69
263.57	212.69
263.802	206.69
264.035	206.69
264.267	200.69
264.499	199.69
264.732	213.69
264.964	186.69
265.197	198.69
265.429	194.69
265.661	198.69
265.894	217.69
266.126	223.69
266.358	218.69
266.591	212.69
266.823	225.69
267.055	232.69
267.287	220.69
267.52	197.69
267.752	215.69
267.984	208.69
268.216	219.69
268.448	211.69
268.681	224.69
268.913	226.69
269.145	242.69
269.377	231.69
269.609	258.69
269.841	248.69
270.073	236.69
270.306	250.69
270.538	262.69
270.77	283.69
271.002	272.69
271.234	263.69
271.466	232.69
271.698	248.69
271.93	281.69
272.162	281.69
272.394	290.69
272.626	272.69
272.858	264.69
273.09	248.69
273.322	258.69
273.553	246.69
273.785	239.69
274.017	226.69
274.249	240.69
274.481	259.69
274.713	254.69
274.945	258.69
275.176	256.69
275.408	250.69
275.64	267.69
275.872	250.69
276.104	262.69
276.335	251.69
276.567	259.69
276.799	259.69
277.031	279.69
277.262	275.69
277.494	290.69
277.726	279.69
277.957	288.69
278.189	275.69
278.421	248.69
278.652	237.69
278.884	264.69
279.115	250.69
279.347	245.69
279.579	234.69
279.81	231.69
280.042	255.69
280.273	263.69
280.505	270.69
280.736	275.69
280.968	268.69
281.199	257.69
281.431	270.69
281.662	270.69
281.894	253.69
282.125	261.69
282.356	290.69
282.588	265.69
282.819	302.69
283.051	276.69
283.282	274.69
283.513	258.69
283.745	275.69
283.976	273.69
284.207	269.69
284.439	272.69
284.67	263.69
284.901	285.69
285.132	284.69
285.364	290.69
285.595	277.69
285.826	298.69
286.057	267.69
286.288	278.69
286.52	267.69
286.751	274.69
286.982	271.69
287.213	282.69
287.444	293.69
287.675	288.69
287.906	296.69
288.138	293.69
288.369	291.69
288.6	292.69
288.831	295.69
289.062	302.69
289.293	291.69
289.524	300.69
289.755	296.69
289.986	295.69
290.217	291.69
290.448	293.69
290.679	285.69
290.91	307.69
291.141	294.69
291.371	273.69
291.602	282.69
291.833	299.69
292.064	298.69
292.295	286.69
292.526	291.69
292.757	283.69
292.987	277.69
293.218	285.69
293.449	299.69
293.68	300.69
293.91	293.69
294.141	294.69
294.372	294.69
294.603	291.69
294.833	278.69
295.064	300.69
295.295	298.69
295.525	299.69
295.756	304.69
295.987	303.69
296.217	324.69
296.448	328.69
296.679	302.69
296.909	294.69
297.14	292.69
297.37	314.69
297.601	308.69
297.831	303.69
298.062	292.69
298.292	307.69
298.523	308.69
298.753	318.69
298.984	313.69
299.214	309.69
299.445	308.69
299.675	306.69
299.905	332.69
300.136	310.69
300.366	328.69
300.597	311.69
300.827	327.69
301.057	324.69
301.288	331.69
301.518	314.69
301.748	313.69
301.979	313.69
302.209	328.69
302.439	346.69
302.669	333.69
302.9	327.69
303.13	341.69
303.36	334.69
303.59	336.69
303.82	342.69
304.051	351.69
304.281	325.69
304.511	333.69
304.741	327.69
304.971	325.69
305.201	323.69
305.431	317.69
305.661	326.69
305.891	333.69
306.121	340.69
306.352	323.69
306.582	347.69
306.812	326.69
307.042	346.69
307.272	332.69
307.502	332.69
307.731	338.69
307.961	340.69
308.191	321.69
308.421	328.69
308.651	335.69
308.881	336.69
309.111	331.69
309.341	348.69
309.571	358.69
309.8	323.69
310.03	343.69
310.26	338.69
310.49	338.69
310.72	339.69
310.949	342.69
311.179	352.69
311.409	352.69
311.639	370.69
311.868	359.69
312.098	358.69
312.328	357.69
312.557	370.69
312.787	384.69
313.017	342.69
313.246	372.69
313.476	359.69
313.706	368.69
313.935	359.69
314.165	346.69
314.394	370.69
314.624	368.69
314.853	372.69
315.083	359.69
315.312	364.69
315.542	350.69
315.771	367.69
316.001	357.69
316.23	365.69
316.46	373.69
316.689	349.69
316.919	358.69
317.148	368.69
317.377	378.69
317.607	356.69
317.836	351.69
318.065	370.69
318.295	360.69
318.524	354.69
318.753	375.69
318.983	351.69
319.212	351.69
319.441	373.69
319.67	354.69
319.9	378.69
320.129	373.69
320.358	360.69
320.587	368.69
320.816	366.69
321.046	351.69
321.275	374.69
321.504	374.69
321.733	371.69
321.962	388.69
322.191	367.69
322.42	384.69
322.649	413.69
322.878	395.69
323.108	392.69
323.337	410.69
323.566	424.69
323.795	436.69
324.024	472.69
324.253	514.69
324.482	680.69
324.71	949.69
324.939	1329.69
325.168	1188.69
325.397	685.69
325.626	529.69
325.855	457.69
326.084	457.69
326.313	425.69
326.542	413.69
326.77	474.69
326.999	503.69
327.228	628.69
327.457	892.69
327.686	1015.69
327.914	735.69
328.143	532.69
328.372	504.69
328.6	467.69
328.829	447.69
329.058	461.69
329.287	471.69
329.515	439.69
329.744	436.69
329.972	444.69
330.201	460.69
330.43	475.69
330.658	493.69
330.887	491.69
331.115	479.69
331.344	463.69
331.572	452.69
331.801	437.69
332.03	465.69
332.258	462.69
332.486	442.69
332.715	445.69
332.943	438.69
333.172	469.69
333.4	468.69
333.629	479.69
333.857	480.69
334.085	488.69
334.314	494.69
334.542	508.69
334.771	516.69
334.999	495.69
335.227	462.69
335.455	465.69
335.684	491.69
335.912	467.69
336.14	449.69
336.369	432.69
336.597	446.69
336.825	440.69
337.053	430.69
337.281	446.69
337.51	451.69
337.738	447.69
337.966	445.69
338.194	435.69
338.422	410.69
338.65	416.69
338.878	443.69
339.106	429.69
339.334	438.69
339.562	424.69
339.79	420.69
340.018	410.69
340.246	411.69
340.474	401.69
340.702	407.69
340.93	406.69
341.158	396.69
341.386	432.69
341.614	416.69
341.842	409.69
342.07	412.69
342.298	438.69
342.526	399.69
342.754	407.69
342.981	424.69
343.209	416.69
343.437	422.69
343.665	426.69
343.893	464.69
344.12	468.69
344.348	439.69
344.576	456.69
344.804	416.69
345.031	432.69
345.259	430.69
345.487	435.69
345.714	420.69
345.942	421.69
346.17	419.69
346.397	408.69
346.625	401.69
346.853	394.69
347.08	388.69
347.308	402.69
347.535	393.69
347.763	413.69
347.99	383.69
348.218	398.69
348.445	404.69
348.673	388.69
348.9	380.69
349.128	400.69
349.355	383.69
349.583	385.69
349.81	384.69
350.037	389.69
350.265	391.69
350.492	404.69
350.72	405.69
350.947	411.69
351.174	396.69
351.402	394.69
351.629	401.69
351.856	382.69
352.083	397.69
352.311	417.69
352.538	402.69
352.765	392.69
352.992	378.69
353.22	395.69
353.447	389.69
353.674	365.69
353.901	396.69
354.128	402.69
354.355	391.69
354.583	383.69
354.81	367.69
355.037	396.69
355.264	369.69
355.491	377.69
355.718	351.69
355.945	388.69
356.172	376.69
356.399	381.69
356.626	396.69
356.853	392.69
357.08	382.69
357.307	389.69
357.534	371.69
357.761	380.69
357.988	408.69
358.215	364.69
358.441	390.69
358.668	377.69
358.895	383.69
359.122	411.69
359.349	380.69
359.576	398.69
359.802	397.69
360.029	411.69
360.256	401.69
360.483	407.69
360.709	398.69
360.936	411.69
361.163	411.69
361.39	386.69
361.616	388.69
361.843	383.69
362.07	384.69
362.296	387.69
362.523	378.69
362.749	389.69
362.976	389.69
363.203	372.69
363.429	386.69
363.656	389.69
363.882	387.69
364.109	379.69
364.335	388.69
364.562	396.69
364.788	381.69
365.015	400.69
365.241	376.69
365.468	385.69
365.694	402.69
365.92	375.69
366.147	381.69
366.373	402.69
366.599	386.69
366.826	373.69
367.052	378.69
367.278	379.69
367.505	388.69
367.731	390.69
367.957	391.69
368.184	376.69
368.41	384.69
368.636	381.69
368.862	392.69
369.089	383.69
369.315	391.69
369.541	393.69
369.767	384.69
369.993	388.69
370.219	382.69
370.445	396.69
370.672	383.69
370.898	396.69
371.124	378.69
371.35	405.69
371.576	406.69
371.802	401.69
372.028	368.69
372.254	407.69
372.48	400.69
372.706	423.69
372.932	413.69
373.158	400.69
373.384	410.69
373.61	408.69
373.835	414.69
374.061	405.69
374.287	409.69
374.513	425.69
374.739	392.69
374.965	418.69
375.191	438.69
375.416	435.69
375.642	425.69
375.868	401.69
376.094	402.69
376.319	385.69
376.545	381.69
376.771	424.69
376.997	380.69
377.222	393.69
377.448	409.69
377.674	388.69
377.899	382.69
378.125	388.69
378.35	398.69
378.576	400.69
378.802	397.69
379.027	415.69
379.253	396.69
379.478	404.69
379.704	396.69
379.929	399.69
380.155	419.69
380.38	410.69
380.606	397.69
380.831	410.69
381.057	417.69
381.282	400.69
381.507	394.69
381.733	401.69
381.958	393.69
382.184	399.69
382.409	415.69
382.634	397.69
382.86	413.69
383.085	418.69
383.31	421.69
383.535	410.69
383.761	424.69
383.986	418.69
384.211	442.69
384.436	440.69
384.662	441.69
384.887	443.69
385.112	428.69
385.337	437.69
385.562	435.69
385.787	435.69
386.013	449.69
386.238	455.69
386.463	451.69
386.688	461.69
386.913	454.69
387.138	439.69
387.363	456.69
387.588	460.69
387.813	466.69
388.038	449.69
388.263	453.69
388.488	460.69
388.713	454.69
388.938	448.69
389.163	460.69
389.387	447.69
389.612	464.69
389.837	460.69
390.062	452.69
390.287	444.69
390.512	462.69
390.736	455.69
390.961	468.69
391.186	450.69
391.411	455.69
391.636	487.69
391.86	488.69
392.085	468.69
392.31	474.69
392.534	482.69
392.759	491.69
392.984	476.69
393.208	462.69
393.433	467.69
393.658	468.69
393.882	451.69
394.107	459.69
394.331	485.69
394.556	474.69
394.78	481.69
395.005	460.69
395.229	472.69
395.454	482.69
395.678	474.69
395.903	485.69
396.127	504.69
396.352	488.69
396.576	498.69
396.801	482.69
397.025	488.69
397.249	476.69
397.474	511.69
397.698	510.69
397.922	504.69
398.147	519.69
398.371	543.69
398.595	528.69
398.82	506.69
399.044	540.69
399.268	571.69
399.492	638.69
399.717	687.69
399.941	689.69
400.165	671.69
400.389	661.69
400.613	610.69
400.837	579.69
401.062	587.69
401.286	545.69
401.51	554.69
401.734	572.69
401.958	562.69
402.182	562.69
402.406	527.69
402.63	524.69
402.854	534.69
403.078	561.69
403.302	551.69
403.526	565.69
403.75	563.69
403.974	576.69
404.198	566.69
404.422	584.69
404.645	576.69
404.869	578.69
405.093	595.69
405.317	623.69
405.541	648.69
405.765	605.69
405.988	586.69
406.212	572.69
406.436	594.69
406.66	617.69
406.883	600.69
407.107	620.69
407.331	660.69
407.555	714.69
407.778	702.69
408.002	649.69
408.226	622.69
408.449	628.69
408.673	619.69
408.896	624.69
409.12	632.69
409.344	606.69
409.567	574.69
409.791	587.69
410.014	559.69
410.238	552.69
410.461	561.69
410.685	570.69
410.908	556.69
411.132	590.69
411.355	599.69
411.578	605.69
411.802	572.69
412.025	544.69
412.249	577.69
412.472	574.69
412.695	583.69
412.919	584.69
413.142	557.69
413.365	544.69
413.589	544.69
413.812	527.69
414.035	533.69
414.258	513.69
414.482	511.69
414.705	542.69
414.928	531.69
415.151	508.69
415.374	539.69
415.597	527.69
415.821	501.69
416.044	530.69
416.267	546.69
416.49	537.69
416.713	511.69
416.936	538.69
417.159	530.69
417.382	526.69
417.605	523.69
417.828	525.69
418.051	534.69
418.274	530.69
418.497	508.69
418.72	520.69
418.943	523.69
419.166	568.69
419.389	588.69
419.611	577.69
419.834	578.69
420.057	565.69
420.28	543.69
420.503	531.69
420.726	542.69
420.948	555.69
421.171	559.69
421.394	604.69
421.617	562.69
421.839	536.69
422.062	556.69
422.285	567.69
422.507	571.69
422.73	638.69
422.953	624.69
423.175	587.69
423.398	546.69
423.621	528.69
423.843	563.69
424.066	558.69
424.288	589.69
424.511	576.69
424.733	612.69
424.956	649.69
425.178	646.69
425.401	646.69
425.623	643.69
425.846	572.69
426.068	545.69
426.291	551.69
426.513	550.69
426.735	560.69
426.958	599.69
427.18	646.69
427.402	746.69
427.625	765.69
427.847	677.69
428.069	607.69
428.292	564.69
428.514	549.69
428.736	510.69
428.958	507.69
429.181	517.69
429.403	508.69
429.625	521.69
429.847	548.69
430.069	568.69
430.292	557.69
430.514	515.69
430.736	492.69
430.958	491.69
431.18	495.69
431.402	495.69
431.624	493.69
431.846	474.69
432.068	488.69
432.29	502.69
432.512	480.69
432.734	489.69
432.956	506.69
433.178	508.69
433.4	510.69
433.622	511.69
433.844	502.69
434.066	482.69
434.287	491.69
434.509	530.69
434.731	516.69
434.953	535.69
435.175	545.69
435.397	547.69
435.618	514.69
435.84	572.69
436.062	639.69
436.284	665.69
436.505	606.69
436.727	558.69
436.949	517.69
437.17	513.69
437.392	499.69
437.614	513.69
437.835	534.69
438.057	595.69
438.278	654.69
438.5	630.69
438.721	716.69
438.943	700.69
439.165	597.69
439.386	558.69
439.608	520.69
439.829	528.69
440.05	538.69
440.272	578.69
440.493	528.69
440.715	516.69
440.936	525.69
441.158	516.69
441.379	530.69
441.6	546.69
441.822	570.69
442.043	574.69
442.264	615.69
442.486	661.69
442.707	594.69
442.928	582.69
443.149	563.69
443.371	561.69
443.592	585.69
443.813	661.69
444.034	700.69
444.255	621.69
444.476	575.69
444.698	572.69
444.919	596.69
445.14	702.69
445.361	646.69
445.582	583.69
445.803	584.69
446.024	670.69
446.245	650.69
446.466	626.69
446.687	570.69
446.908	554.69
447.129	529.69
447.35	507.69
447.571	500.69
447.792	469.69
448.013	486.69
448.234	511.69
448.455	539.69
448.675	643.69
448.896	688.69
449.117	607.69
449.338	582.69
449.559	658.69
449.779	714.69
450	605.69
450.221	515.69
450.442	484.69
450.662	476.69
450.883	483.69
451.104	497.69
451.324	474.69
451.545	472.69
451.766	475.69
451.986	475.69
452.207	452.69
452.428	444.69
452.648	446.69
452.869	438.69
453.089	449.69
453.31	467.69
453.53	470.69
453.751	440.69
453.971	449.69
454.192	465.69
454.412	442.69
454.633	444.69
454.853	444.69
455.073	447.69
455.294	454.69
455.514	486.69
455.734	495.69
455.955	450.69
456.175	435.69
456.395	433.69
456.616	435.69
456.836	430.69
457.056	422.69
457.276	436.69
457.497	431.69
457.717	418.69
457.937	433.69
458.157	436.69
458.377	456.69
458.598	462.69
458.818	484.69
459.038	546.69
459.258	554.69
459.478	510.69
459.698	494.69
459.918	510.69
460.138	507.69
460.358	521.69
460.578	540.69
460.798	532.69
461.018	544.69
461.238	532.69
461.458	514.69
461.678	539.69
461.898	540.69
462.118	533.69
462.338	542.69
462.558	553.69
462.777	584.69
462.997	591.69
463.217	644.69
463.437	625.69
463.657	604.69
463.876	586.69
464.096	598.69
464.316	591.69
464.536	596.69
464.755	584.69
464.975	544.69
465.195	587.69
465.414	580.69
465.634	546.69
465.854	536.69
466.073	478.69
466.293	494.69
466.512	465.69
466.732	472.69
466.951	466.69
467.171	464.69
467.391	476.69
467.61	472.69
467.829	482.69
468.049	476.69
468.268	473.69
468.488	449.69
468.707	462.69
468.927	488.69
469.146	468.69
469.365	471.69
469.585	446.69
469.804	467.69
470.023	456.69
470.243	482.69
470.462	482.69
470.681	500.69
470.901	504.69
471.12	499.69
471.339	480.69
471.558	474.69
471.777	479.69
471.997	479.69
472.216	474.69
472.435	483.69
472.654	487.69
472.873	447.69
473.092	473.69
473.311	476.69
473.53	479.69
473.749	485.69
473.968	514.69
474.187	551.69
474.406	571.69
474.625	509.69
474.844	476.69
475.063	480.69
475.282	486.69
475.501	483.69
475.72	487.69
475.939	485.69
476.158	492.69
476.377	481.69
476.596	457.69
476.814	474.69
477.033	486.69
477.252	506.69
477.471	514.69
477.69	510.69
477.908	538.69
478.127	529.69
478.346	540.69
478.564	537.69
478.783	565.69
479.002	590.69
479.22	560.69
479.439	551.69
479.658	551.69
479.876	580.69
480.095	572.69
480.313	608.69
480.532	623.69
480.751	590.69
480.969	634.69
481.188	608.69
481.406	636.69
481.624	578.69
481.843	586.69
482.061	577.69
482.28	570.69
482.498	564.69
482.717	551.69
482.935	590.69
483.153	542.69
483.372	536.69
483.59	558.69
483.808	538.69
484.027	566.69
484.245	558.69
484.463	557.69
484.681	589.69
484.9	558.69
485.118	551.69
485.336	581.69
485.554	545.69
485.772	558.69
485.99	592.69
486.209	584.69
486.427	601.69
486.645	582.69
486.863	583.69
487.081	592.69
487.299	583.69
487.517	600.69
487.735	605.69
487.953	565.69
488.171	579.69
488.389	594.69
488.607	561.69
488.825	588.69
489.043	599.69
489.261	578.69
489.479	576.69
489.696	604.69
489.914	591.69
490.132	601.69
490.35	597.69
490.568	588.69
490.786	609.69
491.003	602.69
491.221	626.69
491.439	642.69
491.657	621.69
491.874	634.69
492.092	625.69
492.31	621.69
492.527	628.69
492.745	621.69
492.963	628.69
493.18	643.69
493.398	652.69
493.615	668.69
493.833	630.69
494.05	654.69
494.268	667.69
494.485	666.69
494.703	646.69
494.92	668.69
495.138	670.69
495.355	650.69
495.573	648.69
495.79	669.69
496.008	681.69
496.225	678.69
496.442	677.69
496.66	676.69
496.877	690.69
497.094	695.69
497.312	704.69
497.529	730.69
497.746	729.69
497.963	739.69
498.181	768.69
498.398	801.69
498.615	802.69
498.832	816.69
499.049	845.69
499.267	880.69
499.484	913.69
499.701	1002.69
499.918	1055.69
500.135	1132.69
500.352	1220.69
500.569	1222.69
500.786	1238.69
501.003	1176.69
501.22	1123.69
501.437	1066.69
501.654	1004.69
501.871	957.69
502.088	928.69
502.305	852.69
502.522	849.69
502.739	822.69
502.956	783.69
503.172	764.69
503.389	716.69
503.606	742.69
503.823	725.69
504.04	750.69
504.256	722.69
504.473	723.69
504.69	719.69
504.907	718.69
505.123	681.69
505.34	683.69
505.557	665.69
505.773	647.69
505.99	641.69
506.207	644.69
506.423	626.69
506.64	646.69
506.856	616.69
507.073	606.69
507.289	610.69
507.506	606.69
507.722	591.69
507.939	604.69
508.155	623.69
508.372	585.69
508.588	588.69
508.805	580.69
509.021	572.69
509.238	572.69
509.454	579.69
509.67	594.69
509.887	582.69
510.103	590.69
510.319	608.69
510.536	622.69
510.752	855.69
510.968	724.69
511.184	566.69
511.401	564.69
511.617	563.69
511.833	575.69
512.049	543.69
512.265	562.69
512.481	546.69
512.698	543.69
512.914	550.69
513.13	549.69
513.346	535.69
513.562	549.69
513.778	554.69
513.994	559.69
514.21	563.69
514.426	583.69
514.642	610.69
514.858	584.69
515.074	597.69
515.29	671.69
515.506	814.69
515.721	739.69
515.937	627.69
516.153	604.69
516.369	614.69
516.585	595.69
516.801	594.69
517.016	625.69
517.232	621.69
517.448	643.69
517.664	645.69
517.879	638.69
518.095	645.69
518.311	623.69
518.527	620.69
518.742	624.69
518.958	601.69
519.173	601.69
519.389	592.69
519.605	579.69
519.82	574.69
520.036	579.69
520.251	549.69
520.467	589.69
520.682	584.69
520.898	577.69
521.113	583.69
521.329	579.69
521.544	613.69
521.76	675.69
521.975	934.69
522.19	914.69
522.406	631.69
522.621	550.69
522.836	540.69
523.052	528.69
523.267	525.69
523.482	509.69
523.698	498.69
523.913	532.69
524.128	502.69
524.343	503.69
524.559	495.69
524.774	508.69
524.989	501.69
525.204	514.69
525.419	515.69
525.634	492.69
525.849	486.69
526.064	475.69
526.28	494.69
526.495	498.69
526.71	481.69
526.925	492.69
527.14	474.69
527.355	484.69
527.57	493.69
527.785	478.69
527.999	486.69
528.214	485.69
528.429	488.69
528.644	481.69
528.859	479.69
529.074	467.69
529.289	476.69
529.503	533.69
529.718	506.69
529.933	465.69
530.148	474.69
530.363	483.69
530.577	471.69
530.792	471.69
531.007	470.69
531.221	482.69
531.436	452.69
531.651	468.69
531.865	483.69
532.08	464.69
532.295	478.69
532.509	464.69
532.724	443.69
532.938	474.69
533.153	496.69
533.367	450.69
533.582	450.69
533.796	449.69
534.011	470.69
534.225	467.69
534.44	459.69
534.654	469.69
534.868	462.69
535.083	474.69
535.297	459.69
535.511	475.69
535.726	473.69
535.94	446.69
536.154	444.69
536.369	456.69
536.583	442.69
536.797	460.69
537.011	454.69
537.225	428.69
537.44	470.69
537.654	435.69
537.868	449.69
538.082	446.69
538.296	449.69
538.51	442.69
538.724	444.69
538.938	450.69
539.153	449.69
539.367	462.69
539.581	434.69
539.795	407.69
540.009	427.69
540.222	446.69
540.436	447.69
540.65	430.69
540.864	434.69
541.078	454.69
541.292	439.69
541.506	429.69
541.72	445.69
541.934	407.69
542.147	446.69
542.361	436.69
542.575	430.69
542.789	433.69
543.002	427.69
543.216	435.69
543.43	444.69
543.644	447.69
543.857	471.69
544.071	431.69
544.285	453.69
544.498	452.69
544.712	441.69
544.925	432.69
545.139	421.69
545.352	428.69
545.566	447.69
545.779	432.69
545.993	449.69
546.206	448.69
546.42	456.69
546.633	433.69
546.847	428.69
547.06	415.69
547.274	422.69
547.487	426.69
547.7	418.69
547.914	465.69
548.127	426.69
548.34	434.69
548.554	421.69
548.767	430.69
548.98	447.69
549.193	447.69
549.407	458.69
549.62	449.69
549.833	440.69
550.046	421.69
550.259	426.69
550.473	422.69
550.686	414.69
550.899	440.69
551.112	437.69
551.325	416.69
551.538	413.69
551.751	430.69
551.964	420.69
552.177	438.69
552.39	445.69
552.603	446.69
552.816	435.69
553.029	436.69
553.242	475.69
553.455	443.69
553.667	444.69
553.88	474.69
554.093	459.69
554.306	471.69
554.519	437.69
554.732	431.69
554.944	432.69
555.157	423.69
555.37	415.69
555.583	407.69
555.795	406.69
556.008	411.69
556.221	415.69
556.433	400.69
556.646	390.69
556.859	396.69
557.071	402.69
557.284	392.69
557.496	396.69
557.709	374.69
557.921	394.69
558.134	391.69
558.346	381.69
558.559	398.69
558.771	398.69
558.984	383.69
559.196	380.69
559.409	387.69
559.621	388.69
559.833	389.69
560.046	386.69
560.258	381.69
560.47	378.69
560.683	382.69
560.895	372.69
561.107	364.69
561.32	402.69
561.532	382.69
561.744	390.69
561.956	369.69
562.168	373.69
562.381	359.69
562.593	380.69
562.805	391.69
563.017	392.69
563.229	391.69
563.441	384.69
563.653	391.69
563.865	383.69
564.077	396.69
564.289	410.69
564.501	403.69
564.713	396.69
564.925	421.69
565.137	420.69
565.349	448.69
565.561	430.69
565.773	460.69
565.985	466.69
566.197	485.69
566.408	475.69
566.62	510.69
566.832	536.69
567.044	534.69
567.255	536.69
567.467	555.69
567.679	567.69
567.891	593.69
568.102	615.69
568.314	571.69
568.526	516.69
568.737	526.69
568.949	470.69
569.161	476.69
569.372	430.69
569.584	437.69
569.795	440.69
570.007	399.69
570.218	426.69
570.43	423.69
570.641	386.69
570.853	398.69
571.064	388.69
571.276	403.69
571.487	380.69
571.698	380.69
571.91	372.69
572.121	365.69
572.333	358.69
572.544	371.69
572.755	372.69
572.966	356.69
573.178	367.69
573.389	352.69
573.6	356.69
573.811	347.69
574.023	348.69
574.234	346.69
574.445	341.69
574.656	339.69
574.867	338.69
575.078	344.69
575.289	349.69
575.501	340.69
575.712	324.69
575.923	308.69
576.134	317.69
576.345	315.69
576.556	303.69
576.767	315.69
576.978	314.69
577.188	321.69
577.399	333.69
577.61	312.69
577.821	316.69
578.032	307.69
578.243	335.69
578.454	434.69
578.665	362.69
578.875	310.69
579.086	319.69
579.297	325.69
579.508	316.69
579.718	314.69
579.929	316.69
580.14	294.69
580.35	306.69
580.561	310.69
580.772	303.69
580.982	318.69
581.193	289.69
581.403	318.69
581.614	292.69
581.825	300.69
582.035	289.69
582.246	310.69
582.456	311.69
582.667	300.69
582.877	291.69
583.087	285.69
583.298	283.69
583.508	308.69
583.719	291.69
583.929	307.69
584.139	301.69
584.35	286.69
584.56	294.69
584.77	289.69
584.981	295.69
585.191	289.69
585.401	282.69
585.611	279.69
585.821	277.69
586.032	290.69
586.242	279.69
586.452	317.69
586.662	292.69
586.872	272.69
587.082	284.69
587.292	289.69
587.502	290.69
587.713	290.69
587.923	282.69
588.133	276.69
588.343	291.69
588.553	293.69
588.762	294.69
588.972	304.69
589.182	350.69
589.392	331.69
589.602	314.69
589.812	344.69
590.022	326.69
590.232	290.69
590.441	303.69
590.651	287.69
590.861	289.69
591.071	290.69
591.281	302.69
591.49	309.69
591.7	307.69
591.91	296.69
592.119	308.69
592.329	319.69
592.539	307.69
592.748	306.69
592.958	318.69
593.167	347.69
593.377	337.69
593.587	366.69
593.796	322.69
594.006	362.69
594.215	325.69
594.424	332.69
594.634	337.69
594.843	327.69
595.053	335.69
595.262	316.69
595.472	317.69
595.681	303.69
595.89	302.69
596.1	300.69
596.309	299.69
596.518	300.69
596.727	282.69
596.937	268.69
597.146	286.69
597.355	282.69
597.564	278.69
597.774	279.69
597.983	293.69
598.192	277.69
598.401	283.69
598.61	256.69
598.819	271.69
599.028	274.69
599.237	279.69
599.446	283.69
599.655	245.69
599.864	256.69
600.073	274.69
600.282	253.69
600.491	268.69
600.7	266.69
600.909	271.69
601.118	263.69
601.327	268.69
601.536	252.69
601.745	264.69
601.953	255.69
602.162	255.69
602.371	263.69
602.58	257.69
602.789	253.69
602.997	269.69
603.206	262.69
603.415	254.69
603.623	244.69
603.832	247.69
604.041	247.69
604.249	240.69
604.458	255.69
604.666	232.69
604.875	248.69
605.084	223.69
605.292	226.69
605.501	245.69
605.709	241.69
605.918	231.69
606.126	224.69
606.334	221.69
606.543	247.69
606.751	252.69
606.96	254.69
607.168	240.69
607.376	234.69
607.585	250.69
607.793	251.69
608.001	234.69
608.21	246.69
608.418	248.69
608.626	242.69
608.834	252.69
609.043	234.69
609.251	236.69
609.459	221.69
609.667	225.69
609.875	252.69
610.083	222.69
610.291	234.69
610.499	246.69
610.707	221.69
610.916	221.69
611.124	262.69
611.332	255.69
611.54	264.69
611.748	235.69
611.955	238.69
612.163	239.69
612.371	220.69
612.579	227.69
612.787	228.69
612.995	236.69
613.203	223.69
613.411	218.69
613.618	206.69
613.826	240.69
614.034	245.69
614.242	217.69
614.449	208.69
614.657	226.69
614.865	224.69
615.072	224.69
615.28	237.69
615.488	221.69
615.695	227.69
615.903	214.69
616.111	248.69
616.318	226.69
616.526	230.69
616.733	237.69
616.941	230.69
617.148	246.69
617.356	228.69
617.563	220.69
617.771	223.69
617.978	213.69
618.185	223.69
618.393	235.69
618.6	223.69
618.807	213.69
619.015	215.69
619.222	225.69
619.429	198.69
619.637	224.69
619.844	234.69
620.051	214.69
620.258	216.69
620.466	205.69
620.673	204.69
620.88	202.69
621.087	211.69
621.294	207.69
621.501	226.69
621.708	224.69
621.915	240.69
622.122	220.69
622.329	227.69
622.536	218.69
622.743	221.69
622.95	206.69
623.157	209.69
623.364	213.69
623.571	205.69
623.778	210.69
623.985	198.69
624.192	211.69
624.399	203.69
624.606	205.69
624.812	216.69
625.019	196.69
625.226	198.69
625.433	204.69
625.639	205.69
625.846	219.69
626.053	197.69
626.259	211.69
626.466	212.69
626.673	207.69
626.879	202.69
627.086	185.69
627.293	211.69
627.499	188.69
627.706	207.69
627.912	209.69
628.119	198.69
628.325	196.69
628.532	177.69
628.738	192.69
628.945	196.69
629.151	190.69
629.357	190.69
629.564	201.69
629.77	195.69
629.976	176.69
630.183	198.69
630.389	187.69
630.595	203.69
630.802	196.69
631.008	184.69
631.214	190.69
631.42	183.69
631.627	207.69
631.833	193.69
632.039	171.69
632.245	187.69
632.451	195.69
632.657	191.69
632.863	200.69
633.069	191.69
633.275	180.69
633.481	176.69
633.688	187.69
633.893	190.69
634.099	191.69
634.305	174.69
634.511	181.69
634.717	177.69
634.923	165.69
635.129	170.69
635.335	178.69
635.541	183.69
635.747	176.69
635.952	174.69
636.158	175.69
636.364	183.69
636.57	165.69
636.775	182.69
636.981	184.69
637.187	173.69
637.392	173.69
637.598	189.69
637.804	170.69
638.009	173.69
638.215	177.69
638.421	165.69
638.626	184.69
638.832	167.69
639.037	170.69
639.243	161.69
639.448	160.69
639.654	176.69
639.859	172.69
640.065	166.69
640.27	170.69
640.475	151.69
640.681	165.69
640.886	161.69
641.091	187.69
641.297	170.69
641.502	179.69
641.707	177.69
641.913	166.69
642.118	161.69
642.323	151.69
642.528	155.69
642.733	163.69
642.939	156.69
643.144	164.69
643.349	158.69
643.554	156.69
643.759	176.69
643.964	171.69
644.169	149.69
644.374	171.69
644.579	163.69
644.784	158.69
644.989	175.69
645.194	159.69
645.399	167.69
645.604	149.69
645.809	157.69
646.014	162.69
646.219	154.69
646.423	162.69
646.628	176.69
646.833	162.69
647.038	159.69
647.243	178.69
647.447	154.69
647.652	184.69
647.857	166.69
648.062	168.69
648.266	182.69
648.471	178.69
648.676	171.69
648.88	170.69
649.085	157.69
649.289	161.69
649.494	174.69
649.698	173.69
649.903	165.69
650.107	162.69
650.312	152.69
650.516	171.69
650.721	154.69
650.925	155.69
651.13	151.69
651.334	160.69
651.539	159.69
651.743	154.69
651.947	142.69
652.152	142.69
652.356	145.69
652.56	149.69
652.764	140.69
652.969	140.69
653.173	135.69
653.377	136.69
653.581	124.69
653.785	125.69
653.99	135.69
654.194	128.69
654.398	123.69
654.602	123.69
654.806	143.69
655.01	120.69
655.214	143.69
655.418	147.69
655.622	121.69
655.826	126.69
656.03	141.69
656.234	155.69
656.438	160.69
656.642	141.69
656.846	150.69
657.049	134.69
657.253	123.69
657.457	136.69
657.661	131.69
657.865	120.69
658.068	104.69
658.272	115.69
658.476	105.69
658.68	108.69
658.883	109.69
659.087	93.69
659.291	96.69
659.494	94.69
659.698	103.69
659.901	86.69
660.105	109.69
660.309	88.69
660.512	93.69
660.716	92.69
660.919	76.69
661.123	99.69
661.326	82.69
661.53	72.69
661.733	85.69
661.936	114.69
662.14	90.69
662.343	83.69
662.546	62.69
662.75	80.69
662.953	79.69
663.156	88.69
663.36	74.69
663.563	87.69
663.766	90.69
663.969	79.69
664.173	87.69
664.376	87.69
664.579	69.69
664.782	70.69
664.985	90.69
665.188	75.69
665.391	73.69
665.594	79.69
665.797	69.69
666	69.69
666.203	72.69
666.406	73.69
666.609	90.69
666.812	83.69
667.015	87.69
667.218	72.69
667.421	78.69
667.624	68.69
667.827	77.69
668.03	78.69
668.232	75.69
668.435	76.69
668.638	67.69
668.841	64.69
669.043	83.69
669.246	77.69
669.449	53.69
669.651	69.69
669.854	67.69
670.057	78.69
670.259	72.69
670.462	79.69
670.665	84.69
670.867	77.69
671.07	68.69
671.272	77.69
671.475	90.69
671.677	93.69
671.88	64.69
672.082	67.69
672.284	64.69
672.487	93.69
672.689	78.69
672.892	79.69
