Data from 1962.PennyLincolnUp.Lamp.En5.5.200Scan.071719.P1._HRD10591_13-55-13-061.txt Node
Date: Thu Jul 18 13:55:13 EDT 2019
User: cochatt
Spectrometer: HR+D1059
Trigger mode: 1
Integration Time (sec): 1.000000E-1
Scans to average: 1
Electric dark correction enabled: true
Nonlinearity correction enabled: false
Boxcar width: 0
XAxis mode: Wavelengths
Number of Pixels in Spectrum: 2048
>>>>>Begin Spectral Data<<<<<
223.165	-24.19
223.4	-24.19
223.635	-24.19
223.869	-15.19
224.104	-12.19
224.338	-0.19
224.573	-7.19
224.808	-15.19
225.042	-15.19
225.277	-5.19
225.511	-11.19
225.746	-7.19
225.98	6.81
226.215	6.81
226.449	7.81
226.683	35.81
226.918	28.81
227.152	26.81
227.387	27.81
227.621	30.81
227.856	41.81
228.09	50.81
228.324	53.81
228.559	53.81
228.793	75.81
229.027	93.81
229.262	99.81
229.496	104.81
229.73	122.81
229.964	132.81
230.199	120.81
230.433	111.81
230.667	114.81
230.901	111.81
231.136	106.81
231.37	127.81
231.604	98.81
231.838	100.81
232.072	110.81
232.306	120.81
232.541	115.81
232.775	118.81
233.009	104.81
233.243	123.81
233.477	116.81
233.711	110.81
233.945	107.81
234.179	118.81
234.413	118.81
234.647	120.81
234.881	115.81
235.115	120.81
235.349	126.81
235.583	116.81
235.817	102.81
236.051	116.81
236.285	121.81
236.519	100.81
236.753	122.81
236.987	125.81
237.221	146.81
237.455	191.81
237.689	161.81
237.922	144.81
238.156	128.81
238.39	125.81
238.624	125.81
238.858	125.81
239.091	132.81
239.325	122.81
239.559	128.81
239.793	122.81
240.027	122.81
240.26	138.81
240.494	141.81
240.728	146.81
240.961	144.81
241.195	130.81
241.429	131.81
241.662	128.81
241.896	130.81
242.13	132.81
242.363	124.81
242.597	133.81
242.83	155.81
243.064	140.81
243.298	143.81
243.531	140.81
243.765	151.81
243.998	134.81
244.232	134.81
244.465	126.81
244.699	130.81
244.932	134.81
245.166	136.81
245.399	154.81
245.633	134.81
245.866	151.81
246.099	142.81
246.333	139.81
246.566	145.81
246.8	143.81
247.033	160.81
247.266	147.81
247.5	166.81
247.733	150.81
247.966	158.81
248.2	166.81
248.433	152.81
248.666	162.81
248.899	180.81
249.133	180.81
249.366	177.81
249.599	178.81
249.832	179.81
250.066	183.81
250.299	176.81
250.532	172.81
250.765	174.81
250.998	190.81
251.231	200.81
251.465	178.81
251.698	171.81
251.931	183.81
252.164	182.81
252.397	175.81
252.63	188.81
252.863	181.81
253.096	194.81
253.329	194.81
253.562	199.81
253.795	220.81
254.028	194.81
254.261	188.81
254.494	198.81
254.727	233.81
254.96	248.81
255.193	232.81
255.426	216.81
255.659	209.81
255.892	218.81
256.124	204.81
256.357	218.81
256.59	206.81
256.823	184.81
257.056	200.81
257.289	190.81
257.521	197.81
257.754	189.81
257.987	185.81
258.22	226.81
258.452	189.81
258.685	182.81
258.918	184.81
259.151	200.81
259.383	226.81
259.616	201.81
259.849	218.81
260.081	219.81
260.314	227.81
260.547	241.81
260.779	229.81
261.012	220.81
261.244	217.81
261.477	205.81
261.71	213.81
261.942	215.81
262.175	203.81
262.407	210.81
262.64	210.81
262.872	187.81
263.105	221.81
263.337	198.81
263.57	211.81
263.802	212.81
264.035	196.81
264.267	198.81
264.499	204.81
264.732	201.81
264.964	221.81
265.197	212.81
265.429	203.81
265.661	222.81
265.894	206.81
266.126	228.81
266.358	226.81
266.591	228.81
266.823	243.81
267.055	207.81
267.287	212.81
267.52	223.81
267.752	232.81
267.984	237.81
268.216	235.81
268.448	211.81
268.681	208.81
268.913	229.81
269.145	237.81
269.377	256.81
269.609	253.81
269.841	245.81
270.073	259.81
270.306	286.81
270.538	293.81
270.77	281.81
271.002	280.81
271.234	269.81
271.466	276.81
271.698	276.81
271.93	278.81
272.162	292.81
272.394	279.81
272.626	278.81
272.858	256.81
273.09	248.81
273.322	249.81
273.553	267.81
273.785	253.81
274.017	264.81
274.249	270.81
274.481	286.81
274.713	248.81
274.945	269.81
275.176	259.81
275.408	245.81
275.64	262.81
275.872	255.81
276.104	249.81
276.335	266.81
276.567	245.81
276.799	265.81
277.031	282.81
277.262	292.81
277.494	322.81
277.726	286.81
277.957	274.81
278.189	263.81
278.421	269.81
278.652	270.81
278.884	288.81
279.115	264.81
279.347	279.81
279.579	273.81
279.81	268.81
280.042	270.81
280.273	278.81
280.505	265.81
280.736	252.81
280.968	262.81
281.199	270.81
281.431	266.81
281.662	287.81
281.894	266.81
282.125	276.81
282.356	282.81
282.588	282.81
282.819	285.81
283.051	292.81
283.282	281.81
283.513	273.81
283.745	278.81
283.976	290.81
284.207	281.81
284.439	284.81
284.67	277.81
284.901	284.81
285.132	282.81
285.364	277.81
285.595	282.81
285.826	272.81
286.057	288.81
286.288	278.81
286.52	285.81
286.751	303.81
286.982	290.81
287.213	286.81
287.444	287.81
287.675	295.81
287.906	301.81
288.138	283.81
288.369	280.81
288.6	307.81
288.831	293.81
289.062	300.81
289.293	295.81
289.524	300.81
289.755	311.81
289.986	301.81
290.217	307.81
290.448	292.81
290.679	290.81
290.91	294.81
291.141	298.81
291.371	296.81
291.602	302.81
291.833	287.81
292.064	303.81
292.295	290.81
292.526	297.81
292.757	296.81
292.987	290.81
293.218	305.81
293.449	318.81
293.68	310.81
293.91	309.81
294.141	299.81
294.372	286.81
294.603	299.81
294.833	314.81
295.064	308.81
295.295	306.81
295.525	316.81
295.756	316.81
295.987	301.81
296.217	314.81
296.448	318.81
296.679	309.81
296.909	316.81
297.14	310.81
297.37	311.81
297.601	324.81
297.831	301.81
298.062	320.81
298.292	333.81
298.523	321.81
298.753	313.81
298.984	304.81
299.214	320.81
299.445	300.81
299.675	327.81
299.905	308.81
300.136	321.81
300.366	323.81
300.597	325.81
300.827	322.81
301.057	345.81
301.288	338.81
301.518	341.81
301.748	333.81
301.979	341.81
302.209	326.81
302.439	332.81
302.669	340.81
302.9	317.81
303.13	338.81
303.36	333.81
303.59	340.81
303.82	351.81
304.051	335.81
304.281	334.81
304.511	345.81
304.741	332.81
304.971	347.81
305.201	356.81
305.431	325.81
305.661	333.81
305.891	334.81
306.121	320.81
306.352	345.81
306.582	335.81
306.812	329.81
307.042	342.81
307.272	335.81
307.502	338.81
307.731	332.81
307.961	349.81
308.191	332.81
308.421	310.81
308.651	329.81
308.881	342.81
309.111	347.81
309.341	331.81
309.571	345.81
309.8	361.81
310.03	352.81
310.26	368.81
310.49	357.81
310.72	363.81
310.949	372.81
311.179	392.81
311.409	364.81
311.639	367.81
311.868	354.81
312.098	384.81
312.328	366.81
312.557	383.81
312.787	389.81
313.017	397.81
313.246	375.81
313.476	374.81
313.706	392.81
313.935	371.81
314.165	406.81
314.394	374.81
314.624	375.81
314.853	372.81
315.083	367.81
315.312	372.81
315.542	375.81
315.771	361.81
316.001	358.81
316.23	360.81
316.46	375.81
316.689	366.81
316.919	365.81
317.148	380.81
317.377	362.81
317.607	379.81
317.836	374.81
318.065	374.81
318.295	377.81
318.524	366.81
318.753	374.81
318.983	358.81
319.212	384.81
319.441	379.81
319.67	394.81
319.9	366.81
320.129	371.81
320.358	394.81
320.587	377.81
320.816	383.81
321.046	386.81
321.275	394.81
321.504	398.81
321.733	363.81
321.962	404.81
322.191	404.81
322.42	392.81
322.649	400.81
322.878	427.81
323.108	428.81
323.337	444.81
323.566	427.81
323.795	455.81
324.024	480.81
324.253	560.81
324.482	706.81
324.71	1042.81
324.939	1458.81
325.168	1290.81
325.397	744.81
325.626	531.81
325.855	487.81
326.084	458.81
326.313	453.81
326.542	438.81
326.77	480.81
326.999	547.81
327.228	667.81
327.457	942.81
327.686	1154.81
327.914	820.81
328.143	592.81
328.372	549.81
328.6	528.81
328.829	494.81
329.058	485.81
329.287	483.81
329.515	494.81
329.744	454.81
329.972	468.81
330.201	466.81
330.43	487.81
330.658	500.81
330.887	511.81
331.115	525.81
331.344	477.81
331.572	462.81
331.801	464.81
332.03	438.81
332.258	453.81
332.486	464.81
332.715	456.81
332.943	448.81
333.172	475.81
333.4	487.81
333.629	476.81
333.857	514.81
334.085	498.81
334.314	513.81
334.542	529.81
334.771	520.81
334.999	479.81
335.227	491.81
335.455	462.81
335.684	457.81
335.912	462.81
336.14	452.81
336.369	452.81
336.597	444.81
336.825	436.81
337.053	451.81
337.281	447.81
337.51	459.81
337.738	432.81
337.966	462.81
338.194	433.81
338.422	454.81
338.65	437.81
338.878	437.81
339.106	442.81
339.334	431.81
339.562	429.81
339.79	444.81
340.018	431.81
340.246	413.81
340.474	434.81
340.702	424.81
340.93	441.81
341.158	424.81
341.386	430.81
341.614	424.81
341.842	442.81
342.07	408.81
342.298	395.81
342.526	410.81
342.754	404.81
342.981	407.81
343.209	423.81
343.437	421.81
343.665	448.81
343.893	449.81
344.12	458.81
344.348	446.81
344.576	460.81
344.804	445.81
345.031	438.81
345.259	426.81
345.487	434.81
345.714	434.81
345.942	429.81
346.17	423.81
346.397	445.81
346.625	411.81
346.853	424.81
347.08	397.81
347.308	421.81
347.535	413.81
347.763	414.81
347.99	414.81
348.218	422.81
348.445	420.81
348.673	404.81
348.9	409.81
349.128	400.81
349.355	388.81
349.583	398.81
349.81	415.81
350.037	414.81
350.265	405.81
350.492	412.81
350.72	408.81
350.947	409.81
351.174	411.81
351.402	426.81
351.629	410.81
351.856	401.81
352.083	396.81
352.311	406.81
352.538	418.81
352.765	396.81
352.992	414.81
353.22	407.81
353.447	406.81
353.674	364.81
353.901	394.81
354.128	387.81
354.355	391.81
354.583	399.81
354.81	396.81
355.037	394.81
355.264	380.81
355.491	390.81
355.718	410.81
355.945	378.81
356.172	381.81
356.399	404.81
356.626	410.81
356.853	415.81
357.08	386.81
357.307	380.81
357.534	388.81
357.761	383.81
357.988	381.81
358.215	375.81
358.441	379.81
358.668	386.81
358.895	393.81
359.122	409.81
359.349	404.81
359.576	390.81
359.802	404.81
360.029	443.81
360.256	426.81
360.483	416.81
360.709	391.81
360.936	411.81
361.163	408.81
361.39	403.81
361.616	418.81
361.843	405.81
362.07	408.81
362.296	406.81
362.523	398.81
362.749	412.81
362.976	377.81
363.203	396.81
363.429	394.81
363.656	415.81
363.882	408.81
364.109	397.81
364.335	388.81
364.562	394.81
364.788	391.81
365.015	378.81
365.241	402.81
365.468	382.81
365.694	394.81
365.92	385.81
366.147	407.81
366.373	400.81
366.599	382.81
366.826	394.81
367.052	379.81
367.278	408.81
367.505	400.81
367.731	404.81
367.957	400.81
368.184	411.81
368.41	407.81
368.636	400.81
368.862	407.81
369.089	418.81
369.315	399.81
369.541	395.81
369.767	399.81
369.993	415.81
370.219	399.81
370.445	394.81
370.672	403.81
370.898	382.81
371.124	407.81
371.35	404.81
371.576	399.81
371.802	404.81
372.028	412.81
372.254	398.81
372.48	398.81
372.706	395.81
372.932	423.81
373.158	426.81
373.384	416.81
373.61	414.81
373.835	407.81
374.061	406.81
374.287	415.81
374.513	402.81
374.739	414.81
374.965	424.81
375.191	409.81
375.416	419.81
375.642	423.81
375.868	408.81
376.094	401.81
376.319	426.81
376.545	403.81
376.771	405.81
376.997	410.81
377.222	404.81
377.448	409.81
377.674	395.81
377.899	387.81
378.125	378.81
378.35	397.81
378.576	404.81
378.802	403.81
379.027	412.81
379.253	392.81
379.478	386.81
379.704	400.81
379.929	412.81
380.155	398.81
380.38	408.81
380.606	426.81
380.831	404.81
381.057	401.81
381.282	411.81
381.507	403.81
381.733	385.81
381.958	417.81
382.184	407.81
382.409	438.81
382.634	429.81
382.86	434.81
383.085	434.81
383.31	427.81
383.535	424.81
383.761	442.81
383.986	421.81
384.211	444.81
384.436	431.81
384.662	452.81
384.887	453.81
385.112	451.81
385.337	432.81
385.562	451.81
385.787	450.81
386.013	469.81
386.238	452.81
386.463	453.81
386.688	469.81
386.913	456.81
387.138	461.81
387.363	441.81
387.588	463.81
387.813	458.81
388.038	450.81
388.263	459.81
388.488	448.81
388.713	479.81
388.938	466.81
389.163	454.81
389.387	477.81
389.612	475.81
389.837	467.81
390.062	462.81
390.287	440.81
390.512	440.81
390.736	464.81
390.961	455.81
391.186	463.81
391.411	463.81
391.636	486.81
391.86	511.81
392.085	495.81
392.31	519.81
392.534	469.81
392.759	473.81
392.984	465.81
393.208	450.81
393.433	473.81
393.658	484.81
393.882	475.81
394.107	473.81
394.331	468.81
394.556	465.81
394.78	484.81
395.005	487.81
395.229	487.81
395.454	494.81
395.678	502.81
395.903	516.81
396.127	520.81
396.352	511.81
396.576	490.81
396.801	483.81
397.025	496.81
397.249	484.81
397.474	506.81
397.698	501.81
397.922	516.81
398.147	553.81
398.371	531.81
398.595	526.81
398.82	534.81
399.044	559.81
399.268	594.81
399.492	628.81
399.717	698.81
399.941	690.81
400.165	700.81
400.389	690.81
400.613	613.81
400.837	583.81
401.062	571.81
401.286	567.81
401.51	531.81
401.734	542.81
401.958	550.81
402.182	547.81
402.406	579.81
402.63	572.81
402.854	546.81
403.078	571.81
403.302	549.81
403.526	576.81
403.75	577.81
403.974	569.81
404.198	574.81
404.422	556.81
404.645	572.81
404.869	583.81
405.093	599.81
405.317	645.81
405.541	641.81
405.765	588.81
405.988	608.81
406.212	595.81
406.436	596.81
406.66	608.81
406.883	607.81
407.107	631.81
407.331	692.81
407.555	726.81
407.778	707.81
408.002	660.81
408.226	640.81
408.449	620.81
408.673	603.81
408.896	630.81
409.12	661.81
409.344	644.81
409.567	605.81
409.791	562.81
410.014	559.81
410.238	590.81
410.461	568.81
410.685	573.81
410.908	586.81
411.132	613.81
411.355	609.81
411.578	602.81
411.802	567.81
412.025	560.81
412.249	576.81
412.472	588.81
412.695	625.81
412.919	610.81
413.142	598.81
413.365	557.81
413.589	558.81
413.812	558.81
414.035	562.81
414.258	532.81
414.482	535.81
414.705	537.81
414.928	534.81
415.151	555.81
415.374	537.81
415.597	539.81
415.821	526.81
416.044	540.81
416.267	547.81
416.49	543.81
416.713	532.81
416.936	531.81
417.159	518.81
417.382	493.81
417.605	523.81
417.828	564.81
418.051	564.81
418.274	553.81
418.497	522.81
418.72	518.81
418.943	535.81
419.166	557.81
419.389	593.81
419.611	583.81
419.834	551.81
420.057	560.81
420.28	550.81
420.503	553.81
420.726	541.81
420.948	550.81
421.171	590.81
421.394	595.81
421.617	560.81
421.839	539.81
422.062	568.81
422.285	555.81
422.507	592.81
422.73	644.81
422.953	640.81
423.175	589.81
423.398	553.81
423.621	564.81
423.843	582.81
424.066	592.81
424.288	574.81
424.511	587.81
424.733	628.81
424.956	707.81
425.178	656.81
425.401	644.81
425.623	679.81
425.846	596.81
426.068	574.81
426.291	560.81
426.513	550.81
426.735	588.81
426.958	602.81
427.18	658.81
427.402	744.81
427.625	826.81
427.847	717.81
428.069	636.81
428.292	596.81
428.514	569.81
428.736	520.81
428.958	540.81
429.181	498.81
429.403	529.81
429.625	527.81
429.847	534.81
430.069	613.81
430.292	605.81
430.514	523.81
430.736	505.81
430.958	518.81
431.18	497.81
431.402	487.81
431.624	492.81
431.846	496.81
432.068	506.81
432.29	508.81
432.512	492.81
432.734	513.81
432.956	516.81
433.178	501.81
433.4	518.81
433.622	518.81
433.844	522.81
434.066	508.81
434.287	504.81
434.509	493.81
434.731	521.81
434.953	528.81
435.175	532.81
435.397	564.81
435.618	573.81
435.84	574.81
436.062	640.81
436.284	706.81
436.505	591.81
436.727	528.81
436.949	542.81
437.17	523.81
437.392	510.81
437.614	552.81
437.835	538.81
438.057	591.81
438.278	704.81
438.5	690.81
438.721	758.81
438.943	723.81
439.165	581.81
439.386	540.81
439.608	572.81
439.829	537.81
440.05	564.81
440.272	588.81
440.493	567.81
440.715	542.81
440.936	546.81
441.158	519.81
441.379	509.81
441.6	551.81
441.822	560.81
442.043	603.81
442.264	636.81
442.486	668.81
442.707	604.81
442.928	584.81
443.149	583.81
443.371	576.81
443.592	636.81
443.813	718.81
444.034	725.81
444.255	654.81
444.476	602.81
444.698	607.81
444.919	602.81
445.14	739.81
445.361	658.81
445.582	615.81
445.803	626.81
446.024	713.81
446.245	707.81
446.466	663.81
446.687	564.81
446.908	538.81
447.129	512.81
447.35	518.81
447.571	494.81
447.792	485.81
448.013	514.81
448.234	528.81
448.455	553.81
448.675	631.81
448.896	738.81
449.117	640.81
449.338	592.81
449.559	688.81
449.779	768.81
450	633.81
450.221	555.81
450.442	484.81
450.662	492.81
450.883	483.81
451.104	493.81
451.324	473.81
451.545	463.81
451.766	459.81
451.986	471.81
452.207	471.81
452.428	468.81
452.648	457.81
452.869	457.81
453.089	460.81
453.31	435.81
453.53	461.81
453.751	464.81
453.971	473.81
454.192	471.81
454.412	438.81
454.633	460.81
454.853	439.81
455.073	448.81
455.294	463.81
455.514	537.81
455.734	517.81
455.955	454.81
456.175	453.81
456.395	430.81
456.616	416.81
456.836	437.81
457.056	434.81
457.276	413.81
457.497	443.81
457.717	452.81
457.937	438.81
458.157	452.81
458.377	474.81
458.598	495.81
458.818	505.81
459.038	544.81
459.258	563.81
459.478	547.81
459.698	488.81
459.918	523.81
460.138	540.81
460.358	547.81
460.578	544.81
460.798	540.81
461.018	553.81
461.238	540.81
461.458	551.81
461.678	514.81
461.898	556.81
462.118	526.81
462.338	568.81
462.558	570.81
462.777	580.81
462.997	590.81
463.217	628.81
463.437	634.81
463.657	595.81
463.876	578.81
464.096	598.81
464.316	587.81
464.536	580.81
464.755	584.81
464.975	563.81
465.195	578.81
465.414	576.81
465.634	542.81
465.854	529.81
466.073	509.81
466.293	500.81
466.512	482.81
466.732	470.81
466.951	464.81
467.171	481.81
467.391	494.81
467.61	490.81
467.829	490.81
468.049	475.81
468.268	504.81
468.488	467.81
468.707	444.81
468.927	460.81
469.146	482.81
469.365	474.81
469.585	452.81
469.804	450.81
470.023	495.81
470.243	489.81
470.462	498.81
470.681	502.81
470.901	503.81
471.12	489.81
471.339	498.81
471.558	498.81
471.777	489.81
471.997	470.81
472.216	469.81
472.435	483.81
472.654	478.81
472.873	500.81
473.092	486.81
473.311	479.81
473.53	485.81
473.749	485.81
473.968	512.81
474.187	574.81
474.406	563.81
474.625	522.81
474.844	498.81
475.063	477.81
475.282	488.81
475.501	477.81
475.72	480.81
475.939	482.81
476.158	489.81
476.377	486.81
476.596	495.81
476.814	508.81
477.033	514.81
477.252	493.81
477.471	534.81
477.69	528.81
477.908	533.81
478.127	532.81
478.346	526.81
478.564	543.81
478.783	539.81
479.002	568.81
479.22	556.81
479.439	559.81
479.658	545.81
479.876	588.81
480.095	594.81
480.313	636.81
480.532	600.81
480.751	584.81
480.969	598.81
481.188	620.81
481.406	608.81
481.624	586.81
481.843	586.81
482.061	584.81
482.28	565.81
482.498	548.81
482.717	581.81
482.935	548.81
483.153	555.81
483.372	544.81
483.59	531.81
483.808	551.81
484.027	565.81
484.245	556.81
484.463	538.81
484.681	576.81
484.9	566.81
485.118	580.81
485.336	582.81
485.554	572.81
485.772	575.81
485.99	571.81
486.209	570.81
486.427	580.81
486.645	593.81
486.863	584.81
487.081	607.81
487.299	586.81
487.517	583.81
487.735	586.81
487.953	588.81
488.171	604.81
488.389	599.81
488.607	603.81
488.825	603.81
489.043	612.81
489.261	614.81
489.479	589.81
489.696	616.81
489.914	593.81
490.132	620.81
490.35	612.81
490.568	623.81
490.786	632.81
491.003	624.81
491.221	626.81
491.439	628.81
491.657	644.81
491.874	644.81
492.092	647.81
492.31	667.81
492.527	670.81
492.745	655.81
492.963	658.81
493.18	662.81
493.398	658.81
493.615	686.81
493.833	654.81
494.05	666.81
494.268	663.81
494.485	674.81
494.703	683.81
494.92	669.81
495.138	688.81
495.355	664.81
495.573	667.81
495.79	654.81
496.008	670.81
496.225	668.81
496.442	671.81
496.66	691.81
496.877	714.81
497.094	702.81
497.312	719.81
497.529	707.81
497.746	729.81
497.963	740.81
498.181	776.81
498.398	794.81
498.615	800.81
498.832	830.81
499.049	882.81
499.267	882.81
499.484	918.81
499.701	994.81
499.918	1055.81
500.135	1098.81
500.352	1215.81
500.569	1225.81
500.786	1223.81
501.003	1202.81
501.22	1110.81
501.437	1056.81
501.654	1018.81
501.871	979.81
502.088	959.81
502.305	891.81
502.522	848.81
502.739	824.81
502.956	769.81
503.172	797.81
503.389	763.81
503.606	744.81
503.823	754.81
504.04	728.81
504.256	730.81
504.473	727.81
504.69	716.81
504.907	744.81
505.123	716.81
505.34	703.81
505.557	676.81
505.773	677.81
505.99	670.81
506.207	654.81
506.423	647.81
506.64	645.81
506.856	628.81
507.073	634.81
507.289	636.81
507.506	623.81
507.722	625.81
507.939	624.81
508.155	606.81
508.372	582.81
508.588	603.81
508.805	600.81
509.021	625.81
509.238	601.81
509.454	606.81
509.67	614.81
509.887	615.81
510.103	592.81
510.319	600.81
510.536	650.81
510.752	871.81
510.968	764.81
511.184	589.81
511.401	597.81
511.617	578.81
511.833	559.81
512.049	557.81
512.265	576.81
512.481	587.81
512.698	573.81
512.914	583.81
513.13	551.81
513.346	558.81
513.562	583.81
513.778	577.81
513.994	569.81
514.21	591.81
514.426	587.81
514.642	610.81
514.858	600.81
515.074	626.81
515.29	672.81
515.506	832.81
515.721	758.81
515.937	611.81
516.153	623.81
516.369	612.81
516.585	621.81
516.801	600.81
517.016	607.81
517.232	641.81
517.448	646.81
517.664	645.81
517.879	650.81
518.095	651.81
518.311	640.81
518.527	664.81
518.742	632.81
518.958	609.81
519.173	601.81
519.389	611.81
519.605	559.81
519.82	585.81
520.036	575.81
520.251	600.81
520.467	605.81
520.682	596.81
520.898	572.81
521.113	582.81
521.329	602.81
521.544	616.81
521.76	701.81
521.975	1005.81
522.19	983.81
522.406	654.81
522.621	576.81
522.836	558.81
523.052	557.81
523.267	512.81
523.482	528.81
523.698	516.81
523.913	531.81
524.128	539.81
524.343	502.81
524.559	486.81
524.774	501.81
524.989	501.81
525.204	520.81
525.419	508.81
525.634	492.81
525.849	511.81
526.064	504.81
526.28	498.81
526.495	504.81
526.71	485.81
526.925	486.81
527.14	489.81
527.355	481.81
527.57	497.81
527.785	501.81
527.999	466.81
528.214	480.81
528.429	488.81
528.644	478.81
528.859	499.81
529.074	464.81
529.289	486.81
529.503	522.81
529.718	507.81
529.933	482.81
530.148	504.81
530.363	493.81
530.577	479.81
530.792	483.81
531.007	465.81
531.221	506.81
531.436	475.81
531.651	466.81
531.865	476.81
532.08	486.81
532.295	495.81
532.509	472.81
532.724	473.81
532.938	478.81
533.153	472.81
533.367	459.81
533.582	470.81
533.796	477.81
534.011	470.81
534.225	476.81
534.44	474.81
534.654	460.81
534.868	468.81
535.083	480.81
535.297	468.81
535.511	472.81
535.726	469.81
535.94	473.81
536.154	460.81
536.369	458.81
536.583	462.81
536.797	442.81
537.011	445.81
537.225	464.81
537.44	454.81
537.654	458.81
537.868	467.81
538.082	444.81
538.296	456.81
538.51	460.81
538.724	445.81
538.938	444.81
539.153	444.81
539.367	463.81
539.581	462.81
539.795	432.81
540.009	444.81
540.222	443.81
540.436	457.81
540.65	439.81
540.864	459.81
541.078	451.81
541.292	451.81
541.506	478.81
541.72	456.81
541.934	449.81
542.147	449.81
542.361	438.81
542.575	434.81
542.789	452.81
543.002	436.81
543.216	451.81
543.43	453.81
543.644	434.81
543.857	448.81
544.071	436.81
544.285	448.81
544.498	428.81
544.712	422.81
544.925	458.81
545.139	453.81
545.352	464.81
545.566	452.81
545.779	421.81
545.993	436.81
546.206	447.81
546.42	425.81
546.633	437.81
546.847	432.81
547.06	449.81
547.274	436.81
547.487	446.81
547.7	442.81
547.914	417.81
548.127	436.81
548.34	452.81
548.554	455.81
548.767	442.81
548.98	453.81
549.193	436.81
549.407	435.81
549.62	430.81
549.833	462.81
550.046	427.81
550.259	439.81
550.473	444.81
550.686	434.81
550.899	435.81
551.112	450.81
551.325	426.81
551.538	434.81
551.751	446.81
551.964	442.81
552.177	435.81
552.39	434.81
552.603	438.81
552.816	449.81
553.029	468.81
553.242	471.81
553.455	463.81
553.667	460.81
553.88	466.81
554.093	450.81
554.306	451.81
554.519	454.81
554.732	450.81
554.944	453.81
555.157	430.81
555.37	438.81
555.583	415.81
555.795	420.81
556.008	426.81
556.221	417.81
556.433	402.81
556.646	430.81
556.859	431.81
557.071	396.81
557.284	388.81
557.496	410.81
557.709	394.81
557.921	387.81
558.134	388.81
558.346	378.81
558.559	402.81
558.771	393.81
558.984	388.81
559.196	386.81
559.409	391.81
559.621	391.81
559.833	391.81
560.046	383.81
560.258	386.81
560.47	392.81
560.683	378.81
560.895	392.81
561.107	405.81
561.32	372.81
561.532	393.81
561.744	368.81
561.956	394.81
562.168	406.81
562.381	386.81
562.593	387.81
562.805	380.81
563.017	411.81
563.229	396.81
563.441	414.81
563.653	374.81
563.865	416.81
564.077	383.81
564.289	403.81
564.501	405.81
564.713	406.81
564.925	429.81
565.137	435.81
565.349	418.81
565.561	452.81
565.773	454.81
565.985	446.81
566.197	463.81
566.408	483.81
566.62	502.81
566.832	549.81
567.044	548.81
567.255	558.81
567.467	540.81
567.679	548.81
567.891	558.81
568.102	592.81
568.314	571.81
568.526	554.81
568.737	522.81
568.949	492.81
569.161	464.81
569.372	440.81
569.584	419.81
569.795	418.81
570.007	418.81
570.218	432.81
570.43	440.81
570.641	399.81
570.853	391.81
571.064	423.81
571.276	401.81
571.487	407.81
571.698	393.81
571.91	370.81
572.121	365.81
572.333	367.81
572.544	352.81
572.755	363.81
572.966	361.81
573.178	360.81
573.389	342.81
573.6	347.81
573.811	352.81
574.023	347.81
574.234	363.81
574.445	341.81
574.656	336.81
574.867	322.81
575.078	363.81
575.289	358.81
575.501	342.81
575.712	338.81
575.923	332.81
576.134	341.81
576.345	330.81
576.556	324.81
576.767	345.81
576.978	350.81
577.188	339.81
577.399	342.81
577.61	342.81
577.821	337.81
578.032	332.81
578.243	341.81
578.454	449.81
578.665	359.81
578.875	321.81
579.086	317.81
579.297	316.81
579.508	296.81
579.718	314.81
579.929	308.81
580.14	317.81
580.35	306.81
580.561	318.81
580.772	313.81
580.982	319.81
581.193	300.81
581.403	319.81
581.614	324.81
581.825	322.81
582.035	308.81
582.246	313.81
582.456	300.81
582.667	317.81
582.877	300.81
583.087	306.81
583.298	309.81
583.508	311.81
583.719	304.81
583.929	323.81
584.139	297.81
584.35	300.81
584.56	296.81
584.77	314.81
584.981	294.81
585.191	300.81
585.401	284.81
585.611	301.81
585.821	301.81
586.032	309.81
586.242	288.81
586.452	307.81
586.662	295.81
586.872	314.81
587.082	288.81
587.292	303.81
587.502	306.81
587.713	290.81
587.923	294.81
588.133	307.81
588.343	308.81
588.553	296.81
588.762	312.81
588.972	312.81
589.182	325.81
589.392	322.81
589.602	294.81
589.812	318.81
590.022	323.81
590.232	318.81
590.441	284.81
590.651	307.81
590.861	297.81
591.071	300.81
591.281	302.81
591.49	331.81
591.7	320.81
591.91	316.81
592.119	311.81
592.329	314.81
592.539	333.81
592.748	312.81
592.958	355.81
593.167	318.81
593.377	338.81
593.587	351.81
593.796	342.81
594.006	357.81
594.215	366.81
594.424	342.81
594.634	337.81
594.843	323.81
595.053	328.81
595.262	313.81
595.472	322.81
595.681	316.81
595.89	315.81
596.1	308.81
596.309	286.81
596.518	292.81
596.727	291.81
596.937	292.81
597.146	283.81
597.355	262.81
597.564	270.81
597.774	293.81
597.983	293.81
598.192	277.81
598.401	278.81
598.61	279.81
598.819	274.81
599.028	255.81
599.237	266.81
599.446	276.81
599.655	278.81
599.864	262.81
600.073	270.81
600.282	261.81
600.491	282.81
600.7	262.81
600.909	246.81
601.118	243.81
601.327	239.81
601.536	254.81
601.745	251.81
601.953	255.81
602.162	267.81
602.371	254.81
602.58	234.81
602.789	257.81
602.997	267.81
603.206	259.81
603.415	259.81
603.623	238.81
603.832	254.81
604.041	274.81
604.249	264.81
604.458	269.81
604.666	239.81
604.875	235.81
605.084	237.81
605.292	251.81
605.501	256.81
605.709	243.81
605.918	240.81
606.126	251.81
606.334	248.81
606.543	243.81
606.751	254.81
606.96	246.81
607.168	252.81
607.376	246.81
607.585	235.81
607.793	240.81
608.001	262.81
608.21	252.81
608.418	242.81
608.626	255.81
608.834	243.81
609.043	238.81
609.251	238.81
609.459	232.81
609.667	251.81
609.875	254.81
610.083	243.81
610.291	222.81
610.499	227.81
610.707	258.81
610.916	231.81
611.124	222.81
611.332	250.81
611.54	240.81
611.748	271.81
611.955	229.81
612.163	239.81
612.371	245.81
612.579	232.81
612.787	246.81
612.995	230.81
613.203	242.81
613.411	247.81
613.618	242.81
613.826	237.81
614.034	233.81
614.242	253.81
614.449	240.81
614.657	235.81
614.865	231.81
615.072	239.81
615.28	235.81
615.488	225.81
615.695	227.81
615.903	244.81
616.111	238.81
616.318	228.81
616.526	214.81
616.733	233.81
616.941	240.81
617.148	235.81
617.356	238.81
617.563	232.81
617.771	235.81
617.978	222.81
618.185	238.81
618.393	236.81
618.6	230.81
618.807	242.81
619.015	228.81
619.222	235.81
619.429	236.81
619.637	228.81
619.844	220.81
620.051	234.81
620.258	220.81
620.466	203.81
620.673	228.81
620.88	227.81
621.087	220.81
621.294	217.81
621.501	199.81
621.708	213.81
621.915	217.81
622.122	222.81
622.329	229.81
622.536	223.81
622.743	234.81
622.95	214.81
623.157	210.81
623.364	219.81
623.571	212.81
623.778	227.81
623.985	221.81
624.192	209.81
624.399	217.81
624.606	227.81
624.812	222.81
625.019	210.81
625.226	212.81
625.433	219.81
625.639	206.81
625.846	207.81
626.053	210.81
626.259	220.81
626.466	218.81
626.673	215.81
626.879	218.81
627.086	218.81
627.293	201.81
627.499	207.81
627.706	211.81
627.912	192.81
628.119	197.81
628.325	200.81
628.532	208.81
628.738	202.81
628.945	203.81
629.151	195.81
629.357	203.81
629.564	213.81
629.77	198.81
629.976	210.81
630.183	198.81
630.389	192.81
630.595	194.81
630.802	188.81
631.008	195.81
631.214	202.81
631.42	180.81
631.627	190.81
631.833	191.81
632.039	204.81
632.245	195.81
632.451	210.81
632.657	190.81
632.863	187.81
633.069	186.81
633.275	182.81
633.481	189.81
633.688	186.81
633.893	203.81
634.099	185.81
634.305	186.81
634.511	183.81
634.717	191.81
634.923	186.81
635.129	183.81
635.335	183.81
635.541	181.81
635.747	179.81
635.952	179.81
636.158	173.81
636.364	173.81
636.57	186.81
636.775	179.81
636.981	172.81
637.187	183.81
637.392	191.81
637.598	165.81
637.804	187.81
638.009	186.81
638.215	184.81
638.421	186.81
638.626	180.81
638.832	174.81
639.037	177.81
639.243	172.81
639.448	180.81
639.654	174.81
639.859	186.81
640.065	180.81
640.27	180.81
640.475	169.81
640.681	160.81
640.886	174.81
641.091	174.81
641.297	175.81
641.502	169.81
641.707	167.81
641.913	167.81
642.118	172.81
642.323	157.81
642.528	176.81
642.733	170.81
642.939	162.81
643.144	163.81
643.349	168.81
643.554	180.81
643.759	173.81
643.964	149.81
644.169	171.81
644.374	167.81
644.579	150.81
644.784	173.81
644.989	177.81
645.194	164.81
645.399	158.81
645.604	170.81
645.809	165.81
646.014	184.81
646.219	170.81
646.423	175.81
646.628	176.81
646.833	179.81
647.038	186.81
647.243	179.81
647.447	160.81
647.652	178.81
647.857	186.81
648.062	177.81
648.266	169.81
648.471	166.81
648.676	184.81
648.88	169.81
649.085	182.81
649.289	173.81
649.494	166.81
649.698	186.81
649.903	167.81
650.107	181.81
650.312	176.81
650.516	163.81
650.721	148.81
650.925	169.81
651.13	167.81
651.334	148.81
651.539	162.81
651.743	148.81
651.947	159.81
652.152	149.81
652.356	163.81
652.56	154.81
652.764	143.81
652.969	142.81
653.173	150.81
653.377	153.81
653.581	146.81
653.785	141.81
653.99	150.81
654.194	141.81
654.398	137.81
654.602	148.81
654.806	136.81
655.01	148.81
655.214	145.81
655.418	138.81
655.622	135.81
655.826	129.81
656.03	156.81
656.234	145.81
656.438	140.81
656.642	148.81
656.846	134.81
657.049	143.81
657.253	135.81
657.457	110.81
657.661	142.81
657.865	114.81
658.068	110.81
658.272	116.81
658.476	116.81
658.68	122.81
658.883	95.81
659.087	108.81
659.291	104.81
659.494	122.81
659.698	106.81
659.901	114.81
660.105	89.81
660.309	106.81
660.512	90.81
660.716	100.81
660.919	106.81
661.123	106.81
661.326	100.81
661.53	99.81
661.733	90.81
661.936	98.81
662.14	90.81
662.343	82.81
662.546	86.81
662.75	100.81
662.953	91.81
663.156	88.81
663.36	75.81
663.563	86.81
663.766	87.81
663.969	71.81
664.173	76.81
664.376	81.81
664.579	91.81
664.782	90.81
664.985	90.81
665.188	89.81
665.391	92.81
665.594	85.81
665.797	102.81
666	93.81
666.203	70.81
666.406	100.81
666.609	96.81
666.812	90.81
667.015	92.81
667.218	78.81
667.421	79.81
667.624	82.81
667.827	96.81
668.03	92.81
668.232	87.81
668.435	86.81
668.638	84.81
668.841	88.81
669.043	99.81
669.246	93.81
669.449	95.81
669.651	85.81
669.854	90.81
670.057	87.81
670.259	85.81
670.462	83.81
670.665	76.81
670.867	78.81
671.07	77.81
671.272	91.81
671.475	93.81
671.677	90.81
671.88	100.81
672.082	77.81
672.284	97.81
672.487	76.81
672.689	80.81
672.892	99.81
