Data from 1962.PennyLincolnUp.Lamp.En5.5.200Scan.071719.P1._HRD10591_13-53-57-060.txt Node
Date: Thu Jul 18 13:53:57 EDT 2019
User: cochatt
Spectrometer: HR+D1059
Trigger mode: 1
Integration Time (sec): 1.000000E-1
Scans to average: 1
Electric dark correction enabled: true
Nonlinearity correction enabled: false
Boxcar width: 0
XAxis mode: Wavelengths
Number of Pixels in Spectrum: 2048
>>>>>Begin Spectral Data<<<<<
223.165	-0.62
223.4	-0.62
223.635	-0.62
223.869	-23.62
224.104	-15.62
224.338	1.38
224.573	-13.62
224.808	-3.62
225.042	-3.62
225.277	1.38
225.511	-15.62
225.746	0.38
225.98	-1.62
226.215	22.38
226.449	5.38
226.683	14.38
226.918	16.38
227.152	16.38
227.387	14.38
227.621	34.38
227.856	42.38
228.09	51.38
228.324	56.38
228.559	48.38
228.793	61.38
229.027	84.38
229.262	92.38
229.496	93.38
229.73	102.38
229.964	117.38
230.199	122.38
230.433	106.38
230.667	105.38
230.901	97.38
231.136	94.38
231.37	107.38
231.604	100.38
231.838	109.38
232.072	116.38
232.306	108.38
232.541	110.38
232.775	120.38
233.009	105.38
233.243	100.38
233.477	121.38
233.711	101.38
233.945	109.38
234.179	113.38
234.413	107.38
234.647	122.38
234.881	117.38
235.115	102.38
235.349	110.38
235.583	118.38
235.817	114.38
236.051	109.38
236.285	108.38
236.519	114.38
236.753	137.38
236.987	130.38
237.221	141.38
237.455	188.38
237.689	156.38
237.922	130.38
238.156	142.38
238.39	120.38
238.624	138.38
238.858	133.38
239.091	129.38
239.325	110.38
239.559	121.38
239.793	124.38
240.027	128.38
240.26	120.38
240.494	144.38
240.728	129.38
240.961	130.38
241.195	125.38
241.429	129.38
241.662	136.38
241.896	126.38
242.13	126.38
242.363	137.38
242.597	134.38
242.83	129.38
243.064	128.38
243.298	123.38
243.531	141.38
243.765	126.38
243.998	134.38
244.232	136.38
244.465	146.38
244.699	130.38
244.932	124.38
245.166	135.38
245.399	136.38
245.633	143.38
245.866	144.38
246.099	161.38
246.333	141.38
246.566	148.38
246.8	143.38
247.033	156.38
247.266	150.38
247.5	165.38
247.733	159.38
247.966	167.38
248.2	147.38
248.433	168.38
248.666	163.38
248.899	166.38
249.133	154.38
249.366	169.38
249.599	178.38
249.832	153.38
250.066	156.38
250.299	162.38
250.532	182.38
250.765	190.38
250.998	163.38
251.231	190.38
251.465	174.38
251.698	205.38
251.931	192.38
252.164	188.38
252.397	181.38
252.63	176.38
252.863	190.38
253.096	181.38
253.329	216.38
253.562	188.38
253.795	198.38
254.028	205.38
254.261	184.38
254.494	200.38
254.727	204.38
254.96	221.38
255.193	217.38
255.426	217.38
255.659	203.38
255.892	202.38
256.124	205.38
256.357	210.38
256.59	194.38
256.823	217.38
257.056	179.38
257.289	194.38
257.521	183.38
257.754	204.38
257.987	189.38
258.22	194.38
258.452	200.38
258.685	182.38
258.918	204.38
259.151	190.38
259.383	194.38
259.616	192.38
259.849	196.38
260.081	211.38
260.314	229.38
260.547	222.38
260.779	214.38
261.012	211.38
261.244	210.38
261.477	204.38
261.71	199.38
261.942	218.38
262.175	214.38
262.407	209.38
262.64	185.38
262.872	201.38
263.105	182.38
263.337	205.38
263.57	199.38
263.802	213.38
264.035	229.38
264.267	196.38
264.499	194.38
264.732	217.38
264.964	217.38
265.197	203.38
265.429	214.38
265.661	210.38
265.894	192.38
266.126	194.38
266.358	209.38
266.591	211.38
266.823	212.38
267.055	228.38
267.287	230.38
267.52	214.38
267.752	210.38
267.984	215.38
268.216	222.38
268.448	222.38
268.681	225.38
268.913	230.38
269.145	230.38
269.377	248.38
269.609	239.38
269.841	235.38
270.073	232.38
270.306	254.38
270.538	262.38
270.77	290.38
271.002	275.38
271.234	249.38
271.466	272.38
271.698	267.38
271.93	274.38
272.162	280.38
272.394	262.38
272.626	266.38
272.858	271.38
273.09	246.38
273.322	258.38
273.553	260.38
273.785	249.38
274.017	225.38
274.249	255.38
274.481	243.38
274.713	257.38
274.945	254.38
275.176	254.38
275.408	232.38
275.64	240.38
275.872	256.38
276.104	246.38
276.335	281.38
276.567	268.38
276.799	257.38
277.031	284.38
277.262	274.38
277.494	286.38
277.726	291.38
277.957	274.38
278.189	263.38
278.421	273.38
278.652	269.38
278.884	259.38
279.115	283.38
279.347	254.38
279.579	268.38
279.81	251.38
280.042	256.38
280.273	260.38
280.505	277.38
280.736	266.38
280.968	263.38
281.199	263.38
281.431	258.38
281.662	264.38
281.894	254.38
282.125	270.38
282.356	271.38
282.588	285.38
282.819	278.38
283.051	284.38
283.282	268.38
283.513	284.38
283.745	273.38
283.976	279.38
284.207	277.38
284.439	288.38
284.67	293.38
284.901	273.38
285.132	297.38
285.364	290.38
285.595	288.38
285.826	280.38
286.057	289.38
286.288	264.38
286.52	301.38
286.751	296.38
286.982	291.38
287.213	266.38
287.444	285.38
287.675	273.38
287.906	300.38
288.138	300.38
288.369	304.38
288.6	300.38
288.831	282.38
289.062	290.38
289.293	280.38
289.524	277.38
289.755	283.38
289.986	290.38
290.217	299.38
290.448	283.38
290.679	307.38
290.91	289.38
291.141	312.38
291.371	293.38
291.602	285.38
291.833	298.38
292.064	292.38
292.295	302.38
292.526	302.38
292.757	303.38
292.987	314.38
293.218	294.38
293.449	298.38
293.68	305.38
293.91	297.38
294.141	298.38
294.372	287.38
294.603	309.38
294.833	307.38
295.064	292.38
295.295	296.38
295.525	288.38
295.756	310.38
295.987	308.38
296.217	317.38
296.448	299.38
296.679	315.38
296.909	310.38
297.14	312.38
297.37	305.38
297.601	286.38
297.831	281.38
298.062	312.38
298.292	300.38
298.523	327.38
298.753	333.38
298.984	322.38
299.214	333.38
299.445	321.38
299.675	318.38
299.905	309.38
300.136	298.38
300.366	309.38
300.597	292.38
300.827	317.38
301.057	330.38
301.288	326.38
301.518	326.38
301.748	330.38
301.979	328.38
302.209	334.38
302.439	345.38
302.669	338.38
302.9	342.38
303.13	341.38
303.36	339.38
303.59	336.38
303.82	342.38
304.051	327.38
304.281	309.38
304.511	315.38
304.741	331.38
304.971	328.38
305.201	318.38
305.431	349.38
305.661	335.38
305.891	330.38
306.121	313.38
306.352	340.38
306.582	332.38
306.812	334.38
307.042	334.38
307.272	329.38
307.502	324.38
307.731	324.38
307.961	344.38
308.191	321.38
308.421	353.38
308.651	324.38
308.881	341.38
309.111	356.38
309.341	346.38
309.571	346.38
309.8	345.38
310.03	341.38
310.26	357.38
310.49	360.38
310.72	355.38
310.949	363.38
311.179	375.38
311.409	349.38
311.639	348.38
311.868	350.38
312.098	358.38
312.328	348.38
312.557	382.38
312.787	385.38
313.017	376.38
313.246	363.38
313.476	358.38
313.706	370.38
313.935	379.38
314.165	380.38
314.394	354.38
314.624	372.38
314.853	369.38
315.083	364.38
315.312	380.38
315.542	365.38
315.771	365.38
316.001	371.38
316.23	365.38
316.46	364.38
316.689	370.38
316.919	369.38
317.148	382.38
317.377	370.38
317.607	368.38
317.836	374.38
318.065	370.38
318.295	360.38
318.524	367.38
318.753	356.38
318.983	384.38
319.212	368.38
319.441	376.38
319.67	377.38
319.9	343.38
320.129	370.38
320.358	353.38
320.587	370.38
320.816	363.38
321.046	388.38
321.275	386.38
321.504	381.38
321.733	393.38
321.962	377.38
322.191	396.38
322.42	404.38
322.649	393.38
322.878	398.38
323.108	413.38
323.337	392.38
323.566	433.38
323.795	480.38
324.024	466.38
324.253	521.38
324.482	665.38
324.71	999.38
324.939	1348.38
325.168	1197.38
325.397	684.38
325.626	527.38
325.855	468.38
326.084	426.38
326.313	434.38
326.542	459.38
326.77	456.38
326.999	526.38
327.228	643.38
327.457	892.38
327.686	1085.38
327.914	760.38
328.143	549.38
328.372	502.38
328.6	473.38
328.829	478.38
329.058	479.38
329.287	481.38
329.515	451.38
329.744	462.38
329.972	427.38
330.201	458.38
330.43	474.38
330.658	496.38
330.887	489.38
331.115	512.38
331.344	460.38
331.572	440.38
331.801	458.38
332.03	446.38
332.258	443.38
332.486	447.38
332.715	450.38
332.943	452.38
333.172	459.38
333.4	457.38
333.629	470.38
333.857	477.38
334.085	482.38
334.314	494.38
334.542	500.38
334.771	529.38
334.999	483.38
335.227	463.38
335.455	467.38
335.684	461.38
335.912	456.38
336.14	430.38
336.369	438.38
336.597	436.38
336.825	449.38
337.053	428.38
337.281	443.38
337.51	436.38
337.738	444.38
337.966	440.38
338.194	435.38
338.422	452.38
338.65	427.38
338.878	424.38
339.106	428.38
339.334	405.38
339.562	414.38
339.79	429.38
340.018	404.38
340.246	434.38
340.474	422.38
340.702	422.38
340.93	429.38
341.158	418.38
341.386	418.38
341.614	422.38
341.842	416.38
342.07	408.38
342.298	411.38
342.526	398.38
342.754	409.38
342.981	394.38
343.209	417.38
343.437	442.38
343.665	438.38
343.893	441.38
344.12	480.38
344.348	477.38
344.576	466.38
344.804	444.38
345.031	445.38
345.259	409.38
345.487	444.38
345.714	423.38
345.942	424.38
346.17	407.38
346.397	407.38
346.625	399.38
346.853	417.38
347.08	390.38
347.308	406.38
347.535	403.38
347.763	419.38
347.99	413.38
348.218	386.38
348.445	396.38
348.673	402.38
348.9	422.38
349.128	409.38
349.355	398.38
349.583	393.38
349.81	388.38
350.037	384.38
350.265	399.38
350.492	382.38
350.72	388.38
350.947	401.38
351.174	384.38
351.402	410.38
351.629	383.38
351.856	404.38
352.083	406.38
352.311	397.38
352.538	412.38
352.765	413.38
352.992	414.38
353.22	394.38
353.447	398.38
353.674	388.38
353.901	386.38
354.128	374.38
354.355	386.38
354.583	380.38
354.81	388.38
355.037	388.38
355.264	417.38
355.491	397.38
355.718	392.38
355.945	385.38
356.172	376.38
356.399	371.38
356.626	379.38
356.853	363.38
357.08	370.38
357.307	394.38
357.534	380.38
357.761	385.38
357.988	389.38
358.215	389.38
358.441	393.38
358.668	386.38
358.895	386.38
359.122	418.38
359.349	385.38
359.576	394.38
359.802	417.38
360.029	420.38
360.256	421.38
360.483	412.38
360.709	412.38
360.936	402.38
361.163	404.38
361.39	428.38
361.616	415.38
361.843	396.38
362.07	403.38
362.296	404.38
362.523	401.38
362.749	409.38
362.976	402.38
363.203	408.38
363.429	380.38
363.656	419.38
363.882	393.38
364.109	378.38
364.335	380.38
364.562	386.38
364.788	405.38
365.015	388.38
365.241	404.38
365.468	384.38
365.694	411.38
365.92	399.38
366.147	386.38
366.373	382.38
366.599	388.38
366.826	389.38
367.052	392.38
367.278	392.38
367.505	384.38
367.731	386.38
367.957	397.38
368.184	376.38
368.41	388.38
368.636	401.38
368.862	399.38
369.089	412.38
369.315	393.38
369.541	387.38
369.767	400.38
369.993	395.38
370.219	388.38
370.445	390.38
370.672	403.38
370.898	393.38
371.124	392.38
371.35	414.38
371.576	402.38
371.802	396.38
372.028	387.38
372.254	407.38
372.48	405.38
372.706	403.38
372.932	429.38
373.158	397.38
373.384	400.38
373.61	417.38
373.835	419.38
374.061	411.38
374.287	397.38
374.513	406.38
374.739	412.38
374.965	424.38
375.191	410.38
375.416	424.38
375.642	417.38
375.868	414.38
376.094	387.38
376.319	405.38
376.545	385.38
376.771	405.38
376.997	401.38
377.222	394.38
377.448	417.38
377.674	393.38
377.899	420.38
378.125	378.38
378.35	396.38
378.576	397.38
378.802	382.38
379.027	422.38
379.253	387.38
379.478	406.38
379.704	392.38
379.929	407.38
380.155	400.38
380.38	392.38
380.606	407.38
380.831	383.38
381.057	398.38
381.282	409.38
381.507	402.38
381.733	410.38
381.958	411.38
382.184	419.38
382.409	422.38
382.634	433.38
382.86	410.38
383.085	434.38
383.31	440.38
383.535	449.38
383.761	437.38
383.986	438.38
384.211	468.38
384.436	421.38
384.662	434.38
384.887	433.38
385.112	440.38
385.337	450.38
385.562	458.38
385.787	445.38
386.013	460.38
386.238	476.38
386.463	473.38
386.688	461.38
386.913	460.38
387.138	475.38
387.363	444.38
387.588	449.38
387.813	462.38
388.038	453.38
388.263	462.38
388.488	451.38
388.713	444.38
388.938	446.38
389.163	459.38
389.387	475.38
389.612	462.38
389.837	450.38
390.062	440.38
390.287	446.38
390.512	448.38
390.736	444.38
390.961	457.38
391.186	469.38
391.411	469.38
391.636	482.38
391.86	484.38
392.085	485.38
392.31	485.38
392.534	462.38
392.759	480.38
392.984	489.38
393.208	480.38
393.433	482.38
393.658	474.38
393.882	458.38
394.107	462.38
394.331	458.38
394.556	490.38
394.78	472.38
395.005	466.38
395.229	493.38
395.454	480.38
395.678	487.38
395.903	490.38
396.127	524.38
396.352	488.38
396.576	493.38
396.801	466.38
397.025	498.38
397.249	483.38
397.474	478.38
397.698	484.38
397.922	519.38
398.147	512.38
398.371	522.38
398.595	532.38
398.82	554.38
399.044	564.38
399.268	575.38
399.492	634.38
399.717	662.38
399.941	696.38
400.165	673.38
400.389	661.38
400.613	633.38
400.837	565.38
401.062	544.38
401.286	544.38
401.51	542.38
401.734	567.38
401.958	547.38
402.182	545.38
402.406	554.38
402.63	539.38
402.854	562.38
403.078	554.38
403.302	555.38
403.526	577.38
403.75	596.38
403.974	556.38
404.198	586.38
404.422	584.38
404.645	595.38
404.869	566.38
405.093	599.38
405.317	622.38
405.541	650.38
405.765	590.38
405.988	602.38
406.212	601.38
406.436	589.38
406.66	605.38
406.883	591.38
407.107	609.38
407.331	658.38
407.555	707.38
407.778	694.38
408.002	650.38
408.226	649.38
408.449	611.38
408.673	606.38
408.896	643.38
409.12	656.38
409.344	616.38
409.567	602.38
409.791	588.38
410.014	578.38
410.238	570.38
410.461	573.38
410.685	566.38
410.908	549.38
411.132	579.38
411.355	599.38
411.578	600.38
411.802	581.38
412.025	553.38
412.249	558.38
412.472	588.38
412.695	610.38
412.919	596.38
413.142	574.38
413.365	566.38
413.589	555.38
413.812	526.38
414.035	521.38
414.258	508.38
414.482	521.38
414.705	538.38
414.928	528.38
415.151	536.38
415.374	533.38
415.597	532.38
415.821	524.38
416.044	502.38
416.267	524.38
416.49	506.38
416.713	514.38
416.936	521.38
417.159	515.38
417.382	532.38
417.605	512.38
417.828	526.38
418.051	533.38
418.274	530.38
418.497	539.38
418.72	523.38
418.943	512.38
419.166	531.38
419.389	576.38
419.611	573.38
419.834	552.38
420.057	555.38
420.28	539.38
420.503	542.38
420.726	528.38
420.948	558.38
421.171	574.38
421.394	594.38
421.617	560.38
421.839	539.38
422.062	552.38
422.285	568.38
422.507	604.38
422.73	650.38
422.953	601.38
423.175	566.38
423.398	533.38
423.621	563.38
423.843	554.38
424.066	582.38
424.288	561.38
424.511	591.38
424.733	617.38
424.956	644.38
425.178	640.38
425.401	629.38
425.623	633.38
425.846	609.38
426.068	558.38
426.291	558.38
426.513	547.38
426.735	538.38
426.958	577.38
427.18	616.38
427.402	721.38
427.625	797.38
427.847	666.38
428.069	638.38
428.292	574.38
428.514	526.38
428.736	542.38
428.958	501.38
429.181	508.38
429.403	487.38
429.625	492.38
429.847	526.38
430.069	562.38
430.292	585.38
430.514	509.38
430.736	513.38
430.958	516.38
431.18	526.38
431.402	503.38
431.624	486.38
431.846	489.38
432.068	496.38
432.29	493.38
432.512	496.38
432.734	528.38
432.956	500.38
433.178	499.38
433.4	494.38
433.622	516.38
433.844	505.38
434.066	498.38
434.287	503.38
434.509	494.38
434.731	522.38
434.953	529.38
435.175	544.38
435.397	545.38
435.618	547.38
435.84	566.38
436.062	619.38
436.284	661.38
436.505	577.38
436.727	564.38
436.949	534.38
437.17	515.38
437.392	516.38
437.614	527.38
437.835	526.38
438.057	574.38
438.278	669.38
438.5	650.38
438.721	719.38
438.943	704.38
439.165	599.38
439.386	504.38
439.608	542.38
439.829	532.38
440.05	541.38
440.272	590.38
440.493	539.38
440.715	507.38
440.936	526.38
441.158	513.38
441.379	545.38
441.6	535.38
441.822	554.38
442.043	594.38
442.264	625.38
442.486	676.38
442.707	611.38
442.928	571.38
443.149	571.38
443.371	589.38
443.592	608.38
443.813	666.38
444.034	737.38
444.255	636.38
444.476	585.38
444.698	578.38
444.919	610.38
445.14	693.38
445.361	634.38
445.582	587.38
445.803	634.38
446.024	681.38
446.245	681.38
446.466	618.38
446.687	572.38
446.908	549.38
447.129	521.38
447.35	482.38
447.571	502.38
447.792	500.38
448.013	510.38
448.234	493.38
448.455	518.38
448.675	620.38
448.896	723.38
449.117	617.38
449.338	611.38
449.559	655.38
449.779	730.38
450	614.38
450.221	543.38
450.442	493.38
450.662	491.38
450.883	487.38
451.104	490.38
451.324	468.38
451.545	497.38
451.766	473.38
451.986	454.38
452.207	440.38
452.428	447.38
452.648	438.38
452.869	459.38
453.089	478.38
453.31	451.38
453.53	461.38
453.751	464.38
453.971	479.38
454.192	473.38
454.412	437.38
454.633	446.38
454.853	445.38
455.073	436.38
455.294	462.38
455.514	516.38
455.734	486.38
455.955	458.38
456.175	448.38
456.395	445.38
456.616	441.38
456.836	449.38
457.056	420.38
457.276	416.38
457.497	429.38
457.717	434.38
457.937	422.38
458.157	448.38
458.377	446.38
458.598	467.38
458.818	497.38
459.038	521.38
459.258	592.38
459.478	532.38
459.698	510.38
459.918	493.38
460.138	522.38
460.358	520.38
460.578	534.38
460.798	530.38
461.018	534.38
461.238	539.38
461.458	575.38
461.678	542.38
461.898	546.38
462.118	546.38
462.338	571.38
462.558	572.38
462.777	560.38
462.997	588.38
463.217	626.38
463.437	626.38
463.657	605.38
463.876	563.38
464.096	595.38
464.316	581.38
464.536	585.38
464.755	581.38
464.975	563.38
465.195	580.38
465.414	600.38
465.634	544.38
465.854	524.38
466.073	504.38
466.293	497.38
466.512	470.38
466.732	475.38
466.951	494.38
467.171	470.38
467.391	466.38
467.61	483.38
467.829	473.38
468.049	462.38
468.268	475.38
468.488	490.38
468.707	443.38
468.927	466.38
469.146	446.38
469.365	466.38
469.585	469.38
469.804	465.38
470.023	484.38
470.243	481.38
470.462	489.38
470.681	487.38
470.901	500.38
471.12	485.38
471.339	470.38
471.558	469.38
471.777	480.38
471.997	479.38
472.216	483.38
472.435	486.38
472.654	500.38
472.873	483.38
473.092	472.38
473.311	471.38
473.53	471.38
473.749	480.38
473.968	488.38
474.187	539.38
474.406	589.38
474.625	520.38
474.844	491.38
475.063	482.38
475.282	456.38
475.501	464.38
475.72	486.38
475.939	488.38
476.158	483.38
476.377	484.38
476.596	497.38
476.814	480.38
477.033	504.38
477.252	513.38
477.471	512.38
477.69	528.38
477.908	532.38
478.127	537.38
478.346	538.38
478.564	534.38
478.783	536.38
479.002	561.38
479.22	549.38
479.439	557.38
479.658	571.38
479.876	580.38
480.095	568.38
480.313	615.38
480.532	600.38
480.751	585.38
480.969	613.38
481.188	598.38
481.406	602.38
481.624	584.38
481.843	562.38
482.061	572.38
482.28	546.38
482.498	546.38
482.717	555.38
482.935	556.38
483.153	537.38
483.372	539.38
483.59	564.38
483.808	556.38
484.027	568.38
484.245	579.38
484.463	582.38
484.681	557.38
484.9	580.38
485.118	598.38
485.336	568.38
485.554	573.38
485.772	557.38
485.99	579.38
486.209	567.38
486.427	569.38
486.645	577.38
486.863	580.38
487.081	581.38
487.299	606.38
487.517	565.38
487.735	570.38
487.953	591.38
488.171	591.38
488.389	589.38
488.607	578.38
488.825	584.38
489.043	592.38
489.261	570.38
489.479	594.38
489.696	589.38
489.914	581.38
490.132	595.38
490.35	602.38
490.568	595.38
490.786	598.38
491.003	614.38
491.221	632.38
491.439	616.38
491.657	624.38
491.874	642.38
492.092	606.38
492.31	635.38
492.527	638.38
492.745	644.38
492.963	655.38
493.18	642.38
493.398	671.38
493.615	645.38
493.833	669.38
494.05	638.38
494.268	648.38
494.485	652.38
494.703	677.38
494.92	658.38
495.138	677.38
495.355	680.38
495.573	644.38
495.79	654.38
496.008	653.38
496.225	667.38
496.442	678.38
496.66	663.38
496.877	706.38
497.094	698.38
497.312	679.38
497.529	696.38
497.746	728.38
497.963	734.38
498.181	760.38
498.398	768.38
498.615	793.38
498.832	826.38
499.049	853.38
499.267	884.38
499.484	956.38
499.701	993.38
499.918	1035.38
500.135	1140.38
500.352	1197.38
500.569	1200.38
500.786	1235.38
501.003	1210.38
501.22	1126.38
501.437	1067.38
501.654	1022.38
501.871	954.38
502.088	917.38
502.305	872.38
502.522	802.38
502.739	810.38
502.956	771.38
503.172	758.38
503.389	730.38
503.606	744.38
503.823	713.38
504.04	709.38
504.256	713.38
504.473	702.38
504.69	731.38
504.907	710.38
505.123	676.38
505.34	667.38
505.557	658.38
505.773	663.38
505.99	648.38
506.207	640.38
506.423	623.38
506.64	642.38
506.856	627.38
507.073	619.38
507.289	607.38
507.506	609.38
507.722	617.38
507.939	622.38
508.155	624.38
508.372	589.38
508.588	589.38
508.805	587.38
509.021	604.38
509.238	592.38
509.454	591.38
509.67	580.38
509.887	586.38
510.103	596.38
510.319	578.38
510.536	635.38
510.752	884.38
510.968	725.38
511.184	580.38
511.401	566.38
511.617	575.38
511.833	565.38
512.049	556.38
512.265	555.38
512.481	562.38
512.698	538.38
512.914	544.38
513.13	565.38
513.346	553.38
513.562	578.38
513.778	548.38
513.994	570.38
514.21	540.38
514.426	570.38
514.642	583.38
514.858	594.38
515.074	618.38
515.29	662.38
515.506	862.38
515.721	743.38
515.937	619.38
516.153	602.38
516.369	609.38
516.585	615.38
516.801	617.38
517.016	632.38
517.232	589.38
517.448	639.38
517.664	663.38
517.879	628.38
518.095	634.38
518.311	618.38
518.527	624.38
518.742	634.38
518.958	620.38
519.173	576.38
519.389	580.38
519.605	581.38
519.82	565.38
520.036	594.38
520.251	564.38
520.467	572.38
520.682	578.38
520.898	578.38
521.113	561.38
521.329	595.38
521.544	610.38
521.76	726.38
521.975	957.38
522.19	962.38
522.406	644.38
522.621	566.38
522.836	562.38
523.052	530.38
523.267	532.38
523.482	506.38
523.698	514.38
523.913	518.38
524.128	529.38
524.343	531.38
524.559	521.38
524.774	484.38
524.989	482.38
525.204	496.38
525.419	488.38
525.634	516.38
525.849	493.38
526.064	489.38
526.28	500.38
526.495	487.38
526.71	501.38
526.925	499.38
527.14	503.38
527.355	469.38
527.57	476.38
527.785	494.38
527.999	476.38
528.214	478.38
528.429	460.38
528.644	473.38
528.859	472.38
529.074	445.38
529.289	496.38
529.503	521.38
529.718	523.38
529.933	502.38
530.148	477.38
530.363	474.38
530.577	448.38
530.792	489.38
531.007	456.38
531.221	497.38
531.436	466.38
531.651	455.38
531.865	454.38
532.08	455.38
532.295	464.38
532.509	466.38
532.724	444.38
532.938	475.38
533.153	465.38
533.367	479.38
533.582	449.38
533.796	479.38
534.011	451.38
534.225	439.38
534.44	446.38
534.654	468.38
534.868	461.38
535.083	469.38
535.297	452.38
535.511	461.38
535.726	448.38
535.94	449.38
536.154	473.38
536.369	450.38
536.583	453.38
536.797	447.38
537.011	457.38
537.225	441.38
537.44	436.38
537.654	441.38
537.868	432.38
538.082	440.38
538.296	423.38
538.51	433.38
538.724	457.38
538.938	450.38
539.153	455.38
539.367	442.38
539.581	434.38
539.795	436.38
540.009	444.38
540.222	462.38
540.436	432.38
540.65	429.38
540.864	452.38
541.078	449.38
541.292	448.38
541.506	452.38
541.72	417.38
541.934	408.38
542.147	443.38
542.361	436.38
542.575	449.38
542.789	435.38
543.002	439.38
543.216	439.38
543.43	457.38
543.644	420.38
543.857	441.38
544.071	437.38
544.285	435.38
544.498	448.38
544.712	453.38
544.925	453.38
545.139	444.38
545.352	440.38
545.566	451.38
545.779	432.38
545.993	456.38
546.206	430.38
546.42	444.38
546.633	452.38
546.847	437.38
547.06	458.38
547.274	430.38
547.487	436.38
547.7	436.38
547.914	437.38
548.127	434.38
548.34	428.38
548.554	434.38
548.767	443.38
548.98	441.38
549.193	471.38
549.407	449.38
549.62	436.38
549.833	437.38
550.046	454.38
550.259	439.38
550.473	426.38
550.686	436.38
550.899	459.38
551.112	442.38
551.325	462.38
551.538	448.38
551.751	450.38
551.964	465.38
552.177	448.38
552.39	440.38
552.603	436.38
552.816	429.38
553.029	425.38
553.242	472.38
553.455	458.38
553.667	473.38
553.88	468.38
554.093	448.38
554.306	450.38
554.519	443.38
554.732	436.38
554.944	438.38
555.157	428.38
555.37	418.38
555.583	419.38
555.795	405.38
556.008	408.38
556.221	418.38
556.433	412.38
556.646	412.38
556.859	397.38
557.071	386.38
557.284	386.38
557.496	385.38
557.709	397.38
557.921	397.38
558.134	372.38
558.346	385.38
558.559	397.38
558.771	394.38
558.984	408.38
559.196	367.38
559.409	382.38
559.621	388.38
559.833	391.38
560.046	391.38
560.258	391.38
560.47	371.38
560.683	383.38
560.895	382.38
561.107	397.38
561.32	388.38
561.532	392.38
561.744	385.38
561.956	381.38
562.168	380.38
562.381	380.38
562.593	396.38
562.805	402.38
563.017	394.38
563.229	374.38
563.441	393.38
563.653	410.38
563.865	402.38
564.077	407.38
564.289	415.38
564.501	409.38
564.713	416.38
564.925	413.38
565.137	421.38
565.349	450.38
565.561	424.38
565.773	462.38
565.985	473.38
566.197	470.38
566.408	498.38
566.62	524.38
566.832	508.38
567.044	556.38
567.255	569.38
567.467	537.38
567.679	567.38
567.891	577.38
568.102	609.38
568.314	582.38
568.526	546.38
568.737	516.38
568.949	515.38
569.161	457.38
569.372	460.38
569.584	446.38
569.795	417.38
570.007	446.38
570.218	449.38
570.43	420.38
570.641	407.38
570.853	424.38
571.064	415.38
571.276	388.38
571.487	396.38
571.698	390.38
571.91	380.38
572.121	363.38
572.333	368.38
572.544	372.38
572.755	366.38
572.966	371.38
573.178	348.38
573.389	349.38
573.6	361.38
573.811	364.38
574.023	336.38
574.234	356.38
574.445	344.38
574.656	347.38
574.867	347.38
575.078	328.38
575.289	338.38
575.501	348.38
575.712	343.38
575.923	332.38
576.134	329.38
576.345	324.38
576.556	337.38
576.767	331.38
576.978	324.38
577.188	331.38
577.399	337.38
577.61	314.38
577.821	311.38
578.032	326.38
578.243	328.38
578.454	445.38
578.665	365.38
578.875	343.38
579.086	331.38
579.297	297.38
579.508	328.38
579.718	301.38
579.929	308.38
580.14	308.38
580.35	291.38
580.561	314.38
580.772	310.38
580.982	315.38
581.193	309.38
581.403	319.38
581.614	315.38
581.825	316.38
582.035	317.38
582.246	312.38
582.456	296.38
582.667	306.38
582.877	298.38
583.087	305.38
583.298	306.38
583.508	300.38
583.719	289.38
583.929	306.38
584.139	289.38
584.35	284.38
584.56	292.38
584.77	306.38
584.981	307.38
585.191	306.38
585.401	301.38
585.611	301.38
585.821	299.38
586.032	288.38
586.242	297.38
586.452	300.38
586.662	307.38
586.872	285.38
587.082	300.38
587.292	308.38
587.502	304.38
587.713	301.38
587.923	297.38
588.133	304.38
588.343	304.38
588.553	302.38
588.762	296.38
588.972	312.38
589.182	348.38
589.392	336.38
589.602	296.38
589.812	341.38
590.022	329.38
590.232	297.38
590.441	306.38
590.651	315.38
590.861	313.38
591.071	293.38
591.281	304.38
591.49	291.38
591.7	312.38
591.91	314.38
592.119	324.38
592.329	335.38
592.539	329.38
592.748	335.38
592.958	336.38
593.167	354.38
593.377	340.38
593.587	343.38
593.796	360.38
594.006	352.38
594.215	345.38
594.424	347.38
594.634	342.38
594.843	346.38
595.053	333.38
595.262	324.38
595.472	324.38
595.681	309.38
595.89	312.38
596.1	294.38
596.309	312.38
596.518	308.38
596.727	285.38
596.937	293.38
597.146	284.38
597.355	287.38
597.564	276.38
597.774	269.38
597.983	278.38
598.192	276.38
598.401	273.38
598.61	264.38
598.819	274.38
599.028	286.38
599.237	266.38
599.446	274.38
599.655	267.38
599.864	264.38
600.073	279.38
600.282	271.38
600.491	272.38
600.7	241.38
600.909	250.38
601.118	278.38
601.327	248.38
601.536	268.38
601.745	258.38
601.953	251.38
602.162	264.38
602.371	258.38
602.58	263.38
602.789	256.38
602.997	243.38
603.206	249.38
603.415	258.38
603.623	264.38
603.832	240.38
604.041	248.38
604.249	249.38
604.458	248.38
604.666	255.38
604.875	246.38
605.084	232.38
605.292	246.38
605.501	242.38
605.709	256.38
605.918	230.38
606.126	254.38
606.334	230.38
606.543	257.38
606.751	250.38
606.96	243.38
607.168	256.38
607.376	235.38
607.585	245.38
607.793	249.38
608.001	235.38
608.21	244.38
608.418	241.38
608.626	255.38
608.834	235.38
609.043	227.38
609.251	245.38
609.459	242.38
609.667	228.38
609.875	239.38
610.083	236.38
610.291	225.38
610.499	233.38
610.707	235.38
610.916	250.38
611.124	227.38
611.332	229.38
611.54	250.38
611.748	244.38
611.955	243.38
612.163	231.38
612.371	242.38
612.579	219.38
612.787	240.38
612.995	244.38
613.203	239.38
613.411	228.38
613.618	241.38
613.826	243.38
614.034	237.38
614.242	227.38
614.449	229.38
614.657	246.38
614.865	231.38
615.072	224.38
615.28	226.38
615.488	230.38
615.695	248.38
615.903	244.38
616.111	226.38
616.318	228.38
616.526	243.38
616.733	253.38
616.941	249.38
617.148	241.38
617.356	225.38
617.563	229.38
617.771	235.38
617.978	219.38
618.185	226.38
618.393	213.38
618.6	217.38
618.807	216.38
619.015	231.38
619.222	233.38
619.429	235.38
619.637	214.38
619.844	224.38
620.051	240.38
620.258	227.38
620.466	213.38
620.673	220.38
620.88	225.38
621.087	210.38
621.294	225.38
621.501	217.38
621.708	220.38
621.915	237.38
622.122	219.38
622.329	210.38
622.536	215.38
622.743	218.38
622.95	225.38
623.157	212.38
623.364	212.38
623.571	216.38
623.778	204.38
623.985	204.38
624.192	205.38
624.399	216.38
624.606	198.38
624.812	225.38
625.019	210.38
625.226	204.38
625.433	216.38
625.639	201.38
625.846	214.38
626.053	212.38
626.259	204.38
626.466	220.38
626.673	196.38
626.879	202.38
627.086	225.38
627.293	203.38
627.499	200.38
627.706	198.38
627.912	210.38
628.119	195.38
628.325	210.38
628.532	200.38
628.738	187.38
628.945	181.38
629.151	196.38
629.357	200.38
629.564	208.38
629.77	202.38
629.976	188.38
630.183	191.38
630.389	192.38
630.595	198.38
630.802	194.38
631.008	201.38
631.214	213.38
631.42	182.38
631.627	200.38
631.833	198.38
632.039	194.38
632.245	188.38
632.451	191.38
632.657	162.38
632.863	182.38
633.069	203.38
633.275	192.38
633.481	189.38
633.688	205.38
633.893	189.38
634.099	197.38
634.305	182.38
634.511	187.38
634.717	184.38
634.923	180.38
635.129	195.38
635.335	181.38
635.541	182.38
635.747	196.38
635.952	186.38
636.158	175.38
636.364	169.38
636.57	172.38
636.775	184.38
636.981	175.38
637.187	185.38
637.392	183.38
637.598	190.38
637.804	191.38
638.009	185.38
638.215	166.38
638.421	164.38
638.626	178.38
638.832	176.38
639.037	166.38
639.243	166.38
639.448	170.38
639.654	170.38
639.859	168.38
640.065	178.38
640.27	186.38
640.475	170.38
640.681	164.38
640.886	170.38
641.091	171.38
641.297	166.38
641.502	180.38
641.707	173.38
641.913	177.38
642.118	167.38
642.323	185.38
642.528	167.38
642.733	172.38
642.939	168.38
643.144	175.38
643.349	169.38
643.554	176.38
643.759	161.38
643.964	174.38
644.169	160.38
644.374	161.38
644.579	165.38
644.784	154.38
644.989	174.38
645.194	169.38
645.399	163.38
645.604	143.38
645.809	161.38
646.014	172.38
646.219	150.38
646.423	164.38
646.628	164.38
646.833	162.38
647.038	161.38
647.243	162.38
647.447	146.38
647.652	161.38
647.857	172.38
648.062	164.38
648.266	165.38
648.471	182.38
648.676	177.38
648.88	176.38
649.085	171.38
649.289	177.38
649.494	168.38
649.698	192.38
649.903	187.38
650.107	181.38
650.312	165.38
650.516	154.38
650.721	152.38
650.925	154.38
651.13	161.38
651.334	151.38
651.539	165.38
651.743	170.38
651.947	149.38
652.152	148.38
652.356	155.38
652.56	141.38
652.764	127.38
652.969	152.38
653.173	125.38
653.377	150.38
653.581	146.38
653.785	148.38
653.99	138.38
654.194	143.38
654.398	153.38
654.602	149.38
654.806	135.38
655.01	130.38
655.214	144.38
655.418	146.38
655.622	142.38
655.826	151.38
656.03	134.38
656.234	138.38
656.438	160.38
656.642	156.38
656.846	161.38
657.049	152.38
657.253	124.38
657.457	124.38
657.661	128.38
657.865	123.38
658.068	109.38
658.272	103.38
658.476	102.38
658.68	109.38
658.883	103.38
659.087	101.38
659.291	99.38
659.494	107.38
659.698	103.38
659.901	107.38
660.105	102.38
660.309	101.38
660.512	104.38
660.716	110.38
660.919	100.38
661.123	102.38
661.326	81.38
661.53	100.38
661.733	84.38
661.936	85.38
662.14	98.38
662.343	96.38
662.546	86.38
662.75	87.38
662.953	82.38
663.156	82.38
663.36	80.38
663.563	87.38
663.766	76.38
663.969	82.38
664.173	98.38
664.376	78.38
664.579	88.38
664.782	85.38
664.985	76.38
665.188	82.38
665.391	58.38
665.594	80.38
665.797	69.38
666	89.38
666.203	77.38
666.406	81.38
666.609	84.38
666.812	69.38
667.015	83.38
667.218	83.38
667.421	73.38
667.624	60.38
667.827	77.38
668.03	78.38
668.232	81.38
668.435	84.38
668.638	80.38
668.841	93.38
669.043	72.38
669.246	82.38
669.449	81.38
669.651	89.38
669.854	87.38
670.057	86.38
670.259	77.38
670.462	75.38
670.665	86.38
670.867	78.38
671.07	86.38
671.272	78.38
671.475	76.38
671.677	88.38
671.88	95.38
672.082	88.38
672.284	96.38
672.487	77.38
672.689	88.38
672.892	74.38
