Data from 1962.PennyLincolnUp.Lamp.En5.5.200Scan.071719.P1._HRD10591_13-53-46-060.txt Node
Date: Thu Jul 18 13:53:46 EDT 2019
User: cochatt
Spectrometer: HR+D1059
Trigger mode: 1
Integration Time (sec): 1.000000E-1
Scans to average: 1
Electric dark correction enabled: true
Nonlinearity correction enabled: false
Boxcar width: 0
XAxis mode: Wavelengths
Number of Pixels in Spectrum: 2048
>>>>>Begin Spectral Data<<<<<
223.165	-19.31
223.4	-19.31
223.635	-19.31
223.869	-19.31
224.104	-12.31
224.338	-21.31
224.573	-25.31
224.808	1.69
225.042	11.69
225.277	-19.31
225.511	-10.31
225.746	7.69
225.98	9.69
226.215	6.69
226.449	9.69
226.683	28.69
226.918	28.69
227.152	22.69
227.387	32.69
227.621	33.69
227.856	43.69
228.09	50.69
228.324	51.69
228.559	55.69
228.793	78.69
229.027	94.69
229.262	106.69
229.496	100.69
229.73	110.69
229.964	123.69
230.199	120.69
230.433	113.69
230.667	114.69
230.901	113.69
231.136	103.69
231.37	94.69
231.604	110.69
231.838	121.69
232.072	108.69
232.306	122.69
232.541	119.69
232.775	120.69
233.009	92.69
233.243	107.69
233.477	96.69
233.711	104.69
233.945	115.69
234.179	123.69
234.413	115.69
234.647	113.69
234.881	110.69
235.115	111.69
235.349	105.69
235.583	117.69
235.817	111.69
236.051	122.69
236.285	126.69
236.519	115.69
236.753	119.69
236.987	133.69
237.221	150.69
237.455	193.69
237.689	142.69
237.922	127.69
238.156	125.69
238.39	114.69
238.624	116.69
238.858	118.69
239.091	126.69
239.325	103.69
239.559	125.69
239.793	123.69
240.027	130.69
240.26	130.69
240.494	143.69
240.728	125.69
240.961	136.69
241.195	116.69
241.429	133.69
241.662	125.69
241.896	125.69
242.13	128.69
242.363	134.69
242.597	123.69
242.83	136.69
243.064	147.69
243.298	139.69
243.531	134.69
243.765	132.69
243.998	139.69
244.232	158.69
244.465	147.69
244.699	142.69
244.932	118.69
245.166	143.69
245.399	143.69
245.633	144.69
245.866	137.69
246.099	147.69
246.333	137.69
246.566	151.69
246.8	159.69
247.033	142.69
247.266	133.69
247.5	139.69
247.733	154.69
247.966	135.69
248.2	155.69
248.433	159.69
248.666	150.69
248.899	161.69
249.133	162.69
249.366	194.69
249.599	189.69
249.832	170.69
250.066	165.69
250.299	162.69
250.532	169.69
250.765	179.69
250.998	193.69
251.231	197.69
251.465	186.69
251.698	171.69
251.931	178.69
252.164	179.69
252.397	185.69
252.63	179.69
252.863	175.69
253.096	197.69
253.329	201.69
253.562	205.69
253.795	170.69
254.028	189.69
254.261	192.69
254.494	196.69
254.727	207.69
254.96	239.69
255.193	225.69
255.426	208.69
255.659	200.69
255.892	209.69
256.124	218.69
256.357	196.69
256.59	205.69
256.823	195.69
257.056	190.69
257.289	189.69
257.521	190.69
257.754	200.69
257.987	189.69
258.22	195.69
258.452	177.69
258.685	199.69
258.918	186.69
259.151	210.69
259.383	206.69
259.616	208.69
259.849	219.69
260.081	221.69
260.314	222.69
260.547	232.69
260.779	200.69
261.012	215.69
261.244	193.69
261.477	228.69
261.71	212.69
261.942	210.69
262.175	212.69
262.407	194.69
262.64	210.69
262.872	203.69
263.105	205.69
263.337	193.69
263.57	212.69
263.802	223.69
264.035	191.69
264.267	207.69
264.499	213.69
264.732	207.69
264.964	226.69
265.197	204.69
265.429	207.69
265.661	211.69
265.894	196.69
266.126	189.69
266.358	188.69
266.591	203.69
266.823	213.69
267.055	223.69
267.287	238.69
267.52	229.69
267.752	208.69
267.984	208.69
268.216	234.69
268.448	216.69
268.681	241.69
268.913	233.69
269.145	246.69
269.377	252.69
269.609	251.69
269.841	252.69
270.073	253.69
270.306	271.69
270.538	271.69
270.77	278.69
271.002	255.69
271.234	271.69
271.466	245.69
271.698	242.69
271.93	270.69
272.162	282.69
272.394	263.69
272.626	311.69
272.858	263.69
273.09	256.69
273.322	271.69
273.553	266.69
273.785	251.69
274.017	255.69
274.249	248.69
274.481	250.69
274.713	261.69
274.945	246.69
275.176	271.69
275.408	258.69
275.64	255.69
275.872	275.69
276.104	261.69
276.335	257.69
276.567	270.69
276.799	279.69
277.031	270.69
277.262	277.69
277.494	298.69
277.726	280.69
277.957	279.69
278.189	271.69
278.421	261.69
278.652	238.69
278.884	270.69
279.115	254.69
279.347	261.69
279.579	244.69
279.81	259.69
280.042	274.69
280.273	279.69
280.505	281.69
280.736	269.69
280.968	266.69
281.199	279.69
281.431	265.69
281.662	279.69
281.894	246.69
282.125	273.69
282.356	289.69
282.588	285.69
282.819	291.69
283.051	278.69
283.282	279.69
283.513	267.69
283.745	284.69
283.976	284.69
284.207	270.69
284.439	285.69
284.67	283.69
284.901	286.69
285.132	282.69
285.364	287.69
285.595	286.69
285.826	287.69
286.057	285.69
286.288	282.69
286.52	286.69
286.751	292.69
286.982	293.69
287.213	301.69
287.444	291.69
287.675	298.69
287.906	309.69
288.138	318.69
288.369	309.69
288.6	298.69
288.831	307.69
289.062	299.69
289.293	302.69
289.524	291.69
289.755	320.69
289.986	297.69
290.217	295.69
290.448	285.69
290.679	301.69
290.91	290.69
291.141	303.69
291.371	299.69
291.602	291.69
291.833	305.69
292.064	296.69
292.295	310.69
292.526	297.69
292.757	297.69
292.987	282.69
293.218	294.69
293.449	296.69
293.68	316.69
293.91	291.69
294.141	309.69
294.372	315.69
294.603	300.69
294.833	300.69
295.064	299.69
295.295	293.69
295.525	287.69
295.756	289.69
295.987	287.69
296.217	309.69
296.448	322.69
296.679	307.69
296.909	288.69
297.14	299.69
297.37	319.69
297.601	309.69
297.831	303.69
298.062	280.69
298.292	314.69
298.523	319.69
298.753	312.69
298.984	298.69
299.214	307.69
299.445	331.69
299.675	317.69
299.905	316.69
300.136	310.69
300.366	335.69
300.597	328.69
300.827	321.69
301.057	326.69
301.288	326.69
301.518	344.69
301.748	325.69
301.979	328.69
302.209	329.69
302.439	335.69
302.669	327.69
302.9	340.69
303.13	345.69
303.36	334.69
303.59	326.69
303.82	330.69
304.051	346.69
304.281	341.69
304.511	331.69
304.741	332.69
304.971	327.69
305.201	331.69
305.431	335.69
305.661	345.69
305.891	330.69
306.121	341.69
306.352	333.69
306.582	346.69
306.812	335.69
307.042	347.69
307.272	337.69
307.502	325.69
307.731	329.69
307.961	325.69
308.191	336.69
308.421	337.69
308.651	359.69
308.881	352.69
309.111	349.69
309.341	351.69
309.571	324.69
309.8	354.69
310.03	349.69
310.26	341.69
310.49	357.69
310.72	358.69
310.949	362.69
311.179	366.69
311.409	337.69
311.639	345.69
311.868	360.69
312.098	366.69
312.328	363.69
312.557	383.69
312.787	371.69
313.017	376.69
313.246	358.69
313.476	353.69
313.706	356.69
313.935	356.69
314.165	393.69
314.394	381.69
314.624	363.69
314.853	377.69
315.083	395.69
315.312	379.69
315.542	363.69
315.771	359.69
316.001	360.69
316.23	366.69
316.46	359.69
316.689	356.69
316.919	371.69
317.148	380.69
317.377	389.69
317.607	367.69
317.836	351.69
318.065	361.69
318.295	363.69
318.524	362.69
318.753	372.69
318.983	381.69
319.212	363.69
319.441	366.69
319.67	381.69
319.9	375.69
320.129	388.69
320.358	384.69
320.587	379.69
320.816	373.69
321.046	377.69
321.275	386.69
321.504	389.69
321.733	385.69
321.962	389.69
322.191	399.69
322.42	380.69
322.649	391.69
322.878	421.69
323.108	409.69
323.337	418.69
323.566	439.69
323.795	428.69
324.024	460.69
324.253	531.69
324.482	681.69
324.71	963.69
324.939	1293.69
325.168	1145.69
325.397	666.69
325.626	490.69
325.855	453.69
326.084	447.69
326.313	446.69
326.542	441.69
326.77	462.69
326.999	500.69
327.228	611.69
327.457	869.69
327.686	1049.69
327.914	737.69
328.143	569.69
328.372	521.69
328.6	464.69
328.829	436.69
329.058	480.69
329.287	486.69
329.515	472.69
329.744	430.69
329.972	439.69
330.201	445.69
330.43	474.69
330.658	490.69
330.887	492.69
331.115	505.69
331.344	483.69
331.572	452.69
331.801	439.69
332.03	453.69
332.258	444.69
332.486	439.69
332.715	459.69
332.943	461.69
333.172	460.69
333.4	478.69
333.629	475.69
333.857	484.69
334.085	497.69
334.314	496.69
334.542	523.69
334.771	489.69
334.999	480.69
335.227	469.69
335.455	474.69
335.684	463.69
335.912	470.69
336.14	469.69
336.369	444.69
336.597	488.69
336.825	439.69
337.053	450.69
337.281	440.69
337.51	441.69
337.738	466.69
337.966	439.69
338.194	451.69
338.422	437.69
338.65	424.69
338.878	445.69
339.106	405.69
339.334	428.69
339.562	437.69
339.79	405.69
340.018	435.69
340.246	424.69
340.474	410.69
340.702	418.69
340.93	410.69
341.158	406.69
341.386	426.69
341.614	422.69
341.842	436.69
342.07	421.69
342.298	415.69
342.526	417.69
342.754	414.69
342.981	412.69
343.209	429.69
343.437	421.69
343.665	438.69
343.893	458.69
344.12	456.69
344.348	460.69
344.576	473.69
344.804	442.69
345.031	446.69
345.259	432.69
345.487	426.69
345.714	403.69
345.942	414.69
346.17	406.69
346.397	415.69
346.625	385.69
346.853	404.69
347.08	399.69
347.308	411.69
347.535	402.69
347.763	397.69
347.99	423.69
348.218	428.69
348.445	403.69
348.673	414.69
348.9	395.69
349.128	409.69
349.355	381.69
349.583	393.69
349.81	391.69
350.037	403.69
350.265	393.69
350.492	387.69
350.72	399.69
350.947	398.69
351.174	390.69
351.402	391.69
351.629	398.69
351.856	399.69
352.083	398.69
352.311	412.69
352.538	394.69
352.765	403.69
352.992	418.69
353.22	409.69
353.447	403.69
353.674	389.69
353.901	396.69
354.128	395.69
354.355	403.69
354.583	399.69
354.81	386.69
355.037	403.69
355.264	371.69
355.491	385.69
355.718	397.69
355.945	358.69
356.172	395.69
356.399	397.69
356.626	382.69
356.853	390.69
357.08	393.69
357.307	394.69
357.534	383.69
357.761	372.69
357.988	371.69
358.215	401.69
358.441	399.69
358.668	379.69
358.895	390.69
359.122	392.69
359.349	382.69
359.576	397.69
359.802	407.69
360.029	422.69
360.256	413.69
360.483	409.69
360.709	403.69
360.936	397.69
361.163	404.69
361.39	396.69
361.616	375.69
361.843	393.69
362.07	403.69
362.296	398.69
362.523	396.69
362.749	407.69
362.976	400.69
363.203	421.69
363.429	402.69
363.656	391.69
363.882	381.69
364.109	386.69
364.335	381.69
364.562	395.69
364.788	387.69
365.015	387.69
365.241	403.69
365.468	379.69
365.694	383.69
365.92	388.69
366.147	391.69
366.373	397.69
366.599	387.69
366.826	394.69
367.052	393.69
367.278	383.69
367.505	378.69
367.731	411.69
367.957	382.69
368.184	397.69
368.41	389.69
368.636	395.69
368.862	395.69
369.089	389.69
369.315	396.69
369.541	386.69
369.767	397.69
369.993	382.69
370.219	395.69
370.445	387.69
370.672	403.69
370.898	399.69
371.124	422.69
371.35	407.69
371.576	393.69
371.802	407.69
372.028	403.69
372.254	406.69
372.48	416.69
372.706	409.69
372.932	409.69
373.158	403.69
373.384	408.69
373.61	420.69
373.835	421.69
374.061	392.69
374.287	404.69
374.513	405.69
374.739	421.69
374.965	419.69
375.191	437.69
375.416	445.69
375.642	429.69
375.868	429.69
376.094	403.69
376.319	422.69
376.545	425.69
376.771	393.69
376.997	386.69
377.222	381.69
377.448	397.69
377.674	405.69
377.899	409.69
378.125	393.69
378.35	371.69
378.576	391.69
378.802	396.69
379.027	409.69
379.253	408.69
379.478	419.69
379.704	405.69
379.929	409.69
380.155	400.69
380.38	405.69
380.606	395.69
380.831	378.69
381.057	411.69
381.282	403.69
381.507	401.69
381.733	415.69
381.958	361.69
382.184	389.69
382.409	407.69
382.634	431.69
382.86	413.69
383.085	420.69
383.31	420.69
383.535	439.69
383.761	419.69
383.986	445.69
384.211	437.69
384.436	434.69
384.662	450.69
384.887	445.69
385.112	449.69
385.337	441.69
385.562	437.69
385.787	461.69
386.013	458.69
386.238	469.69
386.463	465.69
386.688	451.69
386.913	460.69
387.138	451.69
387.363	462.69
387.588	453.69
387.813	479.69
388.038	446.69
388.263	460.69
388.488	438.69
388.713	469.69
388.938	466.69
389.163	456.69
389.387	448.69
389.612	482.69
389.837	431.69
390.062	435.69
390.287	454.69
390.512	460.69
390.736	480.69
390.961	451.69
391.186	475.69
391.411	462.69
391.636	461.69
391.86	484.69
392.085	502.69
392.31	495.69
392.534	471.69
392.759	471.69
392.984	465.69
393.208	467.69
393.433	459.69
393.658	463.69
393.882	493.69
394.107	461.69
394.331	474.69
394.556	462.69
394.78	476.69
395.005	468.69
395.229	477.69
395.454	497.69
395.678	486.69
395.903	505.69
396.127	488.69
396.352	521.69
396.576	487.69
396.801	496.69
397.025	513.69
397.249	483.69
397.474	479.69
397.698	507.69
397.922	525.69
398.147	519.69
398.371	530.69
398.595	541.69
398.82	537.69
399.044	562.69
399.268	605.69
399.492	654.69
399.717	695.69
399.941	693.69
400.165	667.69
400.389	641.69
400.613	600.69
400.837	579.69
401.062	555.69
401.286	550.69
401.51	572.69
401.734	537.69
401.958	559.69
402.182	562.69
402.406	550.69
402.63	546.69
402.854	554.69
403.078	553.69
403.302	568.69
403.526	585.69
403.75	569.69
403.974	570.69
404.198	583.69
404.422	575.69
404.645	567.69
404.869	576.69
405.093	591.69
405.317	637.69
405.541	644.69
405.765	589.69
405.988	581.69
406.212	576.69
406.436	606.69
406.66	588.69
406.883	602.69
407.107	629.69
407.331	676.69
407.555	711.69
407.778	699.69
408.002	649.69
408.226	622.69
408.449	598.69
408.673	619.69
408.896	593.69
409.12	656.69
409.344	615.69
409.567	560.69
409.791	575.69
410.014	559.69
410.238	565.69
410.461	585.69
410.685	585.69
410.908	577.69
411.132	602.69
411.355	625.69
411.578	614.69
411.802	580.69
412.025	549.69
412.249	554.69
412.472	561.69
412.695	601.69
412.919	602.69
413.142	549.69
413.365	543.69
413.589	565.69
413.812	527.69
414.035	543.69
414.258	528.69
414.482	541.69
414.705	536.69
414.928	547.69
415.151	535.69
415.374	534.69
415.597	528.69
415.821	533.69
416.044	538.69
416.267	525.69
416.49	513.69
416.713	523.69
416.936	523.69
417.159	516.69
417.382	524.69
417.605	535.69
417.828	509.69
418.051	547.69
418.274	549.69
418.497	534.69
418.72	530.69
418.943	528.69
419.166	546.69
419.389	576.69
419.611	558.69
419.834	577.69
420.057	563.69
420.28	522.69
420.503	546.69
420.726	531.69
420.948	563.69
421.171	562.69
421.394	588.69
421.617	535.69
421.839	533.69
422.062	523.69
422.285	563.69
422.507	614.69
422.73	646.69
422.953	616.69
423.175	558.69
423.398	554.69
423.621	550.69
423.843	572.69
424.066	579.69
424.288	581.69
424.511	587.69
424.733	606.69
424.956	671.69
425.178	621.69
425.401	646.69
425.623	651.69
425.846	576.69
426.068	563.69
426.291	565.69
426.513	557.69
426.735	558.69
426.958	587.69
427.18	628.69
427.402	748.69
427.625	767.69
427.847	683.69
428.069	608.69
428.292	564.69
428.514	542.69
428.736	539.69
428.958	518.69
429.181	507.69
429.403	495.69
429.625	514.69
429.847	533.69
430.069	589.69
430.292	568.69
430.514	518.69
430.736	531.69
430.958	521.69
431.18	507.69
431.402	496.69
431.624	503.69
431.846	503.69
432.068	517.69
432.29	500.69
432.512	499.69
432.734	503.69
432.956	493.69
433.178	510.69
433.4	501.69
433.622	513.69
433.844	527.69
434.066	525.69
434.287	495.69
434.509	516.69
434.731	534.69
434.953	535.69
435.175	536.69
435.397	573.69
435.618	572.69
435.84	583.69
436.062	633.69
436.284	686.69
436.505	597.69
436.727	525.69
436.949	514.69
437.17	542.69
437.392	505.69
437.614	515.69
437.835	533.69
438.057	577.69
438.278	655.69
438.5	665.69
438.721	709.69
438.943	701.69
439.165	587.69
439.386	543.69
439.608	534.69
439.829	525.69
440.05	559.69
440.272	582.69
440.493	547.69
440.715	524.69
440.936	528.69
441.158	524.69
441.379	526.69
441.6	551.69
441.822	568.69
442.043	591.69
442.264	643.69
442.486	650.69
442.707	586.69
442.928	581.69
443.149	575.69
443.371	566.69
443.592	610.69
443.813	689.69
444.034	726.69
444.255	641.69
444.476	572.69
444.698	591.69
444.919	595.69
445.14	733.69
445.361	637.69
445.582	612.69
445.803	649.69
446.024	664.69
446.245	642.69
446.466	619.69
446.687	577.69
446.908	541.69
447.129	513.69
447.35	519.69
447.571	495.69
447.792	511.69
448.013	493.69
448.234	503.69
448.455	531.69
448.675	615.69
448.896	704.69
449.117	585.69
449.338	568.69
449.559	658.69
449.779	750.69
450	600.69
450.221	531.69
450.442	502.69
450.662	475.69
450.883	490.69
451.104	474.69
451.324	494.69
451.545	473.69
451.766	458.69
451.986	443.69
452.207	459.69
452.428	460.69
452.648	479.69
452.869	478.69
453.089	466.69
453.31	472.69
453.53	437.69
453.751	455.69
453.971	458.69
454.192	447.69
454.412	459.69
454.633	475.69
454.853	446.69
455.073	450.69
455.294	465.69
455.514	509.69
455.734	523.69
455.955	447.69
456.175	476.69
456.395	440.69
456.616	439.69
456.836	435.69
457.056	446.69
457.276	442.69
457.497	452.69
457.717	443.69
457.937	451.69
458.157	453.69
458.377	451.69
458.598	493.69
458.818	513.69
459.038	535.69
459.258	555.69
459.478	533.69
459.698	507.69
459.918	523.69
460.138	504.69
460.358	548.69
460.578	549.69
460.798	545.69
461.018	545.69
461.238	542.69
461.458	527.69
461.678	520.69
461.898	564.69
462.118	548.69
462.338	524.69
462.558	562.69
462.777	598.69
462.997	609.69
463.217	626.69
463.437	630.69
463.657	616.69
463.876	578.69
464.096	579.69
464.316	590.69
464.536	599.69
464.755	602.69
464.975	577.69
465.195	573.69
465.414	594.69
465.634	542.69
465.854	540.69
466.073	501.69
466.293	506.69
466.512	488.69
466.732	493.69
466.951	485.69
467.171	469.69
467.391	483.69
467.61	508.69
467.829	486.69
468.049	463.69
468.268	460.69
468.488	471.69
468.707	468.69
468.927	472.69
469.146	483.69
469.365	474.69
469.585	455.69
469.804	463.69
470.023	498.69
470.243	499.69
470.462	500.69
470.681	518.69
470.901	494.69
471.12	486.69
471.339	487.69
471.558	469.69
471.777	473.69
471.997	488.69
472.216	486.69
472.435	498.69
472.654	486.69
472.873	464.69
473.092	455.69
473.311	461.69
473.53	467.69
473.749	485.69
473.968	498.69
474.187	551.69
474.406	566.69
474.625	500.69
474.844	491.69
475.063	493.69
475.282	469.69
475.501	481.69
475.72	489.69
475.939	474.69
476.158	485.69
476.377	492.69
476.596	481.69
476.814	488.69
477.033	490.69
477.252	503.69
477.471	507.69
477.69	509.69
477.908	509.69
478.127	552.69
478.346	563.69
478.564	544.69
478.783	547.69
479.002	549.69
479.22	572.69
479.439	559.69
479.658	562.69
479.876	581.69
480.095	585.69
480.313	598.69
480.532	621.69
480.751	599.69
480.969	586.69
481.188	604.69
481.406	604.69
481.624	597.69
481.843	557.69
482.061	587.69
482.28	571.69
482.498	549.69
482.717	541.69
482.935	554.69
483.153	543.69
483.372	541.69
483.59	534.69
483.808	542.69
484.027	567.69
484.245	557.69
484.463	547.69
484.681	561.69
484.9	561.69
485.118	565.69
485.336	587.69
485.554	578.69
485.772	575.69
485.99	566.69
486.209	579.69
486.427	567.69
486.645	598.69
486.863	591.69
487.081	577.69
487.299	591.69
487.517	595.69
487.735	614.69
487.953	579.69
488.171	600.69
488.389	581.69
488.607	590.69
488.825	606.69
489.043	594.69
489.261	580.69
489.479	593.69
489.696	587.69
489.914	607.69
490.132	605.69
490.35	589.69
490.568	592.69
490.786	617.69
491.003	614.69
491.221	623.69
491.439	647.69
491.657	617.69
491.874	645.69
492.092	643.69
492.31	668.69
492.527	645.69
492.745	654.69
492.963	634.69
493.18	660.69
493.398	666.69
493.615	655.69
493.833	634.69
494.05	647.69
494.268	666.69
494.485	677.69
494.703	674.69
494.92	677.69
495.138	680.69
495.355	670.69
495.573	702.69
495.79	655.69
496.008	686.69
496.225	685.69
496.442	667.69
496.66	690.69
496.877	689.69
497.094	671.69
497.312	708.69
497.529	728.69
497.746	729.69
497.963	724.69
498.181	769.69
498.398	784.69
498.615	807.69
498.832	828.69
499.049	875.69
499.267	900.69
499.484	947.69
499.701	979.69
499.918	1062.69
500.135	1150.69
500.352	1205.69
500.569	1207.69
500.786	1231.69
501.003	1206.69
501.22	1144.69
501.437	1072.69
501.654	1033.69
501.871	961.69
502.088	907.69
502.305	860.69
502.522	834.69
502.739	827.69
502.956	793.69
503.172	760.69
503.389	730.69
503.606	730.69
503.823	727.69
504.04	732.69
504.256	721.69
504.473	691.69
504.69	695.69
504.907	726.69
505.123	710.69
505.34	656.69
505.557	631.69
505.773	663.69
505.99	661.69
506.207	637.69
506.423	630.69
506.64	631.69
506.856	613.69
507.073	625.69
507.289	603.69
507.506	603.69
507.722	601.69
507.939	620.69
508.155	625.69
508.372	611.69
508.588	595.69
508.805	591.69
509.021	578.69
509.238	597.69
509.454	601.69
509.67	611.69
509.887	609.69
510.103	589.69
510.319	593.69
510.536	622.69
510.752	860.69
510.968	758.69
511.184	598.69
511.401	561.69
511.617	584.69
511.833	563.69
512.049	551.69
512.265	582.69
512.481	560.69
512.698	539.69
512.914	547.69
513.13	556.69
513.346	550.69
513.562	574.69
513.778	563.69
513.994	547.69
514.21	587.69
514.426	584.69
514.642	609.69
514.858	606.69
515.074	612.69
515.29	658.69
515.506	856.69
515.721	709.69
515.937	626.69
516.153	600.69
516.369	620.69
516.585	612.69
516.801	596.69
517.016	615.69
517.232	604.69
517.448	618.69
517.664	636.69
517.879	635.69
518.095	673.69
518.311	637.69
518.527	625.69
518.742	605.69
518.958	581.69
519.173	585.69
519.389	587.69
519.605	596.69
519.82	559.69
520.036	573.69
520.251	557.69
520.467	583.69
520.682	575.69
520.898	562.69
521.113	580.69
521.329	597.69
521.544	613.69
521.76	713.69
521.975	931.69
522.19	939.69
522.406	639.69
522.621	582.69
522.836	527.69
523.052	556.69
523.267	532.69
523.482	522.69
523.698	524.69
523.913	514.69
524.128	490.69
524.343	509.69
524.559	483.69
524.774	495.69
524.989	495.69
525.204	502.69
525.419	495.69
525.634	493.69
525.849	480.69
526.064	499.69
526.28	478.69
526.495	478.69
526.71	493.69
526.925	481.69
527.14	473.69
527.355	467.69
527.57	480.69
527.785	470.69
527.999	490.69
528.214	478.69
528.429	474.69
528.644	487.69
528.859	477.69
529.074	482.69
529.289	509.69
529.503	521.69
529.718	522.69
529.933	486.69
530.148	470.69
530.363	492.69
530.577	474.69
530.792	465.69
531.007	474.69
531.221	473.69
531.436	494.69
531.651	482.69
531.865	480.69
532.08	472.69
532.295	484.69
532.509	466.69
532.724	478.69
532.938	479.69
533.153	476.69
533.367	471.69
533.582	491.69
533.796	477.69
534.011	480.69
534.225	467.69
534.44	465.69
534.654	455.69
534.868	450.69
535.083	473.69
535.297	473.69
535.511	482.69
535.726	465.69
535.94	440.69
536.154	473.69
536.369	451.69
536.583	448.69
536.797	431.69
537.011	426.69
537.225	442.69
537.44	437.69
537.654	451.69
537.868	452.69
538.082	462.69
538.296	448.69
538.51	444.69
538.724	445.69
538.938	450.69
539.153	448.69
539.367	458.69
539.581	451.69
539.795	443.69
540.009	426.69
540.222	423.69
540.436	460.69
540.65	446.69
540.864	431.69
541.078	445.69
541.292	463.69
541.506	435.69
541.72	432.69
541.934	425.69
542.147	450.69
542.361	419.69
542.575	425.69
542.789	434.69
543.002	437.69
543.216	459.69
543.43	447.69
543.644	439.69
543.857	451.69
544.071	430.69
544.285	437.69
544.498	442.69
544.712	455.69
544.925	445.69
545.139	456.69
545.352	444.69
545.566	423.69
545.779	454.69
545.993	471.69
546.206	465.69
546.42	438.69
546.633	439.69
546.847	417.69
547.06	433.69
547.274	425.69
547.487	438.69
547.7	462.69
547.914	429.69
548.127	425.69
548.34	461.69
548.554	417.69
548.767	437.69
548.98	449.69
549.193	441.69
549.407	434.69
549.62	459.69
549.833	441.69
550.046	454.69
550.259	446.69
550.473	436.69
550.686	438.69
550.899	447.69
551.112	458.69
551.325	429.69
551.538	424.69
551.751	415.69
551.964	447.69
552.177	435.69
552.39	434.69
552.603	433.69
552.816	449.69
553.029	467.69
553.242	463.69
553.455	458.69
553.667	468.69
553.88	474.69
554.093	442.69
554.306	461.69
554.519	452.69
554.732	433.69
554.944	435.69
555.157	426.69
555.37	413.69
555.583	425.69
555.795	426.69
556.008	410.69
556.221	402.69
556.433	423.69
556.646	416.69
556.859	396.69
557.071	395.69
557.284	377.69
557.496	408.69
557.709	398.69
557.921	400.69
558.134	393.69
558.346	383.69
558.559	396.69
558.771	387.69
558.984	385.69
559.196	386.69
559.409	388.69
559.621	387.69
559.833	385.69
560.046	374.69
560.258	382.69
560.47	386.69
560.683	385.69
560.895	389.69
561.107	400.69
561.32	383.69
561.532	380.69
561.744	401.69
561.956	385.69
562.168	377.69
562.381	399.69
562.593	395.69
562.805	402.69
563.017	406.69
563.229	391.69
563.441	380.69
563.653	408.69
563.865	401.69
564.077	392.69
564.289	411.69
564.501	414.69
564.713	425.69
564.925	430.69
565.137	422.69
565.349	438.69
565.561	447.69
565.773	449.69
565.985	476.69
566.197	463.69
566.408	473.69
566.62	533.69
566.832	544.69
567.044	540.69
567.255	539.69
567.467	558.69
567.679	571.69
567.891	587.69
568.102	591.69
568.314	577.69
568.526	557.69
568.737	506.69
568.949	495.69
569.161	500.69
569.372	473.69
569.584	439.69
569.795	461.69
570.007	403.69
570.218	420.69
570.43	438.69
570.641	418.69
570.853	395.69
571.064	415.69
571.276	399.69
571.487	380.69
571.698	398.69
571.91	353.69
572.121	371.69
572.333	371.69
572.544	379.69
572.755	373.69
572.966	378.69
573.178	348.69
573.389	340.69
573.6	351.69
573.811	341.69
574.023	352.69
574.234	339.69
574.445	339.69
574.656	339.69
574.867	343.69
575.078	330.69
575.289	337.69
575.501	361.69
575.712	340.69
575.923	339.69
576.134	335.69
576.345	331.69
576.556	344.69
576.767	340.69
576.978	342.69
577.188	334.69
577.399	335.69
577.61	329.69
577.821	302.69
578.032	313.69
578.243	340.69
578.454	441.69
578.665	399.69
578.875	329.69
579.086	319.69
579.297	317.69
579.508	321.69
579.718	322.69
579.929	305.69
580.14	326.69
580.35	321.69
580.561	331.69
580.772	299.69
580.982	313.69
581.193	307.69
581.403	311.69
581.614	315.69
581.825	317.69
582.035	306.69
582.246	316.69
582.456	321.69
582.667	316.69
582.877	316.69
583.087	315.69
583.298	305.69
583.508	309.69
583.719	314.69
583.929	292.69
584.139	303.69
584.35	315.69
584.56	313.69
584.77	298.69
584.981	301.69
585.191	311.69
585.401	296.69
585.611	301.69
585.821	296.69
586.032	300.69
586.242	310.69
586.452	285.69
586.662	302.69
586.872	297.69
587.082	310.69
587.292	297.69
587.502	294.69
587.713	311.69
587.923	287.69
588.133	310.69
588.343	306.69
588.553	292.69
588.762	305.69
588.972	298.69
589.182	359.69
589.392	335.69
589.602	322.69
589.812	353.69
590.022	337.69
590.232	317.69
590.441	324.69
590.651	295.69
590.861	306.69
591.071	295.69
591.281	307.69
591.49	304.69
591.7	305.69
591.91	315.69
592.119	308.69
592.329	324.69
592.539	309.69
592.748	325.69
592.958	334.69
593.167	355.69
593.377	323.69
593.587	345.69
593.796	337.69
594.006	343.69
594.215	344.69
594.424	343.69
594.634	345.69
594.843	298.69
595.053	328.69
595.262	325.69
595.472	316.69
595.681	306.69
595.89	296.69
596.1	315.69
596.309	308.69
596.518	292.69
596.727	297.69
596.937	287.69
597.146	258.69
597.355	297.69
597.564	267.69
597.774	266.69
597.983	270.69
598.192	279.69
598.401	255.69
598.61	290.69
598.819	256.69
599.028	260.69
599.237	261.69
599.446	268.69
599.655	269.69
599.864	264.69
600.073	263.69
600.282	249.69
600.491	259.69
600.7	241.69
600.909	279.69
601.118	249.69
601.327	260.69
601.536	265.69
601.745	270.69
601.953	255.69
602.162	254.69
602.371	258.69
602.58	267.69
602.789	275.69
602.997	250.69
603.206	255.69
603.415	273.69
603.623	258.69
603.832	248.69
604.041	258.69
604.249	246.69
604.458	255.69
604.666	245.69
604.875	242.69
605.084	254.69
605.292	245.69
605.501	245.69
605.709	242.69
605.918	245.69
606.126	254.69
606.334	242.69
606.543	229.69
606.751	245.69
606.96	253.69
607.168	239.69
607.376	252.69
607.585	241.69
607.793	237.69
608.001	232.69
608.21	232.69
608.418	244.69
608.626	229.69
608.834	253.69
609.043	238.69
609.251	246.69
609.459	243.69
609.667	250.69
609.875	247.69
610.083	229.69
610.291	233.69
610.499	232.69
610.707	238.69
610.916	245.69
611.124	249.69
611.332	242.69
611.54	251.69
611.748	250.69
611.955	231.69
612.163	254.69
612.371	247.69
612.579	245.69
612.787	250.69
612.995	257.69
613.203	250.69
613.411	231.69
613.618	250.69
613.826	232.69
614.034	249.69
614.242	235.69
614.449	239.69
614.657	209.69
614.865	225.69
615.072	222.69
615.28	218.69
615.488	235.69
615.695	246.69
615.903	242.69
616.111	222.69
616.318	223.69
616.526	238.69
616.733	236.69
616.941	221.69
617.148	241.69
617.356	241.69
617.563	256.69
617.771	231.69
617.978	240.69
618.185	230.69
618.393	229.69
618.6	235.69
618.807	230.69
619.015	239.69
619.222	242.69
619.429	219.69
619.637	229.69
619.844	213.69
620.051	228.69
620.258	217.69
620.466	224.69
620.673	217.69
620.88	202.69
621.087	227.69
621.294	230.69
621.501	219.69
621.708	233.69
621.915	225.69
622.122	217.69
622.329	217.69
622.536	230.69
622.743	215.69
622.95	221.69
623.157	215.69
623.364	208.69
623.571	213.69
623.778	222.69
623.985	228.69
624.192	230.69
624.399	221.69
624.606	200.69
624.812	206.69
625.019	221.69
625.226	216.69
625.433	211.69
625.639	195.69
625.846	210.69
626.053	204.69
626.259	209.69
626.466	226.69
626.673	211.69
626.879	192.69
627.086	205.69
627.293	219.69
627.499	196.69
627.706	202.69
627.912	200.69
628.119	197.69
628.325	207.69
628.532	205.69
628.738	183.69
628.945	219.69
629.151	206.69
629.357	190.69
629.564	172.69
629.77	205.69
629.976	191.69
630.183	198.69
630.389	194.69
630.595	203.69
630.802	191.69
631.008	177.69
631.214	202.69
631.42	205.69
631.627	197.69
631.833	199.69
632.039	180.69
632.245	188.69
632.451	186.69
632.657	183.69
632.863	186.69
633.069	187.69
633.275	179.69
633.481	194.69
633.688	201.69
633.893	183.69
634.099	187.69
634.305	185.69
634.511	198.69
634.717	189.69
634.923	184.69
635.129	187.69
635.335	187.69
635.541	178.69
635.747	171.69
635.952	185.69
636.158	194.69
636.364	191.69
636.57	181.69
636.775	177.69
636.981	186.69
637.187	162.69
637.392	170.69
637.598	189.69
637.804	185.69
638.009	193.69
638.215	181.69
638.421	174.69
638.626	172.69
638.832	179.69
639.037	169.69
639.243	179.69
639.448	177.69
639.654	201.69
639.859	186.69
640.065	167.69
640.27	167.69
640.475	160.69
640.681	156.69
640.886	179.69
641.091	183.69
641.297	184.69
641.502	171.69
641.707	163.69
641.913	171.69
642.118	170.69
642.323	169.69
642.528	165.69
642.733	166.69
642.939	153.69
643.144	163.69
643.349	164.69
643.554	179.69
643.759	183.69
643.964	173.69
644.169	166.69
644.374	179.69
644.579	149.69
644.784	161.69
644.989	179.69
645.194	175.69
645.399	175.69
645.604	170.69
645.809	163.69
646.014	172.69
646.219	156.69
646.423	170.69
646.628	170.69
646.833	166.69
647.038	181.69
647.243	171.69
647.447	160.69
647.652	163.69
647.857	162.69
648.062	184.69
648.266	179.69
648.471	161.69
648.676	189.69
648.88	183.69
649.085	196.69
649.289	183.69
649.494	178.69
649.698	188.69
649.903	180.69
650.107	189.69
650.312	167.69
650.516	149.69
650.721	148.69
650.925	170.69
651.13	157.69
651.334	141.69
651.539	156.69
651.743	165.69
651.947	139.69
652.152	165.69
652.356	149.69
652.56	155.69
652.764	139.69
652.969	153.69
653.173	153.69
653.377	136.69
653.581	149.69
653.785	155.69
653.99	135.69
654.194	153.69
654.398	129.69
654.602	151.69
654.806	144.69
655.01	153.69
655.214	142.69
655.418	153.69
655.622	147.69
655.826	142.69
656.03	155.69
656.234	132.69
656.438	147.69
656.642	151.69
656.846	161.69
657.049	135.69
657.253	133.69
657.457	131.69
657.661	121.69
657.865	110.69
658.068	122.69
658.272	119.69
658.476	117.69
658.68	95.69
658.883	113.69
659.087	98.69
659.291	90.69
659.494	106.69
659.698	114.69
659.901	112.69
660.105	97.69
660.309	99.69
660.512	93.69
660.716	108.69
660.919	101.69
661.123	96.69
661.326	107.69
661.53	93.69
661.733	85.69
661.936	75.69
662.14	97.69
662.343	99.69
662.546	73.69
662.75	85.69
662.953	85.69
663.156	83.69
663.36	88.69
663.563	83.69
663.766	70.69
663.969	91.69
664.173	81.69
664.376	90.69
664.579	77.69
664.782	77.69
664.985	76.69
665.188	84.69
665.391	91.69
665.594	93.69
665.797	80.69
666	87.69
666.203	75.69
666.406	83.69
666.609	86.69
666.812	103.69
667.015	77.69
667.218	94.69
667.421	99.69
667.624	76.69
667.827	86.69
668.03	78.69
668.232	70.69
668.435	82.69
668.638	91.69
668.841	90.69
669.043	92.69
669.246	86.69
669.449	75.69
669.651	95.69
669.854	85.69
670.057	85.69
670.259	97.69
670.462	78.69
670.665	89.69
670.867	93.69
671.07	98.69
671.272	83.69
671.475	81.69
671.677	74.69
671.88	73.69
672.082	86.69
672.284	80.69
672.487	89.69
672.689	71.69
672.892	79.69
