Data from 1962.PennyLincolnUp.Lamp.En5.5.200Scan.071719.P1._HRD10591_13-53-36-060.txt Node
Date: Thu Jul 18 13:53:36 EDT 2019
User: cochatt
Spectrometer: HR+D1059
Trigger mode: 1
Integration Time (sec): 1.000000E-1
Scans to average: 1
Electric dark correction enabled: true
Nonlinearity correction enabled: false
Boxcar width: 0
XAxis mode: Wavelengths
Number of Pixels in Spectrum: 2048
>>>>>Begin Spectral Data<<<<<
223.165	0.69
223.4	0.69
223.635	0.69
223.869	-20.31
224.104	-10.31
224.338	-24.31
224.573	-11.31
224.808	-3.31
225.042	-4.31
225.277	-12.31
225.511	4.69
225.746	-1.31
225.98	5.69
226.215	-3.31
226.449	20.69
226.683	9.69
226.918	32.69
227.152	16.69
227.387	36.69
227.621	41.69
227.856	38.69
228.09	47.69
228.324	42.69
228.559	52.69
228.793	69.69
229.027	75.69
229.262	88.69
229.496	99.69
229.73	110.69
229.964	132.69
230.199	101.69
230.433	110.69
230.667	100.69
230.901	91.69
231.136	105.69
231.37	87.69
231.604	105.69
231.838	108.69
232.072	100.69
232.306	102.69
232.541	128.69
232.775	108.69
233.009	122.69
233.243	119.69
233.477	97.69
233.711	114.69
233.945	104.69
234.179	115.69
234.413	118.69
234.647	115.69
234.881	112.69
235.115	111.69
235.349	118.69
235.583	120.69
235.817	115.69
236.051	119.69
236.285	111.69
236.519	134.69
236.753	113.69
236.987	128.69
237.221	144.69
237.455	159.69
237.689	150.69
237.922	131.69
238.156	120.69
238.39	129.69
238.624	104.69
238.858	119.69
239.091	118.69
239.325	123.69
239.559	115.69
239.793	123.69
240.027	132.69
240.26	130.69
240.494	127.69
240.728	119.69
240.961	126.69
241.195	123.69
241.429	128.69
241.662	124.69
241.896	119.69
242.13	138.69
242.363	133.69
242.597	138.69
242.83	128.69
243.064	121.69
243.298	123.69
243.531	138.69
243.765	136.69
243.998	137.69
244.232	124.69
244.465	140.69
244.699	125.69
244.932	140.69
245.166	136.69
245.399	139.69
245.633	133.69
245.866	130.69
246.099	118.69
246.333	130.69
246.566	142.69
246.8	155.69
247.033	150.69
247.266	141.69
247.5	159.69
247.733	139.69
247.966	164.69
248.2	155.69
248.433	160.69
248.666	150.69
248.899	167.69
249.133	175.69
249.366	172.69
249.599	176.69
249.832	180.69
250.066	177.69
250.299	168.69
250.532	181.69
250.765	179.69
250.998	190.69
251.231	184.69
251.465	185.69
251.698	179.69
251.931	171.69
252.164	185.69
252.397	162.69
252.63	166.69
252.863	167.69
253.096	186.69
253.329	195.69
253.562	184.69
253.795	181.69
254.028	186.69
254.261	186.69
254.494	200.69
254.727	212.69
254.96	213.69
255.193	227.69
255.426	205.69
255.659	187.69
255.892	203.69
256.124	195.69
256.357	203.69
256.59	180.69
256.823	190.69
257.056	200.69
257.289	197.69
257.521	176.69
257.754	197.69
257.987	189.69
258.22	182.69
258.452	206.69
258.685	190.69
258.918	206.69
259.151	192.69
259.383	197.69
259.616	202.69
259.849	192.69
260.081	198.69
260.314	223.69
260.547	215.69
260.779	204.69
261.012	203.69
261.244	209.69
261.477	214.69
261.71	191.69
261.942	209.69
262.175	204.69
262.407	208.69
262.64	192.69
262.872	182.69
263.105	202.69
263.337	199.69
263.57	204.69
263.802	204.69
264.035	202.69
264.267	185.69
264.499	188.69
264.732	208.69
264.964	208.69
265.197	209.69
265.429	197.69
265.661	200.69
265.894	213.69
266.126	196.69
266.358	197.69
266.591	208.69
266.823	205.69
267.055	200.69
267.287	202.69
267.52	208.69
267.752	224.69
267.984	215.69
268.216	225.69
268.448	210.69
268.681	227.69
268.913	236.69
269.145	232.69
269.377	227.69
269.609	227.69
269.841	231.69
270.073	233.69
270.306	258.69
270.538	270.69
270.77	265.69
271.002	247.69
271.234	264.69
271.466	259.69
271.698	253.69
271.93	271.69
272.162	276.69
272.394	266.69
272.626	257.69
272.858	244.69
273.09	237.69
273.322	245.69
273.553	255.69
273.785	263.69
274.017	227.69
274.249	237.69
274.481	243.69
274.713	239.69
274.945	238.69
275.176	242.69
275.408	253.69
275.64	252.69
275.872	250.69
276.104	251.69
276.335	244.69
276.567	251.69
276.799	273.69
277.031	279.69
277.262	272.69
277.494	282.69
277.726	269.69
277.957	262.69
278.189	258.69
278.421	258.69
278.652	266.69
278.884	264.69
279.115	249.69
279.347	261.69
279.579	272.69
279.81	279.69
280.042	259.69
280.273	257.69
280.505	254.69
280.736	230.69
280.968	255.69
281.199	272.69
281.431	282.69
281.662	255.69
281.894	266.69
282.125	266.69
282.356	292.69
282.588	290.69
282.819	253.69
283.051	265.69
283.282	244.69
283.513	261.69
283.745	271.69
283.976	267.69
284.207	277.69
284.439	265.69
284.67	275.69
284.901	276.69
285.132	289.69
285.364	277.69
285.595	275.69
285.826	266.69
286.057	274.69
286.288	272.69
286.52	261.69
286.751	265.69
286.982	278.69
287.213	268.69
287.444	266.69
287.675	288.69
287.906	286.69
288.138	283.69
288.369	278.69
288.6	295.69
288.831	311.69
289.062	291.69
289.293	268.69
289.524	291.69
289.755	298.69
289.986	306.69
290.217	311.69
290.448	290.69
290.679	282.69
290.91	279.69
291.141	278.69
291.371	297.69
291.602	302.69
291.833	294.69
292.064	279.69
292.295	285.69
292.526	274.69
292.757	298.69
292.987	287.69
293.218	299.69
293.449	313.69
293.68	299.69
293.91	290.69
294.141	294.69
294.372	312.69
294.603	281.69
294.833	294.69
295.064	310.69
295.295	299.69
295.525	296.69
295.756	279.69
295.987	298.69
296.217	302.69
296.448	298.69
296.679	309.69
296.909	305.69
297.14	302.69
297.37	298.69
297.601	289.69
297.831	313.69
298.062	311.69
298.292	322.69
298.523	291.69
298.753	304.69
298.984	324.69
299.214	307.69
299.445	320.69
299.675	316.69
299.905	326.69
300.136	304.69
300.366	303.69
300.597	312.69
300.827	326.69
301.057	307.69
301.288	311.69
301.518	326.69
301.748	291.69
301.979	333.69
302.209	331.69
302.439	338.69
302.669	309.69
302.9	325.69
303.13	330.69
303.36	328.69
303.59	335.69
303.82	329.69
304.051	331.69
304.281	322.69
304.511	312.69
304.741	338.69
304.971	331.69
305.201	344.69
305.431	332.69
305.661	310.69
305.891	334.69
306.121	335.69
306.352	320.69
306.582	328.69
306.812	317.69
307.042	327.69
307.272	331.69
307.502	339.69
307.731	326.69
307.961	306.69
308.191	340.69
308.421	336.69
308.651	327.69
308.881	319.69
309.111	324.69
309.341	334.69
309.571	324.69
309.8	352.69
310.03	358.69
310.26	351.69
310.49	341.69
310.72	351.69
310.949	343.69
311.179	378.69
311.409	369.69
311.639	352.69
311.868	363.69
312.098	345.69
312.328	355.69
312.557	347.69
312.787	362.69
313.017	376.69
313.246	354.69
313.476	360.69
313.706	361.69
313.935	356.69
314.165	346.69
314.394	371.69
314.624	371.69
314.853	371.69
315.083	349.69
315.312	347.69
315.542	336.69
315.771	367.69
316.001	344.69
316.23	357.69
316.46	364.69
316.689	375.69
316.919	360.69
317.148	361.69
317.377	364.69
317.607	368.69
317.836	351.69
318.065	364.69
318.295	348.69
318.524	351.69
318.753	363.69
318.983	355.69
319.212	367.69
319.441	361.69
319.67	357.69
319.9	367.69
320.129	368.69
320.358	385.69
320.587	363.69
320.816	346.69
321.046	370.69
321.275	368.69
321.504	374.69
321.733	363.69
321.962	376.69
322.191	380.69
322.42	390.69
322.649	413.69
322.878	389.69
323.108	401.69
323.337	405.69
323.566	427.69
323.795	426.69
324.024	458.69
324.253	519.69
324.482	653.69
324.71	920.69
324.939	1286.69
325.168	1139.69
325.397	642.69
325.626	498.69
325.855	457.69
326.084	446.69
326.313	437.69
326.542	428.69
326.77	462.69
326.999	505.69
327.228	601.69
327.457	827.69
327.686	1029.69
327.914	709.69
328.143	546.69
328.372	509.69
328.6	453.69
328.829	450.69
329.058	453.69
329.287	466.69
329.515	452.69
329.744	453.69
329.972	437.69
330.201	444.69
330.43	468.69
330.658	451.69
330.887	475.69
331.115	477.69
331.344	445.69
331.572	437.69
331.801	439.69
332.03	417.69
332.258	421.69
332.486	430.69
332.715	441.69
332.943	440.69
333.172	459.69
333.4	446.69
333.629	477.69
333.857	477.69
334.085	484.69
334.314	472.69
334.542	502.69
334.771	472.69
334.999	454.69
335.227	458.69
335.455	452.69
335.684	458.69
335.912	442.69
336.14	443.69
336.369	436.69
336.597	459.69
336.825	455.69
337.053	433.69
337.281	424.69
337.51	428.69
337.738	438.69
337.966	434.69
338.194	436.69
338.422	422.69
338.65	436.69
338.878	416.69
339.106	412.69
339.334	408.69
339.562	409.69
339.79	406.69
340.018	431.69
340.246	415.69
340.474	413.69
340.702	413.69
340.93	410.69
341.158	405.69
341.386	433.69
341.614	433.69
341.842	416.69
342.07	410.69
342.298	409.69
342.526	409.69
342.754	424.69
342.981	393.69
343.209	416.69
343.437	432.69
343.665	418.69
343.893	443.69
344.12	448.69
344.348	430.69
344.576	434.69
344.804	455.69
345.031	432.69
345.259	410.69
345.487	435.69
345.714	408.69
345.942	405.69
346.17	399.69
346.397	396.69
346.625	386.69
346.853	384.69
347.08	389.69
347.308	396.69
347.535	418.69
347.763	416.69
347.99	399.69
348.218	409.69
348.445	401.69
348.673	386.69
348.9	389.69
349.128	401.69
349.355	403.69
349.583	381.69
349.81	374.69
350.037	393.69
350.265	377.69
350.492	385.69
350.72	384.69
350.947	370.69
351.174	387.69
351.402	394.69
351.629	385.69
351.856	403.69
352.083	397.69
352.311	391.69
352.538	420.69
352.765	419.69
352.992	409.69
353.22	390.69
353.447	389.69
353.674	388.69
353.901	372.69
354.128	388.69
354.355	381.69
354.583	384.69
354.81	362.69
355.037	373.69
355.264	382.69
355.491	388.69
355.718	368.69
355.945	379.69
356.172	379.69
356.399	387.69
356.626	374.69
356.853	376.69
357.08	393.69
357.307	376.69
357.534	368.69
357.761	395.69
357.988	387.69
358.215	395.69
358.441	397.69
358.668	383.69
358.895	388.69
359.122	413.69
359.349	392.69
359.576	391.69
359.802	404.69
360.029	404.69
360.256	411.69
360.483	402.69
360.709	369.69
360.936	388.69
361.163	397.69
361.39	393.69
361.616	401.69
361.843	389.69
362.07	375.69
362.296	407.69
362.523	405.69
362.749	384.69
362.976	424.69
363.203	396.69
363.429	385.69
363.656	383.69
363.882	387.69
364.109	387.69
364.335	375.69
364.562	367.69
364.788	386.69
365.015	382.69
365.241	376.69
365.468	379.69
365.694	393.69
365.92	375.69
366.147	376.69
366.373	376.69
366.599	375.69
366.826	363.69
367.052	388.69
367.278	380.69
367.505	398.69
367.731	388.69
367.957	400.69
368.184	390.69
368.41	392.69
368.636	391.69
368.862	382.69
369.089	395.69
369.315	396.69
369.541	374.69
369.767	369.69
369.993	391.69
370.219	374.69
370.445	392.69
370.672	386.69
370.898	400.69
371.124	385.69
371.35	386.69
371.576	384.69
371.802	400.69
372.028	390.69
372.254	383.69
372.48	390.69
372.706	385.69
372.932	397.69
373.158	390.69
373.384	394.69
373.61	383.69
373.835	395.69
374.061	393.69
374.287	392.69
374.513	402.69
374.739	418.69
374.965	410.69
375.191	406.69
375.416	421.69
375.642	399.69
375.868	421.69
376.094	397.69
376.319	391.69
376.545	414.69
376.771	384.69
376.997	409.69
377.222	391.69
377.448	395.69
377.674	389.69
377.899	402.69
378.125	394.69
378.35	386.69
378.576	390.69
378.802	383.69
379.027	406.69
379.253	411.69
379.478	391.69
379.704	387.69
379.929	415.69
380.155	407.69
380.38	397.69
380.606	380.69
380.831	406.69
381.057	414.69
381.282	411.69
381.507	380.69
381.733	394.69
381.958	401.69
382.184	406.69
382.409	417.69
382.634	412.69
382.86	417.69
383.085	404.69
383.31	402.69
383.535	427.69
383.761	408.69
383.986	415.69
384.211	422.69
384.436	441.69
384.662	437.69
384.887	471.69
385.112	437.69
385.337	435.69
385.562	455.69
385.787	465.69
386.013	466.69
386.238	475.69
386.463	466.69
386.688	443.69
386.913	422.69
387.138	441.69
387.363	457.69
387.588	467.69
387.813	467.69
388.038	452.69
388.263	450.69
388.488	435.69
388.713	456.69
388.938	455.69
389.163	441.69
389.387	444.69
389.612	450.69
389.837	427.69
390.062	443.69
390.287	465.69
390.512	450.69
390.736	443.69
390.961	450.69
391.186	464.69
391.411	467.69
391.636	470.69
391.86	481.69
392.085	461.69
392.31	458.69
392.534	469.69
392.759	475.69
392.984	451.69
393.208	464.69
393.433	468.69
393.658	472.69
393.882	458.69
394.107	444.69
394.331	470.69
394.556	455.69
394.78	442.69
395.005	451.69
395.229	471.69
395.454	473.69
395.678	497.69
395.903	512.69
396.127	506.69
396.352	486.69
396.576	476.69
396.801	465.69
397.025	472.69
397.249	499.69
397.474	494.69
397.698	495.69
397.922	491.69
398.147	513.69
398.371	510.69
398.595	523.69
398.82	515.69
399.044	541.69
399.268	596.69
399.492	627.69
399.717	686.69
399.941	688.69
400.165	692.69
400.389	659.69
400.613	605.69
400.837	559.69
401.062	557.69
401.286	546.69
401.51	520.69
401.734	500.69
401.958	537.69
402.182	537.69
402.406	551.69
402.63	543.69
402.854	551.69
403.078	560.69
403.302	556.69
403.526	553.69
403.75	554.69
403.974	568.69
404.198	558.69
404.422	571.69
404.645	572.69
404.869	559.69
405.093	602.69
405.317	593.69
405.541	615.69
405.765	597.69
405.988	576.69
406.212	591.69
406.436	576.69
406.66	591.69
406.883	594.69
407.107	636.69
407.331	670.69
407.555	670.69
407.778	700.69
408.002	654.69
408.226	601.69
408.449	622.69
408.673	587.69
408.896	630.69
409.12	656.69
409.344	607.69
409.567	597.69
409.791	581.69
410.014	587.69
410.238	574.69
410.461	570.69
410.685	532.69
410.908	538.69
411.132	598.69
411.355	607.69
411.578	597.69
411.802	584.69
412.025	530.69
412.249	554.69
412.472	576.69
412.695	581.69
412.919	584.69
413.142	565.69
413.365	530.69
413.589	558.69
413.812	522.69
414.035	524.69
414.258	551.69
414.482	525.69
414.705	536.69
414.928	535.69
415.151	546.69
415.374	530.69
415.597	533.69
415.821	517.69
416.044	522.69
416.267	522.69
416.49	506.69
416.713	524.69
416.936	524.69
417.159	483.69
417.382	530.69
417.605	509.69
417.828	524.69
418.051	528.69
418.274	533.69
418.497	528.69
418.72	525.69
418.943	524.69
419.166	546.69
419.389	577.69
419.611	579.69
419.834	548.69
420.057	559.69
420.28	550.69
420.503	542.69
420.726	515.69
420.948	533.69
421.171	560.69
421.394	541.69
421.617	539.69
421.839	532.69
422.062	528.69
422.285	532.69
422.507	573.69
422.73	612.69
422.953	614.69
423.175	550.69
423.398	569.69
423.621	552.69
423.843	568.69
424.066	568.69
424.288	561.69
424.511	583.69
424.733	592.69
424.956	642.69
425.178	633.69
425.401	611.69
425.623	646.69
425.846	583.69
426.068	535.69
426.291	559.69
426.513	554.69
426.735	520.69
426.958	564.69
427.18	612.69
427.402	718.69
427.625	746.69
427.847	637.69
428.069	600.69
428.292	576.69
428.514	515.69
428.736	508.69
428.958	506.69
429.181	486.69
429.403	498.69
429.625	511.69
429.847	543.69
430.069	561.69
430.292	554.69
430.514	514.69
430.736	519.69
430.958	475.69
431.18	478.69
431.402	476.69
431.624	460.69
431.846	451.69
432.068	475.69
432.29	484.69
432.512	489.69
432.734	487.69
432.956	491.69
433.178	485.69
433.4	482.69
433.622	498.69
433.844	489.69
434.066	502.69
434.287	484.69
434.509	517.69
434.731	504.69
434.953	525.69
435.175	538.69
435.397	539.69
435.618	534.69
435.84	581.69
436.062	619.69
436.284	655.69
436.505	580.69
436.727	539.69
436.949	512.69
437.17	510.69
437.392	487.69
437.614	490.69
437.835	515.69
438.057	578.69
438.278	619.69
438.5	635.69
438.721	696.69
438.943	710.69
439.165	561.69
439.386	522.69
439.608	516.69
439.829	514.69
440.05	516.69
440.272	559.69
440.493	551.69
440.715	529.69
440.936	517.69
441.158	500.69
441.379	516.69
441.6	521.69
441.822	532.69
442.043	576.69
442.264	620.69
442.486	628.69
442.707	605.69
442.928	542.69
443.149	551.69
443.371	562.69
443.592	598.69
443.813	650.69
444.034	697.69
444.255	615.69
444.476	594.69
444.698	582.69
444.919	566.69
445.14	697.69
445.361	636.69
445.582	601.69
445.803	605.69
446.024	665.69
446.245	652.69
446.466	616.69
446.687	549.69
446.908	523.69
447.129	481.69
447.35	484.69
447.571	506.69
447.792	457.69
448.013	474.69
448.234	495.69
448.455	521.69
448.675	610.69
448.896	670.69
449.117	585.69
449.338	575.69
449.559	639.69
449.779	724.69
450	583.69
450.221	513.69
450.442	505.69
450.662	473.69
450.883	472.69
451.104	488.69
451.324	472.69
451.545	471.69
451.766	478.69
451.986	443.69
452.207	455.69
452.428	457.69
452.648	442.69
452.869	436.69
453.089	453.69
453.31	457.69
453.53	453.69
453.751	449.69
453.971	463.69
454.192	454.69
454.412	434.69
454.633	446.69
454.853	454.69
455.073	433.69
455.294	463.69
455.514	486.69
455.734	489.69
455.955	423.69
456.175	423.69
456.395	419.69
456.616	432.69
456.836	440.69
457.056	423.69
457.276	447.69
457.497	424.69
457.717	418.69
457.937	431.69
458.157	446.69
458.377	434.69
458.598	433.69
458.818	478.69
459.038	530.69
459.258	546.69
459.478	522.69
459.698	491.69
459.918	481.69
460.138	497.69
460.358	520.69
460.578	539.69
460.798	525.69
461.018	538.69
461.238	521.69
461.458	510.69
461.678	495.69
461.898	553.69
462.118	540.69
462.338	562.69
462.558	558.69
462.777	598.69
462.997	596.69
463.217	626.69
463.437	622.69
463.657	602.69
463.876	591.69
464.096	582.69
464.316	584.69
464.536	576.69
464.755	552.69
464.975	581.69
465.195	571.69
465.414	566.69
465.634	529.69
465.854	505.69
466.073	495.69
466.293	489.69
466.512	476.69
466.732	471.69
466.951	494.69
467.171	471.69
467.391	456.69
467.61	478.69
467.829	483.69
468.049	454.69
468.268	464.69
468.488	454.69
468.707	449.69
468.927	473.69
469.146	455.69
469.365	457.69
469.585	451.69
469.804	463.69
470.023	455.69
470.243	491.69
470.462	466.69
470.681	485.69
470.901	495.69
471.12	470.69
471.339	466.69
471.558	482.69
471.777	471.69
471.997	459.69
472.216	471.69
472.435	488.69
472.654	468.69
472.873	489.69
473.092	463.69
473.311	454.69
473.53	464.69
473.749	482.69
473.968	515.69
474.187	556.69
474.406	572.69
474.625	518.69
474.844	478.69
475.063	461.69
475.282	482.69
475.501	471.69
475.72	472.69
475.939	480.69
476.158	471.69
476.377	474.69
476.596	473.69
476.814	506.69
477.033	469.69
477.252	505.69
477.471	513.69
477.69	504.69
477.908	530.69
478.127	524.69
478.346	540.69
478.564	525.69
478.783	544.69
479.002	553.69
479.22	547.69
479.439	549.69
479.658	547.69
479.876	568.69
480.095	547.69
480.313	581.69
480.532	587.69
480.751	569.69
480.969	597.69
481.188	597.69
481.406	630.69
481.624	564.69
481.843	582.69
482.061	541.69
482.28	545.69
482.498	549.69
482.717	551.69
482.935	543.69
483.153	545.69
483.372	544.69
483.59	535.69
483.808	554.69
484.027	530.69
484.245	539.69
484.463	536.69
484.681	552.69
484.9	537.69
485.118	589.69
485.336	599.69
485.554	583.69
485.772	576.69
485.99	568.69
486.209	563.69
486.427	568.69
486.645	591.69
486.863	567.69
487.081	580.69
487.299	587.69
487.517	574.69
487.735	560.69
487.953	597.69
488.171	578.69
488.389	564.69
488.607	569.69
488.825	598.69
489.043	584.69
489.261	569.69
489.479	615.69
489.696	595.69
489.914	587.69
490.132	584.69
490.35	607.69
490.568	611.69
490.786	607.69
491.003	597.69
491.221	576.69
491.439	622.69
491.657	596.69
491.874	614.69
492.092	607.69
492.31	631.69
492.527	628.69
492.745	642.69
492.963	628.69
493.18	640.69
493.398	661.69
493.615	653.69
493.833	633.69
494.05	630.69
494.268	670.69
494.485	633.69
494.703	650.69
494.92	651.69
495.138	655.69
495.355	642.69
495.573	656.69
495.79	641.69
496.008	676.69
496.225	662.69
496.442	647.69
496.66	670.69
496.877	649.69
497.094	677.69
497.312	694.69
497.529	695.69
497.746	705.69
497.963	700.69
498.181	760.69
498.398	756.69
498.615	773.69
498.832	802.69
499.049	852.69
499.267	890.69
499.484	943.69
499.701	953.69
499.918	1013.69
500.135	1120.69
500.352	1206.69
500.569	1198.69
500.786	1228.69
501.003	1154.69
501.22	1096.69
501.437	1075.69
501.654	993.69
501.871	943.69
502.088	891.69
502.305	850.69
502.522	816.69
502.739	794.69
502.956	768.69
503.172	767.69
503.389	705.69
503.606	731.69
503.823	728.69
504.04	696.69
504.256	691.69
504.473	710.69
504.69	704.69
504.907	702.69
505.123	670.69
505.34	657.69
505.557	669.69
505.773	645.69
505.99	631.69
506.207	624.69
506.423	616.69
506.64	609.69
506.856	615.69
507.073	595.69
507.289	587.69
507.506	602.69
507.722	614.69
507.939	585.69
508.155	595.69
508.372	577.69
508.588	573.69
508.805	593.69
509.021	569.69
509.238	588.69
509.454	592.69
509.67	589.69
509.887	574.69
510.103	563.69
510.319	574.69
510.536	624.69
510.752	835.69
510.968	715.69
511.184	549.69
511.401	548.69
511.617	544.69
511.833	578.69
512.049	554.69
512.265	538.69
512.481	553.69
512.698	563.69
512.914	558.69
513.13	544.69
513.346	539.69
513.562	540.69
513.778	548.69
513.994	545.69
514.21	583.69
514.426	566.69
514.642	577.69
514.858	586.69
515.074	589.69
515.29	624.69
515.506	790.69
515.721	702.69
515.937	634.69
516.153	608.69
516.369	608.69
516.585	582.69
516.801	604.69
517.016	611.69
517.232	623.69
517.448	620.69
517.664	622.69
517.879	636.69
518.095	638.69
518.311	653.69
518.527	607.69
518.742	603.69
518.958	604.69
519.173	585.69
519.389	583.69
519.605	562.69
519.82	558.69
520.036	570.69
520.251	563.69
520.467	559.69
520.682	584.69
520.898	567.69
521.113	550.69
521.329	555.69
521.544	614.69
521.76	675.69
521.975	908.69
522.19	875.69
522.406	640.69
522.621	569.69
522.836	531.69
523.052	538.69
523.267	519.69
523.482	504.69
523.698	503.69
523.913	538.69
524.128	494.69
524.343	501.69
524.559	491.69
524.774	494.69
524.989	497.69
525.204	477.69
525.419	482.69
525.634	481.69
525.849	483.69
526.064	486.69
526.28	509.69
526.495	469.69
526.71	468.69
526.925	462.69
527.14	483.69
527.355	464.69
527.57	464.69
527.785	466.69
527.999	473.69
528.214	471.69
528.429	462.69
528.644	485.69
528.859	475.69
529.074	488.69
529.289	462.69
529.503	500.69
529.718	476.69
529.933	464.69
530.148	460.69
530.363	461.69
530.577	453.69
530.792	475.69
531.007	481.69
531.221	473.69
531.436	463.69
531.651	452.69
531.865	484.69
532.08	446.69
532.295	457.69
532.509	460.69
532.724	475.69
532.938	440.69
533.153	480.69
533.367	440.69
533.582	448.69
533.796	439.69
534.011	429.69
534.225	459.69
534.44	456.69
534.654	454.69
534.868	453.69
535.083	462.69
535.297	429.69
535.511	447.69
535.726	447.69
535.94	423.69
536.154	442.69
536.369	459.69
536.583	431.69
536.797	426.69
537.011	450.69
537.225	436.69
537.44	454.69
537.654	443.69
537.868	430.69
538.082	443.69
538.296	444.69
538.51	449.69
538.724	456.69
538.938	444.69
539.153	431.69
539.367	454.69
539.581	428.69
539.795	442.69
540.009	432.69
540.222	420.69
540.436	450.69
540.65	429.69
540.864	439.69
541.078	429.69
541.292	442.69
541.506	447.69
541.72	431.69
541.934	426.69
542.147	424.69
542.361	437.69
542.575	424.69
542.789	457.69
543.002	424.69
543.216	443.69
543.43	438.69
543.644	435.69
543.857	442.69
544.071	438.69
544.285	432.69
544.498	446.69
544.712	444.69
544.925	424.69
545.139	419.69
545.352	438.69
545.566	424.69
545.779	445.69
545.993	442.69
546.206	436.69
546.42	434.69
546.633	421.69
546.847	418.69
547.06	423.69
547.274	436.69
547.487	449.69
547.7	433.69
547.914	440.69
548.127	418.69
548.34	432.69
548.554	426.69
548.767	418.69
548.98	436.69
549.193	448.69
549.407	428.69
549.62	411.69
549.833	446.69
550.046	440.69
550.259	434.69
550.473	412.69
550.686	403.69
550.899	414.69
551.112	435.69
551.325	418.69
551.538	420.69
551.751	436.69
551.964	433.69
552.177	425.69
552.39	418.69
552.603	444.69
552.816	448.69
553.029	436.69
553.242	458.69
553.455	461.69
553.667	451.69
553.88	445.69
554.093	423.69
554.306	454.69
554.519	411.69
554.732	436.69
554.944	433.69
555.157	425.69
555.37	406.69
555.583	411.69
555.795	405.69
556.008	396.69
556.221	413.69
556.433	412.69
556.646	411.69
556.859	392.69
557.071	379.69
557.284	368.69
557.496	399.69
557.709	387.69
557.921	394.69
558.134	391.69
558.346	387.69
558.559	383.69
558.771	376.69
558.984	383.69
559.196	384.69
559.409	394.69
559.621	391.69
559.833	383.69
560.046	377.69
560.258	363.69
560.47	376.69
560.683	372.69
560.895	377.69
561.107	373.69
561.32	375.69
561.532	387.69
561.744	395.69
561.956	392.69
562.168	371.69
562.381	379.69
562.593	393.69
562.805	382.69
563.017	371.69
563.229	400.69
563.441	370.69
563.653	390.69
563.865	389.69
564.077	414.69
564.289	387.69
564.501	390.69
564.713	393.69
564.925	423.69
565.137	430.69
565.349	390.69
565.561	438.69
565.773	424.69
565.985	430.69
566.197	472.69
566.408	491.69
566.62	507.69
566.832	511.69
567.044	539.69
567.255	548.69
567.467	568.69
567.679	550.69
567.891	573.69
568.102	584.69
568.314	590.69
568.526	539.69
568.737	514.69
568.949	500.69
569.161	472.69
569.372	451.69
569.584	436.69
569.795	425.69
570.007	417.69
570.218	439.69
570.43	427.69
570.641	384.69
570.853	394.69
571.064	401.69
571.276	390.69
571.487	378.69
571.698	374.69
571.91	387.69
572.121	370.69
572.333	340.69
572.544	360.69
572.755	337.69
572.966	359.69
573.178	350.69
573.389	333.69
573.6	320.69
573.811	325.69
574.023	342.69
574.234	342.69
574.445	330.69
574.656	332.69
574.867	330.69
575.078	347.69
575.289	346.69
575.501	336.69
575.712	320.69
575.923	344.69
576.134	330.69
576.345	320.69
576.556	319.69
576.767	326.69
576.978	325.69
577.188	337.69
577.399	322.69
577.61	315.69
577.821	300.69
578.032	302.69
578.243	342.69
578.454	398.69
578.665	343.69
578.875	318.69
579.086	315.69
579.297	319.69
579.508	314.69
579.718	311.69
579.929	303.69
580.14	284.69
580.35	298.69
580.561	306.69
580.772	311.69
580.982	306.69
581.193	302.69
581.403	305.69
581.614	319.69
581.825	295.69
582.035	299.69
582.246	290.69
582.456	284.69
582.667	291.69
582.877	300.69
583.087	315.69
583.298	308.69
583.508	295.69
583.719	298.69
583.929	300.69
584.139	300.69
584.35	297.69
584.56	299.69
584.77	297.69
584.981	294.69
585.191	291.69
585.401	312.69
585.611	296.69
585.821	298.69
586.032	310.69
586.242	294.69
586.452	298.69
586.662	275.69
586.872	280.69
587.082	287.69
587.292	293.69
587.502	283.69
587.713	280.69
587.923	304.69
588.133	276.69
588.343	293.69
588.553	291.69
588.762	302.69
588.972	304.69
589.182	344.69
589.392	350.69
589.602	298.69
589.812	325.69
590.022	319.69
590.232	293.69
590.441	314.69
590.651	310.69
590.861	286.69
591.071	298.69
591.281	313.69
591.49	312.69
591.7	306.69
591.91	312.69
592.119	308.69
592.329	323.69
592.539	308.69
592.748	330.69
592.958	332.69
593.167	333.69
593.377	339.69
593.587	347.69
593.796	355.69
594.006	349.69
594.215	336.69
594.424	325.69
594.634	334.69
594.843	316.69
595.053	305.69
595.262	314.69
595.472	318.69
595.681	300.69
595.89	304.69
596.1	297.69
596.309	295.69
596.518	307.69
596.727	289.69
596.937	288.69
597.146	272.69
597.355	278.69
597.564	276.69
597.774	280.69
597.983	286.69
598.192	267.69
598.401	263.69
598.61	273.69
598.819	275.69
599.028	265.69
599.237	263.69
599.446	278.69
599.655	258.69
599.864	264.69
600.073	252.69
600.282	250.69
600.491	259.69
600.7	259.69
600.909	257.69
601.118	252.69
601.327	236.69
601.536	244.69
601.745	254.69
601.953	243.69
602.162	246.69
602.371	243.69
602.58	266.69
602.789	264.69
602.997	259.69
603.206	268.69
603.415	243.69
603.623	243.69
603.832	242.69
604.041	231.69
604.249	264.69
604.458	239.69
604.666	234.69
604.875	252.69
605.084	214.69
605.292	238.69
605.501	241.69
605.709	230.69
605.918	242.69
606.126	246.69
606.334	243.69
606.543	240.69
606.751	250.69
606.96	241.69
607.168	240.69
607.376	230.69
607.585	222.69
607.793	244.69
608.001	234.69
608.21	230.69
608.418	226.69
608.626	243.69
608.834	233.69
609.043	233.69
609.251	223.69
609.459	227.69
609.667	219.69
609.875	231.69
610.083	220.69
610.291	219.69
610.499	226.69
610.707	254.69
610.916	245.69
611.124	230.69
611.332	231.69
611.54	240.69
611.748	235.69
611.955	235.69
612.163	228.69
612.371	217.69
612.579	233.69
612.787	233.69
612.995	227.69
613.203	234.69
613.411	225.69
613.618	211.69
613.826	224.69
614.034	217.69
614.242	232.69
614.449	232.69
614.657	224.69
614.865	234.69
615.072	235.69
615.28	225.69
615.488	234.69
615.695	245.69
615.903	224.69
616.111	208.69
616.318	247.69
616.526	242.69
616.733	234.69
616.941	212.69
617.148	218.69
617.356	231.69
617.563	233.69
617.771	234.69
617.978	242.69
618.185	222.69
618.393	214.69
618.6	226.69
618.807	215.69
619.015	216.69
619.222	223.69
619.429	226.69
619.637	227.69
619.844	226.69
620.051	223.69
620.258	209.69
620.466	227.69
620.673	220.69
620.88	226.69
621.087	203.69
621.294	203.69
621.501	227.69
621.708	213.69
621.915	207.69
622.122	210.69
622.329	212.69
622.536	198.69
622.743	226.69
622.95	215.69
623.157	203.69
623.364	238.69
623.571	212.69
623.778	214.69
623.985	216.69
624.192	190.69
624.399	215.69
624.606	215.69
624.812	209.69
625.019	218.69
625.226	216.69
625.433	226.69
625.639	186.69
625.846	182.69
626.053	198.69
626.259	214.69
626.466	200.69
626.673	194.69
626.879	202.69
627.086	200.69
627.293	193.69
627.499	208.69
627.706	202.69
627.912	215.69
628.119	185.69
628.325	192.69
628.532	189.69
628.738	182.69
628.945	189.69
629.151	180.69
629.357	186.69
629.564	188.69
629.77	209.69
629.976	183.69
630.183	198.69
630.389	174.69
630.595	194.69
630.802	201.69
631.008	186.69
631.214	191.69
631.42	184.69
631.627	196.69
631.833	195.69
632.039	185.69
632.245	176.69
632.451	169.69
632.657	175.69
632.863	183.69
633.069	187.69
633.275	187.69
633.481	179.69
633.688	175.69
633.893	178.69
634.099	185.69
634.305	184.69
634.511	187.69
634.717	171.69
634.923	186.69
635.129	174.69
635.335	187.69
635.541	187.69
635.747	178.69
635.952	166.69
636.158	182.69
636.364	190.69
636.57	195.69
636.775	187.69
636.981	169.69
637.187	180.69
637.392	165.69
637.598	160.69
637.804	175.69
638.009	183.69
638.215	177.69
638.421	184.69
638.626	159.69
638.832	189.69
639.037	190.69
639.243	178.69
639.448	169.69
639.654	167.69
639.859	169.69
640.065	160.69
640.27	169.69
640.475	159.69
640.681	179.69
640.886	166.69
641.091	174.69
641.297	162.69
641.502	157.69
641.707	174.69
641.913	174.69
642.118	155.69
642.323	162.69
642.528	173.69
642.733	172.69
642.939	152.69
643.144	168.69
643.349	153.69
643.554	174.69
643.759	170.69
643.964	170.69
644.169	154.69
644.374	153.69
644.579	162.69
644.784	161.69
644.989	160.69
645.194	152.69
645.399	163.69
645.604	176.69
645.809	170.69
646.014	171.69
646.219	166.69
646.423	160.69
646.628	157.69
646.833	153.69
647.038	172.69
647.243	158.69
647.447	177.69
647.652	164.69
647.857	162.69
648.062	162.69
648.266	167.69
648.471	164.69
648.676	160.69
648.88	175.69
649.085	177.69
649.289	165.69
649.494	164.69
649.698	180.69
649.903	182.69
650.107	165.69
650.312	162.69
650.516	164.69
650.721	151.69
650.925	159.69
651.13	159.69
651.334	160.69
651.539	148.69
651.743	156.69
651.947	149.69
652.152	164.69
652.356	135.69
652.56	148.69
652.764	146.69
652.969	151.69
653.173	141.69
653.377	143.69
653.581	138.69
653.785	144.69
653.99	138.69
654.194	119.69
654.398	131.69
654.602	140.69
654.806	138.69
655.01	144.69
655.214	147.69
655.418	141.69
655.622	134.69
655.826	150.69
656.03	139.69
656.234	152.69
656.438	151.69
656.642	152.69
656.846	148.69
657.049	143.69
657.253	135.69
657.457	137.69
657.661	117.69
657.865	116.69
658.068	120.69
658.272	113.69
658.476	116.69
658.68	115.69
658.883	114.69
659.087	114.69
659.291	111.69
659.494	89.69
659.698	84.69
659.901	81.69
660.105	100.69
660.309	106.69
660.512	89.69
660.716	93.69
660.919	97.69
661.123	80.69
661.326	82.69
661.53	96.69
661.733	90.69
661.936	84.69
662.14	82.69
662.343	86.69
662.546	91.69
662.75	81.69
662.953	92.69
663.156	75.69
663.36	81.69
663.563	79.69
663.766	76.69
663.969	90.69
664.173	71.69
664.376	83.69
664.579	77.69
664.782	83.69
664.985	91.69
665.188	87.69
665.391	71.69
665.594	86.69
665.797	90.69
666	83.69
666.203	86.69
666.406	86.69
666.609	88.69
666.812	91.69
667.015	81.69
667.218	83.69
667.421	90.69
667.624	85.69
667.827	86.69
668.03	82.69
668.232	102.69
668.435	82.69
668.638	79.69
668.841	86.69
669.043	68.69
669.246	84.69
669.449	70.69
669.651	98.69
669.854	87.69
670.057	87.69
670.259	88.69
670.462	67.69
670.665	84.69
670.867	77.69
671.07	85.69
671.272	77.69
671.475	85.69
671.677	73.69
671.88	86.69
672.082	80.69
672.284	76.69
672.487	79.69
672.689	86.69
672.892	80.69
