Data from 1962.PennyLincolnUp.Lamp.En5.5.200Scan.071719.P1._HRD10591_13-54-32-061.txt Node
Date: Thu Jul 18 13:54:32 EDT 2019
User: cochatt
Spectrometer: HR+D1059
Trigger mode: 1
Integration Time (sec): 1.000000E-1
Scans to average: 1
Electric dark correction enabled: true
Nonlinearity correction enabled: false
Boxcar width: 0
XAxis mode: Wavelengths
Number of Pixels in Spectrum: 2048
>>>>>Begin Spectral Data<<<<<
223.165	-10.31
223.4	-10.31
223.635	-10.31
223.869	-13.31
224.104	-20.31
224.338	-15.31
224.573	-7.31
224.808	-9.31
225.042	-6.31
225.277	-3.31
225.511	-11.31
225.746	10.69
225.98	4.69
226.215	-0.31
226.449	13.69
226.683	25.69
226.918	27.69
227.152	14.69
227.387	38.69
227.621	40.69
227.856	40.69
228.09	48.69
228.324	42.69
228.559	53.69
228.793	64.69
229.027	102.69
229.262	109.69
229.496	104.69
229.73	115.69
229.964	120.69
230.199	107.69
230.433	115.69
230.667	109.69
230.901	120.69
231.136	111.69
231.37	107.69
231.604	111.69
231.838	112.69
232.072	94.69
232.306	115.69
232.541	101.69
232.775	100.69
233.009	107.69
233.243	118.69
233.477	107.69
233.711	122.69
233.945	109.69
234.179	117.69
234.413	116.69
234.647	119.69
234.881	123.69
235.115	123.69
235.349	122.69
235.583	118.69
235.817	111.69
236.051	117.69
236.285	112.69
236.519	123.69
236.753	119.69
236.987	110.69
237.221	161.69
237.455	180.69
237.689	144.69
237.922	129.69
238.156	143.69
238.39	117.69
238.624	120.69
238.858	113.69
239.091	120.69
239.325	120.69
239.559	120.69
239.793	136.69
240.027	124.69
240.26	126.69
240.494	139.69
240.728	129.69
240.961	142.69
241.195	141.69
241.429	143.69
241.662	114.69
241.896	125.69
242.13	135.69
242.363	129.69
242.597	129.69
242.83	149.69
243.064	135.69
243.298	137.69
243.531	142.69
243.765	131.69
243.998	149.69
244.232	140.69
244.465	128.69
244.699	150.69
244.932	148.69
245.166	146.69
245.399	155.69
245.633	143.69
245.866	136.69
246.099	149.69
246.333	147.69
246.566	149.69
246.8	161.69
247.033	161.69
247.266	165.69
247.5	176.69
247.733	160.69
247.966	155.69
248.2	162.69
248.433	165.69
248.666	168.69
248.899	181.69
249.133	169.69
249.366	180.69
249.599	176.69
249.832	167.69
250.066	169.69
250.299	174.69
250.532	183.69
250.765	198.69
250.998	202.69
251.231	207.69
251.465	187.69
251.698	186.69
251.931	200.69
252.164	183.69
252.397	171.69
252.63	194.69
252.863	193.69
253.096	196.69
253.329	220.69
253.562	188.69
253.795	192.69
254.028	201.69
254.261	183.69
254.494	203.69
254.727	227.69
254.96	230.69
255.193	234.69
255.426	219.69
255.659	208.69
255.892	202.69
256.124	218.69
256.357	210.69
256.59	205.69
256.823	199.69
257.056	202.69
257.289	192.69
257.521	196.69
257.754	192.69
257.987	216.69
258.22	170.69
258.452	206.69
258.685	200.69
258.918	183.69
259.151	182.69
259.383	187.69
259.616	210.69
259.849	209.69
260.081	207.69
260.314	227.69
260.547	221.69
260.779	205.69
261.012	217.69
261.244	212.69
261.477	209.69
261.71	208.69
261.942	211.69
262.175	220.69
262.407	219.69
262.64	212.69
262.872	199.69
263.105	216.69
263.337	217.69
263.57	217.69
263.802	204.69
264.035	198.69
264.267	218.69
264.499	215.69
264.732	212.69
264.964	208.69
265.197	225.69
265.429	207.69
265.661	220.69
265.894	219.69
266.126	219.69
266.358	218.69
266.591	217.69
266.823	219.69
267.055	213.69
267.287	203.69
267.52	223.69
267.752	216.69
267.984	229.69
268.216	237.69
268.448	225.69
268.681	231.69
268.913	258.69
269.145	238.69
269.377	258.69
269.609	235.69
269.841	252.69
270.073	252.69
270.306	261.69
270.538	260.69
270.77	288.69
271.002	272.69
271.234	258.69
271.466	269.69
271.698	282.69
271.93	289.69
272.162	274.69
272.394	284.69
272.626	276.69
272.858	266.69
273.09	247.69
273.322	264.69
273.553	249.69
273.785	245.69
274.017	272.69
274.249	258.69
274.481	262.69
274.713	278.69
274.945	250.69
275.176	256.69
275.408	266.69
275.64	269.69
275.872	245.69
276.104	269.69
276.335	272.69
276.567	257.69
276.799	273.69
277.031	291.69
277.262	315.69
277.494	286.69
277.726	291.69
277.957	284.69
278.189	268.69
278.421	273.69
278.652	260.69
278.884	270.69
279.115	278.69
279.347	268.69
279.579	265.69
279.81	270.69
280.042	271.69
280.273	280.69
280.505	286.69
280.736	267.69
280.968	280.69
281.199	277.69
281.431	289.69
281.662	264.69
281.894	256.69
282.125	261.69
282.356	297.69
282.588	296.69
282.819	275.69
283.051	263.69
283.282	259.69
283.513	259.69
283.745	277.69
283.976	305.69
284.207	277.69
284.439	271.69
284.67	264.69
284.901	285.69
285.132	288.69
285.364	273.69
285.595	280.69
285.826	277.69
286.057	284.69
286.288	307.69
286.52	304.69
286.751	321.69
286.982	311.69
287.213	306.69
287.444	291.69
287.675	296.69
287.906	312.69
288.138	315.69
288.369	295.69
288.6	303.69
288.831	318.69
289.062	310.69
289.293	313.69
289.524	299.69
289.755	274.69
289.986	277.69
290.217	306.69
290.448	301.69
290.679	320.69
290.91	290.69
291.141	301.69
291.371	298.69
291.602	309.69
291.833	284.69
292.064	278.69
292.295	302.69
292.526	310.69
292.757	289.69
292.987	282.69
293.218	297.69
293.449	320.69
293.68	306.69
293.91	300.69
294.141	296.69
294.372	319.69
294.603	298.69
294.833	299.69
295.064	304.69
295.295	310.69
295.525	308.69
295.756	299.69
295.987	297.69
296.217	343.69
296.448	312.69
296.679	316.69
296.909	299.69
297.14	312.69
297.37	312.69
297.601	304.69
297.831	314.69
298.062	328.69
298.292	317.69
298.523	320.69
298.753	329.69
298.984	317.69
299.214	317.69
299.445	315.69
299.675	331.69
299.905	316.69
300.136	299.69
300.366	324.69
300.597	325.69
300.827	326.69
301.057	329.69
301.288	342.69
301.518	333.69
301.748	318.69
301.979	341.69
302.209	347.69
302.439	340.69
302.669	334.69
302.9	343.69
303.13	336.69
303.36	329.69
303.59	321.69
303.82	343.69
304.051	340.69
304.281	333.69
304.511	330.69
304.741	339.69
304.971	333.69
305.201	345.69
305.431	346.69
305.661	334.69
305.891	320.69
306.121	327.69
306.352	333.69
306.582	330.69
306.812	327.69
307.042	324.69
307.272	354.69
307.502	355.69
307.731	331.69
307.961	351.69
308.191	348.69
308.421	357.69
308.651	342.69
308.881	332.69
309.111	341.69
309.341	344.69
309.571	345.69
309.8	342.69
310.03	345.69
310.26	349.69
310.49	361.69
310.72	366.69
310.949	360.69
311.179	377.69
311.409	363.69
311.639	358.69
311.868	380.69
312.098	363.69
312.328	373.69
312.557	378.69
312.787	393.69
313.017	361.69
313.246	376.69
313.476	363.69
313.706	357.69
313.935	397.69
314.165	379.69
314.394	376.69
314.624	379.69
314.853	368.69
315.083	371.69
315.312	369.69
315.542	372.69
315.771	371.69
316.001	371.69
316.23	379.69
316.46	373.69
316.689	390.69
316.919	369.69
317.148	379.69
317.377	364.69
317.607	379.69
317.836	372.69
318.065	356.69
318.295	373.69
318.524	378.69
318.753	363.69
318.983	372.69
319.212	362.69
319.441	390.69
319.67	356.69
319.9	380.69
320.129	378.69
320.358	365.69
320.587	368.69
320.816	382.69
321.046	379.69
321.275	381.69
321.504	394.69
321.733	388.69
321.962	393.69
322.191	394.69
322.42	406.69
322.649	417.69
322.878	408.69
323.108	417.69
323.337	435.69
323.566	449.69
323.795	470.69
324.024	483.69
324.253	544.69
324.482	706.69
324.71	1024.69
324.939	1440.69
325.168	1302.69
325.397	738.69
325.626	526.69
325.855	461.69
326.084	450.69
326.313	461.69
326.542	456.69
326.77	466.69
326.999	530.69
327.228	672.69
327.457	970.69
327.686	1170.69
327.914	819.69
328.143	586.69
328.372	522.69
328.6	504.69
328.829	489.69
329.058	492.69
329.287	485.69
329.515	476.69
329.744	472.69
329.972	473.69
330.201	497.69
330.43	490.69
330.658	493.69
330.887	520.69
331.115	520.69
331.344	481.69
331.572	450.69
331.801	472.69
332.03	472.69
332.258	446.69
332.486	471.69
332.715	440.69
332.943	467.69
333.172	456.69
333.4	475.69
333.629	462.69
333.857	486.69
334.085	495.69
334.314	506.69
334.542	503.69
334.771	501.69
334.999	498.69
335.227	475.69
335.455	500.69
335.684	461.69
335.912	470.69
336.14	460.69
336.369	464.69
336.597	447.69
336.825	438.69
337.053	442.69
337.281	421.69
337.51	446.69
337.738	446.69
337.966	436.69
338.194	449.69
338.422	448.69
338.65	436.69
338.878	441.69
339.106	423.69
339.334	430.69
339.562	413.69
339.79	456.69
340.018	422.69
340.246	443.69
340.474	437.69
340.702	446.69
340.93	439.69
341.158	423.69
341.386	437.69
341.614	442.69
341.842	425.69
342.07	414.69
342.298	428.69
342.526	410.69
342.754	396.69
342.981	445.69
343.209	410.69
343.437	422.69
343.665	437.69
343.893	442.69
344.12	467.69
344.348	453.69
344.576	461.69
344.804	441.69
345.031	434.69
345.259	426.69
345.487	457.69
345.714	417.69
345.942	417.69
346.17	414.69
346.397	412.69
346.625	410.69
346.853	391.69
347.08	405.69
347.308	390.69
347.535	425.69
347.763	427.69
347.99	424.69
348.218	426.69
348.445	407.69
348.673	398.69
348.9	397.69
349.128	424.69
349.355	404.69
349.583	419.69
349.81	399.69
350.037	402.69
350.265	409.69
350.492	415.69
350.72	381.69
350.947	397.69
351.174	418.69
351.402	420.69
351.629	401.69
351.856	391.69
352.083	414.69
352.311	418.69
352.538	421.69
352.765	419.69
352.992	411.69
353.22	401.69
353.447	410.69
353.674	395.69
353.901	412.69
354.128	394.69
354.355	382.69
354.583	388.69
354.81	401.69
355.037	388.69
355.264	389.69
355.491	394.69
355.718	374.69
355.945	398.69
356.172	387.69
356.399	404.69
356.626	392.69
356.853	400.69
357.08	393.69
357.307	406.69
357.534	415.69
357.761	375.69
357.988	394.69
358.215	402.69
358.441	371.69
358.668	384.69
358.895	391.69
359.122	399.69
359.349	386.69
359.576	406.69
359.802	422.69
360.029	408.69
360.256	417.69
360.483	427.69
360.709	412.69
360.936	399.69
361.163	398.69
361.39	398.69
361.616	401.69
361.843	393.69
362.07	412.69
362.296	399.69
362.523	389.69
362.749	406.69
362.976	411.69
363.203	426.69
363.429	391.69
363.656	402.69
363.882	412.69
364.109	394.69
364.335	397.69
364.562	397.69
364.788	387.69
365.015	386.69
365.241	398.69
365.468	397.69
365.694	405.69
365.92	409.69
366.147	390.69
366.373	396.69
366.599	409.69
366.826	397.69
367.052	387.69
367.278	382.69
367.505	399.69
367.731	392.69
367.957	400.69
368.184	401.69
368.41	391.69
368.636	380.69
368.862	423.69
369.089	388.69
369.315	395.69
369.541	404.69
369.767	406.69
369.993	404.69
370.219	396.69
370.445	395.69
370.672	381.69
370.898	421.69
371.124	411.69
371.35	397.69
371.576	401.69
371.802	416.69
372.028	395.69
372.254	394.69
372.48	406.69
372.706	406.69
372.932	420.69
373.158	422.69
373.384	424.69
373.61	408.69
373.835	403.69
374.061	411.69
374.287	404.69
374.513	416.69
374.739	432.69
374.965	408.69
375.191	441.69
375.416	414.69
375.642	408.69
375.868	424.69
376.094	418.69
376.319	416.69
376.545	408.69
376.771	419.69
376.997	408.69
377.222	398.69
377.448	402.69
377.674	410.69
377.899	409.69
378.125	402.69
378.35	406.69
378.576	392.69
378.802	396.69
379.027	394.69
379.253	405.69
379.478	409.69
379.704	396.69
379.929	408.69
380.155	410.69
380.38	421.69
380.606	424.69
380.831	409.69
381.057	414.69
381.282	411.69
381.507	412.69
381.733	389.69
381.958	394.69
382.184	416.69
382.409	417.69
382.634	449.69
382.86	421.69
383.085	408.69
383.31	426.69
383.535	449.69
383.761	442.69
383.986	451.69
384.211	435.69
384.436	445.69
384.662	436.69
384.887	446.69
385.112	454.69
385.337	466.69
385.562	458.69
385.787	470.69
386.013	449.69
386.238	484.69
386.463	475.69
386.688	456.69
386.913	470.69
387.138	462.69
387.363	459.69
387.588	467.69
387.813	472.69
388.038	443.69
388.263	445.69
388.488	464.69
388.713	460.69
388.938	454.69
389.163	457.69
389.387	453.69
389.612	451.69
389.837	456.69
390.062	445.69
390.287	451.69
390.512	445.69
390.736	455.69
390.961	470.69
391.186	467.69
391.411	482.69
391.636	483.69
391.86	464.69
392.085	498.69
392.31	469.69
392.534	475.69
392.759	485.69
392.984	467.69
393.208	499.69
393.433	482.69
393.658	462.69
393.882	477.69
394.107	453.69
394.331	471.69
394.556	487.69
394.78	479.69
395.005	477.69
395.229	457.69
395.454	482.69
395.678	501.69
395.903	500.69
396.127	516.69
396.352	501.69
396.576	481.69
396.801	467.69
397.025	484.69
397.249	508.69
397.474	499.69
397.698	489.69
397.922	516.69
398.147	511.69
398.371	535.69
398.595	553.69
398.82	542.69
399.044	568.69
399.268	576.69
399.492	638.69
399.717	682.69
399.941	707.69
400.165	702.69
400.389	667.69
400.613	616.69
400.837	580.69
401.062	564.69
401.286	568.69
401.51	554.69
401.734	537.69
401.958	543.69
402.182	560.69
402.406	577.69
402.63	563.69
402.854	577.69
403.078	541.69
403.302	584.69
403.526	560.69
403.75	579.69
403.974	580.69
404.198	557.69
404.422	592.69
404.645	601.69
404.869	584.69
405.093	616.69
405.317	637.69
405.541	678.69
405.765	638.69
405.988	581.69
406.212	568.69
406.436	602.69
406.66	621.69
406.883	605.69
407.107	610.69
407.331	680.69
407.555	714.69
407.778	715.69
408.002	687.69
408.226	622.69
408.449	636.69
408.673	629.69
408.896	629.69
409.12	664.69
409.344	622.69
409.567	596.69
409.791	581.69
410.014	562.69
410.238	572.69
410.461	572.69
410.685	567.69
410.908	561.69
411.132	603.69
411.355	637.69
411.578	603.69
411.802	586.69
412.025	540.69
412.249	590.69
412.472	600.69
412.695	621.69
412.919	581.69
413.142	567.69
413.365	557.69
413.589	563.69
413.812	542.69
414.035	519.69
414.258	526.69
414.482	517.69
414.705	539.69
414.928	526.69
415.151	535.69
415.374	542.69
415.597	514.69
415.821	524.69
416.044	516.69
416.267	516.69
416.49	548.69
416.713	526.69
416.936	547.69
417.159	529.69
417.382	520.69
417.605	557.69
417.828	567.69
418.051	553.69
418.274	547.69
418.497	534.69
418.72	564.69
418.943	539.69
419.166	556.69
419.389	579.69
419.611	573.69
419.834	567.69
420.057	556.69
420.28	573.69
420.503	544.69
420.726	548.69
420.948	562.69
421.171	612.69
421.394	628.69
421.617	555.69
421.839	557.69
422.062	549.69
422.285	543.69
422.507	599.69
422.73	640.69
422.953	640.69
423.175	565.69
423.398	587.69
423.621	570.69
423.843	575.69
424.066	555.69
424.288	586.69
424.511	595.69
424.733	651.69
424.956	706.69
425.178	646.69
425.401	654.69
425.623	686.69
425.846	604.69
426.068	566.69
426.291	542.69
426.513	563.69
426.735	558.69
426.958	613.69
427.18	633.69
427.402	746.69
427.625	805.69
427.847	679.69
428.069	628.69
428.292	574.69
428.514	527.69
428.736	549.69
428.958	534.69
429.181	520.69
429.403	517.69
429.625	525.69
429.847	550.69
430.069	582.69
430.292	590.69
430.514	521.69
430.736	513.69
430.958	502.69
431.18	512.69
431.402	476.69
431.624	487.69
431.846	489.69
432.068	512.69
432.29	522.69
432.512	518.69
432.734	522.69
432.956	494.69
433.178	519.69
433.4	518.69
433.622	509.69
433.844	504.69
434.066	498.69
434.287	496.69
434.509	529.69
434.731	530.69
434.953	530.69
435.175	559.69
435.397	568.69
435.618	564.69
435.84	584.69
436.062	638.69
436.284	709.69
436.505	628.69
436.727	558.69
436.949	532.69
437.17	528.69
437.392	511.69
437.614	548.69
437.835	562.69
438.057	622.69
438.278	673.69
438.5	674.69
438.721	760.69
438.943	714.69
439.165	594.69
439.386	556.69
439.608	562.69
439.829	536.69
440.05	568.69
440.272	579.69
440.493	581.69
440.715	529.69
440.936	514.69
441.158	536.69
441.379	530.69
441.6	544.69
441.822	588.69
442.043	600.69
442.264	637.69
442.486	671.69
442.707	598.69
442.928	593.69
443.149	586.69
443.371	579.69
443.592	621.69
443.813	701.69
444.034	711.69
444.255	641.69
444.476	621.69
444.698	602.69
444.919	602.69
445.14	731.69
445.361	638.69
445.582	608.69
445.803	621.69
446.024	715.69
446.245	711.69
446.466	665.69
446.687	587.69
446.908	564.69
447.129	535.69
447.35	526.69
447.571	501.69
447.792	493.69
448.013	527.69
448.234	537.69
448.455	544.69
448.675	629.69
448.896	704.69
449.117	628.69
449.338	582.69
449.559	671.69
449.779	763.69
450	624.69
450.221	527.69
450.442	501.69
450.662	481.69
450.883	497.69
451.104	496.69
451.324	493.69
451.545	489.69
451.766	482.69
451.986	462.69
452.207	451.69
452.428	466.69
452.648	459.69
452.869	454.69
453.089	435.69
453.31	453.69
453.53	470.69
453.751	461.69
453.971	439.69
454.192	475.69
454.412	474.69
454.633	484.69
454.853	458.69
455.073	438.69
455.294	465.69
455.514	522.69
455.734	518.69
455.955	471.69
456.175	443.69
456.395	437.69
456.616	420.69
456.836	438.69
457.056	422.69
457.276	429.69
457.497	448.69
457.717	460.69
457.937	451.69
458.157	450.69
458.377	457.69
458.598	455.69
458.818	507.69
459.038	553.69
459.258	567.69
459.478	525.69
459.698	505.69
459.918	501.69
460.138	501.69
460.358	537.69
460.578	546.69
460.798	557.69
461.018	536.69
461.238	564.69
461.458	578.69
461.678	547.69
461.898	544.69
462.118	560.69
462.338	587.69
462.558	570.69
462.777	601.69
462.997	608.69
463.217	627.69
463.437	633.69
463.657	600.69
463.876	594.69
464.096	583.69
464.316	593.69
464.536	594.69
464.755	584.69
464.975	572.69
465.195	606.69
465.414	595.69
465.634	544.69
465.854	518.69
466.073	511.69
466.293	510.69
466.512	503.69
466.732	500.69
466.951	519.69
467.171	481.69
467.391	485.69
467.61	489.69
467.829	493.69
468.049	499.69
468.268	480.69
468.488	491.69
468.707	496.69
468.927	467.69
469.146	458.69
469.365	475.69
469.585	487.69
469.804	475.69
470.023	487.69
470.243	491.69
470.462	501.69
470.681	500.69
470.901	485.69
471.12	503.69
471.339	516.69
471.558	475.69
471.777	497.69
471.997	468.69
472.216	477.69
472.435	489.69
472.654	495.69
472.873	491.69
473.092	465.69
473.311	461.69
473.53	497.69
473.749	490.69
473.968	512.69
474.187	580.69
474.406	561.69
474.625	516.69
474.844	492.69
475.063	487.69
475.282	478.69
475.501	467.69
475.72	503.69
475.939	487.69
476.158	494.69
476.377	502.69
476.596	486.69
476.814	516.69
477.033	488.69
477.252	493.69
477.471	495.69
477.69	522.69
477.908	524.69
478.127	544.69
478.346	515.69
478.564	550.69
478.783	551.69
479.002	566.69
479.22	573.69
479.439	569.69
479.658	598.69
479.876	581.69
480.095	590.69
480.313	620.69
480.532	621.69
480.751	601.69
480.969	613.69
481.188	637.69
481.406	635.69
481.624	599.69
481.843	584.69
482.061	562.69
482.28	561.69
482.498	554.69
482.717	568.69
482.935	573.69
483.153	544.69
483.372	557.69
483.59	562.69
483.808	570.69
484.027	582.69
484.245	562.69
484.463	545.69
484.681	577.69
484.9	579.69
485.118	565.69
485.336	574.69
485.554	576.69
485.772	572.69
485.99	577.69
486.209	573.69
486.427	595.69
486.645	589.69
486.863	568.69
487.081	611.69
487.299	601.69
487.517	577.69
487.735	596.69
487.953	604.69
488.171	593.69
488.389	590.69
488.607	606.69
488.825	594.69
489.043	589.69
489.261	600.69
489.479	596.69
489.696	620.69
489.914	573.69
490.132	614.69
490.35	609.69
490.568	605.69
490.786	619.69
491.003	608.69
491.221	619.69
491.439	639.69
491.657	645.69
491.874	654.69
492.092	644.69
492.31	653.69
492.527	655.69
492.745	674.69
492.963	655.69
493.18	663.69
493.398	668.69
493.615	695.69
493.833	694.69
494.05	675.69
494.268	684.69
494.485	698.69
494.703	675.69
494.92	698.69
495.138	694.69
495.355	688.69
495.573	674.69
495.79	671.69
496.008	690.69
496.225	669.69
496.442	705.69
496.66	704.69
496.877	683.69
497.094	711.69
497.312	699.69
497.529	739.69
497.746	717.69
497.963	760.69
498.181	749.69
498.398	768.69
498.615	832.69
498.832	837.69
499.049	886.69
499.267	908.69
499.484	936.69
499.701	1014.69
499.918	1080.69
500.135	1129.69
500.352	1199.69
500.569	1254.69
500.786	1227.69
501.003	1225.69
501.22	1154.69
501.437	1068.69
501.654	1008.69
501.871	987.69
502.088	912.69
502.305	884.69
502.522	863.69
502.739	848.69
502.956	796.69
503.172	779.69
503.389	746.69
503.606	726.69
503.823	726.69
504.04	735.69
504.256	764.69
504.473	712.69
504.69	725.69
504.907	727.69
505.123	713.69
505.34	663.69
505.557	683.69
505.773	659.69
505.99	681.69
506.207	648.69
506.423	658.69
506.64	636.69
506.856	662.69
507.073	636.69
507.289	598.69
507.506	603.69
507.722	614.69
507.939	640.69
508.155	602.69
508.372	624.69
508.588	619.69
508.805	599.69
509.021	602.69
509.238	591.69
509.454	604.69
509.67	613.69
509.887	582.69
510.103	576.69
510.319	586.69
510.536	630.69
510.752	900.69
510.968	773.69
511.184	602.69
511.401	585.69
511.617	596.69
511.833	578.69
512.049	580.69
512.265	576.69
512.481	570.69
512.698	578.69
512.914	560.69
513.13	567.69
513.346	552.69
513.562	579.69
513.778	544.69
513.994	585.69
514.21	597.69
514.426	600.69
514.642	597.69
514.858	634.69
515.074	658.69
515.29	695.69
515.506	851.69
515.721	764.69
515.937	620.69
516.153	608.69
516.369	605.69
516.585	611.69
516.801	634.69
517.016	621.69
517.232	632.69
517.448	631.69
517.664	653.69
517.879	660.69
518.095	638.69
518.311	659.69
518.527	629.69
518.742	627.69
518.958	613.69
519.173	627.69
519.389	603.69
519.605	589.69
519.82	562.69
520.036	587.69
520.251	606.69
520.467	589.69
520.682	607.69
520.898	578.69
521.113	595.69
521.329	596.69
521.544	627.69
521.76	724.69
521.975	1027.69
522.19	1009.69
522.406	654.69
522.621	600.69
522.836	536.69
523.052	548.69
523.267	526.69
523.482	513.69
523.698	516.69
523.913	526.69
524.128	517.69
524.343	503.69
524.559	522.69
524.774	506.69
524.989	502.69
525.204	516.69
525.419	498.69
525.634	505.69
525.849	499.69
526.064	496.69
526.28	519.69
526.495	496.69
526.71	473.69
526.925	482.69
527.14	469.69
527.355	474.69
527.57	497.69
527.785	495.69
527.999	490.69
528.214	489.69
528.429	487.69
528.644	492.69
528.859	510.69
529.074	486.69
529.289	486.69
529.503	531.69
529.718	492.69
529.933	484.69
530.148	493.69
530.363	481.69
530.577	476.69
530.792	490.69
531.007	480.69
531.221	483.69
531.436	498.69
531.651	506.69
531.865	488.69
532.08	468.69
532.295	485.69
532.509	482.69
532.724	468.69
532.938	469.69
533.153	458.69
533.367	480.69
533.582	462.69
533.796	482.69
534.011	438.69
534.225	481.69
534.44	475.69
534.654	456.69
534.868	468.69
535.083	461.69
535.297	476.69
535.511	454.69
535.726	469.69
535.94	467.69
536.154	461.69
536.369	456.69
536.583	455.69
536.797	445.69
537.011	447.69
537.225	419.69
537.44	435.69
537.654	464.69
537.868	445.69
538.082	449.69
538.296	465.69
538.51	459.69
538.724	435.69
538.938	441.69
539.153	465.69
539.367	457.69
539.581	469.69
539.795	427.69
540.009	436.69
540.222	448.69
540.436	462.69
540.65	456.69
540.864	442.69
541.078	438.69
541.292	455.69
541.506	434.69
541.72	446.69
541.934	438.69
542.147	450.69
542.361	436.69
542.575	432.69
542.789	452.69
543.002	445.69
543.216	439.69
543.43	447.69
543.644	450.69
543.857	458.69
544.071	448.69
544.285	457.69
544.498	457.69
544.712	456.69
544.925	478.69
545.139	444.69
545.352	451.69
545.566	443.69
545.779	462.69
545.993	446.69
546.206	457.69
546.42	452.69
546.633	432.69
546.847	444.69
547.06	435.69
547.274	446.69
547.487	438.69
547.7	422.69
547.914	430.69
548.127	432.69
548.34	444.69
548.554	436.69
548.767	424.69
548.98	448.69
549.193	436.69
549.407	429.69
549.62	457.69
549.833	466.69
550.046	423.69
550.259	446.69
550.473	406.69
550.686	437.69
550.899	441.69
551.112	439.69
551.325	435.69
551.538	452.69
551.751	440.69
551.964	442.69
552.177	435.69
552.39	444.69
552.603	443.69
552.816	448.69
553.029	452.69
553.242	452.69
553.455	449.69
553.667	469.69
553.88	459.69
554.093	471.69
554.306	461.69
554.519	437.69
554.732	426.69
554.944	433.69
555.157	426.69
555.37	422.69
555.583	416.69
555.795	436.69
556.008	412.69
556.221	415.69
556.433	398.69
556.646	405.69
556.859	396.69
557.071	400.69
557.284	388.69
557.496	398.69
557.709	389.69
557.921	396.69
558.134	406.69
558.346	396.69
558.559	389.69
558.771	397.69
558.984	384.69
559.196	404.69
559.409	394.69
559.621	378.69
559.833	379.69
560.046	397.69
560.258	381.69
560.47	384.69
560.683	379.69
560.895	384.69
561.107	389.69
561.32	377.69
561.532	385.69
561.744	391.69
561.956	384.69
562.168	405.69
562.381	396.69
562.593	392.69
562.805	390.69
563.017	412.69
563.229	397.69
563.441	387.69
563.653	390.69
563.865	387.69
564.077	402.69
564.289	412.69
564.501	417.69
564.713	408.69
564.925	411.69
565.137	416.69
565.349	422.69
565.561	440.69
565.773	436.69
565.985	476.69
566.197	490.69
566.408	485.69
566.62	514.69
566.832	546.69
567.044	546.69
567.255	569.69
567.467	572.69
567.679	569.69
567.891	618.69
568.102	590.69
568.314	579.69
568.526	560.69
568.737	501.69
568.949	506.69
569.161	459.69
569.372	442.69
569.584	434.69
569.795	411.69
570.007	420.69
570.218	434.69
570.43	430.69
570.641	410.69
570.853	388.69
571.064	404.69
571.276	402.69
571.487	388.69
571.698	378.69
571.91	385.69
572.121	361.69
572.333	372.69
572.544	352.69
572.755	361.69
572.966	370.69
573.178	367.69
573.389	348.69
573.6	361.69
573.811	342.69
574.023	348.69
574.234	325.69
574.445	341.69
574.656	369.69
574.867	324.69
575.078	337.69
575.289	352.69
575.501	336.69
575.712	330.69
575.923	343.69
576.134	334.69
576.345	334.69
576.556	356.69
576.767	359.69
576.978	345.69
577.188	328.69
577.399	328.69
577.61	333.69
577.821	314.69
578.032	316.69
578.243	344.69
578.454	445.69
578.665	369.69
578.875	339.69
579.086	328.69
579.297	327.69
579.508	325.69
579.718	324.69
579.929	297.69
580.14	317.69
580.35	306.69
580.561	315.69
580.772	311.69
580.982	334.69
581.193	326.69
581.403	318.69
581.614	317.69
581.825	316.69
582.035	332.69
582.246	312.69
582.456	318.69
582.667	319.69
582.877	323.69
583.087	308.69
583.298	309.69
583.508	321.69
583.719	308.69
583.929	322.69
584.139	287.69
584.35	312.69
584.56	315.69
584.77	298.69
584.981	301.69
585.191	309.69
585.401	301.69
585.611	301.69
585.821	295.69
586.032	299.69
586.242	303.69
586.452	293.69
586.662	297.69
586.872	289.69
587.082	298.69
587.292	287.69
587.502	314.69
587.713	311.69
587.923	300.69
588.133	307.69
588.343	293.69
588.553	305.69
588.762	306.69
588.972	317.69
589.182	345.69
589.392	344.69
589.602	309.69
589.812	337.69
590.022	306.69
590.232	311.69
590.441	316.69
590.651	306.69
590.861	295.69
591.071	299.69
591.281	324.69
591.49	304.69
591.7	316.69
591.91	329.69
592.119	312.69
592.329	327.69
592.539	342.69
592.748	341.69
592.958	332.69
593.167	344.69
593.377	344.69
593.587	340.69
593.796	338.69
594.006	350.69
594.215	355.69
594.424	339.69
594.634	342.69
594.843	344.69
595.053	322.69
595.262	325.69
595.472	323.69
595.681	305.69
595.89	297.69
596.1	318.69
596.309	300.69
596.518	305.69
596.727	294.69
596.937	292.69
597.146	292.69
597.355	277.69
597.564	281.69
597.774	279.69
597.983	268.69
598.192	264.69
598.401	284.69
598.61	289.69
598.819	273.69
599.028	274.69
599.237	270.69
599.446	268.69
599.655	259.69
599.864	275.69
600.073	271.69
600.282	280.69
600.491	264.69
600.7	250.69
600.909	256.69
601.118	268.69
601.327	255.69
601.536	247.69
601.745	268.69
601.953	272.69
602.162	251.69
602.371	264.69
602.58	268.69
602.789	249.69
602.997	251.69
603.206	257.69
603.415	253.69
603.623	252.69
603.832	265.69
604.041	265.69
604.249	248.69
604.458	258.69
604.666	224.69
604.875	249.69
605.084	260.69
605.292	248.69
605.501	243.69
605.709	245.69
605.918	236.69
606.126	260.69
606.334	248.69
606.543	243.69
606.751	230.69
606.96	233.69
607.168	254.69
607.376	245.69
607.585	256.69
607.793	247.69
608.001	250.69
608.21	249.69
608.418	257.69
608.626	232.69
608.834	241.69
609.043	252.69
609.251	252.69
609.459	227.69
609.667	243.69
609.875	248.69
610.083	232.69
610.291	233.69
610.499	229.69
610.707	238.69
610.916	243.69
611.124	232.69
611.332	242.69
611.54	240.69
611.748	247.69
611.955	243.69
612.163	231.69
612.371	236.69
612.579	218.69
612.787	244.69
612.995	228.69
613.203	243.69
613.411	244.69
613.618	236.69
613.826	250.69
614.034	237.69
614.242	238.69
614.449	243.69
614.657	233.69
614.865	230.69
615.072	237.69
615.28	238.69
615.488	230.69
615.695	224.69
615.903	246.69
616.111	240.69
616.318	262.69
616.526	247.69
616.733	241.69
616.941	227.69
617.148	245.69
617.356	229.69
617.563	234.69
617.771	236.69
617.978	229.69
618.185	234.69
618.393	229.69
618.6	216.69
618.807	234.69
619.015	249.69
619.222	227.69
619.429	234.69
619.637	227.69
619.844	227.69
620.051	216.69
620.258	209.69
620.466	228.69
620.673	228.69
620.88	235.69
621.087	216.69
621.294	228.69
621.501	226.69
621.708	218.69
621.915	214.69
622.122	216.69
622.329	215.69
622.536	212.69
622.743	214.69
622.95	236.69
623.157	201.69
623.364	224.69
623.571	213.69
623.778	218.69
623.985	226.69
624.192	225.69
624.399	210.69
624.606	235.69
624.812	225.69
625.019	188.69
625.226	216.69
625.433	221.69
625.639	213.69
625.846	200.69
626.053	212.69
626.259	230.69
626.466	220.69
626.673	193.69
626.879	206.69
627.086	211.69
627.293	208.69
627.499	212.69
627.706	220.69
627.912	205.69
628.119	192.69
628.325	200.69
628.532	194.69
628.738	210.69
628.945	188.69
629.151	195.69
629.357	204.69
629.564	205.69
629.77	193.69
629.976	203.69
630.183	211.69
630.389	200.69
630.595	196.69
630.802	197.69
631.008	186.69
631.214	198.69
631.42	190.69
631.627	199.69
631.833	200.69
632.039	186.69
632.245	197.69
632.451	188.69
632.657	180.69
632.863	193.69
633.069	199.69
633.275	192.69
633.481	168.69
633.688	188.69
633.893	174.69
634.099	180.69
634.305	197.69
634.511	183.69
634.717	186.69
634.923	189.69
635.129	190.69
635.335	186.69
635.541	189.69
635.747	180.69
635.952	195.69
636.158	181.69
636.364	182.69
636.57	199.69
636.775	181.69
636.981	183.69
637.187	186.69
637.392	160.69
637.598	173.69
637.804	174.69
638.009	182.69
638.215	177.69
638.421	169.69
638.626	197.69
638.832	173.69
639.037	166.69
639.243	160.69
639.448	182.69
639.654	169.69
639.859	178.69
640.065	188.69
640.27	194.69
640.475	162.69
640.681	172.69
640.886	171.69
641.091	169.69
641.297	176.69
641.502	173.69
641.707	177.69
641.913	184.69
642.118	179.69
642.323	180.69
642.528	167.69
642.733	150.69
642.939	167.69
643.144	180.69
643.349	154.69
643.554	179.69
643.759	168.69
643.964	170.69
644.169	166.69
644.374	148.69
644.579	177.69
644.784	162.69
644.989	176.69
645.194	164.69
645.399	165.69
645.604	157.69
645.809	168.69
646.014	163.69
646.219	172.69
646.423	149.69
646.628	165.69
646.833	180.69
647.038	162.69
647.243	161.69
647.447	164.69
647.652	173.69
647.857	164.69
648.062	175.69
648.266	174.69
648.471	165.69
648.676	166.69
648.88	170.69
649.085	168.69
649.289	168.69
649.494	182.69
649.698	177.69
649.903	172.69
650.107	157.69
650.312	163.69
650.516	145.69
650.721	165.69
650.925	147.69
651.13	157.69
651.334	157.69
651.539	155.69
651.743	150.69
651.947	146.69
652.152	145.69
652.356	152.69
652.56	144.69
652.764	148.69
652.969	153.69
653.173	145.69
653.377	150.69
653.581	151.69
653.785	159.69
653.99	139.69
654.194	149.69
654.398	137.69
654.602	130.69
654.806	150.69
655.01	138.69
655.214	146.69
655.418	143.69
655.622	113.69
655.826	141.69
656.03	151.69
656.234	151.69
656.438	151.69
656.642	143.69
656.846	140.69
657.049	132.69
657.253	123.69
657.457	111.69
657.661	124.69
657.865	128.69
658.068	114.69
658.272	113.69
658.476	117.69
658.68	106.69
658.883	121.69
659.087	115.69
659.291	106.69
659.494	112.69
659.698	101.69
659.901	101.69
660.105	98.69
660.309	97.69
660.512	115.69
660.716	96.69
660.919	89.69
661.123	92.69
661.326	100.69
661.53	74.69
661.733	94.69
661.936	90.69
662.14	95.69
662.343	94.69
662.546	91.69
662.75	97.69
662.953	96.69
663.156	93.69
663.36	84.69
663.563	84.69
663.766	101.69
663.969	75.69
664.173	80.69
664.376	92.69
664.579	80.69
664.782	89.69
664.985	88.69
665.188	89.69
665.391	82.69
665.594	66.69
665.797	94.69
666	82.69
666.203	88.69
666.406	83.69
666.609	78.69
666.812	81.69
667.015	74.69
667.218	78.69
667.421	86.69
667.624	85.69
667.827	94.69
668.03	81.69
668.232	100.69
668.435	81.69
668.638	90.69
668.841	77.69
669.043	81.69
669.246	78.69
669.449	79.69
669.651	64.69
669.854	85.69
670.057	93.69
670.259	79.69
670.462	90.69
670.665	85.69
670.867	98.69
671.07	87.69
671.272	87.69
671.475	103.69
671.677	97.69
671.88	76.69
672.082	88.69
672.284	85.69
672.487	79.69
672.689	71.69
672.892	83.69
