Data from 1962.PennyLincolnUp.Lamp.En5.5.200Scan.071719.P1._HRD10591_13-54-54-060.txt Node
Date: Thu Jul 18 13:54:54 EDT 2019
User: cochatt
Spectrometer: HR+D1059
Trigger mode: 1
Integration Time (sec): 1.000000E-1
Scans to average: 1
Electric dark correction enabled: true
Nonlinearity correction enabled: false
Boxcar width: 0
XAxis mode: Wavelengths
Number of Pixels in Spectrum: 2048
>>>>>Begin Spectral Data<<<<<
223.165	-12.62
223.4	-12.62
223.635	-12.62
223.869	-31.62
224.104	-17.62
224.338	-17.62
224.573	-13.62
224.808	-4.62
225.042	-9.62
225.277	-5.62
225.511	2.38
225.746	10.38
225.98	4.38
226.215	17.38
226.449	10.38
226.683	23.38
226.918	33.38
227.152	11.38
227.387	33.38
227.621	42.38
227.856	48.38
228.09	56.38
228.324	52.38
228.559	44.38
228.793	64.38
229.027	86.38
229.262	94.38
229.496	92.38
229.73	125.38
229.964	132.38
230.199	119.38
230.433	94.38
230.667	106.38
230.901	109.38
231.136	90.38
231.37	96.38
231.604	99.38
231.838	98.38
232.072	117.38
232.306	111.38
232.541	89.38
232.775	93.38
233.009	107.38
233.243	109.38
233.477	115.38
233.711	114.38
233.945	113.38
234.179	122.38
234.413	114.38
234.647	117.38
234.881	101.38
235.115	114.38
235.349	110.38
235.583	112.38
235.817	108.38
236.051	120.38
236.285	124.38
236.519	123.38
236.753	132.38
236.987	128.38
237.221	155.38
237.455	188.38
237.689	149.38
237.922	122.38
238.156	131.38
238.39	130.38
238.624	117.38
238.858	124.38
239.091	114.38
239.325	124.38
239.559	119.38
239.793	125.38
240.027	124.38
240.26	129.38
240.494	134.38
240.728	133.38
240.961	141.38
241.195	143.38
241.429	146.38
241.662	131.38
241.896	129.38
242.13	117.38
242.363	128.38
242.597	144.38
242.83	138.38
243.064	132.38
243.298	125.38
243.531	137.38
243.765	154.38
243.998	135.38
244.232	130.38
244.465	142.38
244.699	138.38
244.932	143.38
245.166	146.38
245.399	118.38
245.633	130.38
245.866	140.38
246.099	124.38
246.333	147.38
246.566	139.38
246.8	149.38
247.033	140.38
247.266	156.38
247.5	144.38
247.733	154.38
247.966	160.38
248.2	155.38
248.433	160.38
248.666	164.38
248.899	163.38
249.133	160.38
249.366	184.38
249.599	183.38
249.832	175.38
250.066	158.38
250.299	175.38
250.532	170.38
250.765	180.38
250.998	188.38
251.231	198.38
251.465	178.38
251.698	176.38
251.931	187.38
252.164	184.38
252.397	177.38
252.63	192.38
252.863	177.38
253.096	206.38
253.329	200.38
253.562	200.38
253.795	185.38
254.028	188.38
254.261	180.38
254.494	201.38
254.727	208.38
254.96	234.38
255.193	221.38
255.426	208.38
255.659	204.38
255.892	201.38
256.124	201.38
256.357	210.38
256.59	192.38
256.823	184.38
257.056	199.38
257.289	202.38
257.521	185.38
257.754	203.38
257.987	197.38
258.22	192.38
258.452	197.38
258.685	209.38
258.918	198.38
259.151	197.38
259.383	207.38
259.616	181.38
259.849	192.38
260.081	211.38
260.314	218.38
260.547	239.38
260.779	207.38
261.012	211.38
261.244	195.38
261.477	204.38
261.71	210.38
261.942	200.38
262.175	217.38
262.407	204.38
262.64	206.38
262.872	197.38
263.105	204.38
263.337	214.38
263.57	202.38
263.802	220.38
264.035	213.38
264.267	210.38
264.499	198.38
264.732	201.38
264.964	215.38
265.197	205.38
265.429	234.38
265.661	216.38
265.894	204.38
266.126	202.38
266.358	203.38
266.591	216.38
266.823	227.38
267.055	214.38
267.287	228.38
267.52	209.38
267.752	229.38
267.984	234.38
268.216	219.38
268.448	227.38
268.681	221.38
268.913	239.38
269.145	255.38
269.377	267.38
269.609	239.38
269.841	266.38
270.073	254.38
270.306	280.38
270.538	297.38
270.77	282.38
271.002	255.38
271.234	256.38
271.466	274.38
271.698	290.38
271.93	279.38
272.162	287.38
272.394	273.38
272.626	282.38
272.858	274.38
273.09	279.38
273.322	243.38
273.553	245.38
273.785	234.38
274.017	248.38
274.249	260.38
274.481	253.38
274.713	264.38
274.945	273.38
275.176	260.38
275.408	258.38
275.64	268.38
275.872	247.38
276.104	264.38
276.335	254.38
276.567	272.38
276.799	273.38
277.031	286.38
277.262	289.38
277.494	306.38
277.726	279.38
277.957	278.38
278.189	270.38
278.421	268.38
278.652	270.38
278.884	269.38
279.115	273.38
279.347	259.38
279.579	267.38
279.81	276.38
280.042	265.38
280.273	264.38
280.505	280.38
280.736	268.38
280.968	261.38
281.199	267.38
281.431	283.38
281.662	270.38
281.894	270.38
282.125	268.38
282.356	290.38
282.588	293.38
282.819	296.38
283.051	273.38
283.282	283.38
283.513	256.38
283.745	273.38
283.976	279.38
284.207	276.38
284.439	286.38
284.67	289.38
284.901	296.38
285.132	286.38
285.364	266.38
285.595	287.38
285.826	289.38
286.057	296.38
286.288	265.38
286.52	278.38
286.751	267.38
286.982	290.38
287.213	280.38
287.444	278.38
287.675	297.38
287.906	283.38
288.138	283.38
288.369	294.38
288.6	310.38
288.831	308.38
289.062	299.38
289.293	303.38
289.524	304.38
289.755	303.38
289.986	305.38
290.217	307.38
290.448	291.38
290.679	299.38
290.91	303.38
291.141	328.38
291.371	309.38
291.602	306.38
291.833	301.38
292.064	293.38
292.295	292.38
292.526	320.38
292.757	290.38
292.987	290.38
293.218	307.38
293.449	302.38
293.68	286.38
293.91	310.38
294.141	297.38
294.372	304.38
294.603	280.38
294.833	304.38
295.064	307.38
295.295	281.38
295.525	302.38
295.756	290.38
295.987	303.38
296.217	319.38
296.448	331.38
296.679	315.38
296.909	314.38
297.14	316.38
297.37	313.38
297.601	314.38
297.831	318.38
298.062	301.38
298.292	310.38
298.523	342.38
298.753	329.38
298.984	324.38
299.214	312.38
299.445	323.38
299.675	323.38
299.905	334.38
300.136	320.38
300.366	314.38
300.597	324.38
300.827	330.38
301.057	342.38
301.288	349.38
301.518	326.38
301.748	343.38
301.979	328.38
302.209	341.38
302.439	330.38
302.669	333.38
302.9	329.38
303.13	344.38
303.36	342.38
303.59	345.38
303.82	325.38
304.051	321.38
304.281	340.38
304.511	332.38
304.741	352.38
304.971	314.38
305.201	324.38
305.431	331.38
305.661	338.38
305.891	339.38
306.121	359.38
306.352	358.38
306.582	359.38
306.812	342.38
307.042	338.38
307.272	347.38
307.502	326.38
307.731	347.38
307.961	339.38
308.191	339.38
308.421	340.38
308.651	337.38
308.881	334.38
309.111	337.38
309.341	330.38
309.571	345.38
309.8	370.38
310.03	350.38
310.26	365.38
310.49	354.38
310.72	366.38
310.949	363.38
311.179	376.38
311.409	363.38
311.639	364.38
311.868	366.38
312.098	358.38
312.328	379.38
312.557	380.38
312.787	374.38
313.017	380.38
313.246	380.38
313.476	357.38
313.706	363.38
313.935	381.38
314.165	378.38
314.394	380.38
314.624	382.38
314.853	363.38
315.083	382.38
315.312	372.38
315.542	389.38
315.771	366.38
316.001	381.38
316.23	358.38
316.46	392.38
316.689	375.38
316.919	363.38
317.148	395.38
317.377	375.38
317.607	360.38
317.836	386.38
318.065	391.38
318.295	382.38
318.524	361.38
318.753	345.38
318.983	376.38
319.212	371.38
319.441	372.38
319.67	379.38
319.9	383.38
320.129	375.38
320.358	356.38
320.587	371.38
320.816	356.38
321.046	362.38
321.275	377.38
321.504	386.38
321.733	408.38
321.962	388.38
322.191	401.38
322.42	391.38
322.649	404.38
322.878	418.38
323.108	419.38
323.337	453.38
323.566	442.38
323.795	467.38
324.024	494.38
324.253	544.38
324.482	720.38
324.71	1008.38
324.939	1432.38
325.168	1256.38
325.397	733.38
325.626	536.38
325.855	458.38
326.084	470.38
326.313	462.38
326.542	447.38
326.77	490.38
326.999	547.38
327.228	690.38
327.457	954.38
327.686	1125.38
327.914	802.38
328.143	583.38
328.372	518.38
328.6	503.38
328.829	483.38
329.058	508.38
329.287	488.38
329.515	492.38
329.744	461.38
329.972	468.38
330.201	473.38
330.43	480.38
330.658	500.38
330.887	502.38
331.115	515.38
331.344	484.38
331.572	468.38
331.801	443.38
332.03	480.38
332.258	470.38
332.486	471.38
332.715	456.38
332.943	454.38
333.172	459.38
333.4	473.38
333.629	465.38
333.857	488.38
334.085	486.38
334.314	517.38
334.542	518.38
334.771	504.38
334.999	498.38
335.227	488.38
335.455	476.38
335.684	449.38
335.912	456.38
336.14	474.38
336.369	454.38
336.597	445.38
336.825	441.38
337.053	468.38
337.281	444.38
337.51	432.38
337.738	451.38
337.966	445.38
338.194	445.38
338.422	428.38
338.65	440.38
338.878	429.38
339.106	448.38
339.334	442.38
339.562	403.38
339.79	434.38
340.018	432.38
340.246	426.38
340.474	443.38
340.702	412.38
340.93	448.38
341.158	448.38
341.386	414.38
341.614	422.38
341.842	424.38
342.07	421.38
342.298	419.38
342.526	404.38
342.754	415.38
342.981	406.38
343.209	415.38
343.437	430.38
343.665	430.38
343.893	460.38
344.12	471.38
344.348	468.38
344.576	453.38
344.804	444.38
345.031	445.38
345.259	459.38
345.487	424.38
345.714	428.38
345.942	422.38
346.17	408.38
346.397	394.38
346.625	395.38
346.853	406.38
347.08	417.38
347.308	406.38
347.535	419.38
347.763	427.38
347.99	408.38
348.218	416.38
348.445	400.38
348.673	409.38
348.9	415.38
349.128	426.38
349.355	401.38
349.583	393.38
349.81	408.38
350.037	402.38
350.265	378.38
350.492	403.38
350.72	398.38
350.947	402.38
351.174	390.38
351.402	408.38
351.629	407.38
351.856	401.38
352.083	399.38
352.311	409.38
352.538	415.38
352.765	404.38
352.992	415.38
353.22	414.38
353.447	399.38
353.674	394.38
353.901	407.38
354.128	400.38
354.355	391.38
354.583	375.38
354.81	408.38
355.037	406.38
355.264	382.38
355.491	388.38
355.718	386.38
355.945	404.38
356.172	384.38
356.399	404.38
356.626	375.38
356.853	388.38
357.08	396.38
357.307	377.38
357.534	398.38
357.761	392.38
357.988	386.38
358.215	378.38
358.441	375.38
358.668	401.38
358.895	393.38
359.122	396.38
359.349	396.38
359.576	423.38
359.802	406.38
360.029	417.38
360.256	443.38
360.483	405.38
360.709	404.38
360.936	422.38
361.163	398.38
361.39	407.38
361.616	410.38
361.843	392.38
362.07	418.38
362.296	409.38
362.523	405.38
362.749	415.38
362.976	405.38
363.203	392.38
363.429	409.38
363.656	399.38
363.882	390.38
364.109	417.38
364.335	390.38
364.562	397.38
364.788	405.38
365.015	401.38
365.241	416.38
365.468	389.38
365.694	428.38
365.92	388.38
366.147	410.38
366.373	392.38
366.599	395.38
366.826	392.38
367.052	391.38
367.278	397.38
367.505	396.38
367.731	386.38
367.957	390.38
368.184	399.38
368.41	398.38
368.636	406.38
368.862	403.38
369.089	388.38
369.315	411.38
369.541	393.38
369.767	392.38
369.993	390.38
370.219	385.38
370.445	391.38
370.672	411.38
370.898	386.38
371.124	414.38
371.35	409.38
371.576	391.38
371.802	392.38
372.028	394.38
372.254	399.38
372.48	417.38
372.706	408.38
372.932	434.38
373.158	415.38
373.384	412.38
373.61	408.38
373.835	402.38
374.061	411.38
374.287	422.38
374.513	406.38
374.739	419.38
374.965	438.38
375.191	414.38
375.416	408.38
375.642	424.38
375.868	422.38
376.094	424.38
376.319	409.38
376.545	407.38
376.771	411.38
376.997	406.38
377.222	408.38
377.448	394.38
377.674	404.38
377.899	395.38
378.125	416.38
378.35	418.38
378.576	408.38
378.802	390.38
379.027	406.38
379.253	390.38
379.478	395.38
379.704	403.38
379.929	404.38
380.155	405.38
380.38	401.38
380.606	391.38
380.831	407.38
381.057	425.38
381.282	386.38
381.507	379.38
381.733	410.38
381.958	408.38
382.184	410.38
382.409	418.38
382.634	411.38
382.86	420.38
383.085	418.38
383.31	442.38
383.535	431.38
383.761	418.38
383.986	411.38
384.211	416.38
384.436	436.38
384.662	432.38
384.887	439.38
385.112	447.38
385.337	460.38
385.562	457.38
385.787	467.38
386.013	484.38
386.238	461.38
386.463	451.38
386.688	454.38
386.913	456.38
387.138	445.38
387.363	475.38
387.588	477.38
387.813	457.38
388.038	467.38
388.263	440.38
388.488	440.38
388.713	443.38
388.938	458.38
389.163	460.38
389.387	447.38
389.612	449.38
389.837	476.38
390.062	455.38
390.287	454.38
390.512	464.38
390.736	446.38
390.961	470.38
391.186	474.38
391.411	480.38
391.636	473.38
391.86	461.38
392.085	463.38
392.31	469.38
392.534	489.38
392.759	477.38
392.984	507.38
393.208	450.38
393.433	483.38
393.658	471.38
393.882	473.38
394.107	478.38
394.331	474.38
394.556	465.38
394.78	468.38
395.005	472.38
395.229	466.38
395.454	503.38
395.678	517.38
395.903	504.38
396.127	533.38
396.352	517.38
396.576	499.38
396.801	481.38
397.025	488.38
397.249	491.38
397.474	507.38
397.698	507.38
397.922	514.38
398.147	519.38
398.371	525.38
398.595	519.38
398.82	548.38
399.044	551.38
399.268	600.38
399.492	634.38
399.717	677.38
399.941	724.38
400.165	682.38
400.389	650.38
400.613	651.38
400.837	585.38
401.062	585.38
401.286	550.38
401.51	552.38
401.734	560.38
401.958	542.38
402.182	549.38
402.406	555.38
402.63	552.38
402.854	571.38
403.078	579.38
403.302	579.38
403.526	564.38
403.75	585.38
403.974	602.38
404.198	564.38
404.422	575.38
404.645	583.38
404.869	604.38
405.093	607.38
405.317	641.38
405.541	664.38
405.765	624.38
405.988	580.38
406.212	594.38
406.436	608.38
406.66	583.38
406.883	606.38
407.107	623.38
407.331	666.38
407.555	743.38
407.778	739.38
408.002	672.38
408.226	649.38
408.449	653.38
408.673	627.38
408.896	642.38
409.12	656.38
409.344	643.38
409.567	611.38
409.791	596.38
410.014	573.38
410.238	571.38
410.461	592.38
410.685	560.38
410.908	592.38
411.132	616.38
411.355	631.38
411.578	610.38
411.802	570.38
412.025	550.38
412.249	561.38
412.472	552.38
412.695	608.38
412.919	604.38
413.142	572.38
413.365	547.38
413.589	552.38
413.812	533.38
414.035	536.38
414.258	538.38
414.482	538.38
414.705	541.38
414.928	526.38
415.151	546.38
415.374	543.38
415.597	535.38
415.821	518.38
416.044	533.38
416.267	508.38
416.49	532.38
416.713	519.38
416.936	530.38
417.159	522.38
417.382	523.38
417.605	532.38
417.828	554.38
418.051	551.38
418.274	548.38
418.497	543.38
418.72	541.38
418.943	524.38
419.166	560.38
419.389	593.38
419.611	575.38
419.834	582.38
420.057	583.38
420.28	558.38
420.503	570.38
420.726	563.38
420.948	547.38
421.171	579.38
421.394	614.38
421.617	570.38
421.839	539.38
422.062	549.38
422.285	559.38
422.507	610.38
422.73	668.38
422.953	636.38
423.175	602.38
423.398	564.38
423.621	580.38
423.843	584.38
424.066	574.38
424.288	563.38
424.511	587.38
424.733	624.38
424.956	682.38
425.178	642.38
425.401	649.38
425.623	664.38
425.846	603.38
426.068	573.38
426.291	570.38
426.513	550.38
426.735	571.38
426.958	591.38
427.18	628.38
427.402	742.38
427.625	821.38
427.847	696.38
428.069	617.38
428.292	586.38
428.514	558.38
428.736	514.38
428.958	505.38
429.181	527.38
429.403	521.38
429.625	523.38
429.847	551.38
430.069	599.38
430.292	591.38
430.514	529.38
430.736	524.38
430.958	489.38
431.18	488.38
431.402	490.38
431.624	477.38
431.846	509.38
432.068	519.38
432.29	513.38
432.512	489.38
432.734	511.38
432.956	516.38
433.178	504.38
433.4	523.38
433.622	518.38
433.844	501.38
434.066	504.38
434.287	513.38
434.509	494.38
434.731	529.38
434.953	524.38
435.175	563.38
435.397	567.38
435.618	564.38
435.84	567.38
436.062	634.38
436.284	692.38
436.505	612.38
436.727	556.38
436.949	522.38
437.17	530.38
437.392	528.38
437.614	534.38
437.835	536.38
438.057	614.38
438.278	664.38
438.5	682.38
438.721	741.38
438.943	723.38
439.165	598.38
439.386	538.38
439.608	553.38
439.829	558.38
440.05	569.38
440.272	602.38
440.493	564.38
440.715	529.38
440.936	522.38
441.158	549.38
441.379	538.38
441.6	546.38
441.822	575.38
442.043	590.38
442.264	652.38
442.486	698.38
442.707	624.38
442.928	586.38
443.149	566.38
443.371	600.38
443.592	622.38
443.813	690.38
444.034	752.38
444.255	669.38
444.476	596.38
444.698	606.38
444.919	614.38
445.14	734.38
445.361	656.38
445.582	631.38
445.803	634.38
446.024	696.38
446.245	707.38
446.466	643.38
446.687	573.38
446.908	563.38
447.129	526.38
447.35	519.38
447.571	515.38
447.792	499.38
448.013	488.38
448.234	516.38
448.455	563.38
448.675	636.38
448.896	739.38
449.117	613.38
449.338	610.38
449.559	698.38
449.779	759.38
450	609.38
450.221	542.38
450.442	491.38
450.662	486.38
450.883	489.38
451.104	500.38
451.324	498.38
451.545	463.38
451.766	478.38
451.986	464.38
452.207	489.38
452.428	467.38
452.648	472.38
452.869	440.38
453.089	462.38
453.31	458.38
453.53	467.38
453.751	452.38
453.971	458.38
454.192	459.38
454.412	460.38
454.633	473.38
454.853	467.38
455.073	455.38
455.294	469.38
455.514	510.38
455.734	494.38
455.955	456.38
456.175	445.38
456.395	442.38
456.616	455.38
456.836	434.38
457.056	414.38
457.276	417.38
457.497	452.38
457.717	457.38
457.937	443.38
458.157	458.38
458.377	445.38
458.598	459.38
458.818	489.38
459.038	557.38
459.258	587.38
459.478	538.38
459.698	512.38
459.918	527.38
460.138	513.38
460.358	534.38
460.578	533.38
460.798	539.38
461.018	582.38
461.238	529.38
461.458	539.38
461.678	551.38
461.898	559.38
462.118	569.38
462.338	570.38
462.558	565.38
462.777	599.38
462.997	620.38
463.217	624.38
463.437	650.38
463.657	616.38
463.876	604.38
464.096	583.38
464.316	586.38
464.536	589.38
464.755	578.38
464.975	578.38
465.195	577.38
465.414	603.38
465.634	559.38
465.854	513.38
466.073	511.38
466.293	506.38
466.512	498.38
466.732	477.38
466.951	481.38
467.171	490.38
467.391	503.38
467.61	480.38
467.829	489.38
468.049	498.38
468.268	461.38
468.488	471.38
468.707	498.38
468.927	493.38
469.146	465.38
469.365	460.38
469.585	488.38
469.804	481.38
470.023	495.38
470.243	499.38
470.462	483.38
470.681	504.38
470.901	482.38
471.12	499.38
471.339	500.38
471.558	494.38
471.777	502.38
471.997	489.38
472.216	486.38
472.435	510.38
472.654	507.38
472.873	458.38
473.092	479.38
473.311	494.38
473.53	473.38
473.749	488.38
473.968	518.38
474.187	569.38
474.406	589.38
474.625	508.38
474.844	479.38
475.063	464.38
475.282	474.38
475.501	483.38
475.72	494.38
475.939	508.38
476.158	501.38
476.377	498.38
476.596	499.38
476.814	494.38
477.033	493.38
477.252	508.38
477.471	514.38
477.69	510.38
477.908	525.38
478.127	516.38
478.346	520.38
478.564	567.38
478.783	560.38
479.002	586.38
479.22	570.38
479.439	587.38
479.658	582.38
479.876	617.38
480.095	597.38
480.313	618.38
480.532	626.38
480.751	606.38
480.969	599.38
481.188	643.38
481.406	652.38
481.624	627.38
481.843	602.38
482.061	585.38
482.28	560.38
482.498	554.38
482.717	548.38
482.935	588.38
483.153	530.38
483.372	545.38
483.59	552.38
483.808	570.38
484.027	569.38
484.245	571.38
484.463	575.38
484.681	585.38
484.9	579.38
485.118	586.38
485.336	592.38
485.554	580.38
485.772	603.38
485.99	603.38
486.209	571.38
486.427	579.38
486.645	577.38
486.863	602.38
487.081	594.38
487.299	603.38
487.517	612.38
487.735	610.38
487.953	607.38
488.171	597.38
488.389	612.38
488.607	613.38
488.825	578.38
489.043	585.38
489.261	610.38
489.479	585.38
489.696	588.38
489.914	585.38
490.132	600.38
490.35	615.38
490.568	629.38
490.786	625.38
491.003	627.38
491.221	632.38
491.439	648.38
491.657	632.38
491.874	634.38
492.092	645.38
492.31	656.38
492.527	649.38
492.745	666.38
492.963	659.38
493.18	671.38
493.398	682.38
493.615	655.38
493.833	681.38
494.05	674.38
494.268	654.38
494.485	698.38
494.703	695.38
494.92	690.38
495.138	666.38
495.355	662.38
495.573	673.38
495.79	715.38
496.008	686.38
496.225	696.38
496.442	694.38
496.66	713.38
496.877	689.38
497.094	724.38
497.312	715.38
497.529	757.38
497.746	740.38
497.963	776.38
498.181	779.38
498.398	788.38
498.615	818.38
498.832	835.38
499.049	859.38
499.267	898.38
499.484	936.38
499.701	995.38
499.918	1046.38
500.135	1119.38
500.352	1182.38
500.569	1259.38
500.786	1214.38
501.003	1221.38
501.22	1121.38
501.437	1071.38
501.654	1035.38
501.871	996.38
502.088	942.38
502.305	877.38
502.522	866.38
502.739	829.38
502.956	799.38
503.172	767.38
503.389	745.38
503.606	750.38
503.823	734.38
504.04	742.38
504.256	736.38
504.473	720.38
504.69	728.38
504.907	728.38
505.123	699.38
505.34	682.38
505.557	666.38
505.773	651.38
505.99	672.38
506.207	664.38
506.423	686.38
506.64	657.38
506.856	652.38
507.073	640.38
507.289	631.38
507.506	614.38
507.722	635.38
507.939	638.38
508.155	622.38
508.372	612.38
508.588	598.38
508.805	599.38
509.021	613.38
509.238	610.38
509.454	604.38
509.67	608.38
509.887	605.38
510.103	617.38
510.319	624.38
510.536	666.38
510.752	891.38
510.968	754.38
511.184	583.38
511.401	595.38
511.617	566.38
511.833	570.38
512.049	580.38
512.265	574.38
512.481	570.38
512.698	547.38
512.914	550.38
513.13	570.38
513.346	566.38
513.562	570.38
513.778	555.38
513.994	555.38
514.21	560.38
514.426	591.38
514.642	594.38
514.858	644.38
515.074	634.38
515.29	707.38
515.506	845.38
515.721	776.38
515.937	644.38
516.153	597.38
516.369	613.38
516.585	612.38
516.801	612.38
517.016	627.38
517.232	646.38
517.448	650.38
517.664	663.38
517.879	682.38
518.095	658.38
518.311	666.38
518.527	667.38
518.742	631.38
518.958	612.38
519.173	618.38
519.389	590.38
519.605	592.38
519.82	588.38
520.036	570.38
520.251	607.38
520.467	617.38
520.682	597.38
520.898	603.38
521.113	596.38
521.329	627.38
521.544	628.38
521.76	729.38
521.975	982.38
522.19	947.38
522.406	674.38
522.621	576.38
522.836	555.38
523.052	538.38
523.267	524.38
523.482	520.38
523.698	538.38
523.913	538.38
524.128	515.38
524.343	523.38
524.559	510.38
524.774	494.38
524.989	532.38
525.204	493.38
525.419	494.38
525.634	480.38
525.849	516.38
526.064	504.38
526.28	507.38
526.495	466.38
526.71	481.38
526.925	496.38
527.14	479.38
527.355	473.38
527.57	490.38
527.785	494.38
527.999	498.38
528.214	464.38
528.429	495.38
528.644	499.38
528.859	500.38
529.074	465.38
529.289	498.38
529.503	535.38
529.718	529.38
529.933	522.38
530.148	499.38
530.363	491.38
530.577	483.38
530.792	481.38
531.007	466.38
531.221	473.38
531.436	483.38
531.651	486.38
531.865	488.38
532.08	470.38
532.295	476.38
532.509	481.38
532.724	477.38
532.938	491.38
533.153	488.38
533.367	462.38
533.582	466.38
533.796	473.38
534.011	474.38
534.225	468.38
534.44	469.38
534.654	472.38
534.868	466.38
535.083	488.38
535.297	470.38
535.511	460.38
535.726	473.38
535.94	461.38
536.154	464.38
536.369	435.38
536.583	453.38
536.797	458.38
537.011	457.38
537.225	435.38
537.44	438.38
537.654	441.38
537.868	455.38
538.082	436.38
538.296	454.38
538.51	450.38
538.724	443.38
538.938	451.38
539.153	469.38
539.367	462.38
539.581	465.38
539.795	454.38
540.009	430.38
540.222	453.38
540.436	442.38
540.65	440.38
540.864	444.38
541.078	428.38
541.292	441.38
541.506	462.38
541.72	441.38
541.934	434.38
542.147	444.38
542.361	451.38
542.575	458.38
542.789	418.38
543.002	422.38
543.216	451.38
543.43	452.38
543.644	458.38
543.857	454.38
544.071	428.38
544.285	441.38
544.498	436.38
544.712	435.38
544.925	464.38
545.139	453.38
545.352	450.38
545.566	435.38
545.779	448.38
545.993	435.38
546.206	467.38
546.42	464.38
546.633	449.38
546.847	445.38
547.06	442.38
547.274	449.38
547.487	446.38
547.7	447.38
547.914	442.38
548.127	455.38
548.34	450.38
548.554	448.38
548.767	448.38
548.98	425.38
549.193	452.38
549.407	456.38
549.62	460.38
549.833	446.38
550.046	456.38
550.259	469.38
550.473	440.38
550.686	437.38
550.899	457.38
551.112	418.38
551.325	435.38
551.538	439.38
551.751	440.38
551.964	433.38
552.177	433.38
552.39	467.38
552.603	439.38
552.816	470.38
553.029	461.38
553.242	464.38
553.455	475.38
553.667	474.38
553.88	468.38
554.093	480.38
554.306	431.38
554.519	452.38
554.732	441.38
554.944	444.38
555.157	423.38
555.37	425.38
555.583	418.38
555.795	407.38
556.008	420.38
556.221	406.38
556.433	423.38
556.646	402.38
556.859	406.38
557.071	394.38
557.284	410.38
557.496	384.38
557.709	393.38
557.921	388.38
558.134	402.38
558.346	397.38
558.559	388.38
558.771	402.38
558.984	395.38
559.196	382.38
559.409	402.38
559.621	396.38
559.833	395.38
560.046	372.38
560.258	377.38
560.47	373.38
560.683	376.38
560.895	382.38
561.107	372.38
561.32	390.38
561.532	395.38
561.744	404.38
561.956	399.38
562.168	396.38
562.381	393.38
562.593	386.38
562.805	400.38
563.017	382.38
563.229	400.38
563.441	398.38
563.653	415.38
563.865	389.38
564.077	400.38
564.289	420.38
564.501	421.38
564.713	414.38
564.925	420.38
565.137	429.38
565.349	443.38
565.561	451.38
565.773	440.38
565.985	474.38
566.197	456.38
566.408	484.38
566.62	518.38
566.832	521.38
567.044	569.38
567.255	532.38
567.467	577.38
567.679	546.38
567.891	589.38
568.102	590.38
568.314	572.38
568.526	561.38
568.737	519.38
568.949	499.38
569.161	472.38
569.372	459.38
569.584	441.38
569.795	413.38
570.007	426.38
570.218	440.38
570.43	417.38
570.641	418.38
570.853	400.38
571.064	402.38
571.276	394.38
571.487	391.38
571.698	402.38
571.91	381.38
572.121	375.38
572.333	386.38
572.544	342.38
572.755	368.38
572.966	362.38
573.178	341.38
573.389	330.38
573.6	357.38
573.811	356.38
574.023	354.38
574.234	334.38
574.445	345.38
574.656	340.38
574.867	328.38
575.078	362.38
575.289	343.38
575.501	349.38
575.712	334.38
575.923	336.38
576.134	328.38
576.345	328.38
576.556	321.38
576.767	316.38
576.978	356.38
577.188	322.38
577.399	333.38
577.61	334.38
577.821	337.38
578.032	325.38
578.243	354.38
578.454	448.38
578.665	385.38
578.875	325.38
579.086	314.38
579.297	311.38
579.508	326.38
579.718	326.38
579.929	327.38
580.14	321.38
580.35	312.38
580.561	313.38
580.772	309.38
580.982	321.38
581.193	321.38
581.403	292.38
581.614	316.38
581.825	302.38
582.035	299.38
582.246	315.38
582.456	308.38
582.667	310.38
582.877	325.38
583.087	306.38
583.298	288.38
583.508	328.38
583.719	297.38
583.929	312.38
584.139	302.38
584.35	288.38
584.56	310.38
584.77	310.38
584.981	301.38
585.191	309.38
585.401	315.38
585.611	290.38
585.821	308.38
586.032	316.38
586.242	309.38
586.452	291.38
586.662	291.38
586.872	277.38
587.082	290.38
587.292	282.38
587.502	292.38
587.713	306.38
587.923	298.38
588.133	277.38
588.343	296.38
588.553	298.38
588.762	286.38
588.972	298.38
589.182	295.38
589.392	316.38
589.602	312.38
589.812	321.38
590.022	317.38
590.232	292.38
590.441	322.38
590.651	306.38
590.861	303.38
591.071	302.38
591.281	298.38
591.49	290.38
591.7	313.38
591.91	312.38
592.119	331.38
592.329	326.38
592.539	331.38
592.748	334.38
592.958	330.38
593.167	341.38
593.377	355.38
593.587	343.38
593.796	345.38
594.006	364.38
594.215	313.38
594.424	327.38
594.634	340.38
594.843	337.38
595.053	330.38
595.262	318.38
595.472	313.38
595.681	309.38
595.89	292.38
596.1	298.38
596.309	289.38
596.518	286.38
596.727	299.38
596.937	290.38
597.146	282.38
597.355	279.38
597.564	288.38
597.774	286.38
597.983	287.38
598.192	281.38
598.401	275.38
598.61	264.38
598.819	274.38
599.028	272.38
599.237	271.38
599.446	262.38
599.655	288.38
599.864	267.38
600.073	260.38
600.282	273.38
600.491	261.38
600.7	272.38
600.909	264.38
601.118	250.38
601.327	252.38
601.536	251.38
601.745	238.38
601.953	258.38
602.162	280.38
602.371	240.38
602.58	250.38
602.789	247.38
602.997	254.38
603.206	264.38
603.415	254.38
603.623	247.38
603.832	260.38
604.041	265.38
604.249	259.38
604.458	240.38
604.666	264.38
604.875	250.38
605.084	251.38
605.292	244.38
605.501	250.38
605.709	230.38
605.918	222.38
606.126	243.38
606.334	270.38
606.543	230.38
606.751	230.38
606.96	240.38
607.168	240.38
607.376	246.38
607.585	224.38
607.793	227.38
608.001	236.38
608.21	238.38
608.418	246.38
608.626	247.38
608.834	230.38
609.043	245.38
609.251	230.38
609.459	234.38
609.667	234.38
609.875	242.38
610.083	242.38
610.291	232.38
610.499	228.38
610.707	246.38
610.916	249.38
611.124	235.38
611.332	252.38
611.54	254.38
611.748	240.38
611.955	251.38
612.163	242.38
612.371	233.38
612.579	247.38
612.787	232.38
612.995	250.38
613.203	228.38
613.411	232.38
613.618	238.38
613.826	218.38
614.034	235.38
614.242	238.38
614.449	230.38
614.657	256.38
614.865	231.38
615.072	240.38
615.28	244.38
615.488	227.38
615.695	219.38
615.903	228.38
616.111	222.38
616.318	228.38
616.526	231.38
616.733	220.38
616.941	229.38
617.148	235.38
617.356	239.38
617.563	228.38
617.771	225.38
617.978	221.38
618.185	215.38
618.393	230.38
618.6	223.38
618.807	222.38
619.015	223.38
619.222	234.38
619.429	213.38
619.637	226.38
619.844	231.38
620.051	226.38
620.258	219.38
620.466	229.38
620.673	218.38
620.88	214.38
621.087	216.38
621.294	241.38
621.501	232.38
621.708	220.38
621.915	227.38
622.122	227.38
622.329	227.38
622.536	216.38
622.743	210.38
622.95	219.38
623.157	218.38
623.364	205.38
623.571	205.38
623.778	207.38
623.985	208.38
624.192	212.38
624.399	199.38
624.606	215.38
624.812	217.38
625.019	218.38
625.226	208.38
625.433	189.38
625.639	206.38
625.846	200.38
626.053	211.38
626.259	191.38
626.466	208.38
626.673	210.38
626.879	204.38
627.086	209.38
627.293	196.38
627.499	201.38
627.706	192.38
627.912	197.38
628.119	219.38
628.325	199.38
628.532	199.38
628.738	198.38
628.945	196.38
629.151	206.38
629.357	196.38
629.564	196.38
629.77	199.38
629.976	187.38
630.183	201.38
630.389	199.38
630.595	179.38
630.802	212.38
631.008	201.38
631.214	181.38
631.42	201.38
631.627	187.38
631.833	177.38
632.039	187.38
632.245	180.38
632.451	182.38
632.657	195.38
632.863	193.38
633.069	175.38
633.275	184.38
633.481	181.38
633.688	182.38
633.893	204.38
634.099	172.38
634.305	190.38
634.511	176.38
634.717	181.38
634.923	181.38
635.129	176.38
635.335	174.38
635.541	184.38
635.747	185.38
635.952	170.38
636.158	174.38
636.364	183.38
636.57	171.38
636.775	187.38
636.981	190.38
637.187	176.38
637.392	178.38
637.598	180.38
637.804	169.38
638.009	174.38
638.215	162.38
638.421	180.38
638.626	166.38
638.832	183.38
639.037	178.38
639.243	167.38
639.448	157.38
639.654	181.38
639.859	163.38
640.065	166.38
640.27	184.38
640.475	177.38
640.681	165.38
640.886	176.38
641.091	181.38
641.297	182.38
641.502	166.38
641.707	172.38
641.913	168.38
642.118	165.38
642.323	185.38
642.528	184.38
642.733	167.38
642.939	179.38
643.144	164.38
643.349	164.38
643.554	161.38
643.759	157.38
643.964	174.38
644.169	158.38
644.374	156.38
644.579	164.38
644.784	164.38
644.989	165.38
645.194	156.38
645.399	162.38
645.604	146.38
645.809	160.38
646.014	164.38
646.219	162.38
646.423	162.38
646.628	168.38
646.833	169.38
647.038	171.38
647.243	146.38
647.447	158.38
647.652	163.38
647.857	160.38
648.062	183.38
648.266	164.38
648.471	175.38
648.676	170.38
648.88	163.38
649.085	175.38
649.289	168.38
649.494	174.38
649.698	191.38
649.903	169.38
650.107	178.38
650.312	178.38
650.516	157.38
650.721	138.38
650.925	144.38
651.13	168.38
651.334	158.38
651.539	158.38
651.743	160.38
651.947	153.38
652.152	141.38
652.356	132.38
652.56	139.38
652.764	130.38
652.969	138.38
653.173	140.38
653.377	135.38
653.581	132.38
653.785	139.38
653.99	160.38
654.194	137.38
654.398	150.38
654.602	152.38
654.806	133.38
655.01	130.38
655.214	158.38
655.418	147.38
655.622	130.38
655.826	128.38
656.03	140.38
656.234	142.38
656.438	148.38
656.642	154.38
656.846	142.38
657.049	147.38
657.253	136.38
657.457	120.38
657.661	111.38
657.865	111.38
658.068	115.38
658.272	101.38
658.476	97.38
658.68	112.38
658.883	106.38
659.087	110.38
659.291	99.38
659.494	82.38
659.698	90.38
659.901	93.38
660.105	89.38
660.309	100.38
660.512	105.38
660.716	88.38
660.919	82.38
661.123	82.38
661.326	81.38
661.53	84.38
661.733	82.38
661.936	83.38
662.14	87.38
662.343	83.38
662.546	77.38
662.75	80.38
662.953	76.38
663.156	88.38
663.36	74.38
663.563	86.38
663.766	77.38
663.969	79.38
664.173	70.38
664.376	82.38
664.579	74.38
664.782	81.38
664.985	80.38
665.188	74.38
665.391	73.38
665.594	82.38
665.797	92.38
666	83.38
666.203	86.38
666.406	66.38
666.609	71.38
666.812	78.38
667.015	79.38
667.218	79.38
667.421	74.38
667.624	70.38
667.827	82.38
668.03	78.38
668.232	88.38
668.435	71.38
668.638	88.38
668.841	82.38
669.043	77.38
669.246	79.38
669.449	79.38
669.651	85.38
669.854	68.38
670.057	72.38
670.259	79.38
670.462	65.38
670.665	74.38
670.867	76.38
671.07	78.38
671.272	90.38
671.475	77.38
671.677	83.38
671.88	83.38
672.082	85.38
672.284	85.38
672.487	87.38
672.689	70.38
672.892	91.38
