Data from 1962.PennyLincolnUp.Lamp.En5.5.200Scan.071719.P1._HRD10591_13-53-33-060.txt Node
Date: Thu Jul 18 13:53:33 EDT 2019
User: cochatt
Spectrometer: HR+D1059
Trigger mode: 1
Integration Time (sec): 1.000000E-1
Scans to average: 1
Electric dark correction enabled: true
Nonlinearity correction enabled: false
Boxcar width: 0
XAxis mode: Wavelengths
Number of Pixels in Spectrum: 2048
>>>>>Begin Spectral Data<<<<<
223.165	-10.94
223.4	-10.94
223.635	-10.94
223.869	-1.94
224.104	-23.94
224.338	-18.94
224.573	-8.94
224.808	-10.94
225.042	-9.94
225.277	-0.94
225.511	5.06
225.746	4.06
225.98	-1.94
226.215	10.06
226.449	11.06
226.683	11.06
226.918	14.06
227.152	33.06
227.387	31.06
227.621	47.06
227.856	43.06
228.09	38.06
228.324	67.06
228.559	50.06
228.793	64.06
229.027	81.06
229.262	87.06
229.496	87.06
229.73	119.06
229.964	133.06
230.199	115.06
230.433	108.06
230.667	89.06
230.901	111.06
231.136	86.06
231.37	109.06
231.604	108.06
231.838	105.06
232.072	100.06
232.306	111.06
232.541	110.06
232.775	113.06
233.009	111.06
233.243	117.06
233.477	110.06
233.711	97.06
233.945	102.06
234.179	120.06
234.413	121.06
234.647	109.06
234.881	117.06
235.115	126.06
235.349	115.06
235.583	123.06
235.817	98.06
236.051	106.06
236.285	121.06
236.519	121.06
236.753	130.06
236.987	145.06
237.221	141.06
237.455	175.06
237.689	153.06
237.922	144.06
238.156	127.06
238.39	115.06
238.624	115.06
238.858	129.06
239.091	118.06
239.325	114.06
239.559	120.06
239.793	105.06
240.027	113.06
240.26	123.06
240.494	125.06
240.728	132.06
240.961	131.06
241.195	136.06
241.429	141.06
241.662	142.06
241.896	118.06
242.13	124.06
242.363	127.06
242.597	118.06
242.83	133.06
243.064	134.06
243.298	138.06
243.531	130.06
243.765	126.06
243.998	142.06
244.232	133.06
244.465	131.06
244.699	125.06
244.932	137.06
245.166	149.06
245.399	119.06
245.633	141.06
245.866	137.06
246.099	127.06
246.333	136.06
246.566	143.06
246.8	147.06
247.033	136.06
247.266	133.06
247.5	153.06
247.733	152.06
247.966	157.06
248.2	156.06
248.433	170.06
248.666	158.06
248.899	161.06
249.133	178.06
249.366	167.06
249.599	171.06
249.832	166.06
250.066	175.06
250.299	162.06
250.532	173.06
250.765	172.06
250.998	172.06
251.231	185.06
251.465	193.06
251.698	187.06
251.931	174.06
252.164	181.06
252.397	181.06
252.63	165.06
252.863	179.06
253.096	180.06
253.329	178.06
253.562	191.06
253.795	186.06
254.028	182.06
254.261	197.06
254.494	190.06
254.727	198.06
254.96	214.06
255.193	209.06
255.426	211.06
255.659	206.06
255.892	179.06
256.124	209.06
256.357	219.06
256.59	189.06
256.823	180.06
257.056	197.06
257.289	183.06
257.521	181.06
257.754	193.06
257.987	200.06
258.22	184.06
258.452	183.06
258.685	188.06
258.918	200.06
259.151	196.06
259.383	193.06
259.616	172.06
259.849	201.06
260.081	211.06
260.314	214.06
260.547	225.06
260.779	214.06
261.012	204.06
261.244	207.06
261.477	201.06
261.71	179.06
261.942	212.06
262.175	222.06
262.407	214.06
262.64	202.06
262.872	213.06
263.105	198.06
263.337	204.06
263.57	196.06
263.802	197.06
264.035	204.06
264.267	196.06
264.499	206.06
264.732	195.06
264.964	198.06
265.197	204.06
265.429	204.06
265.661	215.06
265.894	207.06
266.126	215.06
266.358	210.06
266.591	215.06
266.823	210.06
267.055	214.06
267.287	225.06
267.52	218.06
267.752	218.06
267.984	218.06
268.216	216.06
268.448	228.06
268.681	214.06
268.913	225.06
269.145	231.06
269.377	241.06
269.609	266.06
269.841	247.06
270.073	254.06
270.306	265.06
270.538	249.06
270.77	267.06
271.002	244.06
271.234	260.06
271.466	251.06
271.698	245.06
271.93	264.06
272.162	261.06
272.394	275.06
272.626	257.06
272.858	265.06
273.09	267.06
273.322	254.06
273.553	256.06
273.785	255.06
274.017	250.06
274.249	231.06
274.481	235.06
274.713	271.06
274.945	258.06
275.176	246.06
275.408	252.06
275.64	249.06
275.872	248.06
276.104	255.06
276.335	258.06
276.567	268.06
276.799	253.06
277.031	267.06
277.262	287.06
277.494	280.06
277.726	278.06
277.957	264.06
278.189	266.06
278.421	262.06
278.652	251.06
278.884	264.06
279.115	262.06
279.347	249.06
279.579	267.06
279.81	245.06
280.042	248.06
280.273	245.06
280.505	259.06
280.736	263.06
280.968	247.06
281.199	255.06
281.431	268.06
281.662	269.06
281.894	280.06
282.125	277.06
282.356	293.06
282.588	270.06
282.819	299.06
283.051	269.06
283.282	268.06
283.513	285.06
283.745	260.06
283.976	250.06
284.207	290.06
284.439	277.06
284.67	267.06
284.901	292.06
285.132	257.06
285.364	278.06
285.595	285.06
285.826	295.06
286.057	258.06
286.288	277.06
286.52	278.06
286.751	284.06
286.982	300.06
287.213	286.06
287.444	281.06
287.675	273.06
287.906	278.06
288.138	291.06
288.369	293.06
288.6	298.06
288.831	292.06
289.062	304.06
289.293	285.06
289.524	292.06
289.755	282.06
289.986	291.06
290.217	302.06
290.448	304.06
290.679	293.06
290.91	281.06
291.141	281.06
291.371	277.06
291.602	307.06
291.833	297.06
292.064	293.06
292.295	277.06
292.526	289.06
292.757	290.06
292.987	282.06
293.218	289.06
293.449	315.06
293.68	294.06
293.91	296.06
294.141	309.06
294.372	298.06
294.603	278.06
294.833	277.06
295.064	294.06
295.295	290.06
295.525	280.06
295.756	274.06
295.987	290.06
296.217	308.06
296.448	315.06
296.679	303.06
296.909	297.06
297.14	302.06
297.37	313.06
297.601	296.06
297.831	287.06
298.062	304.06
298.292	305.06
298.523	303.06
298.753	293.06
298.984	320.06
299.214	313.06
299.445	315.06
299.675	318.06
299.905	303.06
300.136	302.06
300.366	315.06
300.597	319.06
300.827	330.06
301.057	316.06
301.288	317.06
301.518	318.06
301.748	342.06
301.979	341.06
302.209	337.06
302.439	311.06
302.669	317.06
302.9	333.06
303.13	314.06
303.36	345.06
303.59	333.06
303.82	316.06
304.051	328.06
304.281	318.06
304.511	321.06
304.741	340.06
304.971	332.06
305.201	339.06
305.431	315.06
305.661	324.06
305.891	320.06
306.121	318.06
306.352	341.06
306.582	321.06
306.812	315.06
307.042	315.06
307.272	315.06
307.502	319.06
307.731	335.06
307.961	319.06
308.191	330.06
308.421	327.06
308.651	325.06
308.881	327.06
309.111	324.06
309.341	335.06
309.571	357.06
309.8	351.06
310.03	340.06
310.26	355.06
310.49	338.06
310.72	351.06
310.949	342.06
311.179	333.06
311.409	360.06
311.639	343.06
311.868	362.06
312.098	353.06
312.328	360.06
312.557	354.06
312.787	367.06
313.017	373.06
313.246	367.06
313.476	365.06
313.706	347.06
313.935	353.06
314.165	369.06
314.394	359.06
314.624	372.06
314.853	383.06
315.083	360.06
315.312	360.06
315.542	360.06
315.771	339.06
316.001	364.06
316.23	358.06
316.46	343.06
316.689	363.06
316.919	377.06
317.148	348.06
317.377	380.06
317.607	368.06
317.836	366.06
318.065	369.06
318.295	365.06
318.524	347.06
318.753	347.06
318.983	356.06
319.212	377.06
319.441	364.06
319.67	351.06
319.9	348.06
320.129	341.06
320.358	357.06
320.587	363.06
320.816	372.06
321.046	349.06
321.275	373.06
321.504	371.06
321.733	370.06
321.962	388.06
322.191	356.06
322.42	379.06
322.649	387.06
322.878	399.06
323.108	382.06
323.337	412.06
323.566	410.06
323.795	424.06
324.024	450.06
324.253	489.06
324.482	633.06
324.71	897.06
324.939	1253.06
325.168	1117.06
325.397	645.06
325.626	491.06
325.855	459.06
326.084	444.06
326.313	421.06
326.542	438.06
326.77	433.06
326.999	476.06
327.228	605.06
327.457	836.06
327.686	978.06
327.914	712.06
328.143	537.06
328.372	497.06
328.6	456.06
328.829	450.06
329.058	474.06
329.287	464.06
329.515	426.06
329.744	438.06
329.972	444.06
330.201	444.06
330.43	462.06
330.658	465.06
330.887	485.06
331.115	469.06
331.344	451.06
331.572	435.06
331.801	438.06
332.03	447.06
332.258	455.06
332.486	437.06
332.715	417.06
332.943	413.06
333.172	449.06
333.4	451.06
333.629	475.06
333.857	484.06
334.085	486.06
334.314	482.06
334.542	513.06
334.771	503.06
334.999	478.06
335.227	478.06
335.455	470.06
335.684	437.06
335.912	440.06
336.14	429.06
336.369	426.06
336.597	455.06
336.825	442.06
337.053	426.06
337.281	417.06
337.51	399.06
337.738	428.06
337.966	446.06
338.194	438.06
338.422	425.06
338.65	423.06
338.878	420.06
339.106	410.06
339.334	412.06
339.562	421.06
339.79	414.06
340.018	407.06
340.246	405.06
340.474	414.06
340.702	403.06
340.93	420.06
341.158	414.06
341.386	418.06
341.614	416.06
341.842	409.06
342.07	400.06
342.298	409.06
342.526	411.06
342.754	391.06
342.981	410.06
343.209	403.06
343.437	418.06
343.665	438.06
343.893	433.06
344.12	436.06
344.348	450.06
344.576	435.06
344.804	442.06
345.031	441.06
345.259	437.06
345.487	427.06
345.714	407.06
345.942	413.06
346.17	395.06
346.397	389.06
346.625	382.06
346.853	396.06
347.08	397.06
347.308	378.06
347.535	376.06
347.763	378.06
347.99	396.06
348.218	387.06
348.445	383.06
348.673	402.06
348.9	390.06
349.128	391.06
349.355	388.06
349.583	374.06
349.81	385.06
350.037	376.06
350.265	380.06
350.492	412.06
350.72	378.06
350.947	390.06
351.174	380.06
351.402	392.06
351.629	388.06
351.856	388.06
352.083	378.06
352.311	394.06
352.538	371.06
352.765	386.06
352.992	387.06
353.22	390.06
353.447	374.06
353.674	374.06
353.901	366.06
354.128	380.06
354.355	364.06
354.583	375.06
354.81	361.06
355.037	369.06
355.264	374.06
355.491	390.06
355.718	391.06
355.945	355.06
356.172	384.06
356.399	357.06
356.626	373.06
356.853	373.06
357.08	360.06
357.307	375.06
357.534	381.06
357.761	376.06
357.988	405.06
358.215	389.06
358.441	386.06
358.668	403.06
358.895	387.06
359.122	388.06
359.349	403.06
359.576	390.06
359.802	417.06
360.029	418.06
360.256	410.06
360.483	405.06
360.709	397.06
360.936	395.06
361.163	399.06
361.39	400.06
361.616	387.06
361.843	372.06
362.07	386.06
362.296	396.06
362.523	405.06
362.749	389.06
362.976	382.06
363.203	393.06
363.429	393.06
363.656	402.06
363.882	373.06
364.109	392.06
364.335	383.06
364.562	381.06
364.788	385.06
365.015	379.06
365.241	377.06
365.468	400.06
365.694	385.06
365.92	387.06
366.147	398.06
366.373	397.06
366.599	396.06
366.826	369.06
367.052	369.06
367.278	378.06
367.505	395.06
367.731	379.06
367.957	380.06
368.184	391.06
368.41	384.06
368.636	387.06
368.862	381.06
369.089	384.06
369.315	386.06
369.541	390.06
369.767	404.06
369.993	395.06
370.219	388.06
370.445	417.06
370.672	393.06
370.898	403.06
371.124	397.06
371.35	383.06
371.576	395.06
371.802	381.06
372.028	408.06
372.254	399.06
372.48	393.06
372.706	393.06
372.932	403.06
373.158	403.06
373.384	407.06
373.61	392.06
373.835	385.06
374.061	406.06
374.287	392.06
374.513	419.06
374.739	414.06
374.965	417.06
375.191	437.06
375.416	409.06
375.642	417.06
375.868	411.06
376.094	393.06
376.319	387.06
376.545	409.06
376.771	395.06
376.997	384.06
377.222	402.06
377.448	362.06
377.674	371.06
377.899	392.06
378.125	381.06
378.35	397.06
378.576	377.06
378.802	378.06
379.027	396.06
379.253	406.06
379.478	399.06
379.704	406.06
379.929	405.06
380.155	413.06
380.38	402.06
380.606	388.06
380.831	397.06
381.057	392.06
381.282	411.06
381.507	391.06
381.733	409.06
381.958	403.06
382.184	411.06
382.409	420.06
382.634	413.06
382.86	420.06
383.085	406.06
383.31	420.06
383.535	417.06
383.761	423.06
383.986	419.06
384.211	428.06
384.436	429.06
384.662	439.06
384.887	435.06
385.112	447.06
385.337	451.06
385.562	449.06
385.787	436.06
386.013	449.06
386.238	461.06
386.463	452.06
386.688	474.06
386.913	450.06
387.138	444.06
387.363	444.06
387.588	468.06
387.813	441.06
388.038	439.06
388.263	450.06
388.488	457.06
388.713	456.06
388.938	435.06
389.163	455.06
389.387	444.06
389.612	455.06
389.837	427.06
390.062	423.06
390.287	420.06
390.512	431.06
390.736	452.06
390.961	451.06
391.186	444.06
391.411	462.06
391.636	443.06
391.86	482.06
392.085	457.06
392.31	480.06
392.534	462.06
392.759	448.06
392.984	471.06
393.208	473.06
393.433	487.06
393.658	458.06
393.882	463.06
394.107	451.06
394.331	472.06
394.556	464.06
394.78	461.06
395.005	471.06
395.229	480.06
395.454	473.06
395.678	472.06
395.903	475.06
396.127	509.06
396.352	482.06
396.576	487.06
396.801	458.06
397.025	487.06
397.249	482.06
397.474	478.06
397.698	482.06
397.922	481.06
398.147	488.06
398.371	509.06
398.595	527.06
398.82	531.06
399.044	539.06
399.268	566.06
399.492	635.06
399.717	665.06
399.941	703.06
400.165	670.06
400.389	656.06
400.613	565.06
400.837	561.06
401.062	556.06
401.286	541.06
401.51	544.06
401.734	532.06
401.958	538.06
402.182	536.06
402.406	526.06
402.63	521.06
402.854	549.06
403.078	510.06
403.302	540.06
403.526	556.06
403.75	570.06
403.974	557.06
404.198	551.06
404.422	575.06
404.645	578.06
404.869	577.06
405.093	589.06
405.317	638.06
405.541	646.06
405.765	610.06
405.988	579.06
406.212	585.06
406.436	582.06
406.66	594.06
406.883	580.06
407.107	605.06
407.331	669.06
407.555	698.06
407.778	677.06
408.002	655.06
408.226	617.06
408.449	621.06
408.673	595.06
408.896	638.06
409.12	620.06
409.344	619.06
409.567	544.06
409.791	543.06
410.014	555.06
410.238	554.06
410.461	548.06
410.685	563.06
410.908	567.06
411.132	597.06
411.355	586.06
411.578	557.06
411.802	558.06
412.025	541.06
412.249	566.06
412.472	585.06
412.695	610.06
412.919	579.06
413.142	532.06
413.365	533.06
413.589	536.06
413.812	523.06
414.035	519.06
414.258	521.06
414.482	515.06
414.705	531.06
414.928	540.06
415.151	535.06
415.374	525.06
415.597	519.06
415.821	526.06
416.044	504.06
416.267	523.06
416.49	521.06
416.713	517.06
416.936	524.06
417.159	528.06
417.382	493.06
417.605	519.06
417.828	536.06
418.051	516.06
418.274	514.06
418.497	519.06
418.72	510.06
418.943	526.06
419.166	540.06
419.389	580.06
419.611	563.06
419.834	531.06
420.057	547.06
420.28	534.06
420.503	549.06
420.726	533.06
420.948	536.06
421.171	574.06
421.394	587.06
421.617	526.06
421.839	541.06
422.062	539.06
422.285	533.06
422.507	582.06
422.73	614.06
422.953	614.06
423.175	557.06
423.398	568.06
423.621	540.06
423.843	576.06
424.066	567.06
424.288	552.06
424.511	569.06
424.733	585.06
424.956	636.06
425.178	630.06
425.401	640.06
425.623	633.06
425.846	570.06
426.068	547.06
426.291	542.06
426.513	535.06
426.735	541.06
426.958	579.06
427.18	626.06
427.402	701.06
427.625	768.06
427.847	693.06
428.069	579.06
428.292	557.06
428.514	530.06
428.736	488.06
428.958	513.06
429.181	507.06
429.403	494.06
429.625	493.06
429.847	529.06
430.069	573.06
430.292	537.06
430.514	502.06
430.736	500.06
430.958	482.06
431.18	484.06
431.402	479.06
431.624	482.06
431.846	466.06
432.068	478.06
432.29	492.06
432.512	465.06
432.734	470.06
432.956	497.06
433.178	505.06
433.4	498.06
433.622	489.06
433.844	505.06
434.066	489.06
434.287	483.06
434.509	512.06
434.731	525.06
434.953	517.06
435.175	509.06
435.397	547.06
435.618	534.06
435.84	547.06
436.062	612.06
436.284	635.06
436.505	561.06
436.727	553.06
436.949	495.06
437.17	500.06
437.392	482.06
437.614	537.06
437.835	515.06
438.057	589.06
438.278	645.06
438.5	631.06
438.721	683.06
438.943	663.06
439.165	553.06
439.386	515.06
439.608	540.06
439.829	526.06
440.05	535.06
440.272	531.06
440.493	530.06
440.715	527.06
440.936	518.06
441.158	508.06
441.379	515.06
441.6	529.06
441.822	539.06
442.043	543.06
442.264	604.06
442.486	642.06
442.707	581.06
442.928	544.06
443.149	583.06
443.371	543.06
443.592	599.06
443.813	649.06
444.034	722.06
444.255	637.06
444.476	573.06
444.698	587.06
444.919	581.06
445.14	690.06
445.361	637.06
445.582	582.06
445.803	622.06
446.024	652.06
446.245	637.06
446.466	617.06
446.687	551.06
446.908	511.06
447.129	486.06
447.35	485.06
447.571	499.06
447.792	482.06
448.013	475.06
448.234	469.06
448.455	534.06
448.675	597.06
448.896	707.06
449.117	580.06
449.338	564.06
449.559	627.06
449.779	703.06
450	591.06
450.221	521.06
450.442	488.06
450.662	474.06
450.883	467.06
451.104	468.06
451.324	484.06
451.545	475.06
451.766	440.06
451.986	434.06
452.207	451.06
452.428	443.06
452.648	461.06
452.869	444.06
453.089	423.06
453.31	468.06
453.53	447.06
453.751	460.06
453.971	422.06
454.192	456.06
454.412	446.06
454.633	434.06
454.853	436.06
455.073	436.06
455.294	459.06
455.514	471.06
455.734	478.06
455.955	446.06
456.175	454.06
456.395	434.06
456.616	435.06
456.836	438.06
457.056	426.06
457.276	415.06
457.497	442.06
457.717	413.06
457.937	439.06
458.157	438.06
458.377	439.06
458.598	466.06
458.818	476.06
459.038	516.06
459.258	565.06
459.478	512.06
459.698	486.06
459.918	501.06
460.138	503.06
460.358	510.06
460.578	522.06
460.798	517.06
461.018	543.06
461.238	522.06
461.458	515.06
461.678	533.06
461.898	521.06
462.118	518.06
462.338	577.06
462.558	569.06
462.777	570.06
462.997	575.06
463.217	615.06
463.437	604.06
463.657	591.06
463.876	597.06
464.096	570.06
464.316	587.06
464.536	580.06
464.755	540.06
464.975	549.06
465.195	586.06
465.414	563.06
465.634	522.06
465.854	518.06
466.073	483.06
466.293	499.06
466.512	476.06
466.732	471.06
466.951	472.06
467.171	453.06
467.391	475.06
467.61	485.06
467.829	452.06
468.049	469.06
468.268	466.06
468.488	451.06
468.707	449.06
468.927	468.06
469.146	454.06
469.365	476.06
469.585	444.06
469.804	470.06
470.023	458.06
470.243	470.06
470.462	481.06
470.681	473.06
470.901	463.06
471.12	475.06
471.339	465.06
471.558	471.06
471.777	485.06
471.997	470.06
472.216	473.06
472.435	486.06
472.654	478.06
472.873	466.06
473.092	483.06
473.311	449.06
473.53	477.06
473.749	474.06
473.968	496.06
474.187	556.06
474.406	530.06
474.625	504.06
474.844	474.06
475.063	469.06
475.282	459.06
475.501	459.06
475.72	482.06
475.939	483.06
476.158	454.06
476.377	501.06
476.596	478.06
476.814	474.06
477.033	505.06
477.252	499.06
477.471	489.06
477.69	490.06
477.908	512.06
478.127	528.06
478.346	534.06
478.564	560.06
478.783	547.06
479.002	547.06
479.22	545.06
479.439	551.06
479.658	555.06
479.876	549.06
480.095	583.06
480.313	586.06
480.532	574.06
480.751	571.06
480.969	622.06
481.188	587.06
481.406	622.06
481.624	586.06
481.843	567.06
482.061	559.06
482.28	539.06
482.498	530.06
482.717	554.06
482.935	549.06
483.153	555.06
483.372	538.06
483.59	542.06
483.808	516.06
484.027	548.06
484.245	541.06
484.463	539.06
484.681	550.06
484.9	562.06
485.118	542.06
485.336	540.06
485.554	545.06
485.772	569.06
485.99	543.06
486.209	585.06
486.427	545.06
486.645	553.06
486.863	576.06
487.081	559.06
487.299	589.06
487.517	566.06
487.735	577.06
487.953	574.06
488.171	579.06
488.389	553.06
488.607	568.06
488.825	579.06
489.043	602.06
489.261	565.06
489.479	569.06
489.696	592.06
489.914	588.06
490.132	577.06
490.35	583.06
490.568	601.06
490.786	591.06
491.003	593.06
491.221	593.06
491.439	607.06
491.657	616.06
491.874	598.06
492.092	617.06
492.31	639.06
492.527	629.06
492.745	603.06
492.963	637.06
493.18	628.06
493.398	647.06
493.615	643.06
493.833	615.06
494.05	643.06
494.268	632.06
494.485	645.06
494.703	667.06
494.92	641.06
495.138	631.06
495.355	652.06
495.573	657.06
495.79	647.06
496.008	650.06
496.225	655.06
496.442	650.06
496.66	668.06
496.877	653.06
497.094	685.06
497.312	689.06
497.529	707.06
497.746	679.06
497.963	722.06
498.181	739.06
498.398	764.06
498.615	809.06
498.832	813.06
499.049	842.06
499.267	854.06
499.484	922.06
499.701	969.06
499.918	1023.06
500.135	1118.06
500.352	1170.06
500.569	1199.06
500.786	1190.06
501.003	1171.06
501.22	1086.06
501.437	1033.06
501.654	981.06
501.871	943.06
502.088	884.06
502.305	845.06
502.522	834.06
502.739	812.06
502.956	758.06
503.172	765.06
503.389	754.06
503.606	719.06
503.823	687.06
504.04	702.06
504.256	693.06
504.473	695.06
504.69	726.06
504.907	697.06
505.123	678.06
505.34	659.06
505.557	649.06
505.773	618.06
505.99	628.06
506.207	628.06
506.423	636.06
506.64	614.06
506.856	575.06
507.073	589.06
507.289	609.06
507.506	594.06
507.722	601.06
507.939	605.06
508.155	587.06
508.372	582.06
508.588	549.06
508.805	574.06
509.021	567.06
509.238	587.06
509.454	570.06
509.67	581.06
509.887	587.06
510.103	584.06
510.319	579.06
510.536	600.06
510.752	838.06
510.968	715.06
511.184	555.06
511.401	556.06
511.617	537.06
511.833	547.06
512.049	560.06
512.265	563.06
512.481	544.06
512.698	547.06
512.914	542.06
513.13	569.06
513.346	537.06
513.562	559.06
513.778	535.06
513.994	535.06
514.21	580.06
514.426	561.06
514.642	566.06
514.858	563.06
515.074	580.06
515.29	643.06
515.506	783.06
515.721	732.06
515.937	604.06
516.153	612.06
516.369	602.06
516.585	597.06
516.801	603.06
517.016	588.06
517.232	611.06
517.448	622.06
517.664	639.06
517.879	629.06
518.095	636.06
518.311	654.06
518.527	610.06
518.742	587.06
518.958	579.06
519.173	599.06
519.389	571.06
519.605	566.06
519.82	569.06
520.036	563.06
520.251	564.06
520.467	577.06
520.682	580.06
520.898	565.06
521.113	549.06
521.329	577.06
521.544	603.06
521.76	664.06
521.975	877.06
522.19	897.06
522.406	649.06
522.621	556.06
522.836	529.06
523.052	518.06
523.267	514.06
523.482	488.06
523.698	506.06
523.913	509.06
524.128	495.06
524.343	502.06
524.559	498.06
524.774	478.06
524.989	493.06
525.204	492.06
525.419	491.06
525.634	452.06
525.849	481.06
526.064	470.06
526.28	474.06
526.495	462.06
526.71	489.06
526.925	458.06
527.14	472.06
527.355	462.06
527.57	468.06
527.785	464.06
527.999	458.06
528.214	481.06
528.429	461.06
528.644	461.06
528.859	458.06
529.074	454.06
529.289	490.06
529.503	500.06
529.718	479.06
529.933	490.06
530.148	467.06
530.363	470.06
530.577	486.06
530.792	453.06
531.007	458.06
531.221	449.06
531.436	451.06
531.651	457.06
531.865	467.06
532.08	476.06
532.295	469.06
532.509	446.06
532.724	460.06
532.938	454.06
533.153	453.06
533.367	469.06
533.582	457.06
533.796	456.06
534.011	481.06
534.225	458.06
534.44	472.06
534.654	455.06
534.868	459.06
535.083	449.06
535.297	459.06
535.511	451.06
535.726	452.06
535.94	456.06
536.154	454.06
536.369	460.06
536.583	453.06
536.797	446.06
537.011	428.06
537.225	445.06
537.44	431.06
537.654	433.06
537.868	435.06
538.082	439.06
538.296	453.06
538.51	426.06
538.724	460.06
538.938	434.06
539.153	421.06
539.367	454.06
539.581	442.06
539.795	440.06
540.009	440.06
540.222	423.06
540.436	430.06
540.65	421.06
540.864	449.06
541.078	440.06
541.292	419.06
541.506	438.06
541.72	439.06
541.934	433.06
542.147	439.06
542.361	438.06
542.575	420.06
542.789	437.06
543.002	425.06
543.216	429.06
543.43	410.06
543.644	441.06
543.857	451.06
544.071	447.06
544.285	428.06
544.498	445.06
544.712	431.06
544.925	443.06
545.139	452.06
545.352	423.06
545.566	433.06
545.779	451.06
545.993	441.06
546.206	449.06
546.42	472.06
546.633	441.06
546.847	445.06
547.06	436.06
547.274	429.06
547.487	423.06
547.7	422.06
547.914	436.06
548.127	447.06
548.34	444.06
548.554	433.06
548.767	415.06
548.98	434.06
549.193	418.06
549.407	420.06
549.62	431.06
549.833	428.06
550.046	417.06
550.259	425.06
550.473	430.06
550.686	448.06
550.899	394.06
551.112	425.06
551.325	430.06
551.538	422.06
551.751	407.06
551.964	426.06
552.177	440.06
552.39	438.06
552.603	427.06
552.816	439.06
553.029	459.06
553.242	459.06
553.455	450.06
553.667	453.06
553.88	442.06
554.093	430.06
554.306	459.06
554.519	446.06
554.732	424.06
554.944	418.06
555.157	420.06
555.37	419.06
555.583	418.06
555.795	414.06
556.008	396.06
556.221	392.06
556.433	407.06
556.646	415.06
556.859	381.06
557.071	380.06
557.284	382.06
557.496	391.06
557.709	398.06
557.921	379.06
558.134	386.06
558.346	401.06
558.559	381.06
558.771	372.06
558.984	386.06
559.196	372.06
559.409	376.06
559.621	389.06
559.833	381.06
560.046	369.06
560.258	376.06
560.47	360.06
560.683	401.06
560.895	378.06
561.107	359.06
561.32	379.06
561.532	379.06
561.744	375.06
561.956	387.06
562.168	380.06
562.381	375.06
562.593	387.06
562.805	377.06
563.017	402.06
563.229	378.06
563.441	399.06
563.653	387.06
563.865	391.06
564.077	410.06
564.289	396.06
564.501	409.06
564.713	409.06
564.925	407.06
565.137	411.06
565.349	416.06
565.561	423.06
565.773	450.06
565.985	448.06
566.197	461.06
566.408	474.06
566.62	515.06
566.832	505.06
567.044	548.06
567.255	540.06
567.467	569.06
567.679	551.06
567.891	571.06
568.102	590.06
568.314	565.06
568.526	527.06
568.737	517.06
568.949	461.06
569.161	453.06
569.372	445.06
569.584	427.06
569.795	417.06
570.007	394.06
570.218	443.06
570.43	431.06
570.641	405.06
570.853	392.06
571.064	415.06
571.276	398.06
571.487	380.06
571.698	365.06
571.91	387.06
572.121	374.06
572.333	370.06
572.544	349.06
572.755	348.06
572.966	356.06
573.178	353.06
573.389	353.06
573.6	341.06
573.811	343.06
574.023	366.06
574.234	339.06
574.445	339.06
574.656	329.06
574.867	343.06
575.078	351.06
575.289	343.06
575.501	331.06
575.712	326.06
575.923	321.06
576.134	345.06
576.345	328.06
576.556	335.06
576.767	328.06
576.978	333.06
577.188	320.06
577.399	331.06
577.61	310.06
577.821	325.06
578.032	327.06
578.243	328.06
578.454	437.06
578.665	361.06
578.875	321.06
579.086	318.06
579.297	311.06
579.508	317.06
579.718	304.06
579.929	307.06
580.14	310.06
580.35	300.06
580.561	321.06
580.772	308.06
580.982	310.06
581.193	285.06
581.403	318.06
581.614	294.06
581.825	294.06
582.035	313.06
582.246	300.06
582.456	318.06
582.667	310.06
582.877	292.06
583.087	301.06
583.298	311.06
583.508	307.06
583.719	312.06
583.929	278.06
584.139	298.06
584.35	295.06
584.56	305.06
584.77	289.06
584.981	302.06
585.191	291.06
585.401	313.06
585.611	291.06
585.821	297.06
586.032	295.06
586.242	315.06
586.452	286.06
586.662	276.06
586.872	282.06
587.082	300.06
587.292	292.06
587.502	314.06
587.713	294.06
587.923	306.06
588.133	282.06
588.343	298.06
588.553	293.06
588.762	305.06
588.972	300.06
589.182	355.06
589.392	345.06
589.602	300.06
589.812	331.06
590.022	324.06
590.232	326.06
590.441	307.06
590.651	302.06
590.861	311.06
591.071	280.06
591.281	290.06
591.49	326.06
591.7	321.06
591.91	334.06
592.119	330.06
592.329	338.06
592.539	317.06
592.748	327.06
592.958	334.06
593.167	350.06
593.377	349.06
593.587	356.06
593.796	332.06
594.006	335.06
594.215	334.06
594.424	341.06
594.634	334.06
594.843	341.06
595.053	331.06
595.262	304.06
595.472	302.06
595.681	291.06
595.89	292.06
596.1	296.06
596.309	301.06
596.518	279.06
596.727	291.06
596.937	280.06
597.146	284.06
597.355	290.06
597.564	277.06
597.774	272.06
597.983	266.06
598.192	264.06
598.401	270.06
598.61	269.06
598.819	259.06
599.028	282.06
599.237	265.06
599.446	269.06
599.655	258.06
599.864	259.06
600.073	253.06
600.282	267.06
600.491	258.06
600.7	247.06
600.909	289.06
601.118	254.06
601.327	261.06
601.536	245.06
601.745	269.06
601.953	257.06
602.162	234.06
602.371	254.06
602.58	240.06
602.789	243.06
602.997	223.06
603.206	251.06
603.415	273.06
603.623	257.06
603.832	237.06
604.041	247.06
604.249	258.06
604.458	239.06
604.666	233.06
604.875	244.06
605.084	269.06
605.292	243.06
605.501	226.06
605.709	246.06
605.918	250.06
606.126	251.06
606.334	255.06
606.543	264.06
606.751	236.06
606.96	230.06
607.168	223.06
607.376	260.06
607.585	249.06
607.793	241.06
608.001	227.06
608.21	232.06
608.418	236.06
608.626	233.06
608.834	241.06
609.043	258.06
609.251	223.06
609.459	238.06
609.667	238.06
609.875	237.06
610.083	232.06
610.291	229.06
610.499	245.06
610.707	225.06
610.916	214.06
611.124	253.06
611.332	235.06
611.54	230.06
611.748	239.06
611.955	263.06
612.163	220.06
612.371	217.06
612.579	228.06
612.787	242.06
612.995	218.06
613.203	242.06
613.411	232.06
613.618	219.06
613.826	228.06
614.034	226.06
614.242	226.06
614.449	238.06
614.657	241.06
614.865	221.06
615.072	221.06
615.28	230.06
615.488	243.06
615.695	238.06
615.903	247.06
616.111	236.06
616.318	233.06
616.526	237.06
616.733	250.06
616.941	234.06
617.148	229.06
617.356	231.06
617.563	232.06
617.771	223.06
617.978	230.06
618.185	223.06
618.393	236.06
618.6	228.06
618.807	207.06
619.015	229.06
619.222	214.06
619.429	227.06
619.637	219.06
619.844	233.06
620.051	222.06
620.258	214.06
620.466	228.06
620.673	222.06
620.88	228.06
621.087	215.06
621.294	218.06
621.501	209.06
621.708	204.06
621.915	222.06
622.122	223.06
622.329	219.06
622.536	211.06
622.743	228.06
622.95	215.06
623.157	199.06
623.364	217.06
623.571	215.06
623.778	214.06
623.985	205.06
624.192	215.06
624.399	188.06
624.606	215.06
624.812	227.06
625.019	196.06
625.226	206.06
625.433	227.06
625.639	205.06
625.846	206.06
626.053	205.06
626.259	188.06
626.466	223.06
626.673	202.06
626.879	198.06
627.086	195.06
627.293	208.06
627.499	203.06
627.706	203.06
627.912	198.06
628.119	193.06
628.325	207.06
628.532	220.06
628.738	202.06
628.945	189.06
629.151	198.06
629.357	194.06
629.564	206.06
629.77	190.06
629.976	193.06
630.183	190.06
630.389	187.06
630.595	195.06
630.802	195.06
631.008	187.06
631.214	192.06
631.42	191.06
631.627	194.06
631.833	207.06
632.039	198.06
632.245	189.06
632.451	193.06
632.657	174.06
632.863	174.06
633.069	193.06
633.275	165.06
633.481	181.06
633.688	181.06
633.893	186.06
634.099	172.06
634.305	179.06
634.511	185.06
634.717	189.06
634.923	194.06
635.129	190.06
635.335	193.06
635.541	189.06
635.747	191.06
635.952	169.06
636.158	184.06
636.364	183.06
636.57	198.06
636.775	192.06
636.981	174.06
637.187	175.06
637.392	181.06
637.598	171.06
637.804	179.06
638.009	185.06
638.215	174.06
638.421	166.06
638.626	164.06
638.832	172.06
639.037	164.06
639.243	171.06
639.448	181.06
639.654	174.06
639.859	155.06
640.065	171.06
640.27	175.06
640.475	168.06
640.681	158.06
640.886	174.06
641.091	159.06
641.297	169.06
641.502	165.06
641.707	151.06
641.913	164.06
642.118	171.06
642.323	158.06
642.528	165.06
642.733	177.06
642.939	169.06
643.144	164.06
643.349	179.06
643.554	180.06
643.759	178.06
643.964	166.06
644.169	159.06
644.374	156.06
644.579	151.06
644.784	165.06
644.989	168.06
645.194	163.06
645.399	161.06
645.604	171.06
645.809	157.06
646.014	154.06
646.219	170.06
646.423	166.06
646.628	155.06
646.833	165.06
647.038	174.06
647.243	181.06
647.447	161.06
647.652	156.06
647.857	181.06
648.062	187.06
648.266	173.06
648.471	167.06
648.676	193.06
648.88	172.06
649.085	172.06
649.289	178.06
649.494	167.06
649.698	184.06
649.903	175.06
650.107	166.06
650.312	178.06
650.516	154.06
650.721	147.06
650.925	158.06
651.13	144.06
651.334	141.06
651.539	150.06
651.743	169.06
651.947	149.06
652.152	154.06
652.356	158.06
652.56	144.06
652.764	145.06
652.969	149.06
653.173	150.06
653.377	140.06
653.581	134.06
653.785	140.06
653.99	137.06
654.194	135.06
654.398	155.06
654.602	139.06
654.806	146.06
655.01	144.06
655.214	141.06
655.418	144.06
655.622	153.06
655.826	137.06
656.03	149.06
656.234	135.06
656.438	150.06
656.642	139.06
656.846	137.06
657.049	136.06
657.253	131.06
657.457	123.06
657.661	121.06
657.865	121.06
658.068	119.06
658.272	126.06
658.476	97.06
658.68	115.06
658.883	110.06
659.087	111.06
659.291	96.06
659.494	88.06
659.698	97.06
659.901	94.06
660.105	90.06
660.309	93.06
660.512	87.06
660.716	86.06
660.919	94.06
661.123	97.06
661.326	108.06
661.53	82.06
661.733	89.06
661.936	88.06
662.14	82.06
662.343	92.06
662.546	81.06
662.75	102.06
662.953	92.06
663.156	85.06
663.36	91.06
663.563	83.06
663.766	82.06
663.969	100.06
664.173	84.06
664.376	89.06
664.579	78.06
664.782	70.06
664.985	79.06
665.188	76.06
665.391	89.06
665.594	79.06
665.797	74.06
666	83.06
666.203	78.06
666.406	94.06
666.609	86.06
666.812	77.06
667.015	73.06
667.218	81.06
667.421	81.06
667.624	78.06
667.827	93.06
668.03	83.06
668.232	78.06
668.435	90.06
668.638	83.06
668.841	79.06
669.043	80.06
669.246	83.06
669.449	89.06
669.651	90.06
669.854	70.06
670.057	93.06
670.259	84.06
670.462	83.06
670.665	89.06
670.867	84.06
671.07	101.06
671.272	90.06
671.475	73.06
671.677	87.06
671.88	91.06
672.082	73.06
672.284	78.06
672.487	77.06
672.689	95.06
672.892	77.06
