Data from 1962.PennyLincolnUp.Lamp.En5.5.200Scan.071719.P1._HRD10591_13-53-48-061.txt Node
Date: Thu Jul 18 13:53:48 EDT 2019
User: cochatt
Spectrometer: HR+D1059
Trigger mode: 1
Integration Time (sec): 1.000000E-1
Scans to average: 1
Electric dark correction enabled: true
Nonlinearity correction enabled: false
Boxcar width: 0
XAxis mode: Wavelengths
Number of Pixels in Spectrum: 2048
>>>>>Begin Spectral Data<<<<<
223.165	-11.12
223.4	-11.12
223.635	-11.12
223.869	-14.12
224.104	-15.12
224.338	-12.12
224.573	-11.12
224.808	-23.12
225.042	-5.12
225.277	-3.12
225.511	-8.12
225.746	6.88
225.98	1.88
226.215	11.88
226.449	13.88
226.683	17.88
226.918	19.88
227.152	30.88
227.387	36.88
227.621	34.88
227.856	34.88
228.09	48.88
228.324	44.88
228.559	47.88
228.793	72.88
229.027	76.88
229.262	86.88
229.496	97.88
229.73	112.88
229.964	121.88
230.199	116.88
230.433	97.88
230.667	102.88
230.901	99.88
231.136	119.88
231.37	103.88
231.604	99.88
231.838	110.88
232.072	122.88
232.306	115.88
232.541	102.88
232.775	94.88
233.009	108.88
233.243	107.88
233.477	115.88
233.711	124.88
233.945	120.88
234.179	119.88
234.413	112.88
234.647	117.88
234.881	102.88
235.115	107.88
235.349	106.88
235.583	114.88
235.817	115.88
236.051	102.88
236.285	117.88
236.519	107.88
236.753	98.88
236.987	112.88
237.221	138.88
237.455	172.88
237.689	155.88
237.922	131.88
238.156	122.88
238.39	126.88
238.624	123.88
238.858	111.88
239.091	106.88
239.325	125.88
239.559	136.88
239.793	126.88
240.027	126.88
240.26	131.88
240.494	133.88
240.728	124.88
240.961	130.88
241.195	134.88
241.429	134.88
241.662	133.88
241.896	126.88
242.13	122.88
242.363	129.88
242.597	136.88
242.83	132.88
243.064	134.88
243.298	129.88
243.531	138.88
243.765	122.88
243.998	148.88
244.232	133.88
244.465	136.88
244.699	133.88
244.932	129.88
245.166	126.88
245.399	149.88
245.633	142.88
245.866	128.88
246.099	143.88
246.333	144.88
246.566	137.88
246.8	152.88
247.033	130.88
247.266	154.88
247.5	150.88
247.733	168.88
247.966	165.88
248.2	135.88
248.433	150.88
248.666	138.88
248.899	162.88
249.133	170.88
249.366	181.88
249.599	167.88
249.832	160.88
250.066	174.88
250.299	156.88
250.532	159.88
250.765	169.88
250.998	184.88
251.231	196.88
251.465	187.88
251.698	176.88
251.931	176.88
252.164	156.88
252.397	180.88
252.63	162.88
252.863	172.88
253.096	207.88
253.329	197.88
253.562	178.88
253.795	194.88
254.028	210.88
254.261	193.88
254.494	178.88
254.727	197.88
254.96	227.88
255.193	222.88
255.426	187.88
255.659	203.88
255.892	188.88
256.124	179.88
256.357	191.88
256.59	195.88
256.823	180.88
257.056	194.88
257.289	194.88
257.521	206.88
257.754	196.88
257.987	179.88
258.22	190.88
258.452	191.88
258.685	185.88
258.918	185.88
259.151	185.88
259.383	209.88
259.616	210.88
259.849	200.88
260.081	200.88
260.314	225.88
260.547	224.88
260.779	220.88
261.012	210.88
261.244	208.88
261.477	200.88
261.71	202.88
261.942	218.88
262.175	210.88
262.407	215.88
262.64	200.88
262.872	191.88
263.105	194.88
263.337	213.88
263.57	196.88
263.802	202.88
264.035	211.88
264.267	194.88
264.499	196.88
264.732	206.88
264.964	203.88
265.197	205.88
265.429	209.88
265.661	193.88
265.894	215.88
266.126	206.88
266.358	207.88
266.591	193.88
266.823	211.88
267.055	186.88
267.287	212.88
267.52	228.88
267.752	216.88
267.984	201.88
268.216	201.88
268.448	230.88
268.681	228.88
268.913	234.88
269.145	232.88
269.377	233.88
269.609	234.88
269.841	235.88
270.073	242.88
270.306	252.88
270.538	267.88
270.77	263.88
271.002	244.88
271.234	262.88
271.466	264.88
271.698	268.88
271.93	274.88
272.162	262.88
272.394	278.88
272.626	264.88
272.858	259.88
273.09	243.88
273.322	260.88
273.553	235.88
273.785	238.88
274.017	235.88
274.249	248.88
274.481	247.88
274.713	262.88
274.945	258.88
275.176	256.88
275.408	264.88
275.64	255.88
275.872	257.88
276.104	244.88
276.335	254.88
276.567	259.88
276.799	268.88
277.031	258.88
277.262	289.88
277.494	277.88
277.726	273.88
277.957	272.88
278.189	259.88
278.421	256.88
278.652	233.88
278.884	241.88
279.115	254.88
279.347	250.88
279.579	265.88
279.81	258.88
280.042	256.88
280.273	266.88
280.505	259.88
280.736	260.88
280.968	278.88
281.199	277.88
281.431	254.88
281.662	278.88
281.894	272.88
282.125	259.88
282.356	274.88
282.588	276.88
282.819	257.88
283.051	271.88
283.282	245.88
283.513	258.88
283.745	275.88
283.976	282.88
284.207	287.88
284.439	291.88
284.67	300.88
284.901	272.88
285.132	287.88
285.364	290.88
285.595	288.88
285.826	283.88
286.057	266.88
286.288	276.88
286.52	284.88
286.751	276.88
286.982	282.88
287.213	280.88
287.444	275.88
287.675	254.88
287.906	286.88
288.138	291.88
288.369	298.88
288.6	294.88
288.831	291.88
289.062	294.88
289.293	293.88
289.524	288.88
289.755	294.88
289.986	305.88
290.217	286.88
290.448	295.88
290.679	280.88
290.91	289.88
291.141	282.88
291.371	294.88
291.602	299.88
291.833	289.88
292.064	283.88
292.295	277.88
292.526	267.88
292.757	290.88
292.987	298.88
293.218	297.88
293.449	323.88
293.68	298.88
293.91	276.88
294.141	286.88
294.372	303.88
294.603	286.88
294.833	275.88
295.064	291.88
295.295	303.88
295.525	288.88
295.756	303.88
295.987	308.88
296.217	299.88
296.448	308.88
296.679	317.88
296.909	307.88
297.14	312.88
297.37	310.88
297.601	317.88
297.831	295.88
298.062	302.88
298.292	302.88
298.523	328.88
298.753	306.88
298.984	310.88
299.214	302.88
299.445	298.88
299.675	320.88
299.905	282.88
300.136	300.88
300.366	309.88
300.597	313.88
300.827	321.88
301.057	318.88
301.288	320.88
301.518	317.88
301.748	328.88
301.979	337.88
302.209	340.88
302.439	338.88
302.669	338.88
302.9	338.88
303.13	332.88
303.36	327.88
303.59	328.88
303.82	333.88
304.051	330.88
304.281	332.88
304.511	337.88
304.741	336.88
304.971	325.88
305.201	310.88
305.431	326.88
305.661	330.88
305.891	332.88
306.121	313.88
306.352	334.88
306.582	323.88
306.812	341.88
307.042	337.88
307.272	323.88
307.502	355.88
307.731	334.88
307.961	315.88
308.191	325.88
308.421	328.88
308.651	333.88
308.881	342.88
309.111	334.88
309.341	322.88
309.571	351.88
309.8	348.88
310.03	352.88
310.26	348.88
310.49	350.88
310.72	344.88
310.949	369.88
311.179	382.88
311.409	374.88
311.639	371.88
311.868	343.88
312.098	361.88
312.328	353.88
312.557	364.88
312.787	389.88
313.017	360.88
313.246	372.88
313.476	348.88
313.706	350.88
313.935	359.88
314.165	375.88
314.394	363.88
314.624	371.88
314.853	376.88
315.083	339.88
315.312	358.88
315.542	362.88
315.771	362.88
316.001	363.88
316.23	348.88
316.46	375.88
316.689	361.88
316.919	351.88
317.148	361.88
317.377	358.88
317.607	344.88
317.836	365.88
318.065	376.88
318.295	366.88
318.524	362.88
318.753	361.88
318.983	354.88
319.212	356.88
319.441	378.88
319.67	377.88
319.9	350.88
320.129	374.88
320.358	357.88
320.587	374.88
320.816	374.88
321.046	378.88
321.275	370.88
321.504	376.88
321.733	380.88
321.962	383.88
322.191	396.88
322.42	376.88
322.649	386.88
322.878	393.88
323.108	392.88
323.337	418.88
323.566	425.88
323.795	406.88
324.024	437.88
324.253	512.88
324.482	649.88
324.71	926.88
324.939	1278.88
325.168	1127.88
325.397	666.88
325.626	489.88
325.855	440.88
326.084	430.88
326.313	418.88
326.542	407.88
326.77	464.88
326.999	487.88
327.228	623.88
327.457	888.88
327.686	998.88
327.914	712.88
328.143	550.88
328.372	487.88
328.6	478.88
328.829	456.88
329.058	478.88
329.287	472.88
329.515	457.88
329.744	439.88
329.972	434.88
330.201	442.88
330.43	485.88
330.658	467.88
330.887	463.88
331.115	470.88
331.344	443.88
331.572	440.88
331.801	450.88
332.03	443.88
332.258	438.88
332.486	425.88
332.715	465.88
332.943	442.88
333.172	464.88
333.4	466.88
333.629	485.88
333.857	491.88
334.085	464.88
334.314	481.88
334.542	497.88
334.771	521.88
334.999	468.88
335.227	469.88
335.455	454.88
335.684	433.88
335.912	449.88
336.14	440.88
336.369	421.88
336.597	435.88
336.825	442.88
337.053	439.88
337.281	428.88
337.51	443.88
337.738	434.88
337.966	422.88
338.194	436.88
338.422	434.88
338.65	411.88
338.878	401.88
339.106	422.88
339.334	417.88
339.562	410.88
339.79	397.88
340.018	416.88
340.246	414.88
340.474	400.88
340.702	426.88
340.93	409.88
341.158	423.88
341.386	397.88
341.614	400.88
341.842	412.88
342.07	426.88
342.298	419.88
342.526	421.88
342.754	410.88
342.981	406.88
343.209	417.88
343.437	421.88
343.665	437.88
343.893	449.88
344.12	447.88
344.348	450.88
344.576	448.88
344.804	435.88
345.031	427.88
345.259	427.88
345.487	409.88
345.714	405.88
345.942	388.88
346.17	396.88
346.397	399.88
346.625	394.88
346.853	383.88
347.08	398.88
347.308	406.88
347.535	404.88
347.763	409.88
347.99	400.88
348.218	405.88
348.445	392.88
348.673	384.88
348.9	396.88
349.128	386.88
349.355	393.88
349.583	397.88
349.81	391.88
350.037	401.88
350.265	395.88
350.492	383.88
350.72	395.88
350.947	389.88
351.174	395.88
351.402	407.88
351.629	379.88
351.856	414.88
352.083	410.88
352.311	401.88
352.538	396.88
352.765	388.88
352.992	377.88
353.22	406.88
353.447	402.88
353.674	392.88
353.901	395.88
354.128	389.88
354.355	402.88
354.583	371.88
354.81	378.88
355.037	382.88
355.264	353.88
355.491	368.88
355.718	370.88
355.945	367.88
356.172	393.88
356.399	370.88
356.626	361.88
356.853	366.88
357.08	389.88
357.307	383.88
357.534	398.88
357.761	376.88
357.988	393.88
358.215	397.88
358.441	385.88
358.668	383.88
358.895	390.88
359.122	374.88
359.349	391.88
359.576	378.88
359.802	402.88
360.029	416.88
360.256	412.88
360.483	389.88
360.709	394.88
360.936	384.88
361.163	407.88
361.39	390.88
361.616	384.88
361.843	390.88
362.07	387.88
362.296	394.88
362.523	408.88
362.749	400.88
362.976	412.88
363.203	394.88
363.429	380.88
363.656	375.88
363.882	395.88
364.109	395.88
364.335	396.88
364.562	388.88
364.788	390.88
365.015	391.88
365.241	382.88
365.468	392.88
365.694	392.88
365.92	393.88
366.147	388.88
366.373	380.88
366.599	392.88
366.826	376.88
367.052	362.88
367.278	388.88
367.505	384.88
367.731	387.88
367.957	383.88
368.184	375.88
368.41	399.88
368.636	392.88
368.862	414.88
369.089	402.88
369.315	397.88
369.541	395.88
369.767	382.88
369.993	397.88
370.219	372.88
370.445	407.88
370.672	396.88
370.898	397.88
371.124	392.88
371.35	393.88
371.576	386.88
371.802	391.88
372.028	414.88
372.254	380.88
372.48	402.88
372.706	406.88
372.932	403.88
373.158	411.88
373.384	414.88
373.61	412.88
373.835	400.88
374.061	405.88
374.287	412.88
374.513	386.88
374.739	411.88
374.965	418.88
375.191	430.88
375.416	406.88
375.642	405.88
375.868	424.88
376.094	392.88
376.319	408.88
376.545	394.88
376.771	392.88
376.997	377.88
377.222	400.88
377.448	392.88
377.674	384.88
377.899	391.88
378.125	403.88
378.35	391.88
378.576	393.88
378.802	358.88
379.027	395.88
379.253	400.88
379.478	379.88
379.704	391.88
379.929	388.88
380.155	405.88
380.38	393.88
380.606	391.88
380.831	383.88
381.057	377.88
381.282	400.88
381.507	387.88
381.733	406.88
381.958	380.88
382.184	425.88
382.409	408.88
382.634	408.88
382.86	406.88
383.085	419.88
383.31	426.88
383.535	438.88
383.761	412.88
383.986	426.88
384.211	420.88
384.436	432.88
384.662	423.88
384.887	436.88
385.112	444.88
385.337	467.88
385.562	440.88
385.787	450.88
386.013	467.88
386.238	455.88
386.463	466.88
386.688	444.88
386.913	449.88
387.138	455.88
387.363	482.88
387.588	460.88
387.813	446.88
388.038	450.88
388.263	434.88
388.488	436.88
388.713	458.88
388.938	441.88
389.163	439.88
389.387	463.88
389.612	460.88
389.837	458.88
390.062	427.88
390.287	464.88
390.512	450.88
390.736	446.88
390.961	454.88
391.186	464.88
391.411	478.88
391.636	458.88
391.86	461.88
392.085	492.88
392.31	472.88
392.534	469.88
392.759	454.88
392.984	485.88
393.208	454.88
393.433	447.88
393.658	451.88
393.882	468.88
394.107	454.88
394.331	458.88
394.556	437.88
394.78	463.88
395.005	479.88
395.229	476.88
395.454	488.88
395.678	492.88
395.903	480.88
396.127	505.88
396.352	501.88
396.576	476.88
396.801	452.88
397.025	474.88
397.249	482.88
397.474	471.88
397.698	471.88
397.922	500.88
398.147	516.88
398.371	487.88
398.595	511.88
398.82	544.88
399.044	552.88
399.268	593.88
399.492	631.88
399.717	662.88
399.941	669.88
400.165	660.88
400.389	667.88
400.613	592.88
400.837	568.88
401.062	544.88
401.286	536.88
401.51	537.88
401.734	532.88
401.958	532.88
402.182	535.88
402.406	543.88
402.63	540.88
402.854	547.88
403.078	547.88
403.302	544.88
403.526	570.88
403.75	587.88
403.974	554.88
404.198	565.88
404.422	538.88
404.645	579.88
404.869	604.88
405.093	578.88
405.317	599.88
405.541	635.88
405.765	579.88
405.988	575.88
406.212	558.88
406.436	577.88
406.66	575.88
406.883	586.88
407.107	616.88
407.331	659.88
407.555	688.88
407.778	700.88
408.002	662.88
408.226	629.88
408.449	600.88
408.673	595.88
408.896	589.88
409.12	651.88
409.344	624.88
409.567	579.88
409.791	552.88
410.014	556.88
410.238	545.88
410.461	554.88
410.685	562.88
410.908	564.88
411.132	603.88
411.355	570.88
411.578	599.88
411.802	531.88
412.025	560.88
412.249	559.88
412.472	569.88
412.695	592.88
412.919	593.88
413.142	533.88
413.365	523.88
413.589	542.88
413.812	516.88
414.035	543.88
414.258	527.88
414.482	496.88
414.705	516.88
414.928	503.88
415.151	512.88
415.374	529.88
415.597	521.88
415.821	500.88
416.044	520.88
416.267	513.88
416.49	524.88
416.713	530.88
416.936	523.88
417.159	489.88
417.382	519.88
417.605	508.88
417.828	532.88
418.051	550.88
418.274	558.88
418.497	522.88
418.72	528.88
418.943	495.88
419.166	552.88
419.389	561.88
419.611	562.88
419.834	547.88
420.057	543.88
420.28	549.88
420.503	534.88
420.726	513.88
420.948	542.88
421.171	554.88
421.394	579.88
421.617	555.88
421.839	536.88
422.062	545.88
422.285	546.88
422.507	597.88
422.73	641.88
422.953	620.88
423.175	567.88
423.398	553.88
423.621	558.88
423.843	573.88
424.066	586.88
424.288	559.88
424.511	558.88
424.733	618.88
424.956	666.88
425.178	638.88
425.401	625.88
425.623	648.88
425.846	567.88
426.068	555.88
426.291	536.88
426.513	530.88
426.735	543.88
426.958	574.88
427.18	601.88
427.402	697.88
427.625	768.88
427.847	664.88
428.069	597.88
428.292	569.88
428.514	523.88
428.736	495.88
428.958	507.88
429.181	509.88
429.403	506.88
429.625	497.88
429.847	529.88
430.069	572.88
430.292	582.88
430.514	529.88
430.736	488.88
430.958	514.88
431.18	478.88
431.402	479.88
431.624	485.88
431.846	464.88
432.068	486.88
432.29	493.88
432.512	495.88
432.734	504.88
432.956	481.88
433.178	510.88
433.4	504.88
433.622	493.88
433.844	479.88
434.066	484.88
434.287	496.88
434.509	488.88
434.731	513.88
434.953	533.88
435.175	522.88
435.397	559.88
435.618	530.88
435.84	584.88
436.062	610.88
436.284	645.88
436.505	586.88
436.727	533.88
436.949	527.88
437.17	496.88
437.392	470.88
437.614	494.88
437.835	536.88
438.057	576.88
438.278	651.88
438.5	647.88
438.721	694.88
438.943	694.88
439.165	593.88
439.386	514.88
439.608	514.88
439.829	530.88
440.05	542.88
440.272	562.88
440.493	556.88
440.715	530.88
440.936	527.88
441.158	497.88
441.379	518.88
441.6	550.88
441.822	518.88
442.043	553.88
442.264	635.88
442.486	640.88
442.707	556.88
442.928	545.88
443.149	555.88
443.371	594.88
443.592	590.88
443.813	642.88
444.034	724.88
444.255	644.88
444.476	584.88
444.698	586.88
444.919	587.88
445.14	691.88
445.361	608.88
445.582	574.88
445.803	583.88
446.024	656.88
446.245	660.88
446.466	598.88
446.687	578.88
446.908	546.88
447.129	523.88
447.35	480.88
447.571	496.88
447.792	475.88
448.013	483.88
448.234	486.88
448.455	514.88
448.675	604.88
448.896	681.88
449.117	611.88
449.338	566.88
449.559	660.88
449.779	711.88
450	589.88
450.221	518.88
450.442	501.88
450.662	482.88
450.883	481.88
451.104	487.88
451.324	465.88
451.545	467.88
451.766	460.88
451.986	450.88
452.207	459.88
452.428	447.88
452.648	447.88
452.869	454.88
453.089	434.88
453.31	454.88
453.53	450.88
453.751	424.88
453.971	438.88
454.192	440.88
454.412	435.88
454.633	432.88
454.853	427.88
455.073	455.88
455.294	462.88
455.514	473.88
455.734	491.88
455.955	435.88
456.175	426.88
456.395	430.88
456.616	420.88
456.836	438.88
457.056	433.88
457.276	418.88
457.497	424.88
457.717	418.88
457.937	432.88
458.157	442.88
458.377	450.88
458.598	473.88
458.818	504.88
459.038	547.88
459.258	546.88
459.478	501.88
459.698	515.88
459.918	504.88
460.138	494.88
460.358	515.88
460.578	530.88
460.798	489.88
461.018	532.88
461.238	525.88
461.458	510.88
461.678	530.88
461.898	569.88
462.118	548.88
462.338	532.88
462.558	578.88
462.777	567.88
462.997	578.88
463.217	594.88
463.437	597.88
463.657	590.88
463.876	577.88
464.096	567.88
464.316	595.88
464.536	570.88
464.755	570.88
464.975	567.88
465.195	576.88
465.414	572.88
465.634	524.88
465.854	524.88
466.073	498.88
466.293	476.88
466.512	475.88
466.732	452.88
466.951	472.88
467.171	451.88
467.391	474.88
467.61	466.88
467.829	486.88
468.049	465.88
468.268	466.88
468.488	467.88
468.707	473.88
468.927	452.88
469.146	439.88
469.365	476.88
469.585	462.88
469.804	468.88
470.023	474.88
470.243	456.88
470.462	496.88
470.681	486.88
470.901	468.88
471.12	498.88
471.339	470.88
471.558	482.88
471.777	479.88
471.997	490.88
472.216	489.88
472.435	501.88
472.654	479.88
472.873	478.88
473.092	476.88
473.311	465.88
473.53	467.88
473.749	470.88
473.968	484.88
474.187	534.88
474.406	559.88
474.625	496.88
474.844	464.88
475.063	462.88
475.282	457.88
475.501	494.88
475.72	464.88
475.939	457.88
476.158	475.88
476.377	498.88
476.596	477.88
476.814	500.88
477.033	516.88
477.252	490.88
477.471	521.88
477.69	505.88
477.908	532.88
478.127	520.88
478.346	504.88
478.564	546.88
478.783	545.88
479.002	545.88
479.22	546.88
479.439	547.88
479.658	583.88
479.876	593.88
480.095	573.88
480.313	618.88
480.532	599.88
480.751	580.88
480.969	584.88
481.188	609.88
481.406	617.88
481.624	590.88
481.843	551.88
482.061	554.88
482.28	534.88
482.498	542.88
482.717	543.88
482.935	560.88
483.153	546.88
483.372	542.88
483.59	535.88
483.808	549.88
484.027	554.88
484.245	542.88
484.463	553.88
484.681	558.88
484.9	544.88
485.118	567.88
485.336	546.88
485.554	573.88
485.772	578.88
485.99	586.88
486.209	592.88
486.427	591.88
486.645	583.88
486.863	580.88
487.081	576.88
487.299	563.88
487.517	568.88
487.735	578.88
487.953	569.88
488.171	589.88
488.389	584.88
488.607	570.88
488.825	569.88
489.043	597.88
489.261	587.88
489.479	588.88
489.696	579.88
489.914	582.88
490.132	609.88
490.35	574.88
490.568	589.88
490.786	611.88
491.003	592.88
491.221	605.88
491.439	592.88
491.657	610.88
491.874	630.88
492.092	632.88
492.31	614.88
492.527	633.88
492.745	638.88
492.963	634.88
493.18	659.88
493.398	636.88
493.615	630.88
493.833	665.88
494.05	645.88
494.268	625.88
494.485	643.88
494.703	641.88
494.92	632.88
495.138	674.88
495.355	670.88
495.573	634.88
495.79	660.88
496.008	679.88
496.225	648.88
496.442	667.88
496.66	662.88
496.877	657.88
497.094	683.88
497.312	688.88
497.529	712.88
497.746	724.88
497.963	746.88
498.181	752.88
498.398	770.88
498.615	795.88
498.832	808.88
499.049	839.88
499.267	887.88
499.484	933.88
499.701	995.88
499.918	1033.88
500.135	1118.88
500.352	1185.88
500.569	1188.88
500.786	1233.88
501.003	1164.88
501.22	1109.88
501.437	1042.88
501.654	987.88
501.871	938.88
502.088	887.88
502.305	859.88
502.522	852.88
502.739	811.88
502.956	777.88
503.172	775.88
503.389	719.88
503.606	718.88
503.823	706.88
504.04	713.88
504.256	711.88
504.473	696.88
504.69	706.88
504.907	709.88
505.123	701.88
505.34	658.88
505.557	666.88
505.773	647.88
505.99	620.88
506.207	629.88
506.423	626.88
506.64	631.88
506.856	620.88
507.073	632.88
507.289	603.88
507.506	597.88
507.722	616.88
507.939	607.88
508.155	601.88
508.372	578.88
508.588	571.88
508.805	575.88
509.021	578.88
509.238	593.88
509.454	602.88
509.67	584.88
509.887	564.88
510.103	580.88
510.319	579.88
510.536	605.88
510.752	854.88
510.968	711.88
511.184	575.88
511.401	544.88
511.617	547.88
511.833	556.88
512.049	564.88
512.265	549.88
512.481	551.88
512.698	532.88
512.914	548.88
513.13	543.88
513.346	550.88
513.562	557.88
513.778	548.88
513.994	569.88
514.21	584.88
514.426	580.88
514.642	564.88
514.858	591.88
515.074	578.88
515.29	658.88
515.506	836.88
515.721	724.88
515.937	615.88
516.153	589.88
516.369	598.88
516.585	593.88
516.801	576.88
517.016	614.88
517.232	617.88
517.448	609.88
517.664	655.88
517.879	631.88
518.095	621.88
518.311	630.88
518.527	634.88
518.742	616.88
518.958	596.88
519.173	576.88
519.389	584.88
519.605	572.88
519.82	584.88
520.036	566.88
520.251	579.88
520.467	559.88
520.682	577.88
520.898	555.88
521.113	571.88
521.329	597.88
521.544	600.88
521.76	683.88
521.975	940.88
522.19	922.88
522.406	631.88
522.621	584.88
522.836	532.88
523.052	518.88
523.267	528.88
523.482	508.88
523.698	510.88
523.913	495.88
524.128	513.88
524.343	497.88
524.559	492.88
524.774	468.88
524.989	501.88
525.204	502.88
525.419	483.88
525.634	504.88
525.849	463.88
526.064	494.88
526.28	474.88
526.495	472.88
526.71	474.88
526.925	474.88
527.14	480.88
527.355	467.88
527.57	465.88
527.785	464.88
527.999	464.88
528.214	471.88
528.429	481.88
528.644	475.88
528.859	473.88
529.074	468.88
529.289	459.88
529.503	495.88
529.718	489.88
529.933	483.88
530.148	477.88
530.363	484.88
530.577	469.88
530.792	458.88
531.007	449.88
531.221	484.88
531.436	444.88
531.651	468.88
531.865	456.88
532.08	462.88
532.295	480.88
532.509	470.88
532.724	450.88
532.938	479.88
533.153	444.88
533.367	451.88
533.582	473.88
533.796	478.88
534.011	438.88
534.225	453.88
534.44	464.88
534.654	465.88
534.868	460.88
535.083	477.88
535.297	447.88
535.511	472.88
535.726	474.88
535.94	454.88
536.154	450.88
536.369	444.88
536.583	431.88
536.797	451.88
537.011	439.88
537.225	456.88
537.44	435.88
537.654	436.88
537.868	427.88
538.082	419.88
538.296	442.88
538.51	432.88
538.724	442.88
538.938	423.88
539.153	422.88
539.367	440.88
539.581	444.88
539.795	437.88
540.009	436.88
540.222	443.88
540.436	465.88
540.65	437.88
540.864	438.88
541.078	444.88
541.292	428.88
541.506	447.88
541.72	426.88
541.934	419.88
542.147	452.88
542.361	428.88
542.575	425.88
542.789	425.88
543.002	446.88
543.216	443.88
543.43	452.88
543.644	420.88
543.857	443.88
544.071	431.88
544.285	423.88
544.498	418.88
544.712	414.88
544.925	407.88
545.139	443.88
545.352	448.88
545.566	455.88
545.779	430.88
545.993	442.88
546.206	450.88
546.42	438.88
546.633	444.88
546.847	435.88
547.06	444.88
547.274	425.88
547.487	438.88
547.7	427.88
547.914	446.88
548.127	440.88
548.34	438.88
548.554	419.88
548.767	441.88
548.98	427.88
549.193	448.88
549.407	446.88
549.62	430.88
549.833	446.88
550.046	445.88
550.259	429.88
550.473	435.88
550.686	432.88
550.899	417.88
551.112	414.88
551.325	432.88
551.538	436.88
551.751	434.88
551.964	425.88
552.177	441.88
552.39	434.88
552.603	463.88
552.816	449.88
553.029	474.88
553.242	468.88
553.455	473.88
553.667	454.88
553.88	467.88
554.093	430.88
554.306	439.88
554.519	442.88
554.732	417.88
554.944	432.88
555.157	434.88
555.37	407.88
555.583	409.88
555.795	405.88
556.008	386.88
556.221	408.88
556.433	384.88
556.646	386.88
556.859	390.88
557.071	402.88
557.284	407.88
557.496	384.88
557.709	400.88
557.921	378.88
558.134	378.88
558.346	386.88
558.559	376.88
558.771	378.88
558.984	395.88
559.196	387.88
559.409	368.88
559.621	387.88
559.833	392.88
560.046	370.88
560.258	378.88
560.47	386.88
560.683	393.88
560.895	377.88
561.107	379.88
561.32	369.88
561.532	370.88
561.744	390.88
561.956	378.88
562.168	386.88
562.381	373.88
562.593	394.88
562.805	393.88
563.017	383.88
563.229	409.88
563.441	409.88
563.653	373.88
563.865	396.88
564.077	386.88
564.289	410.88
564.501	403.88
564.713	394.88
564.925	394.88
565.137	389.88
565.349	426.88
565.561	438.88
565.773	457.88
565.985	457.88
566.197	459.88
566.408	503.88
566.62	506.88
566.832	520.88
567.044	549.88
567.255	520.88
567.467	555.88
567.679	571.88
567.891	598.88
568.102	589.88
568.314	575.88
568.526	508.88
568.737	498.88
568.949	492.88
569.161	474.88
569.372	453.88
569.584	413.88
569.795	439.88
570.007	420.88
570.218	422.88
570.43	435.88
570.641	417.88
570.853	383.88
571.064	410.88
571.276	387.88
571.487	405.88
571.698	383.88
571.91	379.88
572.121	351.88
572.333	358.88
572.544	330.88
572.755	370.88
572.966	367.88
573.178	366.88
573.389	343.88
573.6	340.88
573.811	343.88
574.023	332.88
574.234	328.88
574.445	331.88
574.656	332.88
574.867	346.88
575.078	337.88
575.289	338.88
575.501	338.88
575.712	333.88
575.923	332.88
576.134	342.88
576.345	346.88
576.556	322.88
576.767	324.88
576.978	326.88
577.188	311.88
577.399	329.88
577.61	326.88
577.821	304.88
578.032	312.88
578.243	324.88
578.454	426.88
578.665	368.88
578.875	302.88
579.086	311.88
579.297	312.88
579.508	315.88
579.718	318.88
579.929	314.88
580.14	319.88
580.35	311.88
580.561	318.88
580.772	313.88
580.982	311.88
581.193	293.88
581.403	305.88
581.614	298.88
581.825	292.88
582.035	312.88
582.246	306.88
582.456	286.88
582.667	312.88
582.877	322.88
583.087	310.88
583.298	306.88
583.508	311.88
583.719	316.88
583.929	316.88
584.139	303.88
584.35	295.88
584.56	290.88
584.77	292.88
584.981	305.88
585.191	298.88
585.401	312.88
585.611	289.88
585.821	309.88
586.032	290.88
586.242	302.88
586.452	299.88
586.662	286.88
586.872	292.88
587.082	313.88
587.292	299.88
587.502	293.88
587.713	304.88
587.923	305.88
588.133	302.88
588.343	295.88
588.553	286.88
588.762	296.88
588.972	309.88
589.182	345.88
589.392	344.88
589.602	300.88
589.812	337.88
590.022	322.88
590.232	290.88
590.441	299.88
590.651	295.88
590.861	296.88
591.071	306.88
591.281	314.88
591.49	311.88
591.7	307.88
591.91	313.88
592.119	326.88
592.329	310.88
592.539	311.88
592.748	338.88
592.958	327.88
593.167	318.88
593.377	339.88
593.587	350.88
593.796	345.88
594.006	345.88
594.215	327.88
594.424	312.88
594.634	334.88
594.843	321.88
595.053	323.88
595.262	317.88
595.472	295.88
595.681	309.88
595.89	300.88
596.1	292.88
596.309	284.88
596.518	298.88
596.727	283.88
596.937	284.88
597.146	279.88
597.355	290.88
597.564	282.88
597.774	271.88
597.983	271.88
598.192	268.88
598.401	252.88
598.61	274.88
598.819	278.88
599.028	263.88
599.237	268.88
599.446	272.88
599.655	270.88
599.864	275.88
600.073	265.88
600.282	260.88
600.491	255.88
600.7	257.88
600.909	247.88
601.118	258.88
601.327	260.88
601.536	249.88
601.745	248.88
601.953	263.88
602.162	257.88
602.371	244.88
602.58	251.88
602.789	238.88
602.997	247.88
603.206	237.88
603.415	240.88
603.623	258.88
603.832	252.88
604.041	254.88
604.249	255.88
604.458	242.88
604.666	228.88
604.875	228.88
605.084	235.88
605.292	244.88
605.501	236.88
605.709	258.88
605.918	240.88
606.126	244.88
606.334	255.88
606.543	255.88
606.751	224.88
606.96	256.88
607.168	219.88
607.376	231.88
607.585	233.88
607.793	258.88
608.001	230.88
608.21	241.88
608.418	230.88
608.626	239.88
608.834	238.88
609.043	238.88
609.251	225.88
609.459	235.88
609.667	237.88
609.875	231.88
610.083	238.88
610.291	233.88
610.499	236.88
610.707	253.88
610.916	239.88
611.124	241.88
611.332	236.88
611.54	233.88
611.748	233.88
611.955	249.88
612.163	215.88
612.371	216.88
612.579	238.88
612.787	232.88
612.995	227.88
613.203	225.88
613.411	222.88
613.618	210.88
613.826	210.88
614.034	216.88
614.242	235.88
614.449	228.88
614.657	240.88
614.865	244.88
615.072	239.88
615.28	236.88
615.488	223.88
615.695	214.88
615.903	225.88
616.111	224.88
616.318	224.88
616.526	251.88
616.733	238.88
616.941	222.88
617.148	225.88
617.356	220.88
617.563	211.88
617.771	233.88
617.978	234.88
618.185	227.88
618.393	234.88
618.6	246.88
618.807	249.88
619.015	230.88
619.222	224.88
619.429	210.88
619.637	223.88
619.844	220.88
620.051	230.88
620.258	210.88
620.466	235.88
620.673	219.88
620.88	215.88
621.087	227.88
621.294	226.88
621.501	198.88
621.708	218.88
621.915	225.88
622.122	213.88
622.329	225.88
622.536	215.88
622.743	201.88
622.95	196.88
623.157	225.88
623.364	208.88
623.571	220.88
623.778	217.88
623.985	229.88
624.192	202.88
624.399	208.88
624.606	207.88
624.812	215.88
625.019	201.88
625.226	205.88
625.433	202.88
625.639	197.88
625.846	227.88
626.053	207.88
626.259	204.88
626.466	213.88
626.673	213.88
626.879	198.88
627.086	213.88
627.293	214.88
627.499	210.88
627.706	207.88
627.912	200.88
628.119	191.88
628.325	204.88
628.532	211.88
628.738	206.88
628.945	205.88
629.151	201.88
629.357	192.88
629.564	183.88
629.77	192.88
629.976	192.88
630.183	194.88
630.389	200.88
630.595	211.88
630.802	192.88
631.008	202.88
631.214	179.88
631.42	197.88
631.627	209.88
631.833	198.88
632.039	187.88
632.245	191.88
632.451	187.88
632.657	184.88
632.863	171.88
633.069	183.88
633.275	192.88
633.481	190.88
633.688	190.88
633.893	179.88
634.099	180.88
634.305	177.88
634.511	193.88
634.717	170.88
634.923	169.88
635.129	184.88
635.335	186.88
635.541	172.88
635.747	179.88
635.952	181.88
636.158	177.88
636.364	165.88
636.57	202.88
636.775	183.88
636.981	182.88
637.187	182.88
637.392	175.88
637.598	171.88
637.804	174.88
638.009	172.88
638.215	171.88
638.421	175.88
638.626	180.88
638.832	166.88
639.037	159.88
639.243	170.88
639.448	176.88
639.654	180.88
639.859	184.88
640.065	151.88
640.27	194.88
640.475	171.88
640.681	180.88
640.886	172.88
641.091	190.88
641.297	162.88
641.502	171.88
641.707	166.88
641.913	171.88
642.118	153.88
642.323	162.88
642.528	172.88
642.733	175.88
642.939	168.88
643.144	164.88
643.349	149.88
643.554	170.88
643.759	149.88
643.964	165.88
644.169	169.88
644.374	168.88
644.579	162.88
644.784	159.88
644.989	163.88
645.194	166.88
645.399	184.88
645.604	158.88
645.809	167.88
646.014	167.88
646.219	166.88
646.423	159.88
646.628	151.88
646.833	170.88
647.038	178.88
647.243	160.88
647.447	176.88
647.652	158.88
647.857	175.88
648.062	171.88
648.266	163.88
648.471	160.88
648.676	162.88
648.88	168.88
649.085	176.88
649.289	167.88
649.494	184.88
649.698	169.88
649.903	172.88
650.107	167.88
650.312	174.88
650.516	158.88
650.721	162.88
650.925	140.88
651.13	155.88
651.334	165.88
651.539	152.88
651.743	136.88
651.947	158.88
652.152	146.88
652.356	154.88
652.56	148.88
652.764	135.88
652.969	134.88
653.173	142.88
653.377	147.88
653.581	153.88
653.785	144.88
653.99	150.88
654.194	133.88
654.398	133.88
654.602	136.88
654.806	152.88
655.01	155.88
655.214	145.88
655.418	130.88
655.622	134.88
655.826	133.88
656.03	138.88
656.234	132.88
656.438	154.88
656.642	152.88
656.846	140.88
657.049	137.88
657.253	130.88
657.457	144.88
657.661	131.88
657.865	108.88
658.068	93.88
658.272	102.88
658.476	109.88
658.68	102.88
658.883	112.88
659.087	99.88
659.291	110.88
659.494	110.88
659.698	94.88
659.901	103.88
660.105	96.88
660.309	89.88
660.512	95.88
660.716	94.88
660.919	95.88
661.123	96.88
661.326	94.88
661.53	101.88
661.733	89.88
661.936	72.88
662.14	86.88
662.343	86.88
662.546	86.88
662.75	89.88
662.953	83.88
663.156	83.88
663.36	82.88
663.563	89.88
663.766	77.88
663.969	87.88
664.173	93.88
664.376	86.88
664.579	93.88
664.782	74.88
664.985	89.88
665.188	86.88
665.391	93.88
665.594	81.88
665.797	73.88
666	82.88
666.203	91.88
666.406	81.88
666.609	86.88
666.812	81.88
667.015	86.88
667.218	92.88
667.421	77.88
667.624	90.88
667.827	89.88
668.03	83.88
668.232	72.88
668.435	78.88
668.638	82.88
668.841	83.88
669.043	84.88
669.246	74.88
669.449	81.88
669.651	87.88
669.854	63.88
670.057	84.88
670.259	83.88
670.462	79.88
670.665	87.88
670.867	72.88
671.07	66.88
671.272	87.88
671.475	88.88
671.677	74.88
671.88	86.88
672.082	91.88
672.284	81.88
672.487	72.88
672.689	80.88
672.892	75.88
