Data from 1962.PennyLincolnUp.Lamp.En5.5.200Scan.071719.P1._HRD10591_13-53-03-060.txt Node
Date: Thu Jul 18 13:53:03 EDT 2019
User: cochatt
Spectrometer: HR+D1059
Trigger mode: 1
Integration Time (sec): 1.000000E-1
Scans to average: 1
Electric dark correction enabled: true
Nonlinearity correction enabled: false
Boxcar width: 0
XAxis mode: Wavelengths
Number of Pixels in Spectrum: 2048
>>>>>Begin Spectral Data<<<<<
223.165	-6.94
223.4	-6.94
223.635	-6.94
223.869	-18.94
224.104	-12.94
224.338	-26.94
224.573	-13.94
224.808	-22.94
225.042	-15.94
225.277	4.06
225.511	-3.94
225.746	11.06
225.98	9.06
226.215	18.06
226.449	16.06
226.683	23.06
226.918	20.06
227.152	21.06
227.387	24.06
227.621	41.06
227.856	46.06
228.09	37.06
228.324	30.06
228.559	41.06
228.793	72.06
229.027	88.06
229.262	84.06
229.496	84.06
229.73	87.06
229.964	111.06
230.199	102.06
230.433	93.06
230.667	93.06
230.901	92.06
231.136	112.06
231.37	115.06
231.604	120.06
231.838	105.06
232.072	100.06
232.306	103.06
232.541	103.06
232.775	109.06
233.009	92.06
233.243	99.06
233.477	104.06
233.711	94.06
233.945	101.06
234.179	102.06
234.413	116.06
234.647	104.06
234.881	108.06
235.115	97.06
235.349	107.06
235.583	108.06
235.817	113.06
236.051	105.06
236.285	106.06
236.519	113.06
236.753	121.06
236.987	118.06
237.221	136.06
237.455	168.06
237.689	150.06
237.922	119.06
238.156	131.06
238.39	108.06
238.624	117.06
238.858	116.06
239.091	117.06
239.325	112.06
239.559	112.06
239.793	117.06
240.027	124.06
240.26	118.06
240.494	132.06
240.728	129.06
240.961	129.06
241.195	132.06
241.429	116.06
241.662	133.06
241.896	113.06
242.13	116.06
242.363	122.06
242.597	133.06
242.83	123.06
243.064	138.06
243.298	119.06
243.531	119.06
243.765	133.06
243.998	124.06
244.232	118.06
244.465	110.06
244.699	132.06
244.932	127.06
245.166	128.06
245.399	141.06
245.633	124.06
245.866	125.06
246.099	136.06
246.333	142.06
246.566	122.06
246.8	138.06
247.033	149.06
247.266	138.06
247.5	161.06
247.733	142.06
247.966	151.06
248.2	146.06
248.433	152.06
248.666	156.06
248.899	164.06
249.133	150.06
249.366	153.06
249.599	159.06
249.832	168.06
250.066	155.06
250.299	159.06
250.532	164.06
250.765	183.06
250.998	169.06
251.231	152.06
251.465	160.06
251.698	169.06
251.931	173.06
252.164	177.06
252.397	166.06
252.63	158.06
252.863	166.06
253.096	182.06
253.329	158.06
253.562	189.06
253.795	176.06
254.028	174.06
254.261	180.06
254.494	178.06
254.727	185.06
254.96	217.06
255.193	203.06
255.426	174.06
255.659	208.06
255.892	172.06
256.124	189.06
256.357	182.06
256.59	201.06
256.823	182.06
257.056	190.06
257.289	182.06
257.521	182.06
257.754	194.06
257.987	184.06
258.22	188.06
258.452	177.06
258.685	176.06
258.918	183.06
259.151	183.06
259.383	209.06
259.616	185.06
259.849	209.06
260.081	198.06
260.314	196.06
260.547	208.06
260.779	220.06
261.012	200.06
261.244	202.06
261.477	217.06
261.71	197.06
261.942	187.06
262.175	190.06
262.407	192.06
262.64	190.06
262.872	197.06
263.105	188.06
263.337	193.06
263.57	200.06
263.802	203.06
264.035	196.06
264.267	206.06
264.499	194.06
264.732	214.06
264.964	200.06
265.197	202.06
265.429	188.06
265.661	199.06
265.894	206.06
266.126	200.06
266.358	192.06
266.591	188.06
266.823	199.06
267.055	213.06
267.287	212.06
267.52	211.06
267.752	199.06
267.984	210.06
268.216	223.06
268.448	223.06
268.681	211.06
268.913	219.06
269.145	232.06
269.377	227.06
269.609	235.06
269.841	241.06
270.073	217.06
270.306	238.06
270.538	253.06
270.77	263.06
271.002	249.06
271.234	236.06
271.466	244.06
271.698	237.06
271.93	252.06
272.162	240.06
272.394	262.06
272.626	262.06
272.858	245.06
273.09	260.06
273.322	243.06
273.553	251.06
273.785	228.06
274.017	231.06
274.249	240.06
274.481	250.06
274.713	220.06
274.945	238.06
275.176	272.06
275.408	243.06
275.64	260.06
275.872	259.06
276.104	241.06
276.335	242.06
276.567	221.06
276.799	258.06
277.031	261.06
277.262	290.06
277.494	282.06
277.726	245.06
277.957	244.06
278.189	247.06
278.421	277.06
278.652	262.06
278.884	256.06
279.115	249.06
279.347	242.06
279.579	238.06
279.81	252.06
280.042	261.06
280.273	249.06
280.505	256.06
280.736	237.06
280.968	244.06
281.199	259.06
281.431	253.06
281.662	261.06
281.894	259.06
282.125	255.06
282.356	246.06
282.588	246.06
282.819	269.06
283.051	266.06
283.282	258.06
283.513	277.06
283.745	259.06
283.976	274.06
284.207	279.06
284.439	277.06
284.67	263.06
284.901	279.06
285.132	275.06
285.364	262.06
285.595	260.06
285.826	273.06
286.057	276.06
286.288	254.06
286.52	276.06
286.751	281.06
286.982	275.06
287.213	291.06
287.444	281.06
287.675	271.06
287.906	273.06
288.138	288.06
288.369	286.06
288.6	277.06
288.831	282.06
289.062	274.06
289.293	261.06
289.524	277.06
289.755	284.06
289.986	285.06
290.217	296.06
290.448	278.06
290.679	286.06
290.91	276.06
291.141	267.06
291.371	271.06
291.602	293.06
291.833	282.06
292.064	272.06
292.295	285.06
292.526	284.06
292.757	302.06
292.987	282.06
293.218	284.06
293.449	294.06
293.68	276.06
293.91	267.06
294.141	279.06
294.372	274.06
294.603	278.06
294.833	288.06
295.064	273.06
295.295	273.06
295.525	289.06
295.756	284.06
295.987	305.06
296.217	292.06
296.448	295.06
296.679	279.06
296.909	306.06
297.14	279.06
297.37	298.06
297.601	319.06
297.831	288.06
298.062	293.06
298.292	298.06
298.523	318.06
298.753	319.06
298.984	318.06
299.214	329.06
299.445	308.06
299.675	315.06
299.905	306.06
300.136	297.06
300.366	306.06
300.597	291.06
300.827	295.06
301.057	309.06
301.288	320.06
301.518	313.06
301.748	310.06
301.979	317.06
302.209	319.06
302.439	321.06
302.669	312.06
302.9	317.06
303.13	324.06
303.36	324.06
303.59	323.06
303.82	301.06
304.051	308.06
304.281	328.06
304.511	325.06
304.741	324.06
304.971	324.06
305.201	335.06
305.431	308.06
305.661	318.06
305.891	310.06
306.121	326.06
306.352	325.06
306.582	321.06
306.812	325.06
307.042	324.06
307.272	332.06
307.502	321.06
307.731	312.06
307.961	327.06
308.191	337.06
308.421	316.06
308.651	308.06
308.881	304.06
309.111	322.06
309.341	317.06
309.571	321.06
309.8	341.06
310.03	328.06
310.26	349.06
310.49	331.06
310.72	317.06
310.949	330.06
311.179	343.06
311.409	341.06
311.639	331.06
311.868	335.06
312.098	353.06
312.328	334.06
312.557	368.06
312.787	351.06
313.017	352.06
313.246	361.06
313.476	335.06
313.706	344.06
313.935	367.06
314.165	362.06
314.394	338.06
314.624	351.06
314.853	374.06
315.083	352.06
315.312	349.06
315.542	357.06
315.771	332.06
316.001	349.06
316.23	357.06
316.46	329.06
316.689	353.06
316.919	353.06
317.148	362.06
317.377	366.06
317.607	352.06
317.836	357.06
318.065	352.06
318.295	345.06
318.524	362.06
318.753	339.06
318.983	347.06
319.212	349.06
319.441	356.06
319.67	355.06
319.9	378.06
320.129	352.06
320.358	352.06
320.587	359.06
320.816	352.06
321.046	372.06
321.275	372.06
321.504	357.06
321.733	340.06
321.962	368.06
322.191	362.06
322.42	378.06
322.649	387.06
322.878	358.06
323.108	362.06
323.337	395.06
323.566	394.06
323.795	402.06
324.024	410.06
324.253	471.06
324.482	618.06
324.71	823.06
324.939	1138.06
325.168	997.06
325.397	608.06
325.626	466.06
325.855	420.06
326.084	414.06
326.313	414.06
326.542	423.06
326.77	436.06
326.999	459.06
327.228	557.06
327.457	779.06
327.686	888.06
327.914	692.06
328.143	497.06
328.372	439.06
328.6	433.06
328.829	428.06
329.058	428.06
329.287	434.06
329.515	425.06
329.744	402.06
329.972	437.06
330.201	416.06
330.43	432.06
330.658	458.06
330.887	460.06
331.115	450.06
331.344	440.06
331.572	411.06
331.801	428.06
332.03	414.06
332.258	417.06
332.486	442.06
332.715	423.06
332.943	425.06
333.172	431.06
333.4	440.06
333.629	432.06
333.857	451.06
334.085	473.06
334.314	473.06
334.542	480.06
334.771	488.06
334.999	454.06
335.227	454.06
335.455	433.06
335.684	438.06
335.912	423.06
336.14	432.06
336.369	446.06
336.597	435.06
336.825	409.06
337.053	456.06
337.281	412.06
337.51	421.06
337.738	407.06
337.966	422.06
338.194	417.06
338.422	414.06
338.65	422.06
338.878	400.06
339.106	390.06
339.334	400.06
339.562	410.06
339.79	414.06
340.018	389.06
340.246	405.06
340.474	400.06
340.702	366.06
340.93	407.06
341.158	397.06
341.386	398.06
341.614	407.06
341.842	404.06
342.07	380.06
342.298	398.06
342.526	392.06
342.754	400.06
342.981	379.06
343.209	412.06
343.437	404.06
343.665	415.06
343.893	418.06
344.12	438.06
344.348	450.06
344.576	422.06
344.804	391.06
345.031	430.06
345.259	392.06
345.487	404.06
345.714	410.06
345.942	385.06
346.17	396.06
346.397	399.06
346.625	381.06
346.853	388.06
347.08	387.06
347.308	384.06
347.535	400.06
347.763	387.06
347.99	401.06
348.218	384.06
348.445	393.06
348.673	393.06
348.9	376.06
349.128	382.06
349.355	372.06
349.583	369.06
349.81	384.06
350.037	383.06
350.265	373.06
350.492	361.06
350.72	376.06
350.947	374.06
351.174	378.06
351.402	387.06
351.629	378.06
351.856	347.06
352.083	376.06
352.311	370.06
352.538	380.06
352.765	390.06
352.992	389.06
353.22	385.06
353.447	380.06
353.674	372.06
353.901	382.06
354.128	370.06
354.355	373.06
354.583	377.06
354.81	382.06
355.037	388.06
355.264	383.06
355.491	361.06
355.718	354.06
355.945	381.06
356.172	359.06
356.399	364.06
356.626	370.06
356.853	367.06
357.08	357.06
357.307	351.06
357.534	356.06
357.761	362.06
357.988	382.06
358.215	364.06
358.441	373.06
358.668	365.06
358.895	366.06
359.122	344.06
359.349	382.06
359.576	366.06
359.802	390.06
360.029	390.06
360.256	383.06
360.483	376.06
360.709	381.06
360.936	362.06
361.163	382.06
361.39	382.06
361.616	387.06
361.843	377.06
362.07	365.06
362.296	360.06
362.523	382.06
362.749	388.06
362.976	384.06
363.203	378.06
363.429	365.06
363.656	355.06
363.882	359.06
364.109	370.06
364.335	368.06
364.562	374.06
364.788	366.06
365.015	344.06
365.241	380.06
365.468	358.06
365.694	382.06
365.92	371.06
366.147	359.06
366.373	360.06
366.599	368.06
366.826	374.06
367.052	358.06
367.278	370.06
367.505	376.06
367.731	371.06
367.957	368.06
368.184	390.06
368.41	372.06
368.636	357.06
368.862	388.06
369.089	386.06
369.315	388.06
369.541	370.06
369.767	364.06
369.993	388.06
370.219	371.06
370.445	372.06
370.672	373.06
370.898	372.06
371.124	378.06
371.35	376.06
371.576	407.06
371.802	377.06
372.028	395.06
372.254	393.06
372.48	380.06
372.706	374.06
372.932	402.06
373.158	393.06
373.384	390.06
373.61	408.06
373.835	400.06
374.061	392.06
374.287	407.06
374.513	403.06
374.739	399.06
374.965	409.06
375.191	403.06
375.416	408.06
375.642	393.06
375.868	387.06
376.094	394.06
376.319	383.06
376.545	394.06
376.771	372.06
376.997	389.06
377.222	388.06
377.448	374.06
377.674	377.06
377.899	389.06
378.125	385.06
378.35	354.06
378.576	382.06
378.802	407.06
379.027	375.06
379.253	379.06
379.478	383.06
379.704	372.06
379.929	370.06
380.155	393.06
380.38	396.06
380.606	392.06
380.831	376.06
381.057	377.06
381.282	386.06
381.507	388.06
381.733	390.06
381.958	381.06
382.184	389.06
382.409	382.06
382.634	381.06
382.86	393.06
383.085	423.06
383.31	385.06
383.535	415.06
383.761	408.06
383.986	411.06
384.211	418.06
384.436	428.06
384.662	415.06
384.887	428.06
385.112	416.06
385.337	449.06
385.562	442.06
385.787	435.06
386.013	438.06
386.238	443.06
386.463	442.06
386.688	453.06
386.913	437.06
387.138	451.06
387.363	436.06
387.588	446.06
387.813	441.06
388.038	436.06
388.263	444.06
388.488	449.06
388.713	432.06
388.938	436.06
389.163	436.06
389.387	409.06
389.612	415.06
389.837	432.06
390.062	421.06
390.287	428.06
390.512	432.06
390.736	410.06
390.961	431.06
391.186	440.06
391.411	453.06
391.636	454.06
391.86	468.06
392.085	457.06
392.31	461.06
392.534	462.06
392.759	488.06
392.984	467.06
393.208	453.06
393.433	447.06
393.658	464.06
393.882	440.06
394.107	456.06
394.331	453.06
394.556	436.06
394.78	457.06
395.005	482.06
395.229	469.06
395.454	457.06
395.678	476.06
395.903	469.06
396.127	492.06
396.352	462.06
396.576	478.06
396.801	469.06
397.025	478.06
397.249	477.06
397.474	481.06
397.698	475.06
397.922	479.06
398.147	485.06
398.371	488.06
398.595	495.06
398.82	528.06
399.044	553.06
399.268	580.06
399.492	600.06
399.717	647.06
399.941	650.06
400.165	644.06
400.389	634.06
400.613	582.06
400.837	521.06
401.062	537.06
401.286	516.06
401.51	540.06
401.734	518.06
401.958	518.06
402.182	517.06
402.406	528.06
402.63	532.06
402.854	516.06
403.078	541.06
403.302	533.06
403.526	546.06
403.75	564.06
403.974	556.06
404.198	538.06
404.422	570.06
404.645	566.06
404.869	549.06
405.093	570.06
405.317	598.06
405.541	614.06
405.765	604.06
405.988	576.06
406.212	564.06
406.436	557.06
406.66	568.06
406.883	561.06
407.107	589.06
407.331	624.06
407.555	640.06
407.778	672.06
408.002	645.06
408.226	608.06
408.449	586.06
408.673	580.06
408.896	597.06
409.12	613.06
409.344	583.06
409.567	560.06
409.791	542.06
410.014	537.06
410.238	558.06
410.461	544.06
410.685	532.06
410.908	550.06
411.132	556.06
411.355	585.06
411.578	592.06
411.802	546.06
412.025	543.06
412.249	540.06
412.472	543.06
412.695	574.06
412.919	564.06
413.142	510.06
413.365	510.06
413.589	509.06
413.812	514.06
414.035	515.06
414.258	520.06
414.482	486.06
414.705	503.06
414.928	518.06
415.151	516.06
415.374	513.06
415.597	486.06
415.821	506.06
416.044	500.06
416.267	527.06
416.49	486.06
416.713	492.06
416.936	508.06
417.159	506.06
417.382	501.06
417.605	476.06
417.828	492.06
418.051	518.06
418.274	518.06
418.497	500.06
418.72	523.06
418.943	505.06
419.166	537.06
419.389	554.06
419.611	549.06
419.834	525.06
420.057	535.06
420.28	523.06
420.503	510.06
420.726	506.06
420.948	528.06
421.171	558.06
421.394	562.06
421.617	523.06
421.839	492.06
422.062	513.06
422.285	520.06
422.507	550.06
422.73	596.06
422.953	580.06
423.175	554.06
423.398	546.06
423.621	541.06
423.843	533.06
424.066	537.06
424.288	522.06
424.511	569.06
424.733	581.06
424.956	628.06
425.178	574.06
425.401	604.06
425.623	592.06
425.846	546.06
426.068	519.06
426.291	510.06
426.513	512.06
426.735	519.06
426.958	545.06
427.18	595.06
427.402	664.06
427.625	729.06
427.847	642.06
428.069	581.06
428.292	552.06
428.514	501.06
428.736	508.06
428.958	482.06
429.181	475.06
429.403	468.06
429.625	476.06
429.847	501.06
430.069	532.06
430.292	532.06
430.514	495.06
430.736	473.06
430.958	488.06
431.18	475.06
431.402	471.06
431.624	455.06
431.846	469.06
432.068	472.06
432.29	494.06
432.512	464.06
432.734	474.06
432.956	486.06
433.178	474.06
433.4	480.06
433.622	470.06
433.844	485.06
434.066	472.06
434.287	482.06
434.509	506.06
434.731	506.06
434.953	515.06
435.175	509.06
435.397	501.06
435.618	529.06
435.84	521.06
436.062	607.06
436.284	640.06
436.505	533.06
436.727	514.06
436.949	514.06
437.17	482.06
437.392	480.06
437.614	484.06
437.835	494.06
438.057	549.06
438.278	580.06
438.5	618.06
438.721	673.06
438.943	654.06
439.165	562.06
439.386	494.06
439.608	522.06
439.829	485.06
440.05	509.06
440.272	519.06
440.493	522.06
440.715	501.06
440.936	489.06
441.158	501.06
441.379	496.06
441.6	519.06
441.822	536.06
442.043	547.06
442.264	575.06
442.486	606.06
442.707	558.06
442.928	558.06
443.149	528.06
443.371	566.06
443.592	558.06
443.813	611.06
444.034	658.06
444.255	614.06
444.476	550.06
444.698	572.06
444.919	566.06
445.14	673.06
445.361	601.06
445.582	566.06
445.803	571.06
446.024	620.06
446.245	629.06
446.466	581.06
446.687	531.06
446.908	510.06
447.129	482.06
447.35	469.06
447.571	493.06
447.792	474.06
448.013	442.06
448.234	490.06
448.455	514.06
448.675	574.06
448.896	663.06
449.117	582.06
449.338	558.06
449.559	603.06
449.779	682.06
450	564.06
450.221	507.06
450.442	472.06
450.662	452.06
450.883	461.06
451.104	456.06
451.324	446.06
451.545	437.06
451.766	435.06
451.986	426.06
452.207	432.06
452.428	426.06
452.648	420.06
452.869	456.06
453.089	449.06
453.31	432.06
453.53	434.06
453.751	417.06
453.971	421.06
454.192	430.06
454.412	437.06
454.633	424.06
454.853	435.06
455.073	413.06
455.294	436.06
455.514	471.06
455.734	460.06
455.955	430.06
456.175	409.06
456.395	399.06
456.616	428.06
456.836	412.06
457.056	413.06
457.276	395.06
457.497	404.06
457.717	439.06
457.937	410.06
458.157	416.06
458.377	434.06
458.598	442.06
458.818	480.06
459.038	496.06
459.258	537.06
459.478	475.06
459.698	478.06
459.918	488.06
460.138	504.06
460.358	506.06
460.578	526.06
460.798	510.06
461.018	511.06
461.238	503.06
461.458	502.06
461.678	513.06
461.898	526.06
462.118	524.06
462.338	558.06
462.558	556.06
462.777	547.06
462.997	558.06
463.217	588.06
463.437	595.06
463.657	575.06
463.876	572.06
464.096	576.06
464.316	574.06
464.536	564.06
464.755	541.06
464.975	561.06
465.195	542.06
465.414	571.06
465.634	503.06
465.854	480.06
466.073	472.06
466.293	461.06
466.512	460.06
466.732	472.06
466.951	436.06
467.171	444.06
467.391	456.06
467.61	455.06
467.829	460.06
468.049	462.06
468.268	451.06
468.488	454.06
468.707	444.06
468.927	460.06
469.146	435.06
469.365	466.06
469.585	450.06
469.804	454.06
470.023	474.06
470.243	441.06
470.462	467.06
470.681	472.06
470.901	468.06
471.12	469.06
471.339	480.06
471.558	455.06
471.777	450.06
471.997	471.06
472.216	446.06
472.435	474.06
472.654	463.06
472.873	461.06
473.092	442.06
473.311	445.06
473.53	457.06
473.749	436.06
473.968	463.06
474.187	519.06
474.406	534.06
474.625	495.06
474.844	455.06
475.063	464.06
475.282	446.06
475.501	464.06
475.72	470.06
475.939	465.06
476.158	473.06
476.377	463.06
476.596	459.06
476.814	483.06
477.033	473.06
477.252	473.06
477.471	506.06
477.69	476.06
477.908	523.06
478.127	509.06
478.346	512.06
478.564	519.06
478.783	508.06
479.002	536.06
479.22	534.06
479.439	533.06
479.658	541.06
479.876	545.06
480.095	552.06
480.313	578.06
480.532	572.06
480.751	578.06
480.969	569.06
481.188	580.06
481.406	599.06
481.624	556.06
481.843	555.06
482.061	545.06
482.28	519.06
482.498	511.06
482.717	519.06
482.935	516.06
483.153	550.06
483.372	532.06
483.59	526.06
483.808	539.06
484.027	543.06
484.245	543.06
484.463	550.06
484.681	530.06
484.9	539.06
485.118	546.06
485.336	548.06
485.554	562.06
485.772	548.06
485.99	565.06
486.209	556.06
486.427	548.06
486.645	553.06
486.863	561.06
487.081	564.06
487.299	566.06
487.517	573.06
487.735	574.06
487.953	570.06
488.171	561.06
488.389	547.06
488.607	557.06
488.825	537.06
489.043	561.06
489.261	566.06
489.479	548.06
489.696	578.06
489.914	581.06
490.132	562.06
490.35	565.06
490.568	587.06
490.786	577.06
491.003	586.06
491.221	585.06
491.439	576.06
491.657	588.06
491.874	608.06
492.092	584.06
492.31	593.06
492.527	621.06
492.745	599.06
492.963	611.06
493.18	606.06
493.398	622.06
493.615	626.06
493.833	621.06
494.05	615.06
494.268	623.06
494.485	616.06
494.703	620.06
494.92	638.06
495.138	625.06
495.355	632.06
495.573	617.06
495.79	657.06
496.008	641.06
496.225	640.06
496.442	649.06
496.66	640.06
496.877	622.06
497.094	665.06
497.312	663.06
497.529	688.06
497.746	687.06
497.963	705.06
498.181	732.06
498.398	746.06
498.615	767.06
498.832	798.06
499.049	818.06
499.267	874.06
499.484	911.06
499.701	982.06
499.918	1012.06
500.135	1061.06
500.352	1152.06
500.569	1183.06
500.786	1194.06
501.003	1151.06
501.22	1074.06
501.437	1021.06
501.654	943.06
501.871	914.06
502.088	849.06
502.305	800.06
502.522	795.06
502.739	790.06
502.956	744.06
503.172	726.06
503.389	722.06
503.606	711.06
503.823	692.06
504.04	681.06
504.256	672.06
504.473	684.06
504.69	709.06
504.907	688.06
505.123	665.06
505.34	651.06
505.557	629.06
505.773	621.06
505.99	614.06
506.207	595.06
506.423	592.06
506.64	578.06
506.856	570.06
507.073	590.06
507.289	582.06
507.506	575.06
507.722	563.06
507.939	591.06
508.155	568.06
508.372	560.06
508.588	584.06
508.805	550.06
509.021	566.06
509.238	532.06
509.454	563.06
509.67	564.06
509.887	551.06
510.103	561.06
510.319	531.06
510.536	587.06
510.752	752.06
510.968	676.06
511.184	553.06
511.401	537.06
511.617	518.06
511.833	527.06
512.049	530.06
512.265	537.06
512.481	525.06
512.698	502.06
512.914	499.06
513.13	542.06
513.346	522.06
513.562	540.06
513.778	499.06
513.994	520.06
514.21	551.06
514.426	531.06
514.642	554.06
514.858	555.06
515.074	567.06
515.29	609.06
515.506	715.06
515.721	664.06
515.937	592.06
516.153	559.06
516.369	558.06
516.585	562.06
516.801	590.06
517.016	586.06
517.232	593.06
517.448	608.06
517.664	635.06
517.879	611.06
518.095	610.06
518.311	608.06
518.527	622.06
518.742	574.06
518.958	561.06
519.173	552.06
519.389	558.06
519.605	570.06
519.82	552.06
520.036	543.06
520.251	523.06
520.467	541.06
520.682	548.06
520.898	545.06
521.113	535.06
521.329	525.06
521.544	556.06
521.76	628.06
521.975	782.06
522.19	818.06
522.406	593.06
522.621	510.06
522.836	506.06
523.052	511.06
523.267	477.06
523.482	491.06
523.698	478.06
523.913	474.06
524.128	487.06
524.343	463.06
524.559	477.06
524.774	489.06
524.989	491.06
525.204	495.06
525.419	459.06
525.634	442.06
525.849	473.06
526.064	473.06
526.28	464.06
526.495	460.06
526.71	463.06
526.925	462.06
527.14	460.06
527.355	478.06
527.57	455.06
527.785	446.06
527.999	442.06
528.214	430.06
528.429	445.06
528.644	463.06
528.859	462.06
529.074	454.06
529.289	473.06
529.503	497.06
529.718	485.06
529.933	462.06
530.148	461.06
530.363	467.06
530.577	453.06
530.792	445.06
531.007	446.06
531.221	466.06
531.436	441.06
531.651	459.06
531.865	460.06
532.08	445.06
532.295	447.06
532.509	456.06
532.724	453.06
532.938	439.06
533.153	460.06
533.367	446.06
533.582	439.06
533.796	448.06
534.011	457.06
534.225	449.06
534.44	452.06
534.654	434.06
534.868	443.06
535.083	440.06
535.297	445.06
535.511	449.06
535.726	433.06
535.94	423.06
536.154	432.06
536.369	426.06
536.583	420.06
536.797	430.06
537.011	437.06
537.225	430.06
537.44	424.06
537.654	438.06
537.868	424.06
538.082	432.06
538.296	434.06
538.51	431.06
538.724	418.06
538.938	438.06
539.153	426.06
539.367	433.06
539.581	413.06
539.795	410.06
540.009	430.06
540.222	439.06
540.436	432.06
540.65	431.06
540.864	430.06
541.078	424.06
541.292	414.06
541.506	424.06
541.72	440.06
541.934	421.06
542.147	421.06
542.361	410.06
542.575	415.06
542.789	438.06
543.002	416.06
543.216	423.06
543.43	441.06
543.644	411.06
543.857	440.06
544.071	416.06
544.285	409.06
544.498	422.06
544.712	416.06
544.925	438.06
545.139	404.06
545.352	410.06
545.566	413.06
545.779	424.06
545.993	419.06
546.206	409.06
546.42	415.06
546.633	445.06
546.847	445.06
547.06	428.06
547.274	424.06
547.487	418.06
547.7	396.06
547.914	434.06
548.127	438.06
548.34	414.06
548.554	434.06
548.767	421.06
548.98	427.06
549.193	419.06
549.407	427.06
549.62	427.06
549.833	422.06
550.046	432.06
550.259	416.06
550.473	434.06
550.686	430.06
550.899	418.06
551.112	424.06
551.325	420.06
551.538	418.06
551.751	433.06
551.964	409.06
552.177	420.06
552.39	432.06
552.603	419.06
552.816	430.06
553.029	444.06
553.242	450.06
553.455	444.06
553.667	461.06
553.88	452.06
554.093	435.06
554.306	431.06
554.519	405.06
554.732	409.06
554.944	404.06
555.157	403.06
555.37	412.06
555.583	403.06
555.795	395.06
556.008	407.06
556.221	393.06
556.433	391.06
556.646	376.06
556.859	355.06
557.071	377.06
557.284	378.06
557.496	382.06
557.709	397.06
557.921	370.06
558.134	385.06
558.346	362.06
558.559	372.06
558.771	380.06
558.984	378.06
559.196	369.06
559.409	364.06
559.621	371.06
559.833	368.06
560.046	357.06
560.258	359.06
560.47	358.06
560.683	383.06
560.895	382.06
561.107	390.06
561.32	369.06
561.532	378.06
561.744	370.06
561.956	346.06
562.168	370.06
562.381	380.06
562.593	377.06
562.805	383.06
563.017	388.06
563.229	373.06
563.441	374.06
563.653	380.06
563.865	369.06
564.077	388.06
564.289	387.06
564.501	407.06
564.713	400.06
564.925	412.06
565.137	411.06
565.349	424.06
565.561	416.06
565.773	417.06
565.985	434.06
566.197	448.06
566.408	491.06
566.62	479.06
566.832	492.06
567.044	494.06
567.255	526.06
567.467	538.06
567.679	549.06
567.891	568.06
568.102	567.06
568.314	561.06
568.526	534.06
568.737	504.06
568.949	480.06
569.161	442.06
569.372	422.06
569.584	406.06
569.795	420.06
570.007	412.06
570.218	384.06
570.43	379.06
570.641	398.06
570.853	393.06
571.064	392.06
571.276	394.06
571.487	362.06
571.698	378.06
571.91	361.06
572.121	361.06
572.333	344.06
572.544	370.06
572.755	360.06
572.966	328.06
573.178	331.06
573.389	326.06
573.6	325.06
573.811	337.06
574.023	330.06
574.234	313.06
574.445	341.06
574.656	314.06
574.867	334.06
575.078	312.06
575.289	313.06
575.501	320.06
575.712	347.06
575.923	309.06
576.134	328.06
576.345	310.06
576.556	325.06
576.767	323.06
576.978	310.06
577.188	314.06
577.399	332.06
577.61	321.06
577.821	305.06
578.032	316.06
578.243	322.06
578.454	374.06
578.665	328.06
578.875	319.06
579.086	286.06
579.297	295.06
579.508	288.06
579.718	284.06
579.929	312.06
580.14	306.06
580.35	313.06
580.561	289.06
580.772	301.06
580.982	305.06
581.193	301.06
581.403	281.06
581.614	291.06
581.825	298.06
582.035	287.06
582.246	290.06
582.456	293.06
582.667	304.06
582.877	300.06
583.087	296.06
583.298	290.06
583.508	288.06
583.719	312.06
583.929	287.06
584.139	304.06
584.35	297.06
584.56	309.06
584.77	300.06
584.981	303.06
585.191	302.06
585.401	289.06
585.611	281.06
585.821	302.06
586.032	279.06
586.242	282.06
586.452	297.06
586.662	289.06
586.872	275.06
587.082	264.06
587.292	284.06
587.502	289.06
587.713	305.06
587.923	297.06
588.133	290.06
588.343	289.06
588.553	295.06
588.762	292.06
588.972	284.06
589.182	374.06
589.392	357.06
589.602	289.06
589.812	340.06
590.022	316.06
590.232	303.06
590.441	288.06
590.651	278.06
590.861	307.06
591.071	288.06
591.281	288.06
591.49	289.06
591.7	316.06
591.91	292.06
592.119	296.06
592.329	297.06
592.539	309.06
592.748	329.06
592.958	323.06
593.167	311.06
593.377	328.06
593.587	349.06
593.796	339.06
594.006	324.06
594.215	347.06
594.424	341.06
594.634	327.06
594.843	319.06
595.053	307.06
595.262	317.06
595.472	305.06
595.681	292.06
595.89	288.06
596.1	286.06
596.309	296.06
596.518	279.06
596.727	278.06
596.937	275.06
597.146	263.06
597.355	270.06
597.564	256.06
597.774	263.06
597.983	270.06
598.192	262.06
598.401	263.06
598.61	248.06
598.819	255.06
599.028	253.06
599.237	265.06
599.446	250.06
599.655	262.06
599.864	249.06
600.073	242.06
600.282	273.06
600.491	259.06
600.7	260.06
600.909	246.06
601.118	267.06
601.327	244.06
601.536	236.06
601.745	250.06
601.953	234.06
602.162	245.06
602.371	240.06
602.58	247.06
602.789	241.06
602.997	245.06
603.206	246.06
603.415	246.06
603.623	245.06
603.832	250.06
604.041	239.06
604.249	217.06
604.458	244.06
604.666	217.06
604.875	208.06
605.084	237.06
605.292	261.06
605.501	224.06
605.709	228.06
605.918	236.06
606.126	222.06
606.334	223.06
606.543	253.06
606.751	228.06
606.96	234.06
607.168	227.06
607.376	234.06
607.585	241.06
607.793	241.06
608.001	220.06
608.21	232.06
608.418	218.06
608.626	232.06
608.834	223.06
609.043	224.06
609.251	220.06
609.459	235.06
609.667	226.06
609.875	225.06
610.083	225.06
610.291	215.06
610.499	244.06
610.707	218.06
610.916	227.06
611.124	222.06
611.332	236.06
611.54	257.06
611.748	250.06
611.955	252.06
612.163	220.06
612.371	231.06
612.579	231.06
612.787	217.06
612.995	245.06
613.203	233.06
613.411	230.06
613.618	226.06
613.826	224.06
614.034	229.06
614.242	230.06
614.449	226.06
614.657	238.06
614.865	225.06
615.072	217.06
615.28	229.06
615.488	224.06
615.695	204.06
615.903	217.06
616.111	230.06
616.318	220.06
616.526	226.06
616.733	217.06
616.941	220.06
617.148	228.06
617.356	224.06
617.563	219.06
617.771	214.06
617.978	228.06
618.185	219.06
618.393	220.06
618.6	225.06
618.807	231.06
619.015	208.06
619.222	202.06
619.429	192.06
619.637	217.06
619.844	217.06
620.051	238.06
620.258	215.06
620.466	219.06
620.673	227.06
620.88	216.06
621.087	215.06
621.294	213.06
621.501	202.06
621.708	208.06
621.915	222.06
622.122	217.06
622.329	214.06
622.536	209.06
622.743	201.06
622.95	199.06
623.157	207.06
623.364	190.06
623.571	203.06
623.778	209.06
623.985	215.06
624.192	201.06
624.399	202.06
624.606	207.06
624.812	205.06
625.019	192.06
625.226	213.06
625.433	207.06
625.639	197.06
625.846	197.06
626.053	193.06
626.259	209.06
626.466	205.06
626.673	189.06
626.879	204.06
627.086	195.06
627.293	173.06
627.499	191.06
627.706	179.06
627.912	190.06
628.119	168.06
628.325	186.06
628.532	198.06
628.738	190.06
628.945	202.06
629.151	205.06
629.357	165.06
629.564	200.06
629.77	174.06
629.976	197.06
630.183	192.06
630.389	196.06
630.595	190.06
630.802	185.06
631.008	187.06
631.214	183.06
631.42	188.06
631.627	172.06
631.833	194.06
632.039	199.06
632.245	181.06
632.451	190.06
632.657	178.06
632.863	192.06
633.069	173.06
633.275	195.06
633.481	185.06
633.688	195.06
633.893	182.06
634.099	182.06
634.305	188.06
634.511	168.06
634.717	182.06
634.923	170.06
635.129	174.06
635.335	154.06
635.541	170.06
635.747	172.06
635.952	186.06
636.158	176.06
636.364	185.06
636.57	189.06
636.775	182.06
636.981	202.06
637.187	175.06
637.392	178.06
637.598	163.06
637.804	172.06
638.009	172.06
638.215	178.06
638.421	183.06
638.626	170.06
638.832	172.06
639.037	166.06
639.243	169.06
639.448	164.06
639.654	169.06
639.859	159.06
640.065	172.06
640.27	154.06
640.475	193.06
640.681	182.06
640.886	189.06
641.091	168.06
641.297	180.06
641.502	153.06
641.707	183.06
641.913	158.06
642.118	161.06
642.323	161.06
642.528	166.06
642.733	165.06
642.939	167.06
643.144	164.06
643.349	159.06
643.554	151.06
643.759	161.06
643.964	172.06
644.169	172.06
644.374	144.06
644.579	153.06
644.784	162.06
644.989	161.06
645.194	150.06
645.399	150.06
645.604	171.06
645.809	165.06
646.014	163.06
646.219	161.06
646.423	167.06
646.628	144.06
646.833	161.06
647.038	184.06
647.243	156.06
647.447	161.06
647.652	163.06
647.857	164.06
648.062	176.06
648.266	165.06
648.471	178.06
648.676	182.06
648.88	172.06
649.085	163.06
649.289	156.06
649.494	141.06
649.698	182.06
649.903	174.06
650.107	158.06
650.312	166.06
650.516	146.06
650.721	147.06
650.925	158.06
651.13	159.06
651.334	158.06
651.539	149.06
651.743	129.06
651.947	144.06
652.152	144.06
652.356	149.06
652.56	138.06
652.764	153.06
652.969	141.06
653.173	137.06
653.377	128.06
653.581	142.06
653.785	130.06
653.99	130.06
654.194	137.06
654.398	147.06
654.602	134.06
654.806	144.06
655.01	134.06
655.214	136.06
655.418	145.06
655.622	134.06
655.826	144.06
656.03	138.06
656.234	133.06
656.438	145.06
656.642	151.06
656.846	150.06
657.049	144.06
657.253	150.06
657.457	123.06
657.661	118.06
657.865	115.06
658.068	110.06
658.272	108.06
658.476	117.06
658.68	87.06
658.883	94.06
659.087	99.06
659.291	91.06
659.494	91.06
659.698	93.06
659.901	99.06
660.105	90.06
660.309	86.06
660.512	87.06
660.716	96.06
660.919	87.06
661.123	84.06
661.326	98.06
661.53	89.06
661.733	79.06
661.936	102.06
662.14	85.06
662.343	94.06
662.546	98.06
662.75	82.06
662.953	84.06
663.156	93.06
663.36	97.06
663.563	79.06
663.766	86.06
663.969	68.06
664.173	78.06
664.376	84.06
664.579	92.06
664.782	83.06
664.985	75.06
665.188	65.06
665.391	87.06
665.594	83.06
665.797	73.06
666	73.06
666.203	79.06
666.406	84.06
666.609	76.06
666.812	71.06
667.015	72.06
667.218	80.06
667.421	63.06
667.624	84.06
667.827	81.06
668.03	70.06
668.232	78.06
668.435	77.06
668.638	81.06
668.841	68.06
669.043	85.06
669.246	88.06
669.449	82.06
669.651	74.06
669.854	89.06
670.057	77.06
670.259	96.06
670.462	83.06
670.665	90.06
670.867	86.06
671.07	71.06
671.272	80.06
671.475	88.06
671.677	70.06
671.88	79.06
672.082	71.06
672.284	63.06
672.487	77.06
672.689	85.06
672.892	73.06
