Data from 1962.PennyLincolnUp.Lamp.En5.5.200Scan.071719.P1._HRD10591_13-55-38-061.txt Node
Date: Thu Jul 18 13:55:38 EDT 2019
User: cochatt
Spectrometer: HR+D1059
Trigger mode: 1
Integration Time (sec): 1.000000E-1
Scans to average: 1
Electric dark correction enabled: true
Nonlinearity correction enabled: false
Boxcar width: 0
XAxis mode: Wavelengths
Number of Pixels in Spectrum: 2048
>>>>>Begin Spectral Data<<<<<
223.165	-20.19
223.4	-20.19
223.635	-20.19
223.869	-14.19
224.104	-27.19
224.338	-11.19
224.573	-10.19
224.808	-24.19
225.042	-8.19
225.277	0.81
225.511	-5.19
225.746	3.81
225.98	-7.19
226.215	3.81
226.449	34.81
226.683	26.81
226.918	20.81
227.152	36.81
227.387	44.81
227.621	37.81
227.856	37.81
228.09	49.81
228.324	36.81
228.559	42.81
228.793	69.81
229.027	90.81
229.262	97.81
229.496	103.81
229.73	130.81
229.964	141.81
230.199	109.81
230.433	111.81
230.667	116.81
230.901	113.81
231.136	100.81
231.37	107.81
231.604	119.81
231.838	96.81
232.072	104.81
232.306	107.81
232.541	121.81
232.775	110.81
233.009	102.81
233.243	127.81
233.477	122.81
233.711	114.81
233.945	105.81
234.179	123.81
234.413	95.81
234.647	108.81
234.881	122.81
235.115	113.81
235.349	119.81
235.583	131.81
235.817	124.81
236.051	122.81
236.285	126.81
236.519	119.81
236.753	120.81
236.987	121.81
237.221	150.81
237.455	194.81
237.689	150.81
237.922	129.81
238.156	133.81
238.39	140.81
238.624	121.81
238.858	124.81
239.091	136.81
239.325	128.81
239.559	132.81
239.793	122.81
240.027	127.81
240.26	119.81
240.494	158.81
240.728	151.81
240.961	137.81
241.195	155.81
241.429	138.81
241.662	125.81
241.896	123.81
242.13	142.81
242.363	115.81
242.597	132.81
242.83	139.81
243.064	140.81
243.298	137.81
243.531	142.81
243.765	135.81
243.998	136.81
244.232	136.81
244.465	143.81
244.699	125.81
244.932	136.81
245.166	151.81
245.399	148.81
245.633	148.81
245.866	130.81
246.099	147.81
246.333	141.81
246.566	138.81
246.8	141.81
247.033	142.81
247.266	155.81
247.5	162.81
247.733	160.81
247.966	156.81
248.2	167.81
248.433	153.81
248.666	160.81
248.899	179.81
249.133	184.81
249.366	180.81
249.599	196.81
249.832	182.81
250.066	180.81
250.299	176.81
250.532	179.81
250.765	187.81
250.998	197.81
251.231	207.81
251.465	203.81
251.698	195.81
251.931	190.81
252.164	195.81
252.397	177.81
252.63	183.81
252.863	189.81
253.096	189.81
253.329	202.81
253.562	214.81
253.795	206.81
254.028	220.81
254.261	209.81
254.494	189.81
254.727	206.81
254.96	253.81
255.193	251.81
255.426	221.81
255.659	203.81
255.892	194.81
256.124	206.81
256.357	200.81
256.59	221.81
256.823	219.81
257.056	201.81
257.289	197.81
257.521	187.81
257.754	205.81
257.987	200.81
258.22	207.81
258.452	200.81
258.685	196.81
258.918	180.81
259.151	213.81
259.383	213.81
259.616	205.81
259.849	213.81
260.081	224.81
260.314	229.81
260.547	245.81
260.779	226.81
261.012	233.81
261.244	233.81
261.477	208.81
261.71	213.81
261.942	212.81
262.175	226.81
262.407	211.81
262.64	210.81
262.872	218.81
263.105	194.81
263.337	205.81
263.57	215.81
263.802	199.81
264.035	210.81
264.267	196.81
264.499	205.81
264.732	212.81
264.964	220.81
265.197	221.81
265.429	205.81
265.661	204.81
265.894	214.81
266.126	223.81
266.358	220.81
266.591	204.81
266.823	227.81
267.055	228.81
267.287	220.81
267.52	226.81
267.752	248.81
267.984	220.81
268.216	232.81
268.448	226.81
268.681	225.81
268.913	239.81
269.145	252.81
269.377	267.81
269.609	275.81
269.841	258.81
270.073	266.81
270.306	288.81
270.538	300.81
270.77	297.81
271.002	272.81
271.234	281.81
271.466	277.81
271.698	268.81
271.93	273.81
272.162	299.81
272.394	293.81
272.626	285.81
272.858	290.81
273.09	266.81
273.322	266.81
273.553	271.81
273.785	253.81
274.017	256.81
274.249	260.81
274.481	275.81
274.713	269.81
274.945	266.81
275.176	255.81
275.408	264.81
275.64	268.81
275.872	246.81
276.104	278.81
276.335	290.81
276.567	261.81
276.799	278.81
277.031	307.81
277.262	309.81
277.494	314.81
277.726	304.81
277.957	288.81
278.189	278.81
278.421	295.81
278.652	266.81
278.884	267.81
279.115	277.81
279.347	260.81
279.579	268.81
279.81	264.81
280.042	269.81
280.273	269.81
280.505	274.81
280.736	269.81
280.968	277.81
281.199	281.81
281.431	281.81
281.662	268.81
281.894	284.81
282.125	277.81
282.356	280.81
282.588	307.81
282.819	307.81
283.051	293.81
283.282	256.81
283.513	285.81
283.745	280.81
283.976	306.81
284.207	288.81
284.439	290.81
284.67	281.81
284.901	292.81
285.132	295.81
285.364	269.81
285.595	309.81
285.826	296.81
286.057	303.81
286.288	282.81
286.52	284.81
286.751	295.81
286.982	298.81
287.213	292.81
287.444	306.81
287.675	297.81
287.906	297.81
288.138	285.81
288.369	330.81
288.6	312.81
288.831	322.81
289.062	313.81
289.293	303.81
289.524	298.81
289.755	291.81
289.986	295.81
290.217	306.81
290.448	304.81
290.679	309.81
290.91	296.81
291.141	303.81
291.371	302.81
291.602	307.81
291.833	299.81
292.064	294.81
292.295	291.81
292.526	295.81
292.757	296.81
292.987	296.81
293.218	306.81
293.449	305.81
293.68	320.81
293.91	308.81
294.141	305.81
294.372	304.81
294.603	315.81
294.833	308.81
295.064	311.81
295.295	309.81
295.525	323.81
295.756	314.81
295.987	320.81
296.217	329.81
296.448	341.81
296.679	312.81
296.909	328.81
297.14	317.81
297.37	319.81
297.601	313.81
297.831	308.81
298.062	322.81
298.292	313.81
298.523	317.81
298.753	320.81
298.984	308.81
299.214	317.81
299.445	349.81
299.675	318.81
299.905	320.81
300.136	325.81
300.366	325.81
300.597	338.81
300.827	341.81
301.057	346.81
301.288	323.81
301.518	340.81
301.748	352.81
301.979	363.81
302.209	332.81
302.439	344.81
302.669	345.81
302.9	354.81
303.13	370.81
303.36	341.81
303.59	337.81
303.82	349.81
304.051	337.81
304.281	346.81
304.511	347.81
304.741	338.81
304.971	332.81
305.201	336.81
305.431	347.81
305.661	347.81
305.891	335.81
306.121	357.81
306.352	347.81
306.582	340.81
306.812	322.81
307.042	354.81
307.272	355.81
307.502	341.81
307.731	348.81
307.961	339.81
308.191	336.81
308.421	341.81
308.651	349.81
308.881	357.81
309.111	347.81
309.341	342.81
309.571	352.81
309.8	381.81
310.03	357.81
310.26	373.81
310.49	377.81
310.72	367.81
310.949	372.81
311.179	376.81
311.409	357.81
311.639	387.81
311.868	372.81
312.098	372.81
312.328	384.81
312.557	400.81
312.787	390.81
313.017	380.81
313.246	399.81
313.476	377.81
313.706	382.81
313.935	390.81
314.165	390.81
314.394	425.81
314.624	402.81
314.853	379.81
315.083	391.81
315.312	377.81
315.542	381.81
315.771	372.81
316.001	376.81
316.23	381.81
316.46	405.81
316.689	384.81
316.919	362.81
317.148	395.81
317.377	381.81
317.607	400.81
317.836	378.81
318.065	378.81
318.295	368.81
318.524	379.81
318.753	371.81
318.983	380.81
319.212	378.81
319.441	399.81
319.67	397.81
319.9	392.81
320.129	385.81
320.358	374.81
320.587	381.81
320.816	397.81
321.046	394.81
321.275	410.81
321.504	402.81
321.733	391.81
321.962	412.81
322.191	433.81
322.42	412.81
322.649	418.81
322.878	440.81
323.108	423.81
323.337	443.81
323.566	453.81
323.795	474.81
324.024	513.81
324.253	575.81
324.482	761.81
324.71	1095.81
324.939	1580.81
325.168	1421.81
325.397	751.81
325.626	558.81
325.855	501.81
326.084	446.81
326.313	472.81
326.542	455.81
326.77	483.81
326.999	569.81
327.228	735.81
327.457	1009.81
327.686	1228.81
327.914	861.81
328.143	617.81
328.372	556.81
328.6	516.81
328.829	528.81
329.058	515.81
329.287	507.81
329.515	497.81
329.744	479.81
329.972	499.81
330.201	491.81
330.43	534.81
330.658	543.81
330.887	546.81
331.115	547.81
331.344	486.81
331.572	463.81
331.801	478.81
332.03	470.81
332.258	468.81
332.486	466.81
332.715	474.81
332.943	473.81
333.172	468.81
333.4	479.81
333.629	485.81
333.857	536.81
334.085	522.81
334.314	525.81
334.542	541.81
334.771	532.81
334.999	523.81
335.227	480.81
335.455	473.81
335.684	487.81
335.912	483.81
336.14	476.81
336.369	482.81
336.597	453.81
336.825	479.81
337.053	463.81
337.281	467.81
337.51	467.81
337.738	439.81
337.966	428.81
338.194	464.81
338.422	472.81
338.65	462.81
338.878	459.81
339.106	445.81
339.334	452.81
339.562	431.81
339.79	434.81
340.018	465.81
340.246	432.81
340.474	445.81
340.702	417.81
340.93	459.81
341.158	430.81
341.386	449.81
341.614	436.81
341.842	435.81
342.07	442.81
342.298	434.81
342.526	409.81
342.754	425.81
342.981	429.81
343.209	442.81
343.437	432.81
343.665	444.81
343.893	466.81
344.12	466.81
344.348	468.81
344.576	464.81
344.804	458.81
345.031	459.81
345.259	465.81
345.487	458.81
345.714	453.81
345.942	423.81
346.17	415.81
346.397	413.81
346.625	417.81
346.853	422.81
347.08	400.81
347.308	419.81
347.535	419.81
347.763	425.81
347.99	447.81
348.218	427.81
348.445	417.81
348.673	438.81
348.9	419.81
349.128	405.81
349.355	417.81
349.583	418.81
349.81	393.81
350.037	411.81
350.265	420.81
350.492	417.81
350.72	389.81
350.947	422.81
351.174	390.81
351.402	410.81
351.629	424.81
351.856	410.81
352.083	414.81
352.311	412.81
352.538	450.81
352.765	421.81
352.992	412.81
353.22	408.81
353.447	424.81
353.674	406.81
353.901	417.81
354.128	409.81
354.355	412.81
354.583	394.81
354.81	395.81
355.037	394.81
355.264	387.81
355.491	408.81
355.718	391.81
355.945	392.81
356.172	403.81
356.399	406.81
356.626	384.81
356.853	395.81
357.08	407.81
357.307	400.81
357.534	402.81
357.761	412.81
357.988	412.81
358.215	394.81
358.441	401.81
358.668	390.81
358.895	392.81
359.122	399.81
359.349	424.81
359.576	425.81
359.802	424.81
360.029	425.81
360.256	445.81
360.483	447.81
360.709	431.81
360.936	423.81
361.163	424.81
361.39	404.81
361.616	421.81
361.843	410.81
362.07	425.81
362.296	437.81
362.523	408.81
362.749	407.81
362.976	403.81
363.203	403.81
363.429	409.81
363.656	422.81
363.882	400.81
364.109	416.81
364.335	401.81
364.562	397.81
364.788	401.81
365.015	395.81
365.241	391.81
365.468	415.81
365.694	430.81
365.92	412.81
366.147	415.81
366.373	401.81
366.599	405.81
366.826	392.81
367.052	395.81
367.278	401.81
367.505	419.81
367.731	409.81
367.957	378.81
368.184	403.81
368.41	409.81
368.636	418.81
368.862	425.81
369.089	409.81
369.315	403.81
369.541	403.81
369.767	408.81
369.993	413.81
370.219	405.81
370.445	406.81
370.672	403.81
370.898	422.81
371.124	413.81
371.35	421.81
371.576	402.81
371.802	407.81
372.028	420.81
372.254	393.81
372.48	408.81
372.706	425.81
372.932	420.81
373.158	424.81
373.384	427.81
373.61	405.81
373.835	428.81
374.061	421.81
374.287	443.81
374.513	422.81
374.739	428.81
374.965	421.81
375.191	433.81
375.416	425.81
375.642	427.81
375.868	427.81
376.094	420.81
376.319	397.81
376.545	418.81
376.771	412.81
376.997	416.81
377.222	425.81
377.448	404.81
377.674	421.81
377.899	428.81
378.125	424.81
378.35	402.81
378.576	403.81
378.802	411.81
379.027	415.81
379.253	423.81
379.478	389.81
379.704	407.81
379.929	438.81
380.155	418.81
380.38	398.81
380.606	416.81
380.831	419.81
381.057	398.81
381.282	423.81
381.507	397.81
381.733	422.81
381.958	424.81
382.184	417.81
382.409	427.81
382.634	429.81
382.86	419.81
383.085	432.81
383.31	421.81
383.535	444.81
383.761	432.81
383.986	442.81
384.211	440.81
384.436	457.81
384.662	475.81
384.887	487.81
385.112	465.81
385.337	456.81
385.562	463.81
385.787	466.81
386.013	475.81
386.238	452.81
386.463	465.81
386.688	472.81
386.913	484.81
387.138	473.81
387.363	468.81
387.588	470.81
387.813	468.81
388.038	478.81
388.263	470.81
388.488	463.81
388.713	468.81
388.938	470.81
389.163	482.81
389.387	469.81
389.612	482.81
389.837	460.81
390.062	448.81
390.287	491.81
390.512	432.81
390.736	454.81
390.961	474.81
391.186	449.81
391.411	492.81
391.636	468.81
391.86	489.81
392.085	501.81
392.31	504.81
392.534	500.81
392.759	477.81
392.984	482.81
393.208	476.81
393.433	488.81
393.658	484.81
393.882	471.81
394.107	459.81
394.331	469.81
394.556	473.81
394.78	479.81
395.005	496.81
395.229	492.81
395.454	493.81
395.678	506.81
395.903	517.81
396.127	504.81
396.352	550.81
396.576	516.81
396.801	474.81
397.025	485.81
397.249	495.81
397.474	513.81
397.698	509.81
397.922	529.81
398.147	539.81
398.371	523.81
398.595	541.81
398.82	546.81
399.044	554.81
399.268	605.81
399.492	624.81
399.717	696.81
399.941	724.81
400.165	696.81
400.389	674.81
400.613	641.81
400.837	602.81
401.062	579.81
401.286	561.81
401.51	546.81
401.734	559.81
401.958	583.81
402.182	587.81
402.406	561.81
402.63	545.81
402.854	568.81
403.078	559.81
403.302	566.81
403.526	593.81
403.75	602.81
403.974	602.81
404.198	583.81
404.422	598.81
404.645	594.81
404.869	602.81
405.093	639.81
405.317	637.81
405.541	680.81
405.765	636.81
405.988	607.81
406.212	603.81
406.436	619.81
406.66	632.81
406.883	609.81
407.107	649.81
407.331	695.81
407.555	736.81
407.778	738.81
408.002	676.81
408.226	660.81
408.449	654.81
408.673	625.81
408.896	644.81
409.12	674.81
409.344	649.81
409.567	606.81
409.791	589.81
410.014	567.81
410.238	586.81
410.461	585.81
410.685	561.81
410.908	593.81
411.132	620.81
411.355	643.81
411.578	612.81
411.802	606.81
412.025	584.81
412.249	587.81
412.472	597.81
412.695	646.81
412.919	600.81
413.142	577.81
413.365	549.81
413.589	554.81
413.812	540.81
414.035	565.81
414.258	563.81
414.482	555.81
414.705	577.81
414.928	535.81
415.151	548.81
415.374	559.81
415.597	535.81
415.821	534.81
416.044	532.81
416.267	532.81
416.49	517.81
416.713	536.81
416.936	559.81
417.159	545.81
417.382	565.81
417.605	549.81
417.828	550.81
418.051	553.81
418.274	534.81
418.497	551.81
418.72	558.81
418.943	572.81
419.166	573.81
419.389	617.81
419.611	602.81
419.834	571.81
420.057	597.81
420.28	566.81
420.503	567.81
420.726	557.81
420.948	575.81
421.171	590.81
421.394	625.81
421.617	550.81
421.839	561.81
422.062	575.81
422.285	565.81
422.507	615.81
422.73	686.81
422.953	665.81
423.175	594.81
423.398	573.81
423.621	582.81
423.843	603.81
424.066	586.81
424.288	600.81
424.511	593.81
424.733	644.81
424.956	715.81
425.178	684.81
425.401	674.81
425.623	678.81
425.846	589.81
426.068	563.81
426.291	578.81
426.513	580.81
426.735	580.81
426.958	578.81
427.18	652.81
427.402	774.81
427.625	859.81
427.847	740.81
428.069	671.81
428.292	605.81
428.514	588.81
428.736	552.81
428.958	566.81
429.181	559.81
429.403	537.81
429.625	554.81
429.847	581.81
430.069	625.81
430.292	604.81
430.514	529.81
430.736	522.81
430.958	517.81
431.18	529.81
431.402	505.81
431.624	496.81
431.846	505.81
432.068	521.81
432.29	528.81
432.512	529.81
432.734	537.81
432.956	512.81
433.178	497.81
433.4	525.81
433.622	521.81
433.844	501.81
434.066	513.81
434.287	543.81
434.509	513.81
434.731	555.81
434.953	541.81
435.175	559.81
435.397	563.81
435.618	577.81
435.84	576.81
436.062	672.81
436.284	739.81
436.505	641.81
436.727	564.81
436.949	567.81
437.17	559.81
437.392	541.81
437.614	529.81
437.835	575.81
438.057	629.81
438.278	685.81
438.5	687.81
438.721	738.81
438.943	715.81
439.165	596.81
439.386	575.81
439.608	567.81
439.829	576.81
440.05	573.81
440.272	631.81
440.493	604.81
440.715	560.81
440.936	542.81
441.158	552.81
441.379	562.81
441.6	575.81
441.822	563.81
442.043	605.81
442.264	673.81
442.486	707.81
442.707	623.81
442.928	597.81
443.149	579.81
443.371	583.81
443.592	635.81
443.813	724.81
444.034	747.81
444.255	659.81
444.476	628.81
444.698	643.81
444.919	629.81
445.14	747.81
445.361	671.81
445.582	612.81
445.803	659.81
446.024	720.81
446.245	725.81
446.466	651.81
446.687	593.81
446.908	540.81
447.129	544.81
447.35	517.81
447.571	521.81
447.792	510.81
448.013	529.81
448.234	511.81
448.455	560.81
448.675	660.81
448.896	764.81
449.117	659.81
449.338	629.81
449.559	685.81
449.779	807.81
450	635.81
450.221	547.81
450.442	521.81
450.662	529.81
450.883	513.81
451.104	535.81
451.324	469.81
451.545	493.81
451.766	479.81
451.986	484.81
452.207	474.81
452.428	477.81
452.648	460.81
452.869	474.81
453.089	482.81
453.31	489.81
453.53	471.81
453.751	469.81
453.971	478.81
454.192	480.81
454.412	468.81
454.633	468.81
454.853	472.81
455.073	460.81
455.294	515.81
455.514	532.81
455.734	522.81
455.955	482.81
456.175	450.81
456.395	439.81
456.616	437.81
456.836	434.81
457.056	436.81
457.276	432.81
457.497	443.81
457.717	446.81
457.937	464.81
458.157	454.81
458.377	460.81
458.598	479.81
458.818	511.81
459.038	570.81
459.258	601.81
459.478	561.81
459.698	535.81
459.918	522.81
460.138	543.81
460.358	535.81
460.578	549.81
460.798	544.81
461.018	543.81
461.238	536.81
461.458	570.81
461.678	523.81
461.898	547.81
462.118	546.81
462.338	572.81
462.558	585.81
462.777	586.81
462.997	610.81
463.217	637.81
463.437	626.81
463.657	614.81
463.876	628.81
464.096	618.81
464.316	614.81
464.536	608.81
464.755	580.81
464.975	556.81
465.195	581.81
465.414	601.81
465.634	563.81
465.854	551.81
466.073	523.81
466.293	514.81
466.512	492.81
466.732	495.81
466.951	483.81
467.171	479.81
467.391	489.81
467.61	513.81
467.829	481.81
468.049	489.81
468.268	488.81
468.488	472.81
468.707	485.81
468.927	481.81
469.146	476.81
469.365	475.81
469.585	478.81
469.804	484.81
470.023	503.81
470.243	513.81
470.462	483.81
470.681	526.81
470.901	494.81
471.12	511.81
471.339	498.81
471.558	492.81
471.777	522.81
471.997	506.81
472.216	509.81
472.435	517.81
472.654	518.81
472.873	514.81
473.092	476.81
473.311	464.81
473.53	484.81
473.749	508.81
473.968	528.81
474.187	579.81
474.406	602.81
474.625	538.81
474.844	507.81
475.063	481.81
475.282	488.81
475.501	492.81
475.72	507.81
475.939	504.81
476.158	491.81
476.377	507.81
476.596	518.81
476.814	505.81
477.033	528.81
477.252	515.81
477.471	533.81
477.69	531.81
477.908	538.81
478.127	542.81
478.346	564.81
478.564	575.81
478.783	570.81
479.002	561.81
479.22	563.81
479.439	607.81
479.658	592.81
479.876	597.81
480.095	602.81
480.313	635.81
480.532	627.81
480.751	631.81
480.969	619.81
481.188	629.81
481.406	653.81
481.624	612.81
481.843	604.81
482.061	597.81
482.28	557.81
482.498	580.81
482.717	581.81
482.935	589.81
483.153	568.81
483.372	594.81
483.59	581.81
483.808	565.81
484.027	569.81
484.245	586.81
484.463	579.81
484.681	604.81
484.9	580.81
485.118	598.81
485.336	599.81
485.554	607.81
485.772	597.81
485.99	589.81
486.209	567.81
486.427	581.81
486.645	593.81
486.863	606.81
487.081	616.81
487.299	608.81
487.517	611.81
487.735	608.81
487.953	618.81
488.171	609.81
488.389	626.81
488.607	591.81
488.825	605.81
489.043	616.81
489.261	616.81
489.479	605.81
489.696	611.81
489.914	612.81
490.132	616.81
490.35	643.81
490.568	635.81
490.786	655.81
491.003	641.81
491.221	661.81
491.439	667.81
491.657	639.81
491.874	682.81
492.092	659.81
492.31	680.81
492.527	680.81
492.745	667.81
492.963	669.81
493.18	720.81
493.398	704.81
493.615	703.81
493.833	690.81
494.05	697.81
494.268	674.81
494.485	695.81
494.703	708.81
494.92	701.81
495.138	684.81
495.355	699.81
495.573	734.81
495.79	709.81
496.008	719.81
496.225	721.81
496.442	715.81
496.66	713.81
496.877	698.81
497.094	711.81
497.312	748.81
497.529	769.81
497.746	754.81
497.963	776.81
498.181	818.81
498.398	820.81
498.615	816.81
498.832	861.81
499.049	861.81
499.267	947.81
499.484	961.81
499.701	1035.81
499.918	1094.81
500.135	1173.81
500.352	1212.81
500.569	1236.81
500.786	1240.81
501.003	1203.81
501.22	1149.81
501.437	1106.81
501.654	1039.81
501.871	966.81
502.088	933.81
502.305	895.81
502.522	851.81
502.739	860.81
502.956	807.81
503.172	782.81
503.389	750.81
503.606	755.81
503.823	754.81
504.04	747.81
504.256	775.81
504.473	761.81
504.69	762.81
504.907	732.81
505.123	711.81
505.34	727.81
505.557	669.81
505.773	669.81
505.99	683.81
506.207	645.81
506.423	671.81
506.64	674.81
506.856	644.81
507.073	633.81
507.289	640.81
507.506	649.81
507.722	652.81
507.939	639.81
508.155	636.81
508.372	609.81
508.588	623.81
508.805	616.81
509.021	630.81
509.238	638.81
509.454	635.81
509.67	610.81
509.887	606.81
510.103	595.81
510.319	606.81
510.536	679.81
510.752	921.81
510.968	789.81
511.184	607.81
511.401	601.81
511.617	602.81
511.833	582.81
512.049	569.81
512.265	583.81
512.481	605.81
512.698	585.81
512.914	589.81
513.13	583.81
513.346	596.81
513.562	569.81
513.778	573.81
513.994	599.81
514.21	607.81
514.426	619.81
514.642	624.81
514.858	650.81
515.074	663.81
515.29	705.81
515.506	915.81
515.721	791.81
515.937	652.81
516.153	636.81
516.369	640.81
516.585	652.81
516.801	619.81
517.016	650.81
517.232	651.81
517.448	657.81
517.664	664.81
517.879	660.81
518.095	675.81
518.311	666.81
518.527	651.81
518.742	626.81
518.958	617.81
519.173	609.81
519.389	617.81
519.605	610.81
519.82	581.81
520.036	615.81
520.251	619.81
520.467	634.81
520.682	616.81
520.898	608.81
521.113	614.81
521.329	656.81
521.544	663.81
521.76	755.81
521.975	1067.81
522.19	1016.81
522.406	695.81
522.621	592.81
522.836	569.81
523.052	555.81
523.267	546.81
523.482	541.81
523.698	517.81
523.913	562.81
524.128	536.81
524.343	529.81
524.559	522.81
524.774	511.81
524.989	524.81
525.204	533.81
525.419	549.81
525.634	511.81
525.849	499.81
526.064	513.81
526.28	513.81
526.495	499.81
526.71	499.81
526.925	510.81
527.14	480.81
527.355	507.81
527.57	505.81
527.785	513.81
527.999	470.81
528.214	492.81
528.429	471.81
528.644	487.81
528.859	507.81
529.074	509.81
529.289	505.81
529.503	548.81
529.718	531.81
529.933	531.81
530.148	513.81
530.363	472.81
530.577	492.81
530.792	490.81
531.007	490.81
531.221	487.81
531.436	487.81
531.651	509.81
531.865	477.81
532.08	527.81
532.295	484.81
532.509	461.81
532.724	482.81
532.938	470.81
533.153	467.81
533.367	498.81
533.582	502.81
533.796	466.81
534.011	477.81
534.225	486.81
534.44	482.81
534.654	492.81
534.868	482.81
535.083	479.81
535.297	485.81
535.511	484.81
535.726	470.81
535.94	471.81
536.154	457.81
536.369	460.81
536.583	455.81
536.797	457.81
537.011	465.81
537.225	471.81
537.44	453.81
537.654	442.81
537.868	465.81
538.082	467.81
538.296	468.81
538.51	453.81
538.724	470.81
538.938	453.81
539.153	460.81
539.367	460.81
539.581	464.81
539.795	461.81
540.009	455.81
540.222	469.81
540.436	452.81
540.65	476.81
540.864	478.81
541.078	437.81
541.292	475.81
541.506	455.81
541.72	469.81
541.934	455.81
542.147	454.81
542.361	476.81
542.575	451.81
542.789	453.81
543.002	465.81
543.216	481.81
543.43	447.81
543.644	475.81
543.857	466.81
544.071	468.81
544.285	451.81
544.498	459.81
544.712	473.81
544.925	465.81
545.139	465.81
545.352	455.81
545.566	452.81
545.779	468.81
545.993	444.81
546.206	450.81
546.42	438.81
546.633	440.81
546.847	452.81
547.06	443.81
547.274	445.81
547.487	457.81
547.7	442.81
547.914	440.81
548.127	437.81
548.34	457.81
548.554	447.81
548.767	465.81
548.98	445.81
549.193	453.81
549.407	471.81
549.62	422.81
549.833	453.81
550.046	465.81
550.259	464.81
550.473	432.81
550.686	470.81
550.899	444.81
551.112	457.81
551.325	451.81
551.538	441.81
551.751	436.81
551.964	429.81
552.177	448.81
552.39	458.81
552.603	445.81
552.816	453.81
553.029	475.81
553.242	492.81
553.455	460.81
553.667	484.81
553.88	480.81
554.093	462.81
554.306	447.81
554.519	469.81
554.732	442.81
554.944	439.81
555.157	450.81
555.37	432.81
555.583	429.81
555.795	434.81
556.008	433.81
556.221	415.81
556.433	410.81
556.646	405.81
556.859	424.81
557.071	401.81
557.284	394.81
557.496	427.81
557.709	418.81
557.921	385.81
558.134	386.81
558.346	397.81
558.559	421.81
558.771	391.81
558.984	388.81
559.196	422.81
559.409	401.81
559.621	401.81
559.833	392.81
560.046	394.81
560.258	387.81
560.47	408.81
560.683	392.81
560.895	405.81
561.107	405.81
561.32	414.81
561.532	405.81
561.744	405.81
561.956	400.81
562.168	386.81
562.381	392.81
562.593	401.81
562.805	390.81
563.017	401.81
563.229	394.81
563.441	417.81
563.653	407.81
563.865	412.81
564.077	411.81
564.289	423.81
564.501	415.81
564.713	411.81
564.925	409.81
565.137	428.81
565.349	455.81
565.561	483.81
565.773	469.81
565.985	468.81
566.197	498.81
566.408	511.81
566.62	522.81
566.832	535.81
567.044	549.81
567.255	539.81
567.467	563.81
567.679	581.81
567.891	579.81
568.102	585.81
568.314	580.81
568.526	555.81
568.737	503.81
568.949	489.81
569.161	472.81
569.372	448.81
569.584	433.81
569.795	441.81
570.007	411.81
570.218	464.81
570.43	431.81
570.641	392.81
570.853	402.81
571.064	409.81
571.276	398.81
571.487	404.81
571.698	407.81
571.91	364.81
572.121	383.81
572.333	349.81
572.544	372.81
572.755	348.81
572.966	356.81
573.178	367.81
573.389	345.81
573.6	359.81
573.811	380.81
574.023	347.81
574.234	351.81
574.445	358.81
574.656	348.81
574.867	333.81
575.078	355.81
575.289	343.81
575.501	359.81
575.712	340.81
575.923	347.81
576.134	342.81
576.345	341.81
576.556	328.81
576.767	316.81
576.978	345.81
577.188	313.81
577.399	320.81
577.61	331.81
577.821	343.81
578.032	336.81
578.243	345.81
578.454	463.81
578.665	381.81
578.875	343.81
579.086	313.81
579.297	327.81
579.508	324.81
579.718	316.81
579.929	323.81
580.14	310.81
580.35	308.81
580.561	327.81
580.772	315.81
580.982	317.81
581.193	301.81
581.403	317.81
581.614	334.81
581.825	313.81
582.035	310.81
582.246	292.81
582.456	330.81
582.667	313.81
582.877	311.81
583.087	296.81
583.298	319.81
583.508	303.81
583.719	307.81
583.929	324.81
584.139	327.81
584.35	315.81
584.56	316.81
584.77	305.81
584.981	303.81
585.191	290.81
585.401	296.81
585.611	311.81
585.821	297.81
586.032	318.81
586.242	304.81
586.452	322.81
586.662	313.81
586.872	305.81
587.082	296.81
587.292	315.81
587.502	299.81
587.713	308.81
587.923	285.81
588.133	300.81
588.343	312.81
588.553	294.81
588.762	295.81
588.972	307.81
589.182	316.81
589.392	313.81
589.602	292.81
589.812	321.81
590.022	324.81
590.232	302.81
590.441	316.81
590.651	314.81
590.861	304.81
591.071	315.81
591.281	314.81
591.49	313.81
591.7	309.81
591.91	339.81
592.119	321.81
592.329	319.81
592.539	337.81
592.748	343.81
592.958	333.81
593.167	337.81
593.377	342.81
593.587	339.81
593.796	367.81
594.006	349.81
594.215	345.81
594.424	351.81
594.634	336.81
594.843	338.81
595.053	329.81
595.262	325.81
595.472	309.81
595.681	315.81
595.89	295.81
596.1	296.81
596.309	312.81
596.518	282.81
596.727	298.81
596.937	305.81
597.146	284.81
597.355	272.81
597.564	284.81
597.774	268.81
597.983	295.81
598.192	290.81
598.401	265.81
598.61	265.81
598.819	268.81
599.028	273.81
599.237	275.81
599.446	273.81
599.655	258.81
599.864	274.81
600.073	260.81
600.282	259.81
600.491	269.81
600.7	267.81
600.909	264.81
601.118	255.81
601.327	260.81
601.536	248.81
601.745	255.81
601.953	264.81
602.162	270.81
602.371	263.81
602.58	282.81
602.789	274.81
602.997	277.81
603.206	270.81
603.415	258.81
603.623	258.81
603.832	255.81
604.041	260.81
604.249	239.81
604.458	248.81
604.666	255.81
604.875	256.81
605.084	247.81
605.292	263.81
605.501	257.81
605.709	234.81
605.918	242.81
606.126	252.81
606.334	235.81
606.543	249.81
606.751	239.81
606.96	257.81
607.168	245.81
607.376	244.81
607.585	240.81
607.793	237.81
608.001	239.81
608.21	249.81
608.418	238.81
608.626	256.81
608.834	265.81
609.043	243.81
609.251	243.81
609.459	255.81
609.667	236.81
609.875	255.81
610.083	234.81
610.291	232.81
610.499	240.81
610.707	233.81
610.916	247.81
611.124	246.81
611.332	253.81
611.54	257.81
611.748	240.81
611.955	250.81
612.163	239.81
612.371	258.81
612.579	265.81
612.787	231.81
612.995	236.81
613.203	246.81
613.411	234.81
613.618	243.81
613.826	248.81
614.034	258.81
614.242	248.81
614.449	243.81
614.657	238.81
614.865	232.81
615.072	231.81
615.28	225.81
615.488	251.81
615.695	240.81
615.903	226.81
616.111	243.81
616.318	233.81
616.526	229.81
616.733	236.81
616.941	241.81
617.148	225.81
617.356	236.81
617.563	244.81
617.771	255.81
617.978	219.81
618.185	227.81
618.393	247.81
618.6	250.81
618.807	236.81
619.015	236.81
619.222	228.81
619.429	238.81
619.637	247.81
619.844	220.81
620.051	236.81
620.258	240.81
620.466	212.81
620.673	216.81
620.88	233.81
621.087	200.81
621.294	219.81
621.501	232.81
621.708	216.81
621.915	207.81
622.122	219.81
622.329	221.81
622.536	247.81
622.743	230.81
622.95	215.81
623.157	222.81
623.364	215.81
623.571	230.81
623.778	200.81
623.985	216.81
624.192	217.81
624.399	215.81
624.606	221.81
624.812	218.81
625.019	226.81
625.226	217.81
625.433	209.81
625.639	212.81
625.846	223.81
626.053	210.81
626.259	207.81
626.466	216.81
626.673	198.81
626.879	205.81
627.086	216.81
627.293	220.81
627.499	212.81
627.706	203.81
627.912	217.81
628.119	209.81
628.325	206.81
628.532	200.81
628.738	198.81
628.945	176.81
629.151	184.81
629.357	194.81
629.564	200.81
629.77	213.81
629.976	213.81
630.183	195.81
630.389	195.81
630.595	189.81
630.802	190.81
631.008	179.81
631.214	203.81
631.42	204.81
631.627	202.81
631.833	192.81
632.039	194.81
632.245	195.81
632.451	194.81
632.657	187.81
632.863	191.81
633.069	185.81
633.275	195.81
633.481	184.81
633.688	201.81
633.893	196.81
634.099	185.81
634.305	187.81
634.511	181.81
634.717	193.81
634.923	177.81
635.129	183.81
635.335	171.81
635.541	178.81
635.747	175.81
635.952	190.81
636.158	185.81
636.364	195.81
636.57	197.81
636.775	195.81
636.981	205.81
637.187	187.81
637.392	171.81
637.598	177.81
637.804	187.81
638.009	193.81
638.215	176.81
638.421	183.81
638.626	182.81
638.832	184.81
639.037	170.81
639.243	172.81
639.448	172.81
639.654	189.81
639.859	177.81
640.065	173.81
640.27	181.81
640.475	173.81
640.681	152.81
640.886	175.81
641.091	189.81
641.297	177.81
641.502	177.81
641.707	177.81
641.913	172.81
642.118	170.81
642.323	178.81
642.528	163.81
642.733	176.81
642.939	173.81
643.144	142.81
643.349	162.81
643.554	170.81
643.759	159.81
643.964	153.81
644.169	172.81
644.374	175.81
644.579	171.81
644.784	165.81
644.989	176.81
645.194	168.81
645.399	163.81
645.604	163.81
645.809	163.81
646.014	156.81
646.219	183.81
646.423	165.81
646.628	165.81
646.833	159.81
647.038	170.81
647.243	170.81
647.447	155.81
647.652	171.81
647.857	182.81
648.062	169.81
648.266	177.81
648.471	168.81
648.676	198.81
648.88	175.81
649.085	176.81
649.289	168.81
649.494	186.81
649.698	171.81
649.903	184.81
650.107	161.81
650.312	178.81
650.516	177.81
650.721	159.81
650.925	156.81
651.13	156.81
651.334	162.81
651.539	145.81
651.743	149.81
651.947	151.81
652.152	161.81
652.356	142.81
652.56	142.81
652.764	155.81
652.969	140.81
653.173	151.81
653.377	147.81
653.581	139.81
653.785	153.81
653.99	144.81
654.194	133.81
654.398	139.81
654.602	140.81
654.806	136.81
655.01	147.81
655.214	148.81
655.418	145.81
655.622	123.81
655.826	151.81
656.03	152.81
656.234	140.81
656.438	165.81
656.642	162.81
656.846	144.81
657.049	129.81
657.253	139.81
657.457	119.81
657.661	117.81
657.865	116.81
658.068	118.81
658.272	108.81
658.476	123.81
658.68	105.81
658.883	91.81
659.087	106.81
659.291	89.81
659.494	102.81
659.698	92.81
659.901	101.81
660.105	95.81
660.309	103.81
660.512	89.81
660.716	97.81
660.919	107.81
661.123	112.81
661.326	97.81
661.53	97.81
661.733	91.81
661.936	88.81
662.14	93.81
662.343	87.81
662.546	82.81
662.75	84.81
662.953	96.81
663.156	86.81
663.36	93.81
663.563	99.81
663.766	85.81
663.969	88.81
664.173	87.81
664.376	90.81
664.579	95.81
664.782	81.81
664.985	92.81
665.188	76.81
665.391	76.81
665.594	71.81
665.797	76.81
666	78.81
666.203	83.81
666.406	80.81
666.609	76.81
666.812	90.81
667.015	90.81
667.218	73.81
667.421	87.81
667.624	87.81
667.827	83.81
668.03	74.81
668.232	66.81
668.435	83.81
668.638	82.81
668.841	81.81
669.043	85.81
669.246	81.81
669.449	78.81
669.651	87.81
669.854	89.81
670.057	82.81
670.259	92.81
670.462	84.81
670.665	75.81
670.867	80.81
671.07	80.81
671.272	88.81
671.475	80.81
671.677	82.81
671.88	81.81
672.082	79.81
672.284	100.81
672.487	84.81
672.689	79.81
672.892	83.81
