Data from 1962.PennyLincolnUp.Lamp.En5.5.200Scan.071719.P1._HRD10591_13-52-59-060.txt Node
Date: Thu Jul 18 13:52:59 EDT 2019
User: cochatt
Spectrometer: HR+D1059
Trigger mode: 1
Integration Time (sec): 1.000000E-1
Scans to average: 1
Electric dark correction enabled: true
Nonlinearity correction enabled: false
Boxcar width: 0
XAxis mode: Wavelengths
Number of Pixels in Spectrum: 2048
>>>>>Begin Spectral Data<<<<<
223.165	-21.31
223.4	-21.31
223.635	-21.31
223.869	-8.31
224.104	-19.31
224.338	-9.31
224.573	-8.31
224.808	-27.31
225.042	-15.31
225.277	-10.31
225.511	-10.31
225.746	2.69
225.98	11.69
226.215	18.69
226.449	19.69
226.683	19.69
226.918	26.69
227.152	30.69
227.387	36.69
227.621	47.69
227.856	49.69
228.09	38.69
228.324	51.69
228.559	63.69
228.793	68.69
229.027	95.69
229.262	99.69
229.496	105.69
229.73	107.69
229.964	118.69
230.199	120.69
230.433	113.69
230.667	98.69
230.901	86.69
231.136	99.69
231.37	98.69
231.604	103.69
231.838	110.69
232.072	113.69
232.306	113.69
232.541	108.69
232.775	109.69
233.009	117.69
233.243	100.69
233.477	105.69
233.711	121.69
233.945	112.69
234.179	110.69
234.413	117.69
234.647	101.69
234.881	124.69
235.115	106.69
235.349	105.69
235.583	125.69
235.817	123.69
236.051	122.69
236.285	118.69
236.519	113.69
236.753	119.69
236.987	127.69
237.221	134.69
237.455	170.69
237.689	140.69
237.922	117.69
238.156	106.69
238.39	121.69
238.624	120.69
238.858	107.69
239.091	94.69
239.325	121.69
239.559	105.69
239.793	118.69
240.027	120.69
240.26	129.69
240.494	128.69
240.728	143.69
240.961	147.69
241.195	137.69
241.429	128.69
241.662	128.69
241.896	114.69
242.13	139.69
242.363	126.69
242.597	117.69
242.83	149.69
243.064	119.69
243.298	118.69
243.531	146.69
243.765	155.69
243.998	127.69
244.232	137.69
244.465	149.69
244.699	123.69
244.932	137.69
245.166	131.69
245.399	133.69
245.633	144.69
245.866	143.69
246.099	135.69
246.333	143.69
246.566	129.69
246.8	135.69
247.033	128.69
247.266	147.69
247.5	154.69
247.733	137.69
247.966	149.69
248.2	131.69
248.433	140.69
248.666	152.69
248.899	156.69
249.133	160.69
249.366	168.69
249.599	175.69
249.832	161.69
250.066	166.69
250.299	164.69
250.532	181.69
250.765	183.69
250.998	170.69
251.231	176.69
251.465	172.69
251.698	182.69
251.931	183.69
252.164	161.69
252.397	162.69
252.63	162.69
252.863	175.69
253.096	181.69
253.329	183.69
253.562	183.69
253.795	178.69
254.028	189.69
254.261	193.69
254.494	181.69
254.727	194.69
254.96	216.69
255.193	195.69
255.426	196.69
255.659	194.69
255.892	193.69
256.124	200.69
256.357	175.69
256.59	186.69
256.823	200.69
257.056	184.69
257.289	178.69
257.521	181.69
257.754	182.69
257.987	177.69
258.22	188.69
258.452	195.69
258.685	185.69
258.918	189.69
259.151	190.69
259.383	202.69
259.616	201.69
259.849	203.69
260.081	201.69
260.314	198.69
260.547	210.69
260.779	201.69
261.012	213.69
261.244	209.69
261.477	223.69
261.71	200.69
261.942	183.69
262.175	192.69
262.407	205.69
262.64	204.69
262.872	198.69
263.105	206.69
263.337	218.69
263.57	206.69
263.802	202.69
264.035	206.69
264.267	210.69
264.499	201.69
264.732	191.69
264.964	190.69
265.197	202.69
265.429	186.69
265.661	190.69
265.894	189.69
266.126	201.69
266.358	198.69
266.591	210.69
266.823	205.69
267.055	199.69
267.287	209.69
267.52	203.69
267.752	216.69
267.984	215.69
268.216	216.69
268.448	232.69
268.681	220.69
268.913	205.69
269.145	236.69
269.377	241.69
269.609	248.69
269.841	240.69
270.073	236.69
270.306	246.69
270.538	247.69
270.77	277.69
271.002	238.69
271.234	247.69
271.466	243.69
271.698	260.69
271.93	252.69
272.162	260.69
272.394	246.69
272.626	253.69
272.858	250.69
273.09	234.69
273.322	245.69
273.553	243.69
273.785	231.69
274.017	219.69
274.249	255.69
274.481	231.69
274.713	228.69
274.945	248.69
275.176	247.69
275.408	227.69
275.64	229.69
275.872	257.69
276.104	254.69
276.335	250.69
276.567	244.69
276.799	274.69
277.031	260.69
277.262	273.69
277.494	286.69
277.726	277.69
277.957	264.69
278.189	255.69
278.421	248.69
278.652	238.69
278.884	225.69
279.115	263.69
279.347	253.69
279.579	251.69
279.81	258.69
280.042	260.69
280.273	274.69
280.505	244.69
280.736	238.69
280.968	263.69
281.199	259.69
281.431	265.69
281.662	262.69
281.894	262.69
282.125	270.69
282.356	274.69
282.588	271.69
282.819	273.69
283.051	268.69
283.282	266.69
283.513	255.69
283.745	269.69
283.976	259.69
284.207	275.69
284.439	276.69
284.67	269.69
284.901	270.69
285.132	258.69
285.364	285.69
285.595	281.69
285.826	255.69
286.057	280.69
286.288	270.69
286.52	267.69
286.751	275.69
286.982	282.69
287.213	269.69
287.444	297.69
287.675	276.69
287.906	269.69
288.138	275.69
288.369	285.69
288.6	296.69
288.831	280.69
289.062	298.69
289.293	281.69
289.524	277.69
289.755	288.69
289.986	287.69
290.217	269.69
290.448	271.69
290.679	282.69
290.91	281.69
291.141	286.69
291.371	295.69
291.602	274.69
291.833	298.69
292.064	291.69
292.295	297.69
292.526	310.69
292.757	291.69
292.987	277.69
293.218	270.69
293.449	303.69
293.68	299.69
293.91	302.69
294.141	279.69
294.372	289.69
294.603	269.69
294.833	282.69
295.064	301.69
295.295	279.69
295.525	304.69
295.756	311.69
295.987	279.69
296.217	315.69
296.448	315.69
296.679	287.69
296.909	305.69
297.14	285.69
297.37	305.69
297.601	309.69
297.831	291.69
298.062	289.69
298.292	287.69
298.523	301.69
298.753	301.69
298.984	299.69
299.214	296.69
299.445	295.69
299.675	299.69
299.905	307.69
300.136	307.69
300.366	325.69
300.597	291.69
300.827	307.69
301.057	321.69
301.288	323.69
301.518	322.69
301.748	316.69
301.979	320.69
302.209	329.69
302.439	310.69
302.669	295.69
302.9	310.69
303.13	326.69
303.36	320.69
303.59	325.69
303.82	328.69
304.051	317.69
304.281	305.69
304.511	321.69
304.741	328.69
304.971	319.69
305.201	327.69
305.431	319.69
305.661	325.69
305.891	328.69
306.121	318.69
306.352	319.69
306.582	325.69
306.812	315.69
307.042	318.69
307.272	333.69
307.502	336.69
307.731	330.69
307.961	289.69
308.191	327.69
308.421	319.69
308.651	316.69
308.881	334.69
309.111	322.69
309.341	339.69
309.571	321.69
309.8	319.69
310.03	331.69
310.26	340.69
310.49	333.69
310.72	353.69
310.949	343.69
311.179	347.69
311.409	334.69
311.639	333.69
311.868	341.69
312.098	342.69
312.328	355.69
312.557	350.69
312.787	340.69
313.017	363.69
313.246	354.69
313.476	347.69
313.706	343.69
313.935	358.69
314.165	348.69
314.394	358.69
314.624	350.69
314.853	350.69
315.083	330.69
315.312	347.69
315.542	355.69
315.771	357.69
316.001	353.69
316.23	346.69
316.46	334.69
316.689	355.69
316.919	366.69
317.148	336.69
317.377	350.69
317.607	355.69
317.836	357.69
318.065	367.69
318.295	342.69
318.524	359.69
318.753	345.69
318.983	350.69
319.212	347.69
319.441	362.69
319.67	370.69
319.9	355.69
320.129	343.69
320.358	362.69
320.587	373.69
320.816	375.69
321.046	358.69
321.275	364.69
321.504	362.69
321.733	344.69
321.962	363.69
322.191	377.69
322.42	375.69
322.649	386.69
322.878	397.69
323.108	397.69
323.337	387.69
323.566	399.69
323.795	415.69
324.024	422.69
324.253	477.69
324.482	589.69
324.71	841.69
324.939	1119.69
325.168	992.69
325.397	585.69
325.626	460.69
325.855	420.69
326.084	405.69
326.313	413.69
326.542	410.69
326.77	438.69
326.999	482.69
327.228	556.69
327.457	771.69
327.686	887.69
327.914	668.69
328.143	505.69
328.372	463.69
328.6	462.69
328.829	422.69
329.058	439.69
329.287	433.69
329.515	422.69
329.744	437.69
329.972	437.69
330.201	429.69
330.43	445.69
330.658	449.69
330.887	457.69
331.115	449.69
331.344	424.69
331.572	431.69
331.801	424.69
332.03	430.69
332.258	419.69
332.486	423.69
332.715	429.69
332.943	427.69
333.172	428.69
333.4	455.69
333.629	470.69
333.857	475.69
334.085	478.69
334.314	463.69
334.542	454.69
334.771	494.69
334.999	462.69
335.227	465.69
335.455	437.69
335.684	440.69
335.912	448.69
336.14	419.69
336.369	420.69
336.597	439.69
336.825	425.69
337.053	436.69
337.281	435.69
337.51	410.69
337.738	410.69
337.966	414.69
338.194	418.69
338.422	415.69
338.65	424.69
338.878	411.69
339.106	419.69
339.334	399.69
339.562	411.69
339.79	412.69
340.018	411.69
340.246	403.69
340.474	399.69
340.702	414.69
340.93	408.69
341.158	413.69
341.386	398.69
341.614	406.69
341.842	401.69
342.07	392.69
342.298	396.69
342.526	392.69
342.754	398.69
342.981	386.69
343.209	405.69
343.437	404.69
343.665	410.69
343.893	418.69
344.12	446.69
344.348	450.69
344.576	431.69
344.804	441.69
345.031	418.69
345.259	415.69
345.487	419.69
345.714	403.69
345.942	412.69
346.17	378.69
346.397	380.69
346.625	382.69
346.853	386.69
347.08	394.69
347.308	374.69
347.535	386.69
347.763	399.69
347.99	398.69
348.218	386.69
348.445	374.69
348.673	373.69
348.9	388.69
349.128	380.69
349.355	369.69
349.583	395.69
349.81	377.69
350.037	397.69
350.265	374.69
350.492	394.69
350.72	381.69
350.947	402.69
351.174	377.69
351.402	377.69
351.629	398.69
351.856	397.69
352.083	386.69
352.311	386.69
352.538	367.69
352.765	389.69
352.992	380.69
353.22	375.69
353.447	387.69
353.674	393.69
353.901	377.69
354.128	360.69
354.355	355.69
354.583	389.69
354.81	377.69
355.037	366.69
355.264	373.69
355.491	373.69
355.718	375.69
355.945	377.69
356.172	379.69
356.399	367.69
356.626	374.69
356.853	391.69
357.08	380.69
357.307	367.69
357.534	351.69
357.761	379.69
357.988	357.69
358.215	379.69
358.441	374.69
358.668	377.69
358.895	399.69
359.122	364.69
359.349	385.69
359.576	387.69
359.802	389.69
360.029	411.69
360.256	381.69
360.483	393.69
360.709	379.69
360.936	402.69
361.163	373.69
361.39	376.69
361.616	393.69
361.843	403.69
362.07	383.69
362.296	393.69
362.523	371.69
362.749	390.69
362.976	393.69
363.203	383.69
363.429	379.69
363.656	386.69
363.882	403.69
364.109	354.69
364.335	362.69
364.562	374.69
364.788	393.69
365.015	380.69
365.241	365.69
365.468	367.69
365.694	384.69
365.92	383.69
366.147	356.69
366.373	369.69
366.599	381.69
366.826	373.69
367.052	374.69
367.278	364.69
367.505	391.69
367.731	382.69
367.957	377.69
368.184	387.69
368.41	380.69
368.636	397.69
368.862	383.69
369.089	381.69
369.315	370.69
369.541	386.69
369.767	387.69
369.993	375.69
370.219	384.69
370.445	397.69
370.672	387.69
370.898	378.69
371.124	383.69
371.35	384.69
371.576	411.69
371.802	389.69
372.028	409.69
372.254	375.69
372.48	383.69
372.706	407.69
372.932	384.69
373.158	414.69
373.384	411.69
373.61	390.69
373.835	406.69
374.061	400.69
374.287	389.69
374.513	405.69
374.739	415.69
374.965	403.69
375.191	432.69
375.416	414.69
375.642	388.69
375.868	403.69
376.094	375.69
376.319	395.69
376.545	390.69
376.771	403.69
376.997	388.69
377.222	389.69
377.448	390.69
377.674	396.69
377.899	381.69
378.125	372.69
378.35	389.69
378.576	391.69
378.802	391.69
379.027	385.69
379.253	382.69
379.478	372.69
379.704	395.69
379.929	368.69
380.155	388.69
380.38	389.69
380.606	397.69
380.831	406.69
381.057	398.69
381.282	407.69
381.507	391.69
381.733	391.69
381.958	413.69
382.184	387.69
382.409	405.69
382.634	401.69
382.86	416.69
383.085	415.69
383.31	410.69
383.535	436.69
383.761	450.69
383.986	419.69
384.211	404.69
384.436	435.69
384.662	444.69
384.887	420.69
385.112	417.69
385.337	436.69
385.562	437.69
385.787	434.69
386.013	452.69
386.238	449.69
386.463	456.69
386.688	453.69
386.913	449.69
387.138	436.69
387.363	431.69
387.588	464.69
387.813	472.69
388.038	469.69
388.263	446.69
388.488	455.69
388.713	465.69
388.938	438.69
389.163	451.69
389.387	453.69
389.612	445.69
389.837	421.69
390.062	433.69
390.287	448.69
390.512	422.69
390.736	431.69
390.961	446.69
391.186	453.69
391.411	442.69
391.636	454.69
391.86	476.69
392.085	475.69
392.31	485.69
392.534	468.69
392.759	471.69
392.984	462.69
393.208	454.69
393.433	454.69
393.658	462.69
393.882	459.69
394.107	457.69
394.331	468.69
394.556	462.69
394.78	446.69
395.005	464.69
395.229	458.69
395.454	476.69
395.678	491.69
395.903	487.69
396.127	492.69
396.352	499.69
396.576	489.69
396.801	465.69
397.025	463.69
397.249	486.69
397.474	465.69
397.698	493.69
397.922	489.69
398.147	498.69
398.371	523.69
398.595	530.69
398.82	527.69
399.044	537.69
399.268	575.69
399.492	601.69
399.717	659.69
399.941	646.69
400.165	663.69
400.389	647.69
400.613	601.69
400.837	584.69
401.062	540.69
401.286	525.69
401.51	513.69
401.734	501.69
401.958	538.69
402.182	539.69
402.406	535.69
402.63	555.69
402.854	537.69
403.078	521.69
403.302	565.69
403.526	574.69
403.75	557.69
403.974	555.69
404.198	562.69
404.422	547.69
404.645	568.69
404.869	542.69
405.093	595.69
405.317	598.69
405.541	620.69
405.765	565.69
405.988	558.69
406.212	586.69
406.436	566.69
406.66	608.69
406.883	595.69
407.107	618.69
407.331	645.69
407.555	668.69
407.778	667.69
408.002	634.69
408.226	615.69
408.449	573.69
408.673	587.69
408.896	594.69
409.12	625.69
409.344	599.69
409.567	565.69
409.791	553.69
410.014	559.69
410.238	582.69
410.461	569.69
410.685	561.69
410.908	543.69
411.132	590.69
411.355	573.69
411.578	585.69
411.802	522.69
412.025	546.69
412.249	524.69
412.472	555.69
412.695	564.69
412.919	564.69
413.142	533.69
413.365	536.69
413.589	527.69
413.812	499.69
414.035	510.69
414.258	497.69
414.482	512.69
414.705	530.69
414.928	535.69
415.151	511.69
415.374	508.69
415.597	507.69
415.821	506.69
416.044	502.69
416.267	511.69
416.49	518.69
416.713	497.69
416.936	499.69
417.159	501.69
417.382	505.69
417.605	519.69
417.828	497.69
418.051	537.69
418.274	525.69
418.497	529.69
418.72	517.69
418.943	517.69
419.166	518.69
419.389	565.69
419.611	550.69
419.834	561.69
420.057	534.69
420.28	517.69
420.503	529.69
420.726	520.69
420.948	515.69
421.171	539.69
421.394	581.69
421.617	532.69
421.839	519.69
422.062	525.69
422.285	515.69
422.507	550.69
422.73	638.69
422.953	580.69
423.175	563.69
423.398	530.69
423.621	547.69
423.843	550.69
424.066	563.69
424.288	556.69
424.511	562.69
424.733	593.69
424.956	647.69
425.178	633.69
425.401	606.69
425.623	603.69
425.846	562.69
426.068	534.69
426.291	499.69
426.513	533.69
426.735	516.69
426.958	549.69
427.18	611.69
427.402	691.69
427.625	713.69
427.847	658.69
428.069	588.69
428.292	549.69
428.514	503.69
428.736	506.69
428.958	494.69
429.181	512.69
429.403	494.69
429.625	500.69
429.847	516.69
430.069	553.69
430.292	563.69
430.514	498.69
430.736	476.69
430.958	494.69
431.18	483.69
431.402	485.69
431.624	479.69
431.846	479.69
432.068	476.69
432.29	491.69
432.512	490.69
432.734	469.69
432.956	502.69
433.178	491.69
433.4	493.69
433.622	488.69
433.844	501.69
434.066	489.69
434.287	481.69
434.509	513.69
434.731	507.69
434.953	526.69
435.175	515.69
435.397	531.69
435.618	524.69
435.84	551.69
436.062	614.69
436.284	645.69
436.505	552.69
436.727	515.69
436.949	507.69
437.17	502.69
437.392	515.69
437.614	490.69
437.835	527.69
438.057	567.69
438.278	601.69
438.5	642.69
438.721	671.69
438.943	647.69
439.165	535.69
439.386	535.69
439.608	523.69
439.829	517.69
440.05	519.69
440.272	526.69
440.493	541.69
440.715	530.69
440.936	498.69
441.158	487.69
441.379	500.69
441.6	523.69
441.822	520.69
442.043	559.69
442.264	610.69
442.486	639.69
442.707	547.69
442.928	551.69
443.149	530.69
443.371	526.69
443.592	571.69
443.813	639.69
444.034	661.69
444.255	631.69
444.476	577.69
444.698	567.69
444.919	554.69
445.14	693.69
445.361	617.69
445.582	569.69
445.803	568.69
446.024	628.69
446.245	601.69
446.466	580.69
446.687	523.69
446.908	520.69
447.129	508.69
447.35	497.69
447.571	494.69
447.792	490.69
448.013	482.69
448.234	482.69
448.455	507.69
448.675	591.69
448.896	665.69
449.117	557.69
449.338	538.69
449.559	606.69
449.779	682.69
450	569.69
450.221	506.69
450.442	486.69
450.662	470.69
450.883	483.69
451.104	458.69
451.324	457.69
451.545	455.69
451.766	438.69
451.986	449.69
452.207	430.69
452.428	429.69
452.648	442.69
452.869	407.69
453.089	440.69
453.31	435.69
453.53	455.69
453.751	446.69
453.971	431.69
454.192	439.69
454.412	417.69
454.633	421.69
454.853	421.69
455.073	413.69
455.294	442.69
455.514	482.69
455.734	456.69
455.955	426.69
456.175	465.69
456.395	442.69
456.616	417.69
456.836	420.69
457.056	420.69
457.276	423.69
457.497	436.69
457.717	429.69
457.937	437.69
458.157	438.69
458.377	438.69
458.598	441.69
458.818	467.69
459.038	514.69
459.258	507.69
459.478	503.69
459.698	492.69
459.918	487.69
460.138	516.69
460.358	509.69
460.578	504.69
460.798	491.69
461.018	513.69
461.238	524.69
461.458	526.69
461.678	519.69
461.898	538.69
462.118	528.69
462.338	541.69
462.558	550.69
462.777	574.69
462.997	605.69
463.217	612.69
463.437	620.69
463.657	593.69
463.876	595.69
464.096	574.69
464.316	569.69
464.536	545.69
464.755	547.69
464.975	534.69
465.195	556.69
465.414	548.69
465.634	530.69
465.854	505.69
466.073	497.69
466.293	475.69
466.512	452.69
466.732	470.69
466.951	470.69
467.171	463.69
467.391	459.69
467.61	457.69
467.829	468.69
468.049	451.69
468.268	462.69
468.488	445.69
468.707	454.69
468.927	450.69
469.146	433.69
469.365	462.69
469.585	436.69
469.804	436.69
470.023	458.69
470.243	461.69
470.462	451.69
470.681	467.69
470.901	466.69
471.12	457.69
471.339	457.69
471.558	460.69
471.777	471.69
471.997	462.69
472.216	434.69
472.435	489.69
472.654	452.69
472.873	468.69
473.092	442.69
473.311	456.69
473.53	464.69
473.749	446.69
473.968	482.69
474.187	527.69
474.406	540.69
474.625	473.69
474.844	474.69
475.063	444.69
475.282	453.69
475.501	457.69
475.72	470.69
475.939	471.69
476.158	470.69
476.377	469.69
476.596	470.69
476.814	462.69
477.033	482.69
477.252	471.69
477.471	478.69
477.69	500.69
477.908	492.69
478.127	519.69
478.346	522.69
478.564	525.69
478.783	533.69
479.002	558.69
479.22	554.69
479.439	536.69
479.658	539.69
479.876	551.69
480.095	553.69
480.313	605.69
480.532	597.69
480.751	599.69
480.969	574.69
481.188	577.69
481.406	595.69
481.624	556.69
481.843	535.69
482.061	541.69
482.28	527.69
482.498	510.69
482.717	537.69
482.935	537.69
483.153	530.69
483.372	519.69
483.59	569.69
483.808	545.69
484.027	555.69
484.245	552.69
484.463	565.69
484.681	601.69
484.9	557.69
485.118	542.69
485.336	554.69
485.554	577.69
485.772	551.69
485.99	549.69
486.209	563.69
486.427	566.69
486.645	525.69
486.863	565.69
487.081	572.69
487.299	568.69
487.517	569.69
487.735	569.69
487.953	558.69
488.171	577.69
488.389	550.69
488.607	572.69
488.825	561.69
489.043	569.69
489.261	574.69
489.479	570.69
489.696	600.69
489.914	590.69
490.132	604.69
490.35	595.69
490.568	605.69
490.786	568.69
491.003	593.69
491.221	574.69
491.439	593.69
491.657	575.69
491.874	606.69
492.092	609.69
492.31	618.69
492.527	620.69
492.745	598.69
492.963	622.69
493.18	629.69
493.398	637.69
493.615	612.69
493.833	633.69
494.05	622.69
494.268	626.69
494.485	611.69
494.703	648.69
494.92	641.69
495.138	623.69
495.355	627.69
495.573	634.69
495.79	638.69
496.008	627.69
496.225	650.69
496.442	660.69
496.66	664.69
496.877	637.69
497.094	670.69
497.312	668.69
497.529	671.69
497.746	691.69
497.963	712.69
498.181	706.69
498.398	761.69
498.615	791.69
498.832	782.69
499.049	820.69
499.267	847.69
499.484	899.69
499.701	947.69
499.918	998.69
500.135	1062.69
500.352	1153.69
500.569	1180.69
500.786	1187.69
501.003	1147.69
501.22	1095.69
501.437	1021.69
501.654	946.69
501.871	913.69
502.088	884.69
502.305	817.69
502.522	821.69
502.739	778.69
502.956	753.69
503.172	743.69
503.389	702.69
503.606	709.69
503.823	690.69
504.04	679.69
504.256	680.69
504.473	685.69
504.69	678.69
504.907	669.69
505.123	669.69
505.34	635.69
505.557	610.69
505.773	595.69
505.99	631.69
506.207	609.69
506.423	613.69
506.64	595.69
506.856	579.69
507.073	599.69
507.289	577.69
507.506	565.69
507.722	565.69
507.939	573.69
508.155	563.69
508.372	589.69
508.588	537.69
508.805	557.69
509.021	551.69
509.238	541.69
509.454	585.69
509.67	533.69
509.887	553.69
510.103	568.69
510.319	565.69
510.536	589.69
510.752	766.69
510.968	664.69
511.184	548.69
511.401	556.69
511.617	536.69
511.833	534.69
512.049	507.69
512.265	526.69
512.481	530.69
512.698	503.69
512.914	539.69
513.13	537.69
513.346	508.69
513.562	542.69
513.778	536.69
513.994	541.69
514.21	529.69
514.426	553.69
514.642	550.69
514.858	577.69
515.074	574.69
515.29	606.69
515.506	722.69
515.721	659.69
515.937	575.69
516.153	574.69
516.369	583.69
516.585	587.69
516.801	572.69
517.016	587.69
517.232	585.69
517.448	597.69
517.664	604.69
517.879	605.69
518.095	627.69
518.311	607.69
518.527	629.69
518.742	598.69
518.958	581.69
519.173	582.69
519.389	555.69
519.605	558.69
519.82	554.69
520.036	546.69
520.251	559.69
520.467	550.69
520.682	552.69
520.898	559.69
521.113	536.69
521.329	553.69
521.544	570.69
521.76	627.69
521.975	787.69
522.19	798.69
522.406	606.69
522.621	518.69
522.836	522.69
523.052	511.69
523.267	491.69
523.482	469.69
523.698	473.69
523.913	504.69
524.128	511.69
524.343	494.69
524.559	484.69
524.774	459.69
524.989	481.69
525.204	488.69
525.419	467.69
525.634	489.69
525.849	457.69
526.064	455.69
526.28	478.69
526.495	491.69
526.71	486.69
526.925	465.69
527.14	474.69
527.355	467.69
527.57	474.69
527.785	471.69
527.999	457.69
528.214	462.69
528.429	458.69
528.644	455.69
528.859	451.69
529.074	449.69
529.289	468.69
529.503	490.69
529.718	485.69
529.933	454.69
530.148	453.69
530.363	448.69
530.577	467.69
530.792	445.69
531.007	474.69
531.221	465.69
531.436	460.69
531.651	462.69
531.865	456.69
532.08	447.69
532.295	444.69
532.509	454.69
532.724	444.69
532.938	465.69
533.153	434.69
533.367	464.69
533.582	443.69
533.796	440.69
534.011	428.69
534.225	454.69
534.44	449.69
534.654	447.69
534.868	445.69
535.083	447.69
535.297	453.69
535.511	473.69
535.726	447.69
535.94	443.69
536.154	438.69
536.369	456.69
536.583	456.69
536.797	423.69
537.011	453.69
537.225	414.69
537.44	445.69
537.654	424.69
537.868	439.69
538.082	430.69
538.296	414.69
538.51	408.69
538.724	445.69
538.938	422.69
539.153	445.69
539.367	437.69
539.581	440.69
539.795	416.69
540.009	440.69
540.222	423.69
540.436	423.69
540.65	413.69
540.864	427.69
541.078	453.69
541.292	440.69
541.506	430.69
541.72	428.69
541.934	409.69
542.147	438.69
542.361	394.69
542.575	421.69
542.789	418.69
543.002	415.69
543.216	417.69
543.43	422.69
543.644	418.69
543.857	435.69
544.071	423.69
544.285	434.69
544.498	419.69
544.712	415.69
544.925	434.69
545.139	414.69
545.352	418.69
545.566	421.69
545.779	451.69
545.993	426.69
546.206	407.69
546.42	427.69
546.633	441.69
546.847	443.69
547.06	429.69
547.274	437.69
547.487	413.69
547.7	419.69
547.914	431.69
548.127	425.69
548.34	417.69
548.554	432.69
548.767	407.69
548.98	417.69
549.193	421.69
549.407	449.69
549.62	438.69
549.833	433.69
550.046	431.69
550.259	422.69
550.473	415.69
550.686	426.69
550.899	419.69
551.112	421.69
551.325	400.69
551.538	424.69
551.751	430.69
551.964	422.69
552.177	436.69
552.39	417.69
552.603	423.69
552.816	438.69
553.029	446.69
553.242	410.69
553.455	442.69
553.667	457.69
553.88	426.69
554.093	439.69
554.306	430.69
554.519	442.69
554.732	435.69
554.944	405.69
555.157	396.69
555.37	389.69
555.583	411.69
555.795	424.69
556.008	376.69
556.221	422.69
556.433	385.69
556.646	385.69
556.859	383.69
557.071	383.69
557.284	376.69
557.496	379.69
557.709	390.69
557.921	383.69
558.134	394.69
558.346	383.69
558.559	389.69
558.771	381.69
558.984	363.69
559.196	372.69
559.409	385.69
559.621	358.69
559.833	377.69
560.046	382.69
560.258	371.69
560.47	387.69
560.683	380.69
560.895	372.69
561.107	377.69
561.32	365.69
561.532	369.69
561.744	383.69
561.956	367.69
562.168	365.69
562.381	386.69
562.593	385.69
562.805	377.69
563.017	392.69
563.229	390.69
563.441	371.69
563.653	383.69
563.865	375.69
564.077	405.69
564.289	375.69
564.501	387.69
564.713	401.69
564.925	416.69
565.137	408.69
565.349	418.69
565.561	405.69
565.773	441.69
565.985	454.69
566.197	461.69
566.408	473.69
566.62	482.69
566.832	501.69
567.044	516.69
567.255	534.69
567.467	526.69
567.679	561.69
567.891	580.69
568.102	580.69
568.314	542.69
568.526	529.69
568.737	489.69
568.949	483.69
569.161	458.69
569.372	413.69
569.584	431.69
569.795	412.69
570.007	422.69
570.218	403.69
570.43	413.69
570.641	411.69
570.853	392.69
571.064	386.69
571.276	375.69
571.487	381.69
571.698	369.69
571.91	358.69
572.121	371.69
572.333	358.69
572.544	355.69
572.755	362.69
572.966	358.69
573.178	355.69
573.389	362.69
573.6	312.69
573.811	334.69
574.023	323.69
574.234	325.69
574.445	337.69
574.656	334.69
574.867	327.69
575.078	338.69
575.289	347.69
575.501	334.69
575.712	329.69
575.923	332.69
576.134	318.69
576.345	311.69
576.556	307.69
576.767	331.69
576.978	325.69
577.188	337.69
577.399	319.69
577.61	333.69
577.821	331.69
578.032	297.69
578.243	329.69
578.454	400.69
578.665	342.69
578.875	301.69
579.086	300.69
579.297	292.69
579.508	307.69
579.718	289.69
579.929	323.69
580.14	297.69
580.35	287.69
580.561	294.69
580.772	285.69
580.982	311.69
581.193	316.69
581.403	303.69
581.614	293.69
581.825	293.69
582.035	298.69
582.246	308.69
582.456	296.69
582.667	271.69
582.877	291.69
583.087	310.69
583.298	310.69
583.508	308.69
583.719	299.69
583.929	309.69
584.139	293.69
584.35	287.69
584.56	294.69
584.77	290.69
584.981	300.69
585.191	294.69
585.401	287.69
585.611	289.69
585.821	294.69
586.032	299.69
586.242	294.69
586.452	329.69
586.662	307.69
586.872	301.69
587.082	300.69
587.292	302.69
587.502	291.69
587.713	271.69
587.923	279.69
588.133	285.69
588.343	301.69
588.553	298.69
588.762	286.69
588.972	314.69
589.182	373.69
589.392	374.69
589.602	324.69
589.812	361.69
590.022	330.69
590.232	285.69
590.441	303.69
590.651	284.69
590.861	275.69
591.071	299.69
591.281	284.69
591.49	311.69
591.7	296.69
591.91	313.69
592.119	313.69
592.329	310.69
592.539	351.69
592.748	331.69
592.958	329.69
593.167	325.69
593.377	322.69
593.587	346.69
593.796	330.69
594.006	354.69
594.215	335.69
594.424	333.69
594.634	349.69
594.843	334.69
595.053	324.69
595.262	311.69
595.472	302.69
595.681	307.69
595.89	309.69
596.1	294.69
596.309	289.69
596.518	278.69
596.727	270.69
596.937	258.69
597.146	278.69
597.355	274.69
597.564	265.69
597.774	276.69
597.983	269.69
598.192	271.69
598.401	287.69
598.61	278.69
598.819	266.69
599.028	252.69
599.237	259.69
599.446	261.69
599.655	269.69
599.864	255.69
600.073	263.69
600.282	258.69
600.491	255.69
600.7	256.69
600.909	239.69
601.118	273.69
601.327	271.69
601.536	226.69
601.745	258.69
601.953	236.69
602.162	246.69
602.371	245.69
602.58	230.69
602.789	246.69
602.997	235.69
603.206	261.69
603.415	237.69
603.623	243.69
603.832	236.69
604.041	242.69
604.249	243.69
604.458	247.69
604.666	248.69
604.875	252.69
605.084	247.69
605.292	234.69
605.501	223.69
605.709	228.69
605.918	244.69
606.126	231.69
606.334	240.69
606.543	246.69
606.751	247.69
606.96	246.69
607.168	236.69
607.376	218.69
607.585	241.69
607.793	223.69
608.001	237.69
608.21	230.69
608.418	235.69
608.626	243.69
608.834	233.69
609.043	226.69
609.251	226.69
609.459	228.69
609.667	235.69
609.875	230.69
610.083	228.69
610.291	238.69
610.499	229.69
610.707	247.69
610.916	245.69
611.124	257.69
611.332	247.69
611.54	251.69
611.748	252.69
611.955	230.69
612.163	231.69
612.371	222.69
612.579	226.69
612.787	227.69
612.995	243.69
613.203	225.69
613.411	230.69
613.618	218.69
613.826	234.69
614.034	216.69
614.242	220.69
614.449	242.69
614.657	240.69
614.865	219.69
615.072	219.69
615.28	230.69
615.488	229.69
615.695	238.69
615.903	241.69
616.111	230.69
616.318	237.69
616.526	243.69
616.733	221.69
616.941	236.69
617.148	215.69
617.356	223.69
617.563	227.69
617.771	226.69
617.978	232.69
618.185	246.69
618.393	221.69
618.6	221.69
618.807	231.69
619.015	230.69
619.222	225.69
619.429	227.69
619.637	219.69
619.844	226.69
620.051	224.69
620.258	222.69
620.466	214.69
620.673	210.69
620.88	212.69
621.087	223.69
621.294	236.69
621.501	229.69
621.708	228.69
621.915	229.69
622.122	222.69
622.329	239.69
622.536	216.69
622.743	223.69
622.95	230.69
623.157	205.69
623.364	203.69
623.571	212.69
623.778	199.69
623.985	205.69
624.192	201.69
624.399	200.69
624.606	208.69
624.812	212.69
625.019	216.69
625.226	221.69
625.433	205.69
625.639	193.69
625.846	214.69
626.053	206.69
626.259	196.69
626.466	209.69
626.673	227.69
626.879	203.69
627.086	197.69
627.293	203.69
627.499	201.69
627.706	207.69
627.912	201.69
628.119	207.69
628.325	192.69
628.532	198.69
628.738	193.69
628.945	198.69
629.151	199.69
629.357	192.69
629.564	190.69
629.77	189.69
629.976	190.69
630.183	189.69
630.389	186.69
630.595	205.69
630.802	182.69
631.008	190.69
631.214	190.69
631.42	195.69
631.627	197.69
631.833	186.69
632.039	185.69
632.245	191.69
632.451	210.69
632.657	198.69
632.863	179.69
633.069	193.69
633.275	173.69
633.481	185.69
633.688	197.69
633.893	193.69
634.099	186.69
634.305	187.69
634.511	181.69
634.717	172.69
634.923	186.69
635.129	178.69
635.335	182.69
635.541	175.69
635.747	168.69
635.952	188.69
636.158	185.69
636.364	183.69
636.57	191.69
636.775	192.69
636.981	182.69
637.187	201.69
637.392	179.69
637.598	178.69
637.804	175.69
638.009	181.69
638.215	178.69
638.421	177.69
638.626	157.69
638.832	164.69
639.037	173.69
639.243	178.69
639.448	180.69
639.654	173.69
639.859	158.69
640.065	186.69
640.27	155.69
640.475	175.69
640.681	187.69
640.886	165.69
641.091	173.69
641.297	164.69
641.502	172.69
641.707	160.69
641.913	178.69
642.118	164.69
642.323	159.69
642.528	173.69
642.733	158.69
642.939	183.69
643.144	183.69
643.349	171.69
643.554	159.69
643.759	158.69
643.964	173.69
644.169	158.69
644.374	167.69
644.579	165.69
644.784	165.69
644.989	174.69
645.194	161.69
645.399	186.69
645.604	171.69
645.809	177.69
646.014	174.69
646.219	161.69
646.423	153.69
646.628	171.69
646.833	182.69
647.038	157.69
647.243	181.69
647.447	183.69
647.652	179.69
647.857	171.69
648.062	165.69
648.266	167.69
648.471	160.69
648.676	166.69
648.88	191.69
649.085	173.69
649.289	157.69
649.494	162.69
649.698	166.69
649.903	174.69
650.107	170.69
650.312	169.69
650.516	145.69
650.721	169.69
650.925	179.69
651.13	149.69
651.334	168.69
651.539	159.69
651.743	161.69
651.947	160.69
652.152	149.69
652.356	150.69
652.56	161.69
652.764	148.69
652.969	133.69
653.173	138.69
653.377	153.69
653.581	161.69
653.785	139.69
653.99	140.69
654.194	153.69
654.398	143.69
654.602	147.69
654.806	148.69
655.01	145.69
655.214	145.69
655.418	143.69
655.622	139.69
655.826	139.69
656.03	151.69
656.234	147.69
656.438	162.69
656.642	174.69
656.846	154.69
657.049	142.69
657.253	148.69
657.457	143.69
657.661	125.69
657.865	120.69
658.068	131.69
658.272	108.69
658.476	100.69
658.68	107.69
658.883	114.69
659.087	121.69
659.291	129.69
659.494	104.69
659.698	87.69
659.901	108.69
660.105	105.69
660.309	98.69
660.512	112.69
660.716	117.69
660.919	90.69
661.123	91.69
661.326	91.69
661.53	105.69
661.733	87.69
661.936	94.69
662.14	93.69
662.343	91.69
662.546	90.69
662.75	89.69
662.953	89.69
663.156	92.69
663.36	80.69
663.563	91.69
663.766	88.69
663.969	83.69
664.173	85.69
664.376	85.69
664.579	72.69
664.782	86.69
664.985	95.69
665.188	81.69
665.391	86.69
665.594	105.69
665.797	84.69
666	87.69
666.203	74.69
666.406	91.69
666.609	85.69
666.812	82.69
667.015	85.69
667.218	85.69
667.421	68.69
667.624	79.69
667.827	94.69
668.03	80.69
668.232	75.69
668.435	72.69
668.638	93.69
668.841	94.69
669.043	84.69
669.246	78.69
669.449	85.69
669.651	90.69
669.854	94.69
670.057	92.69
670.259	86.69
670.462	86.69
670.665	100.69
670.867	82.69
671.07	78.69
671.272	84.69
671.475	90.69
671.677	94.69
671.88	94.69
672.082	86.69
672.284	74.69
672.487	79.69
672.689	92.69
672.892	92.69
