Data from 1963.PennyLincolnUp.Lamp.En5.5.200Scan.071719.P1._HRD10591_13-57-15-063.txt Node
Date: Thu Jul 18 13:57:15 EDT 2019
User: cochatt
Spectrometer: HR+D1059
Trigger mode: 1
Integration Time (sec): 1.000000E-1
Scans to average: 1
Electric dark correction enabled: true
Nonlinearity correction enabled: false
Boxcar width: 0
XAxis mode: Wavelengths
Number of Pixels in Spectrum: 2048
>>>>>Begin Spectral Data<<<<<
223.165	6.88
223.4	6.88
223.635	6.88
223.869	-10.12
224.104	-24.12
224.338	-19.12
224.573	-10.12
224.808	-12.12
225.042	-16.12
225.277	-5.12
225.511	-4.12
225.746	-1.12
225.98	4.88
226.215	11.88
226.449	7.88
226.683	21.88
226.918	18.88
227.152	29.88
227.387	40.88
227.621	33.88
227.856	34.88
228.09	55.88
228.324	54.88
228.559	52.88
228.793	58.88
229.027	97.88
229.262	93.88
229.496	113.88
229.73	105.88
229.964	131.88
230.199	104.88
230.433	111.88
230.667	100.88
230.901	108.88
231.136	100.88
231.37	103.88
231.604	98.88
231.838	107.88
232.072	127.88
232.306	131.88
232.541	135.88
232.775	122.88
233.009	118.88
233.243	114.88
233.477	116.88
233.711	125.88
233.945	125.88
234.179	121.88
234.413	130.88
234.647	122.88
234.881	124.88
235.115	123.88
235.349	117.88
235.583	112.88
235.817	129.88
236.051	120.88
236.285	118.88
236.519	125.88
236.753	120.88
236.987	126.88
237.221	161.88
237.455	181.88
237.689	169.88
237.922	120.88
238.156	119.88
238.39	131.88
238.624	137.88
238.858	129.88
239.091	115.88
239.325	125.88
239.559	141.88
239.793	123.88
240.027	129.88
240.26	151.88
240.494	134.88
240.728	136.88
240.961	132.88
241.195	151.88
241.429	141.88
241.662	143.88
241.896	155.88
242.13	137.88
242.363	139.88
242.597	145.88
242.83	147.88
243.064	134.88
243.298	144.88
243.531	155.88
243.765	150.88
243.998	149.88
244.232	148.88
244.465	146.88
244.699	166.88
244.932	154.88
245.166	141.88
245.399	160.88
245.633	171.88
245.866	157.88
246.099	162.88
246.333	148.88
246.566	150.88
246.8	177.88
247.033	167.88
247.266	155.88
247.5	166.88
247.733	170.88
247.966	181.88
248.2	174.88
248.433	162.88
248.666	163.88
248.899	174.88
249.133	186.88
249.366	180.88
249.599	199.88
249.832	185.88
250.066	189.88
250.299	188.88
250.532	191.88
250.765	185.88
250.998	207.88
251.231	231.88
251.465	214.88
251.698	214.88
251.931	204.88
252.164	202.88
252.397	208.88
252.63	203.88
252.863	204.88
253.096	202.88
253.329	202.88
253.562	206.88
253.795	229.88
254.028	216.88
254.261	210.88
254.494	214.88
254.727	238.88
254.96	224.88
255.193	248.88
255.426	222.88
255.659	230.88
255.892	222.88
256.124	226.88
256.357	218.88
256.59	196.88
256.823	207.88
257.056	204.88
257.289	204.88
257.521	213.88
257.754	227.88
257.987	215.88
258.22	222.88
258.452	224.88
258.685	222.88
258.918	215.88
259.151	218.88
259.383	224.88
259.616	230.88
259.849	240.88
260.081	218.88
260.314	251.88
260.547	243.88
260.779	245.88
261.012	232.88
261.244	243.88
261.477	241.88
261.71	228.88
261.942	240.88
262.175	236.88
262.407	225.88
262.64	227.88
262.872	229.88
263.105	234.88
263.337	230.88
263.57	223.88
263.802	219.88
264.035	217.88
264.267	233.88
264.499	251.88
264.732	238.88
264.964	234.88
265.197	225.88
265.429	225.88
265.661	223.88
265.894	233.88
266.126	235.88
266.358	229.88
266.591	233.88
266.823	246.88
267.055	221.88
267.287	259.88
267.52	233.88
267.752	238.88
267.984	241.88
268.216	252.88
268.448	270.88
268.681	271.88
268.913	249.88
269.145	269.88
269.377	282.88
269.609	284.88
269.841	280.88
270.073	274.88
270.306	276.88
270.538	302.88
270.77	309.88
271.002	296.88
271.234	282.88
271.466	296.88
271.698	274.88
271.93	300.88
272.162	310.88
272.394	309.88
272.626	278.88
272.858	287.88
273.09	284.88
273.322	282.88
273.553	262.88
273.785	278.88
274.017	285.88
274.249	278.88
274.481	284.88
274.713	291.88
274.945	302.88
275.176	283.88
275.408	291.88
275.64	305.88
275.872	292.88
276.104	310.88
276.335	286.88
276.567	295.88
276.799	283.88
277.031	311.88
277.262	315.88
277.494	316.88
277.726	301.88
277.957	309.88
278.189	307.88
278.421	307.88
278.652	275.88
278.884	285.88
279.115	309.88
279.347	322.88
279.579	310.88
279.81	311.88
280.042	305.88
280.273	283.88
280.505	292.88
280.736	319.88
280.968	297.88
281.199	320.88
281.431	284.88
281.662	327.88
281.894	302.88
282.125	328.88
282.356	317.88
282.588	301.88
282.819	310.88
283.051	304.88
283.282	303.88
283.513	297.88
283.745	340.88
283.976	314.88
284.207	329.88
284.439	317.88
284.67	339.88
284.901	324.88
285.132	319.88
285.364	330.88
285.595	327.88
285.826	333.88
286.057	319.88
286.288	331.88
286.52	317.88
286.751	317.88
286.982	325.88
287.213	313.88
287.444	311.88
287.675	323.88
287.906	328.88
288.138	356.88
288.369	343.88
288.6	336.88
288.831	341.88
289.062	323.88
289.293	346.88
289.524	349.88
289.755	357.88
289.986	333.88
290.217	330.88
290.448	352.88
290.679	344.88
290.91	356.88
291.141	343.88
291.371	348.88
291.602	343.88
291.833	329.88
292.064	366.88
292.295	341.88
292.526	350.88
292.757	340.88
292.987	347.88
293.218	336.88
293.449	347.88
293.68	350.88
293.91	335.88
294.141	344.88
294.372	334.88
294.603	359.88
294.833	339.88
295.064	354.88
295.295	345.88
295.525	362.88
295.756	353.88
295.987	355.88
296.217	362.88
296.448	357.88
296.679	334.88
296.909	346.88
297.14	356.88
297.37	376.88
297.601	362.88
297.831	359.88
298.062	375.88
298.292	381.88
298.523	376.88
298.753	352.88
298.984	362.88
299.214	370.88
299.445	379.88
299.675	379.88
299.905	372.88
300.136	382.88
300.366	386.88
300.597	379.88
300.827	373.88
301.057	381.88
301.288	396.88
301.518	393.88
301.748	394.88
301.979	396.88
302.209	394.88
302.439	375.88
302.669	403.88
302.9	390.88
303.13	383.88
303.36	381.88
303.59	382.88
303.82	405.88
304.051	384.88
304.281	388.88
304.511	411.88
304.741	397.88
304.971	383.88
305.201	389.88
305.431	397.88
305.661	386.88
305.891	369.88
306.121	379.88
306.352	391.88
306.582	388.88
306.812	391.88
307.042	398.88
307.272	381.88
307.502	397.88
307.731	386.88
307.961	389.88
308.191	360.88
308.421	401.88
308.651	382.88
308.881	392.88
309.111	397.88
309.341	383.88
309.571	391.88
309.8	409.88
310.03	403.88
310.26	388.88
310.49	389.88
310.72	414.88
310.949	417.88
311.179	417.88
311.409	422.88
311.639	408.88
311.868	409.88
312.098	422.88
312.328	424.88
312.557	424.88
312.787	435.88
313.017	423.88
313.246	442.88
313.476	422.88
313.706	417.88
313.935	424.88
314.165	437.88
314.394	424.88
314.624	459.88
314.853	422.88
315.083	433.88
315.312	428.88
315.542	436.88
315.771	454.88
316.001	439.88
316.23	439.88
316.46	429.88
316.689	436.88
316.919	428.88
317.148	426.88
317.377	434.88
317.607	433.88
317.836	418.88
318.065	456.88
318.295	427.88
318.524	423.88
318.753	420.88
318.983	444.88
319.212	429.88
319.441	439.88
319.67	422.88
319.9	413.88
320.129	407.88
320.358	431.88
320.587	428.88
320.816	439.88
321.046	426.88
321.275	430.88
321.504	447.88
321.733	451.88
321.962	447.88
322.191	441.88
322.42	443.88
322.649	453.88
322.878	423.88
323.108	460.88
323.337	466.88
323.566	473.88
323.795	504.88
324.024	485.88
324.253	543.88
324.482	635.88
324.71	840.88
324.939	1203.88
325.168	1035.88
325.397	639.88
325.626	541.88
325.855	494.88
326.084	488.88
326.313	467.88
326.542	477.88
326.77	511.88
326.999	523.88
327.228	618.88
327.457	827.88
327.686	982.88
327.914	703.88
328.143	574.88
328.372	543.88
328.6	500.88
328.829	501.88
329.058	524.88
329.287	527.88
329.515	482.88
329.744	489.88
329.972	506.88
330.201	492.88
330.43	519.88
330.658	511.88
330.887	518.88
331.115	511.88
331.344	486.88
331.572	497.88
331.801	531.88
332.03	535.88
332.258	506.88
332.486	526.88
332.715	527.88
332.943	551.88
333.172	565.88
333.4	579.88
333.629	561.88
333.857	569.88
334.085	577.88
334.314	570.88
334.542	590.88
334.771	587.88
334.999	575.88
335.227	566.88
335.455	574.88
335.684	550.88
335.912	551.88
336.14	526.88
336.369	547.88
336.597	531.88
336.825	533.88
337.053	540.88
337.281	510.88
337.51	522.88
337.738	531.88
337.966	535.88
338.194	521.88
338.422	510.88
338.65	514.88
338.878	534.88
339.106	509.88
339.334	517.88
339.562	500.88
339.79	477.88
340.018	502.88
340.246	488.88
340.474	489.88
340.702	495.88
340.93	507.88
341.158	493.88
341.386	490.88
341.614	503.88
341.842	477.88
342.07	466.88
342.298	460.88
342.526	471.88
342.754	468.88
342.981	502.88
343.209	500.88
343.437	519.88
343.665	521.88
343.893	554.88
344.12	572.88
344.348	540.88
344.576	535.88
344.804	531.88
345.031	512.88
345.259	520.88
345.487	503.88
345.714	476.88
345.942	497.88
346.17	489.88
346.397	482.88
346.625	480.88
346.853	474.88
347.08	468.88
347.308	461.88
347.535	466.88
347.763	482.88
347.99	462.88
348.218	480.88
348.445	487.88
348.673	479.88
348.9	497.88
349.128	482.88
349.355	472.88
349.583	498.88
349.81	462.88
350.037	430.88
350.265	463.88
350.492	483.88
350.72	471.88
350.947	482.88
351.174	476.88
351.402	466.88
351.629	482.88
351.856	469.88
352.083	473.88
352.311	470.88
352.538	447.88
352.765	471.88
352.992	473.88
353.22	472.88
353.447	467.88
353.674	464.88
353.901	473.88
354.128	463.88
354.355	466.88
354.583	449.88
354.81	454.88
355.037	462.88
355.264	468.88
355.491	476.88
355.718	469.88
355.945	448.88
356.172	455.88
356.399	452.88
356.626	470.88
356.853	460.88
357.08	476.88
357.307	453.88
357.534	452.88
357.761	455.88
357.988	466.88
358.215	463.88
358.441	459.88
358.668	495.88
358.895	446.88
359.122	459.88
359.349	458.88
359.576	472.88
359.802	489.88
360.029	493.88
360.256	472.88
360.483	483.88
360.709	460.88
360.936	463.88
361.163	461.88
361.39	480.88
361.616	470.88
361.843	455.88
362.07	478.88
362.296	481.88
362.523	450.88
362.749	470.88
362.976	463.88
363.203	466.88
363.429	476.88
363.656	466.88
363.882	457.88
364.109	472.88
364.335	446.88
364.562	453.88
364.788	470.88
365.015	477.88
365.241	467.88
365.468	470.88
365.694	478.88
365.92	466.88
366.147	473.88
366.373	463.88
366.599	456.88
366.826	463.88
367.052	451.88
367.278	447.88
367.505	457.88
367.731	454.88
367.957	469.88
368.184	470.88
368.41	468.88
368.636	462.88
368.862	464.88
369.089	473.88
369.315	459.88
369.541	472.88
369.767	477.88
369.993	507.88
370.219	470.88
370.445	482.88
370.672	482.88
370.898	482.88
371.124	462.88
371.35	480.88
371.576	482.88
371.802	482.88
372.028	473.88
372.254	498.88
372.48	499.88
372.706	521.88
372.932	523.88
373.158	477.88
373.384	488.88
373.61	483.88
373.835	490.88
374.061	486.88
374.287	498.88
374.513	497.88
374.739	510.88
374.965	519.88
375.191	517.88
375.416	531.88
375.642	533.88
375.868	514.88
376.094	513.88
376.319	500.88
376.545	492.88
376.771	480.88
376.997	491.88
377.222	504.88
377.448	500.88
377.674	489.88
377.899	498.88
378.125	501.88
378.35	506.88
378.576	490.88
378.802	499.88
379.027	490.88
379.253	493.88
379.478	469.88
379.704	477.88
379.929	495.88
380.155	475.88
380.38	475.88
380.606	500.88
380.831	466.88
381.057	482.88
381.282	511.88
381.507	509.88
381.733	503.88
381.958	521.88
382.184	506.88
382.409	508.88
382.634	528.88
382.86	513.88
383.085	539.88
383.31	536.88
383.535	523.88
383.761	526.88
383.986	529.88
384.211	537.88
384.436	530.88
384.662	545.88
384.887	554.88
385.112	557.88
385.337	575.88
385.562	574.88
385.787	567.88
386.013	589.88
386.238	566.88
386.463	598.88
386.688	582.88
386.913	582.88
387.138	574.88
387.363	592.88
387.588	553.88
387.813	579.88
388.038	563.88
388.263	582.88
388.488	590.88
388.713	548.88
388.938	556.88
389.163	559.88
389.387	554.88
389.612	568.88
389.837	557.88
390.062	592.88
390.287	555.88
390.512	566.88
390.736	558.88
390.961	556.88
391.186	567.88
391.411	593.88
391.636	586.88
391.86	597.88
392.085	617.88
392.31	607.88
392.534	603.88
392.759	605.88
392.984	610.88
393.208	629.88
393.433	673.88
393.658	692.88
393.882	589.88
394.107	576.88
394.331	589.88
394.556	601.88
394.78	614.88
395.005	618.88
395.229	607.88
395.454	596.88
395.678	632.88
395.903	632.88
396.127	642.88
396.352	638.88
396.576	613.88
396.801	638.88
397.025	672.88
397.249	640.88
397.474	605.88
397.698	597.88
397.922	614.88
398.147	630.88
398.371	635.88
398.595	648.88
398.82	672.88
399.044	705.88
399.268	733.88
399.492	817.88
399.717	863.88
399.941	923.88
400.165	888.88
400.389	834.88
400.613	757.88
400.837	719.88
401.062	710.88
401.286	710.88
401.51	684.88
401.734	653.88
401.958	681.88
402.182	681.88
402.406	713.88
402.63	698.88
402.854	709.88
403.078	719.88
403.302	722.88
403.526	738.88
403.75	738.88
403.974	784.88
404.198	737.88
404.422	771.88
404.645	746.88
404.869	734.88
405.093	758.88
405.317	764.88
405.541	796.88
405.765	749.88
405.988	780.88
406.212	750.88
406.436	738.88
406.66	759.88
406.883	746.88
407.107	792.88
407.331	840.88
407.555	910.88
407.778	864.88
408.002	833.88
408.226	808.88
408.449	791.88
408.673	772.88
408.896	781.88
409.12	783.88
409.344	775.88
409.567	734.88
409.791	726.88
410.014	751.88
410.238	714.88
410.461	729.88
410.685	726.88
410.908	742.88
411.132	730.88
411.355	736.88
411.578	731.88
411.802	702.88
412.025	706.88
412.249	725.88
412.472	718.88
412.695	724.88
412.919	713.88
413.142	714.88
413.365	673.88
413.589	683.88
413.812	690.88
414.035	671.88
414.258	638.88
414.482	670.88
414.705	702.88
414.928	702.88
415.151	676.88
415.374	686.88
415.597	689.88
415.821	666.88
416.044	695.88
416.267	676.88
416.49	659.88
416.713	645.88
416.936	677.88
417.159	674.88
417.382	653.88
417.605	669.88
417.828	673.88
418.051	687.88
418.274	655.88
418.497	675.88
418.72	666.88
418.943	667.88
419.166	713.88
419.389	731.88
419.611	726.88
419.834	715.88
420.057	707.88
420.28	715.88
420.503	677.88
420.726	668.88
420.948	675.88
421.171	684.88
421.394	704.88
421.617	660.88
421.839	667.88
422.062	691.88
422.285	681.88
422.507	719.88
422.73	789.88
422.953	773.88
423.175	699.88
423.398	717.88
423.621	696.88
423.843	716.88
424.066	719.88
424.288	703.88
424.511	722.88
424.733	737.88
424.956	791.88
425.178	770.88
425.401	777.88
425.623	780.88
425.846	723.88
426.068	698.88
426.291	657.88
426.513	696.88
426.735	677.88
426.958	682.88
427.18	735.88
427.402	791.88
427.625	872.88
427.847	733.88
428.069	684.88
428.292	677.88
428.514	622.88
428.736	641.88
428.958	639.88
429.181	643.88
429.403	636.88
429.625	619.88
429.847	622.88
430.069	660.88
430.292	677.88
430.514	630.88
430.736	623.88
430.958	625.88
431.18	614.88
431.402	601.88
431.624	606.88
431.846	596.88
432.068	605.88
432.29	609.88
432.512	613.88
432.734	648.88
432.956	619.88
433.178	614.88
433.4	616.88
433.622	637.88
433.844	622.88
434.066	610.88
434.287	616.88
434.509	646.88
434.731	639.88
434.953	669.88
435.175	673.88
435.397	670.88
435.618	697.88
435.84	675.88
436.062	748.88
436.284	775.88
436.505	695.88
436.727	669.88
436.949	656.88
437.17	639.88
437.392	622.88
437.614	620.88
437.835	649.88
438.057	671.88
438.278	723.88
438.5	759.88
438.721	801.88
438.943	774.88
439.165	677.88
439.386	657.88
439.608	642.88
439.829	639.88
440.05	655.88
440.272	674.88
440.493	675.88
440.715	668.88
440.936	666.88
441.158	662.88
441.379	623.88
441.6	667.88
441.822	689.88
442.043	701.88
442.264	743.88
442.486	733.88
442.707	712.88
442.928	673.88
443.149	667.88
443.371	713.88
443.592	711.88
443.813	790.88
444.034	835.88
444.255	750.88
444.476	729.88
444.698	750.88
444.919	767.88
445.14	878.88
445.361	768.88
445.582	713.88
445.803	724.88
446.024	770.88
446.245	770.88
446.466	739.88
446.687	677.88
446.908	668.88
447.129	642.88
447.35	630.88
447.571	624.88
447.792	581.88
448.013	642.88
448.234	601.88
448.455	606.88
448.675	687.88
448.896	749.88
449.117	656.88
449.338	657.88
449.559	739.88
449.779	801.88
450	670.88
450.221	631.88
450.442	579.88
450.662	584.88
450.883	577.88
451.104	574.88
451.324	583.88
451.545	567.88
451.766	568.88
451.986	554.88
452.207	563.88
452.428	569.88
452.648	563.88
452.869	546.88
453.089	549.88
453.31	566.88
453.53	571.88
453.751	551.88
453.971	549.88
454.192	588.88
454.412	557.88
454.633	547.88
454.853	542.88
455.073	541.88
455.294	581.88
455.514	602.88
455.734	578.88
455.955	535.88
456.175	531.88
456.395	554.88
456.616	535.88
456.836	521.88
457.056	534.88
457.276	541.88
457.497	532.88
457.717	539.88
457.937	561.88
458.157	555.88
458.377	558.88
458.598	576.88
458.818	599.88
459.038	650.88
459.258	661.88
459.478	623.88
459.698	631.88
459.918	638.88
460.138	662.88
460.358	678.88
460.578	684.88
460.798	700.88
461.018	694.88
461.238	690.88
461.458	667.88
461.678	699.88
461.898	694.88
462.118	723.88
462.338	731.88
462.558	740.88
462.777	757.88
462.997	805.88
463.217	846.88
463.437	843.88
463.657	812.88
463.876	799.88
464.096	798.88
464.316	747.88
464.536	787.88
464.755	746.88
464.975	716.88
465.195	741.88
465.414	700.88
465.634	656.88
465.854	644.88
466.073	611.88
466.293	616.88
466.512	590.88
466.732	601.88
466.951	597.88
467.171	604.88
467.391	600.88
467.61	601.88
467.829	601.88
468.049	589.88
468.268	578.88
468.488	570.88
468.707	584.88
468.927	595.88
469.146	600.88
469.365	603.88
469.585	579.88
469.804	623.88
470.023	605.88
470.243	596.88
470.462	599.88
470.681	620.88
470.901	654.88
471.12	606.88
471.339	613.88
471.558	598.88
471.777	604.88
471.997	590.88
472.216	585.88
472.435	608.88
472.654	585.88
472.873	590.88
473.092	617.88
473.311	586.88
473.53	577.88
473.749	587.88
473.968	617.88
474.187	642.88
474.406	655.88
474.625	641.88
474.844	590.88
475.063	593.88
475.282	594.88
475.501	593.88
475.72	581.88
475.939	577.88
476.158	610.88
476.377	591.88
476.596	606.88
476.814	617.88
477.033	632.88
477.252	635.88
477.471	633.88
477.69	651.88
477.908	694.88
478.127	678.88
478.346	681.88
478.564	703.88
478.783	689.88
479.002	697.88
479.22	690.88
479.439	735.88
479.658	731.88
479.876	743.88
480.095	721.88
480.313	779.88
480.532	797.88
480.751	780.88
480.969	761.88
481.188	771.88
481.406	739.88
481.624	709.88
481.843	712.88
482.061	720.88
482.28	700.88
482.498	701.88
482.717	687.88
482.935	677.88
483.153	699.88
483.372	681.88
483.59	697.88
483.808	675.88
484.027	694.88
484.245	690.88
484.463	701.88
484.681	708.88
484.9	696.88
485.118	689.88
485.336	679.88
485.554	730.88
485.772	729.88
485.99	728.88
486.209	711.88
486.427	706.88
486.645	724.88
486.863	728.88
487.081	712.88
487.299	740.88
487.517	741.88
487.735	714.88
487.953	713.88
488.171	742.88
488.389	744.88
488.607	738.88
488.825	727.88
489.043	731.88
489.261	732.88
489.479	733.88
489.696	734.88
489.914	737.88
490.132	749.88
490.35	739.88
490.568	733.88
490.786	761.88
491.003	757.88
491.221	793.88
491.439	773.88
491.657	757.88
491.874	783.88
492.092	780.88
492.31	804.88
492.527	805.88
492.745	812.88
492.963	807.88
493.18	833.88
493.398	801.88
493.615	850.88
493.833	804.88
494.05	819.88
494.268	851.88
494.485	834.88
494.703	827.88
494.92	838.88
495.138	814.88
495.355	855.88
495.573	841.88
495.79	829.88
496.008	828.88
496.225	853.88
496.442	841.88
496.66	853.88
496.877	845.88
497.094	871.88
497.312	878.88
497.529	878.88
497.746	928.88
497.963	937.88
498.181	968.88
498.398	995.88
498.615	1017.88
498.832	1051.88
499.049	1125.88
499.267	1215.88
499.484	1250.88
499.701	1349.88
499.918	1415.88
500.135	1559.88
500.352	1700.88
500.569	1763.88
500.786	1774.88
501.003	1647.88
501.22	1566.88
501.437	1461.88
501.654	1342.88
501.871	1275.88
502.088	1201.88
502.305	1151.88
502.522	1054.88
502.739	1037.88
502.956	1011.88
503.172	965.88
503.389	947.88
503.606	946.88
503.823	923.88
504.04	937.88
504.256	885.88
504.473	902.88
504.69	922.88
504.907	919.88
505.123	874.88
505.34	853.88
505.557	846.88
505.773	809.88
505.99	792.88
506.207	773.88
506.423	784.88
506.64	746.88
506.856	741.88
507.073	753.88
507.289	761.88
507.506	746.88
507.722	758.88
507.939	749.88
508.155	744.88
508.372	765.88
508.588	714.88
508.805	734.88
509.021	727.88
509.238	716.88
509.454	710.88
509.67	724.88
509.887	729.88
510.103	707.88
510.319	701.88
510.536	748.88
510.752	912.88
510.968	815.88
511.184	707.88
511.401	706.88
511.617	706.88
511.833	687.88
512.049	706.88
512.265	709.88
512.481	673.88
512.698	700.88
512.914	683.88
513.13	684.88
513.346	695.88
513.562	687.88
513.778	689.88
513.994	709.88
514.21	706.88
514.426	710.88
514.642	708.88
514.858	694.88
515.074	709.88
515.29	783.88
515.506	914.88
515.721	857.88
515.937	749.88
516.153	728.88
516.369	744.88
516.585	778.88
516.801	779.88
517.016	787.88
517.232	801.88
517.448	837.88
517.664	853.88
517.879	855.88
518.095	847.88
518.311	865.88
518.527	803.88
518.742	818.88
518.958	773.88
519.173	780.88
519.389	737.88
519.605	712.88
519.82	721.88
520.036	737.88
520.251	706.88
520.467	718.88
520.682	706.88
520.898	677.88
521.113	703.88
521.329	694.88
521.544	729.88
521.76	790.88
521.975	1019.88
522.19	1039.88
522.406	760.88
522.621	657.88
522.836	649.88
523.052	633.88
523.267	651.88
523.482	625.88
523.698	637.88
523.913	634.88
524.128	650.88
524.343	626.88
524.559	606.88
524.774	622.88
524.989	613.88
525.204	634.88
525.419	635.88
525.634	609.88
525.849	622.88
526.064	602.88
526.28	586.88
526.495	600.88
526.71	587.88
526.925	608.88
527.14	607.88
527.355	590.88
527.57	587.88
527.785	608.88
527.999	580.88
528.214	607.88
528.429	621.88
528.644	588.88
528.859	599.88
529.074	581.88
529.289	594.88
529.503	634.88
529.718	602.88
529.933	592.88
530.148	597.88
530.363	612.88
530.577	580.88
530.792	590.88
531.007	598.88
531.221	580.88
531.436	592.88
531.651	596.88
531.865	590.88
532.08	581.88
532.295	590.88
532.509	580.88
532.724	588.88
532.938	602.88
533.153	591.88
533.367	601.88
533.582	584.88
533.796	581.88
534.011	602.88
534.225	584.88
534.44	578.88
534.654	603.88
534.868	571.88
535.083	566.88
535.297	589.88
535.511	582.88
535.726	564.88
535.94	582.88
536.154	573.88
536.369	560.88
536.583	573.88
536.797	561.88
537.011	557.88
537.225	560.88
537.44	579.88
537.654	567.88
537.868	567.88
538.082	543.88
538.296	573.88
538.51	567.88
538.724	572.88
538.938	572.88
539.153	557.88
539.367	571.88
539.581	554.88
539.795	548.88
540.009	548.88
540.222	540.88
540.436	538.88
540.65	544.88
540.864	550.88
541.078	534.88
541.292	558.88
541.506	526.88
541.72	523.88
541.934	557.88
542.147	537.88
542.361	550.88
542.575	554.88
542.789	532.88
543.002	542.88
543.216	549.88
543.43	554.88
543.644	539.88
543.857	549.88
544.071	537.88
544.285	578.88
544.498	558.88
544.712	558.88
544.925	562.88
545.139	558.88
545.352	561.88
545.566	565.88
545.779	558.88
545.993	557.88
546.206	555.88
546.42	564.88
546.633	558.88
546.847	557.88
547.06	551.88
547.274	550.88
547.487	534.88
547.7	566.88
547.914	566.88
548.127	547.88
548.34	548.88
548.554	573.88
548.767	562.88
548.98	569.88
549.193	558.88
549.407	578.88
549.62	567.88
549.833	597.88
550.046	586.88
550.259	553.88
550.473	551.88
550.686	532.88
550.899	564.88
551.112	561.88
551.325	561.88
551.538	554.88
551.751	546.88
551.964	571.88
552.177	559.88
552.39	565.88
552.603	568.88
552.816	590.88
553.029	607.88
553.242	601.88
553.455	592.88
553.667	610.88
553.88	614.88
554.093	597.88
554.306	597.88
554.519	589.88
554.732	591.88
554.944	559.88
555.157	543.88
555.37	541.88
555.583	516.88
555.795	505.88
556.008	511.88
556.221	488.88
556.433	515.88
556.646	500.88
556.859	510.88
557.071	503.88
557.284	481.88
557.496	487.88
557.709	486.88
557.921	490.88
558.134	513.88
558.346	497.88
558.559	485.88
558.771	498.88
558.984	495.88
559.196	479.88
559.409	487.88
559.621	476.88
559.833	472.88
560.046	498.88
560.258	489.88
560.47	494.88
560.683	481.88
560.895	486.88
561.107	489.88
561.32	477.88
561.532	460.88
561.744	471.88
561.956	488.88
562.168	507.88
562.381	473.88
562.593	494.88
562.805	515.88
563.017	483.88
563.229	481.88
563.441	495.88
563.653	484.88
563.865	509.88
564.077	484.88
564.289	491.88
564.501	505.88
564.713	535.88
564.925	528.88
565.137	544.88
565.349	556.88
565.561	555.88
565.773	597.88
565.985	606.88
566.197	618.88
566.408	684.88
566.62	698.88
566.832	734.88
567.044	767.88
567.255	766.88
567.467	749.88
567.679	779.88
567.891	822.88
568.102	829.88
568.314	822.88
568.526	768.88
568.737	705.88
568.949	664.88
569.161	637.88
569.372	602.88
569.584	571.88
569.795	559.88
570.007	556.88
570.218	540.88
570.43	539.88
570.641	517.88
570.853	527.88
571.064	535.88
571.276	503.88
571.487	517.88
571.698	484.88
571.91	490.88
572.121	453.88
572.333	455.88
572.544	463.88
572.755	437.88
572.966	450.88
573.178	466.88
573.389	450.88
573.6	437.88
573.811	447.88
574.023	438.88
574.234	444.88
574.445	419.88
574.656	451.88
574.867	421.88
575.078	432.88
575.289	424.88
575.501	448.88
575.712	415.88
575.923	411.88
576.134	424.88
576.345	420.88
576.556	409.88
576.767	399.88
576.978	414.88
577.188	430.88
577.399	416.88
577.61	410.88
577.821	399.88
578.032	424.88
578.243	409.88
578.454	485.88
578.665	445.88
578.875	382.88
579.086	366.88
579.297	387.88
579.508	391.88
579.718	407.88
579.929	404.88
580.14	405.88
580.35	401.88
580.561	405.88
580.772	387.88
580.982	399.88
581.193	388.88
581.403	377.88
581.614	378.88
581.825	385.88
582.035	363.88
582.246	377.88
582.456	375.88
582.667	389.88
582.877	380.88
583.087	379.88
583.298	376.88
583.508	385.88
583.719	383.88
583.929	364.88
584.139	384.88
584.35	377.88
584.56	382.88
584.77	373.88
584.981	390.88
585.191	393.88
585.401	401.88
585.611	398.88
585.821	358.88
586.032	367.88
586.242	372.88
586.452	387.88
586.662	356.88
586.872	357.88
587.082	372.88
587.292	378.88
587.502	362.88
587.713	357.88
587.923	357.88
588.133	378.88
588.343	358.88
588.553	374.88
588.762	390.88
588.972	377.88
589.182	375.88
589.392	379.88
589.602	381.88
589.812	382.88
590.022	392.88
590.232	389.88
590.441	392.88
590.651	377.88
590.861	375.88
591.071	371.88
591.281	400.88
591.49	372.88
591.7	402.88
591.91	394.88
592.119	385.88
592.329	405.88
592.539	416.88
592.748	428.88
592.958	425.88
593.167	444.88
593.377	449.88
593.587	473.88
593.796	468.88
594.006	448.88
594.215	466.88
594.424	471.88
594.634	450.88
594.843	443.88
595.053	450.88
595.262	438.88
595.472	418.88
595.681	411.88
595.89	388.88
596.1	374.88
596.309	369.88
596.518	371.88
596.727	381.88
596.937	347.88
597.146	346.88
597.355	357.88
597.564	345.88
597.774	363.88
597.983	337.88
598.192	333.88
598.401	355.88
598.61	367.88
598.819	358.88
599.028	326.88
599.237	322.88
599.446	335.88
599.655	337.88
599.864	327.88
600.073	328.88
600.282	331.88
600.491	325.88
600.7	328.88
600.909	317.88
601.118	309.88
601.327	326.88
601.536	314.88
601.745	322.88
601.953	325.88
602.162	316.88
602.371	311.88
602.58	312.88
602.789	317.88
602.997	328.88
603.206	310.88
603.415	305.88
603.623	313.88
603.832	301.88
604.041	307.88
604.249	300.88
604.458	308.88
604.666	307.88
604.875	305.88
605.084	314.88
605.292	282.88
605.501	306.88
605.709	292.88
605.918	292.88
606.126	306.88
606.334	282.88
606.543	321.88
606.751	289.88
606.96	279.88
607.168	289.88
607.376	284.88
607.585	294.88
607.793	294.88
608.001	330.88
608.21	302.88
608.418	295.88
608.626	310.88
608.834	297.88
609.043	300.88
609.251	312.88
609.459	311.88
609.667	287.88
609.875	302.88
610.083	310.88
610.291	293.88
610.499	305.88
610.707	302.88
610.916	296.88
611.124	325.88
611.332	305.88
611.54	297.88
611.748	309.88
611.955	311.88
612.163	305.88
612.371	312.88
612.579	290.88
612.787	291.88
612.995	308.88
613.203	321.88
613.411	293.88
613.618	296.88
613.826	275.88
614.034	302.88
614.242	279.88
614.449	298.88
614.657	290.88
614.865	295.88
615.072	298.88
615.28	290.88
615.488	281.88
615.695	291.88
615.903	317.88
616.111	302.88
616.318	315.88
616.526	326.88
616.733	305.88
616.941	311.88
617.148	298.88
617.356	318.88
617.563	293.88
617.771	297.88
617.978	294.88
618.185	292.88
618.393	286.88
618.6	295.88
618.807	299.88
619.015	302.88
619.222	304.88
619.429	287.88
619.637	286.88
619.844	294.88
620.051	292.88
620.258	294.88
620.466	271.88
620.673	284.88
620.88	259.88
621.087	265.88
621.294	276.88
621.501	278.88
621.708	271.88
621.915	276.88
622.122	272.88
622.329	276.88
622.536	261.88
622.743	278.88
622.95	277.88
623.157	261.88
623.364	275.88
623.571	271.88
623.778	281.88
623.985	271.88
624.192	263.88
624.399	272.88
624.606	263.88
624.812	261.88
625.019	274.88
625.226	261.88
625.433	265.88
625.639	267.88
625.846	257.88
626.053	243.88
626.259	265.88
626.466	266.88
626.673	263.88
626.879	263.88
627.086	274.88
627.293	265.88
627.499	259.88
627.706	254.88
627.912	255.88
628.119	236.88
628.325	253.88
628.532	258.88
628.738	253.88
628.945	262.88
629.151	257.88
629.357	243.88
629.564	266.88
629.77	237.88
629.976	234.88
630.183	231.88
630.389	248.88
630.595	241.88
630.802	246.88
631.008	246.88
631.214	247.88
631.42	238.88
631.627	255.88
631.833	234.88
632.039	242.88
632.245	246.88
632.451	237.88
632.657	245.88
632.863	226.88
633.069	225.88
633.275	228.88
633.481	233.88
633.688	226.88
633.893	229.88
634.099	226.88
634.305	245.88
634.511	200.88
634.717	228.88
634.923	215.88
635.129	214.88
635.335	213.88
635.541	220.88
635.747	227.88
635.952	217.88
636.158	232.88
636.364	229.88
636.57	223.88
636.775	214.88
636.981	209.88
637.187	218.88
637.392	210.88
637.598	214.88
637.804	218.88
638.009	213.88
638.215	221.88
638.421	201.88
638.626	206.88
638.832	213.88
639.037	213.88
639.243	207.88
639.448	220.88
639.654	220.88
639.859	204.88
640.065	192.88
640.27	211.88
640.475	204.88
640.681	220.88
640.886	199.88
641.091	223.88
641.297	204.88
641.502	202.88
641.707	211.88
641.913	205.88
642.118	204.88
642.323	209.88
642.528	208.88
642.733	201.88
642.939	197.88
643.144	212.88
643.349	205.88
643.554	199.88
643.759	198.88
643.964	199.88
644.169	201.88
644.374	198.88
644.579	194.88
644.784	190.88
644.989	183.88
645.194	189.88
645.399	212.88
645.604	203.88
645.809	196.88
646.014	206.88
646.219	209.88
646.423	220.88
646.628	203.88
646.833	203.88
647.038	209.88
647.243	213.88
647.447	211.88
647.652	210.88
647.857	212.88
648.062	190.88
648.266	214.88
648.471	217.88
648.676	223.88
648.88	211.88
649.085	211.88
649.289	200.88
649.494	218.88
649.698	202.88
649.903	216.88
650.107	202.88
650.312	204.88
650.516	190.88
650.721	205.88
650.925	187.88
651.13	181.88
651.334	186.88
651.539	190.88
651.743	190.88
651.947	173.88
652.152	197.88
652.356	172.88
652.56	178.88
652.764	173.88
652.969	182.88
653.173	164.88
653.377	167.88
653.581	179.88
653.785	165.88
653.99	166.88
654.194	175.88
654.398	167.88
654.602	155.88
654.806	163.88
655.01	155.88
655.214	174.88
655.418	148.88
655.622	162.88
655.826	163.88
656.03	173.88
656.234	176.88
656.438	179.88
656.642	182.88
656.846	163.88
657.049	170.88
657.253	169.88
657.457	133.88
657.661	149.88
657.865	129.88
658.068	138.88
658.272	132.88
658.476	125.88
658.68	122.88
658.883	137.88
659.087	127.88
659.291	110.88
659.494	120.88
659.698	116.88
659.901	108.88
660.105	95.88
660.309	104.88
660.512	99.88
660.716	113.88
660.919	98.88
661.123	113.88
661.326	71.88
661.53	99.88
661.733	102.88
661.936	96.88
662.14	91.88
662.343	90.88
662.546	91.88
662.75	86.88
662.953	105.88
663.156	81.88
663.36	87.88
663.563	89.88
663.766	81.88
663.969	101.88
664.173	94.88
664.376	86.88
664.579	92.88
664.782	92.88
664.985	95.88
665.188	84.88
665.391	87.88
665.594	77.88
665.797	84.88
666	73.88
666.203	74.88
666.406	88.88
666.609	75.88
666.812	79.88
667.015	93.88
667.218	71.88
667.421	84.88
667.624	89.88
667.827	93.88
668.03	77.88
668.232	88.88
668.435	78.88
668.638	85.88
668.841	96.88
669.043	72.88
669.246	75.88
669.449	90.88
669.651	80.88
669.854	82.88
670.057	87.88
670.259	84.88
670.462	93.88
670.665	85.88
670.867	71.88
671.07	86.88
671.272	87.88
671.475	76.88
671.677	91.88
671.88	93.88
672.082	87.88
672.284	91.88
672.487	79.88
672.689	84.88
672.892	73.88
