Data from 1963.PennyLincolnUp.Lamp.En5.5.200Scan.071719.P1._HRD10591_13-59-00-064.txt Node
Date: Thu Jul 18 13:59:00 EDT 2019
User: cochatt
Spectrometer: HR+D1059
Trigger mode: 1
Integration Time (sec): 1.000000E-1
Scans to average: 1
Electric dark correction enabled: true
Nonlinearity correction enabled: false
Boxcar width: 0
XAxis mode: Wavelengths
Number of Pixels in Spectrum: 2048
>>>>>Begin Spectral Data<<<<<
223.165	-16.12
223.4	-16.12
223.635	-16.12
223.869	-19.12
224.104	-12.12
224.338	-14.12
224.573	-26.12
224.808	-16.12
225.042	-0.12
225.277	-1.12
225.511	-1.12
225.746	-0.12
225.98	4.88
226.215	3.88
226.449	26.88
226.683	20.88
226.918	21.88
227.152	27.88
227.387	30.88
227.621	36.88
227.856	42.88
228.09	56.88
228.324	46.88
228.559	47.88
228.793	77.88
229.027	77.88
229.262	105.88
229.496	99.88
229.73	145.88
229.964	141.88
230.199	133.88
230.433	119.88
230.667	106.88
230.901	123.88
231.136	108.88
231.37	124.88
231.604	111.88
231.838	116.88
232.072	103.88
232.306	108.88
232.541	106.88
232.775	117.88
233.009	121.88
233.243	122.88
233.477	121.88
233.711	122.88
233.945	114.88
234.179	121.88
234.413	124.88
234.647	121.88
234.881	126.88
235.115	120.88
235.349	123.88
235.583	131.88
235.817	119.88
236.051	133.88
236.285	115.88
236.519	126.88
236.753	133.88
236.987	131.88
237.221	153.88
237.455	202.88
237.689	159.88
237.922	155.88
238.156	145.88
238.39	125.88
238.624	118.88
238.858	117.88
239.091	123.88
239.325	142.88
239.559	134.88
239.793	123.88
240.027	135.88
240.26	139.88
240.494	152.88
240.728	156.88
240.961	142.88
241.195	141.88
241.429	133.88
241.662	146.88
241.896	120.88
242.13	150.88
242.363	151.88
242.597	156.88
242.83	135.88
243.064	151.88
243.298	148.88
243.531	149.88
243.765	152.88
243.998	152.88
244.232	150.88
244.465	153.88
244.699	160.88
244.932	146.88
245.166	163.88
245.399	151.88
245.633	164.88
245.866	171.88
246.099	161.88
246.333	168.88
246.566	184.88
246.8	169.88
247.033	170.88
247.266	173.88
247.5	171.88
247.733	180.88
247.966	187.88
248.2	168.88
248.433	171.88
248.666	193.88
248.899	191.88
249.133	207.88
249.366	206.88
249.599	196.88
249.832	211.88
250.066	205.88
250.299	194.88
250.532	189.88
250.765	216.88
250.998	208.88
251.231	230.88
251.465	216.88
251.698	214.88
251.931	218.88
252.164	213.88
252.397	212.88
252.63	220.88
252.863	217.88
253.096	209.88
253.329	208.88
253.562	227.88
253.795	221.88
254.028	221.88
254.261	221.88
254.494	251.88
254.727	246.88
254.96	279.88
255.193	257.88
255.426	250.88
255.659	229.88
255.892	237.88
256.124	234.88
256.357	246.88
256.59	224.88
256.823	233.88
257.056	225.88
257.289	216.88
257.521	216.88
257.754	228.88
257.987	201.88
258.22	215.88
258.452	221.88
258.685	221.88
258.918	218.88
259.151	212.88
259.383	236.88
259.616	239.88
259.849	227.88
260.081	247.88
260.314	248.88
260.547	263.88
260.779	235.88
261.012	231.88
261.244	236.88
261.477	231.88
261.71	253.88
261.942	250.88
262.175	257.88
262.407	241.88
262.64	231.88
262.872	230.88
263.105	223.88
263.337	239.88
263.57	246.88
263.802	231.88
264.035	224.88
264.267	233.88
264.499	241.88
264.732	257.88
264.964	248.88
265.197	239.88
265.429	253.88
265.661	231.88
265.894	241.88
266.126	242.88
266.358	250.88
266.591	243.88
266.823	260.88
267.055	259.88
267.287	260.88
267.52	258.88
267.752	245.88
267.984	256.88
268.216	255.88
268.448	275.88
268.681	291.88
268.913	279.88
269.145	252.88
269.377	293.88
269.609	275.88
269.841	270.88
270.073	292.88
270.306	310.88
270.538	327.88
270.77	331.88
271.002	324.88
271.234	300.88
271.466	292.88
271.698	306.88
271.93	343.88
272.162	308.88
272.394	319.88
272.626	314.88
272.858	313.88
273.09	300.88
273.322	304.88
273.553	297.88
273.785	296.88
274.017	293.88
274.249	286.88
274.481	291.88
274.713	286.88
274.945	277.88
275.176	290.88
275.408	307.88
275.64	291.88
275.872	277.88
276.104	284.88
276.335	291.88
276.567	290.88
276.799	287.88
277.031	316.88
277.262	337.88
277.494	344.88
277.726	326.88
277.957	328.88
278.189	296.88
278.421	298.88
278.652	285.88
278.884	303.88
279.115	289.88
279.347	307.88
279.579	298.88
279.81	314.88
280.042	298.88
280.273	303.88
280.505	311.88
280.736	331.88
280.968	321.88
281.199	313.88
281.431	314.88
281.662	311.88
281.894	307.88
282.125	313.88
282.356	339.88
282.588	322.88
282.819	317.88
283.051	299.88
283.282	328.88
283.513	355.88
283.745	329.88
283.976	317.88
284.207	341.88
284.439	324.88
284.67	319.88
284.901	331.88
285.132	317.88
285.364	328.88
285.595	330.88
285.826	327.88
286.057	327.88
286.288	344.88
286.52	323.88
286.751	344.88
286.982	335.88
287.213	350.88
287.444	332.88
287.675	332.88
287.906	348.88
288.138	346.88
288.369	364.88
288.6	362.88
288.831	355.88
289.062	367.88
289.293	344.88
289.524	349.88
289.755	354.88
289.986	360.88
290.217	360.88
290.448	348.88
290.679	351.88
290.91	367.88
291.141	377.88
291.371	367.88
291.602	345.88
291.833	339.88
292.064	363.88
292.295	354.88
292.526	353.88
292.757	358.88
292.987	355.88
293.218	349.88
293.449	348.88
293.68	363.88
293.91	329.88
294.141	343.88
294.372	347.88
294.603	353.88
294.833	371.88
295.064	362.88
295.295	359.88
295.525	373.88
295.756	348.88
295.987	361.88
296.217	384.88
296.448	388.88
296.679	374.88
296.909	373.88
297.14	365.88
297.37	367.88
297.601	363.88
297.831	362.88
298.062	369.88
298.292	381.88
298.523	368.88
298.753	386.88
298.984	364.88
299.214	375.88
299.445	381.88
299.675	384.88
299.905	359.88
300.136	378.88
300.366	378.88
300.597	392.88
300.827	399.88
301.057	395.88
301.288	402.88
301.518	393.88
301.748	395.88
301.979	397.88
302.209	404.88
302.439	404.88
302.669	423.88
302.9	407.88
303.13	403.88
303.36	410.88
303.59	398.88
303.82	420.88
304.051	396.88
304.281	409.88
304.511	405.88
304.741	392.88
304.971	393.88
305.201	404.88
305.431	396.88
305.661	396.88
305.891	406.88
306.121	403.88
306.352	426.88
306.582	421.88
306.812	416.88
307.042	390.88
307.272	386.88
307.502	391.88
307.731	395.88
307.961	403.88
308.191	401.88
308.421	387.88
308.651	405.88
308.881	400.88
309.111	395.88
309.341	409.88
309.571	422.88
309.8	393.88
310.03	434.88
310.26	424.88
310.49	419.88
310.72	438.88
310.949	435.88
311.179	427.88
311.409	443.88
311.639	417.88
311.868	425.88
312.098	424.88
312.328	439.88
312.557	427.88
312.787	465.88
313.017	452.88
313.246	461.88
313.476	445.88
313.706	428.88
313.935	437.88
314.165	441.88
314.394	452.88
314.624	456.88
314.853	436.88
315.083	460.88
315.312	444.88
315.542	448.88
315.771	431.88
316.001	434.88
316.23	435.88
316.46	446.88
316.689	444.88
316.919	436.88
317.148	437.88
317.377	449.88
317.607	458.88
317.836	444.88
318.065	423.88
318.295	424.88
318.524	436.88
318.753	427.88
318.983	435.88
319.212	433.88
319.441	436.88
319.67	449.88
319.9	447.88
320.129	441.88
320.358	448.88
320.587	448.88
320.816	447.88
321.046	465.88
321.275	443.88
321.504	467.88
321.733	453.88
321.962	461.88
322.191	461.88
322.42	473.88
322.649	468.88
322.878	473.88
323.108	460.88
323.337	463.88
323.566	509.88
323.795	521.88
324.024	555.88
324.253	604.88
324.482	756.88
324.71	1107.88
324.939	1561.88
325.168	1401.88
325.397	803.88
325.626	597.88
325.855	541.88
326.084	525.88
326.313	519.88
326.542	530.88
326.77	565.88
326.999	605.88
327.228	728.88
327.457	1016.88
327.686	1247.88
327.914	873.88
328.143	649.88
328.372	595.88
328.6	583.88
328.829	556.88
329.058	553.88
329.287	584.88
329.515	570.88
329.744	535.88
329.972	512.88
330.201	542.88
330.43	564.88
330.658	598.88
330.887	597.88
331.115	572.88
331.344	575.88
331.572	546.88
331.801	555.88
332.03	528.88
332.258	529.88
332.486	535.88
332.715	553.88
332.943	568.88
333.172	596.88
333.4	576.88
333.629	592.88
333.857	601.88
334.085	609.88
334.314	630.88
334.542	619.88
334.771	649.88
334.999	616.88
335.227	603.88
335.455	593.88
335.684	566.88
335.912	566.88
336.14	560.88
336.369	560.88
336.597	555.88
336.825	537.88
337.053	533.88
337.281	537.88
337.51	556.88
337.738	540.88
337.966	539.88
338.194	507.88
338.422	548.88
338.65	517.88
338.878	515.88
339.106	513.88
339.334	535.88
339.562	518.88
339.79	490.88
340.018	525.88
340.246	517.88
340.474	517.88
340.702	508.88
340.93	502.88
341.158	516.88
341.386	524.88
341.614	509.88
341.842	510.88
342.07	519.88
342.298	519.88
342.526	500.88
342.754	485.88
342.981	510.88
343.209	518.88
343.437	539.88
343.665	532.88
343.893	568.88
344.12	604.88
344.348	565.88
344.576	565.88
344.804	541.88
345.031	536.88
345.259	532.88
345.487	538.88
345.714	519.88
345.942	502.88
346.17	498.88
346.397	524.88
346.625	478.88
346.853	479.88
347.08	497.88
347.308	492.88
347.535	491.88
347.763	492.88
347.99	488.88
348.218	497.88
348.445	475.88
348.673	488.88
348.9	485.88
349.128	496.88
349.355	480.88
349.583	484.88
349.81	473.88
350.037	465.88
350.265	503.88
350.492	488.88
350.72	464.88
350.947	485.88
351.174	493.88
351.402	492.88
351.629	498.88
351.856	477.88
352.083	489.88
352.311	501.88
352.538	472.88
352.765	473.88
352.992	483.88
353.22	488.88
353.447	495.88
353.674	455.88
353.901	458.88
354.128	458.88
354.355	468.88
354.583	482.88
354.81	471.88
355.037	495.88
355.264	487.88
355.491	499.88
355.718	485.88
355.945	478.88
356.172	484.88
356.399	460.88
356.626	461.88
356.853	459.88
357.08	472.88
357.307	460.88
357.534	461.88
357.761	461.88
357.988	469.88
358.215	461.88
358.441	470.88
358.668	471.88
358.895	468.88
359.122	464.88
359.349	488.88
359.576	490.88
359.802	501.88
360.029	512.88
360.256	508.88
360.483	489.88
360.709	484.88
360.936	478.88
361.163	483.88
361.39	474.88
361.616	498.88
361.843	503.88
362.07	490.88
362.296	485.88
362.523	489.88
362.749	482.88
362.976	483.88
363.203	470.88
363.429	471.88
363.656	470.88
363.882	472.88
364.109	480.88
364.335	498.88
364.562	503.88
364.788	469.88
365.015	506.88
365.241	466.88
365.468	496.88
365.694	492.88
365.92	469.88
366.147	491.88
366.373	492.88
366.599	480.88
366.826	469.88
367.052	470.88
367.278	475.88
367.505	498.88
367.731	507.88
367.957	501.88
368.184	495.88
368.41	508.88
368.636	491.88
368.862	495.88
369.089	493.88
369.315	467.88
369.541	486.88
369.767	503.88
369.993	463.88
370.219	479.88
370.445	491.88
370.672	520.88
370.898	501.88
371.124	497.88
371.35	511.88
371.576	479.88
371.802	505.88
372.028	500.88
372.254	479.88
372.48	492.88
372.706	529.88
372.932	521.88
373.158	533.88
373.384	515.88
373.61	503.88
373.835	512.88
374.061	497.88
374.287	505.88
374.513	495.88
374.739	511.88
374.965	535.88
375.191	515.88
375.416	525.88
375.642	542.88
375.868	514.88
376.094	498.88
376.319	515.88
376.545	513.88
376.771	527.88
376.997	497.88
377.222	496.88
377.448	493.88
377.674	508.88
377.899	486.88
378.125	499.88
378.35	491.88
378.576	515.88
378.802	502.88
379.027	513.88
379.253	506.88
379.478	486.88
379.704	509.88
379.929	513.88
380.155	488.88
380.38	505.88
380.606	511.88
380.831	502.88
381.057	503.88
381.282	495.88
381.507	516.88
381.733	497.88
381.958	509.88
382.184	515.88
382.409	514.88
382.634	538.88
382.86	532.88
383.085	519.88
383.31	543.88
383.535	532.88
383.761	517.88
383.986	561.88
384.211	533.88
384.436	548.88
384.662	575.88
384.887	557.88
385.112	569.88
385.337	591.88
385.562	564.88
385.787	566.88
386.013	586.88
386.238	584.88
386.463	581.88
386.688	575.88
386.913	585.88
387.138	599.88
387.363	583.88
387.588	557.88
387.813	571.88
388.038	561.88
388.263	572.88
388.488	585.88
388.713	566.88
388.938	561.88
389.163	588.88
389.387	575.88
389.612	560.88
389.837	571.88
390.062	582.88
390.287	579.88
390.512	573.88
390.736	540.88
390.961	587.88
391.186	589.88
391.411	598.88
391.636	604.88
391.86	602.88
392.085	643.88
392.31	639.88
392.534	603.88
392.759	611.88
392.984	594.88
393.208	584.88
393.433	612.88
393.658	610.88
393.882	607.88
394.107	619.88
394.331	601.88
394.556	603.88
394.78	615.88
395.005	603.88
395.229	608.88
395.454	629.88
395.678	625.88
395.903	636.88
396.127	641.88
396.352	633.88
396.576	598.88
396.801	597.88
397.025	609.88
397.249	609.88
397.474	631.88
397.698	614.88
397.922	657.88
398.147	658.88
398.371	697.88
398.595	665.88
398.82	679.88
399.044	715.88
399.268	758.88
399.492	862.88
399.717	910.88
399.941	948.88
400.165	901.88
400.389	868.88
400.613	789.88
400.837	741.88
401.062	704.88
401.286	691.88
401.51	693.88
401.734	677.88
401.958	699.88
402.182	696.88
402.406	720.88
402.63	718.88
402.854	741.88
403.078	738.88
403.302	740.88
403.526	754.88
403.75	775.88
403.974	791.88
404.198	735.88
404.422	753.88
404.645	758.88
404.869	783.88
405.093	810.88
405.317	811.88
405.541	806.88
405.765	767.88
405.988	751.88
406.212	747.88
406.436	763.88
406.66	781.88
406.883	765.88
407.107	817.88
407.331	850.88
407.555	972.88
407.778	927.88
408.002	888.88
408.226	835.88
408.449	823.88
408.673	794.88
408.896	801.88
409.12	818.88
409.344	799.88
409.567	768.88
409.791	742.88
410.014	748.88
410.238	732.88
410.461	714.88
410.685	733.88
410.908	731.88
411.132	746.88
411.355	775.88
411.578	781.88
411.802	717.88
412.025	702.88
412.249	728.88
412.472	751.88
412.695	762.88
412.919	740.88
413.142	700.88
413.365	689.88
413.589	675.88
413.812	687.88
414.035	679.88
414.258	669.88
414.482	680.88
414.705	680.88
414.928	682.88
415.151	669.88
415.374	683.88
415.597	666.88
415.821	665.88
416.044	660.88
416.267	663.88
416.49	665.88
416.713	676.88
416.936	659.88
417.159	664.88
417.382	697.88
417.605	657.88
417.828	697.88
418.051	678.88
418.274	693.88
418.497	684.88
418.72	711.88
418.943	695.88
419.166	716.88
419.389	757.88
419.611	737.88
419.834	724.88
420.057	725.88
420.28	721.88
420.503	682.88
420.726	681.88
420.948	730.88
421.171	730.88
421.394	774.88
421.617	701.88
421.839	711.88
422.062	688.88
422.285	699.88
422.507	763.88
422.73	797.88
422.953	805.88
423.175	721.88
423.398	733.88
423.621	727.88
423.843	735.88
424.066	751.88
424.288	741.88
424.511	732.88
424.733	767.88
424.956	823.88
425.178	798.88
425.401	836.88
425.623	838.88
425.846	738.88
426.068	741.88
426.291	673.88
426.513	705.88
426.735	687.88
426.958	731.88
427.18	766.88
427.402	899.88
427.625	943.88
427.847	844.88
428.069	741.88
428.292	723.88
428.514	666.88
428.736	653.88
428.958	649.88
429.181	641.88
429.403	659.88
429.625	644.88
429.847	664.88
430.069	702.88
430.292	698.88
430.514	651.88
430.736	639.88
430.958	656.88
431.18	632.88
431.402	645.88
431.624	624.88
431.846	613.88
432.068	627.88
432.29	641.88
432.512	630.88
432.734	617.88
432.956	623.88
433.178	623.88
433.4	656.88
433.622	619.88
433.844	643.88
434.066	628.88
434.287	639.88
434.509	637.88
434.731	687.88
434.953	697.88
435.175	726.88
435.397	737.88
435.618	694.88
435.84	731.88
436.062	767.88
436.284	835.88
436.505	753.88
436.727	699.88
436.949	691.88
437.17	631.88
437.392	628.88
437.614	651.88
437.835	657.88
438.057	730.88
438.278	817.88
438.5	782.88
438.721	879.88
438.943	811.88
439.165	707.88
439.386	675.88
439.608	677.88
439.829	653.88
440.05	671.88
440.272	733.88
440.493	688.88
440.715	687.88
440.936	675.88
441.158	673.88
441.379	678.88
441.6	700.88
441.822	723.88
442.043	756.88
442.264	797.88
442.486	786.88
442.707	738.88
442.928	721.88
443.149	735.88
443.371	725.88
443.592	752.88
443.813	828.88
444.034	901.88
444.255	796.88
444.476	729.88
444.698	765.88
444.919	797.88
445.14	882.88
445.361	801.88
445.582	755.88
445.803	801.88
446.024	847.88
446.245	828.88
446.466	791.88
446.687	716.88
446.908	687.88
447.129	644.88
447.35	635.88
447.571	606.88
447.792	628.88
448.013	624.88
448.234	642.88
448.455	654.88
448.675	736.88
448.896	825.88
449.117	743.88
449.338	706.88
449.559	803.88
449.779	851.88
450	717.88
450.221	653.88
450.442	633.88
450.662	611.88
450.883	612.88
451.104	645.88
451.324	634.88
451.545	596.88
451.766	589.88
451.986	577.88
452.207	585.88
452.428	578.88
452.648	585.88
452.869	556.88
453.089	586.88
453.31	610.88
453.53	579.88
453.751	557.88
453.971	567.88
454.192	567.88
454.412	581.88
454.633	563.88
454.853	538.88
455.073	571.88
455.294	591.88
455.514	626.88
455.734	618.88
455.955	569.88
456.175	554.88
456.395	531.88
456.616	544.88
456.836	522.88
457.056	557.88
457.276	547.88
457.497	551.88
457.717	555.88
457.937	547.88
458.157	579.88
458.377	563.88
458.598	582.88
458.818	641.88
459.038	695.88
459.258	714.88
459.478	654.88
459.698	636.88
459.918	657.88
460.138	677.88
460.358	714.88
460.578	702.88
460.798	699.88
461.018	703.88
461.238	693.88
461.458	699.88
461.678	684.88
461.898	694.88
462.118	690.88
462.338	716.88
462.558	720.88
462.777	745.88
462.997	793.88
463.217	858.88
463.437	851.88
463.657	785.88
463.876	782.88
464.096	805.88
464.316	791.88
464.536	776.88
464.755	771.88
464.975	752.88
465.195	751.88
465.414	770.88
465.634	692.88
465.854	671.88
466.073	647.88
466.293	645.88
466.512	625.88
466.732	602.88
466.951	629.88
467.171	612.88
467.391	619.88
467.61	604.88
467.829	619.88
468.049	635.88
468.268	621.88
468.488	610.88
468.707	612.88
468.927	584.88
469.146	591.88
469.365	593.88
469.585	606.88
469.804	595.88
470.023	622.88
470.243	621.88
470.462	627.88
470.681	633.88
470.901	657.88
471.12	648.88
471.339	621.88
471.558	612.88
471.777	633.88
471.997	610.88
472.216	633.88
472.435	615.88
472.654	614.88
472.873	609.88
473.092	594.88
473.311	599.88
473.53	606.88
473.749	611.88
473.968	612.88
474.187	682.88
474.406	687.88
474.625	627.88
474.844	594.88
475.063	610.88
475.282	598.88
475.501	627.88
475.72	629.88
475.939	643.88
476.158	625.88
476.377	623.88
476.596	636.88
476.814	632.88
477.033	644.88
477.252	625.88
477.471	649.88
477.69	664.88
477.908	665.88
478.127	701.88
478.346	684.88
478.564	734.88
478.783	690.88
479.002	736.88
479.22	729.88
479.439	754.88
479.658	717.88
479.876	737.88
480.095	742.88
480.313	790.88
480.532	801.88
480.751	768.88
480.969	755.88
481.188	783.88
481.406	844.88
481.624	759.88
481.843	743.88
482.061	732.88
482.28	709.88
482.498	708.88
482.717	713.88
482.935	678.88
483.153	682.88
483.372	720.88
483.59	697.88
483.808	723.88
484.027	716.88
484.245	696.88
484.463	700.88
484.681	710.88
484.9	731.88
485.118	699.88
485.336	733.88
485.554	725.88
485.772	723.88
485.99	723.88
486.209	768.88
486.427	741.88
486.645	739.88
486.863	741.88
487.081	749.88
487.299	763.88
487.517	742.88
487.735	740.88
487.953	758.88
488.171	733.88
488.389	731.88
488.607	730.88
488.825	762.88
489.043	738.88
489.261	761.88
489.479	779.88
489.696	748.88
489.914	773.88
490.132	746.88
490.35	787.88
490.568	730.88
490.786	759.88
491.003	796.88
491.221	812.88
491.439	812.88
491.657	810.88
491.874	829.88
492.092	858.88
492.31	835.88
492.527	831.88
492.745	844.88
492.963	829.88
493.18	845.88
493.398	851.88
493.615	881.88
493.833	835.88
494.05	880.88
494.268	865.88
494.485	843.88
494.703	853.88
494.92	868.88
495.138	871.88
495.355	864.88
495.573	863.88
495.79	850.88
496.008	838.88
496.225	887.88
496.442	856.88
496.66	908.88
496.877	915.88
497.094	907.88
497.312	906.88
497.529	919.88
497.746	939.88
497.963	938.88
498.181	979.88
498.398	1013.88
498.615	1096.88
498.832	1122.88
499.049	1172.88
499.267	1203.88
499.484	1256.88
499.701	1363.88
499.918	1415.88
500.135	1576.88
500.352	1741.88
500.569	1760.88
500.786	1756.88
501.003	1718.88
501.22	1559.88
501.437	1442.88
501.654	1357.88
501.871	1316.88
502.088	1206.88
502.305	1169.88
502.522	1103.88
502.739	1090.88
502.956	1029.88
503.172	1008.88
503.389	978.88
503.606	983.88
503.823	960.88
504.04	931.88
504.256	924.88
504.473	910.88
504.69	924.88
504.907	940.88
505.123	913.88
505.34	843.88
505.557	829.88
505.773	851.88
505.99	867.88
506.207	827.88
506.423	808.88
506.64	803.88
506.856	803.88
507.073	786.88
507.289	776.88
507.506	769.88
507.722	804.88
507.939	793.88
508.155	770.88
508.372	759.88
508.588	769.88
508.805	740.88
509.021	744.88
509.238	760.88
509.454	770.88
509.67	754.88
509.887	774.88
510.103	732.88
510.319	749.88
510.536	805.88
510.752	1133.88
510.968	996.88
511.184	745.88
511.401	721.88
511.617	723.88
511.833	703.88
512.049	690.88
512.265	700.88
512.481	737.88
512.698	730.88
512.914	708.88
513.13	715.88
513.346	696.88
513.562	697.88
513.778	727.88
513.994	716.88
514.21	732.88
514.426	744.88
514.642	771.88
514.858	769.88
515.074	804.88
515.29	858.88
515.506	1161.88
515.721	1009.88
515.937	802.88
516.153	803.88
516.369	774.88
516.585	798.88
516.801	781.88
517.016	809.88
517.232	833.88
517.448	865.88
517.664	853.88
517.879	850.88
518.095	855.88
518.311	859.88
518.527	849.88
518.742	820.88
518.958	778.88
519.173	783.88
519.389	769.88
519.605	739.88
519.82	731.88
520.036	728.88
520.251	752.88
520.467	756.88
520.682	742.88
520.898	749.88
521.113	755.88
521.329	757.88
521.544	783.88
521.76	910.88
521.975	1367.88
522.19	1392.88
522.406	873.88
522.621	733.88
522.836	697.88
523.052	663.88
523.267	626.88
523.482	635.88
523.698	649.88
523.913	636.88
524.128	637.88
524.343	633.88
524.559	631.88
524.774	620.88
524.989	629.88
525.204	615.88
525.419	641.88
525.634	615.88
525.849	619.88
526.064	626.88
526.28	611.88
526.495	635.88
526.71	645.88
526.925	611.88
527.14	618.88
527.355	566.88
527.57	592.88
527.785	581.88
527.999	602.88
528.214	617.88
528.429	597.88
528.644	604.88
528.859	621.88
529.074	620.88
529.289	625.88
529.503	659.88
529.718	633.88
529.933	607.88
530.148	597.88
530.363	606.88
530.577	610.88
530.792	593.88
531.007	610.88
531.221	589.88
531.436	603.88
531.651	605.88
531.865	604.88
532.08	609.88
532.295	595.88
532.509	611.88
532.724	598.88
532.938	594.88
533.153	599.88
533.367	614.88
533.582	589.88
533.796	601.88
534.011	593.88
534.225	584.88
534.44	600.88
534.654	585.88
534.868	582.88
535.083	567.88
535.297	590.88
535.511	588.88
535.726	568.88
535.94	604.88
536.154	572.88
536.369	574.88
536.583	585.88
536.797	558.88
537.011	562.88
537.225	561.88
537.44	558.88
537.654	591.88
537.868	559.88
538.082	580.88
538.296	551.88
538.51	563.88
538.724	565.88
538.938	573.88
539.153	564.88
539.367	574.88
539.581	584.88
539.795	550.88
540.009	547.88
540.222	557.88
540.436	556.88
540.65	563.88
540.864	556.88
541.078	553.88
541.292	562.88
541.506	554.88
541.72	553.88
541.934	554.88
542.147	547.88
542.361	561.88
542.575	554.88
542.789	541.88
543.002	541.88
543.216	537.88
543.43	575.88
543.644	551.88
543.857	564.88
544.071	555.88
544.285	547.88
544.498	562.88
544.712	535.88
544.925	561.88
545.139	555.88
545.352	570.88
545.566	578.88
545.779	557.88
545.993	567.88
546.206	566.88
546.42	554.88
546.633	562.88
546.847	562.88
547.06	557.88
547.274	552.88
547.487	547.88
547.7	563.88
547.914	584.88
548.127	555.88
548.34	552.88
548.554	565.88
548.767	576.88
548.98	552.88
549.193	556.88
549.407	565.88
549.62	567.88
549.833	570.88
550.046	571.88
550.259	550.88
550.473	532.88
550.686	565.88
550.899	551.88
551.112	529.88
551.325	548.88
551.538	545.88
551.751	541.88
551.964	554.88
552.177	563.88
552.39	576.88
552.603	572.88
552.816	588.88
553.029	625.88
553.242	579.88
553.455	593.88
553.667	602.88
553.88	586.88
554.093	597.88
554.306	559.88
554.519	571.88
554.732	555.88
554.944	560.88
555.157	539.88
555.37	536.88
555.583	519.88
555.795	556.88
556.008	500.88
556.221	537.88
556.433	533.88
556.646	496.88
556.859	511.88
557.071	497.88
557.284	495.88
557.496	488.88
557.709	477.88
557.921	476.88
558.134	476.88
558.346	481.88
558.559	485.88
558.771	470.88
558.984	468.88
559.196	474.88
559.409	453.88
559.621	465.88
559.833	471.88
560.046	462.88
560.258	487.88
560.47	476.88
560.683	488.88
560.895	469.88
561.107	471.88
561.32	480.88
561.532	483.88
561.744	485.88
561.956	478.88
562.168	480.88
562.381	484.88
562.593	504.88
562.805	480.88
563.017	515.88
563.229	489.88
563.441	493.88
563.653	466.88
563.865	492.88
564.077	487.88
564.289	483.88
564.501	515.88
564.713	522.88
564.925	539.88
565.137	538.88
565.349	546.88
565.561	556.88
565.773	579.88
565.985	606.88
566.197	603.88
566.408	627.88
566.62	677.88
566.832	707.88
567.044	719.88
567.255	710.88
567.467	747.88
567.679	767.88
567.891	810.88
568.102	791.88
568.314	758.88
568.526	735.88
568.737	695.88
568.949	624.88
569.161	593.88
569.372	579.88
569.584	566.88
569.795	553.88
570.007	527.88
570.218	567.88
570.43	531.88
570.641	483.88
570.853	497.88
571.064	517.88
571.276	500.88
571.487	489.88
571.698	483.88
571.91	471.88
572.121	457.88
572.333	454.88
572.544	454.88
572.755	443.88
572.966	451.88
573.178	435.88
573.389	435.88
573.6	434.88
573.811	410.88
574.023	423.88
574.234	428.88
574.445	416.88
574.656	412.88
574.867	421.88
575.078	421.88
575.289	427.88
575.501	427.88
575.712	397.88
575.923	403.88
576.134	425.88
576.345	408.88
576.556	408.88
576.767	378.88
576.978	430.88
577.188	411.88
577.399	381.88
577.61	395.88
577.821	385.88
578.032	392.88
578.243	427.88
578.454	584.88
578.665	452.88
578.875	407.88
579.086	403.88
579.297	409.88
579.508	377.88
579.718	383.88
579.929	403.88
580.14	370.88
580.35	379.88
580.561	385.88
580.772	379.88
580.982	388.88
581.193	375.88
581.403	374.88
581.614	371.88
581.825	372.88
582.035	392.88
582.246	372.88
582.456	357.88
582.667	363.88
582.877	364.88
583.087	361.88
583.298	358.88
583.508	369.88
583.719	359.88
583.929	377.88
584.139	359.88
584.35	356.88
584.56	358.88
584.77	348.88
584.981	362.88
585.191	374.88
585.401	371.88
585.611	347.88
585.821	353.88
586.032	372.88
586.242	364.88
586.452	361.88
586.662	368.88
586.872	347.88
587.082	375.88
587.292	367.88
587.502	359.88
587.713	335.88
587.923	339.88
588.133	360.88
588.343	364.88
588.553	364.88
588.762	361.88
588.972	343.88
589.182	355.88
589.392	384.88
589.602	373.88
589.812	360.88
590.022	385.88
590.232	364.88
590.441	373.88
590.651	359.88
590.861	373.88
591.071	367.88
591.281	377.88
591.49	384.88
591.7	399.88
591.91	387.88
592.119	387.88
592.329	386.88
592.539	409.88
592.748	395.88
592.958	430.88
593.167	408.88
593.377	434.88
593.587	427.88
593.796	420.88
594.006	429.88
594.215	431.88
594.424	438.88
594.634	425.88
594.843	422.88
595.053	425.88
595.262	415.88
595.472	387.88
595.681	378.88
595.89	387.88
596.1	367.88
596.309	382.88
596.518	387.88
596.727	343.88
596.937	354.88
597.146	328.88
597.355	337.88
597.564	339.88
597.774	333.88
597.983	333.88
598.192	336.88
598.401	341.88
598.61	316.88
598.819	321.88
599.028	325.88
599.237	330.88
599.446	317.88
599.655	328.88
599.864	323.88
600.073	329.88
600.282	333.88
600.491	322.88
600.7	321.88
600.909	314.88
601.118	316.88
601.327	300.88
601.536	301.88
601.745	304.88
601.953	314.88
602.162	311.88
602.371	298.88
602.58	306.88
602.789	310.88
602.997	320.88
603.206	326.88
603.415	310.88
603.623	283.88
603.832	284.88
604.041	299.88
604.249	285.88
604.458	289.88
604.666	286.88
604.875	285.88
605.084	278.88
605.292	296.88
605.501	282.88
605.709	272.88
605.918	297.88
606.126	307.88
606.334	293.88
606.543	289.88
606.751	276.88
606.96	258.88
607.168	299.88
607.376	283.88
607.585	290.88
607.793	296.88
608.001	278.88
608.21	302.88
608.418	295.88
608.626	291.88
608.834	278.88
609.043	281.88
609.251	280.88
609.459	293.88
609.667	272.88
609.875	277.88
610.083	271.88
610.291	284.88
610.499	268.88
610.707	274.88
610.916	291.88
611.124	279.88
611.332	292.88
611.54	279.88
611.748	276.88
611.955	280.88
612.163	290.88
612.371	286.88
612.579	290.88
612.787	279.88
612.995	299.88
613.203	262.88
613.411	270.88
613.618	267.88
613.826	291.88
614.034	274.88
614.242	286.88
614.449	294.88
614.657	283.88
614.865	276.88
615.072	260.88
615.28	289.88
615.488	268.88
615.695	267.88
615.903	279.88
616.111	300.88
616.318	276.88
616.526	281.88
616.733	284.88
616.941	289.88
617.148	303.88
617.356	282.88
617.563	277.88
617.771	292.88
617.978	298.88
618.185	286.88
618.393	269.88
618.6	272.88
618.807	285.88
619.015	282.88
619.222	268.88
619.429	276.88
619.637	279.88
619.844	270.88
620.051	281.88
620.258	279.88
620.466	246.88
620.673	258.88
620.88	255.88
621.087	263.88
621.294	249.88
621.501	271.88
621.708	281.88
621.915	284.88
622.122	263.88
622.329	252.88
622.536	237.88
622.743	248.88
622.95	267.88
623.157	253.88
623.364	252.88
623.571	268.88
623.778	249.88
623.985	265.88
624.192	241.88
624.399	261.88
624.606	241.88
624.812	252.88
625.019	247.88
625.226	240.88
625.433	257.88
625.639	262.88
625.846	233.88
626.053	247.88
626.259	237.88
626.466	241.88
626.673	235.88
626.879	267.88
627.086	260.88
627.293	252.88
627.499	247.88
627.706	227.88
627.912	243.88
628.119	244.88
628.325	259.88
628.532	226.88
628.738	237.88
628.945	241.88
629.151	248.88
629.357	211.88
629.564	215.88
629.77	223.88
629.976	220.88
630.183	228.88
630.389	217.88
630.595	226.88
630.802	235.88
631.008	227.88
631.214	212.88
631.42	224.88
631.627	248.88
631.833	211.88
632.039	232.88
632.245	216.88
632.451	224.88
632.657	215.88
632.863	212.88
633.069	203.88
633.275	201.88
633.481	202.88
633.688	215.88
633.893	219.88
634.099	200.88
634.305	207.88
634.511	206.88
634.717	220.88
634.923	228.88
635.129	215.88
635.335	234.88
635.541	203.88
635.747	215.88
635.952	201.88
636.158	191.88
636.364	216.88
636.57	209.88
636.775	185.88
636.981	184.88
637.187	212.88
637.392	240.88
637.598	203.88
637.804	193.88
638.009	199.88
638.215	201.88
638.421	211.88
638.626	185.88
638.832	190.88
639.037	205.88
639.243	189.88
639.448	200.88
639.654	215.88
639.859	199.88
640.065	197.88
640.27	209.88
640.475	188.88
640.681	200.88
640.886	194.88
641.091	210.88
641.297	205.88
641.502	202.88
641.707	204.88
641.913	203.88
642.118	179.88
642.323	187.88
642.528	184.88
642.733	195.88
642.939	191.88
643.144	185.88
643.349	181.88
643.554	195.88
643.759	200.88
643.964	202.88
644.169	188.88
644.374	200.88
644.579	189.88
644.784	184.88
644.989	192.88
645.194	190.88
645.399	191.88
645.604	183.88
645.809	191.88
646.014	200.88
646.219	173.88
646.423	183.88
646.628	185.88
646.833	216.88
647.038	187.88
647.243	189.88
647.447	200.88
647.652	203.88
647.857	197.88
648.062	218.88
648.266	195.88
648.471	188.88
648.676	191.88
648.88	212.88
649.085	202.88
649.289	192.88
649.494	183.88
649.698	200.88
649.903	204.88
650.107	184.88
650.312	189.88
650.516	186.88
650.721	170.88
650.925	168.88
651.13	178.88
651.334	163.88
651.539	161.88
651.743	168.88
651.947	147.88
652.152	167.88
652.356	169.88
652.56	159.88
652.764	165.88
652.969	161.88
653.173	163.88
653.377	150.88
653.581	158.88
653.785	156.88
653.99	161.88
654.194	148.88
654.398	162.88
654.602	146.88
654.806	152.88
655.01	149.88
655.214	153.88
655.418	147.88
655.622	136.88
655.826	155.88
656.03	165.88
656.234	154.88
656.438	135.88
656.642	147.88
656.846	152.88
657.049	144.88
657.253	139.88
657.457	131.88
657.661	106.88
657.865	121.88
658.068	114.88
658.272	123.88
658.476	104.88
658.68	123.88
658.883	117.88
659.087	105.88
659.291	112.88
659.494	104.88
659.698	101.88
659.901	96.88
660.105	90.88
660.309	92.88
660.512	91.88
660.716	101.88
660.919	94.88
661.123	100.88
661.326	82.88
661.53	83.88
661.733	93.88
661.936	88.88
662.14	96.88
662.343	79.88
662.546	81.88
662.75	68.88
662.953	83.88
663.156	71.88
663.36	77.88
663.563	81.88
663.766	70.88
663.969	85.88
664.173	79.88
664.376	69.88
664.579	81.88
664.782	72.88
664.985	73.88
665.188	65.88
665.391	72.88
665.594	84.88
665.797	76.88
666	69.88
666.203	79.88
666.406	82.88
666.609	66.88
666.812	79.88
667.015	76.88
667.218	87.88
667.421	73.88
667.624	80.88
667.827	87.88
668.03	75.88
668.232	68.88
668.435	79.88
668.638	65.88
668.841	85.88
669.043	83.88
669.246	73.88
669.449	74.88
669.651	79.88
669.854	78.88
670.057	86.88
670.259	71.88
670.462	79.88
670.665	67.88
670.867	83.88
671.07	80.88
671.272	75.88
671.475	72.88
671.677	81.88
671.88	80.88
672.082	72.88
672.284	90.88
672.487	83.88
672.689	72.88
672.892	79.88
