Data from 1963.PennyLincolnUp.Lamp.En5.5.200Scan.071719.P1._HRD10591_13-58-29-063.txt Node
Date: Thu Jul 18 13:58:29 EDT 2019
User: cochatt
Spectrometer: HR+D1059
Trigger mode: 1
Integration Time (sec): 1.000000E-1
Scans to average: 1
Electric dark correction enabled: true
Nonlinearity correction enabled: false
Boxcar width: 0
XAxis mode: Wavelengths
Number of Pixels in Spectrum: 2048
>>>>>Begin Spectral Data<<<<<
223.165	-19.19
223.4	-19.19
223.635	-19.19
223.869	-32.19
224.104	-17.19
224.338	-2.19
224.573	-12.19
224.808	-12.19
225.042	9.81
225.277	-6.19
225.511	-6.19
225.746	-1.19
225.98	17.81
226.215	8.81
226.449	20.81
226.683	15.81
226.918	18.81
227.152	16.81
227.387	31.81
227.621	38.81
227.856	49.81
228.09	41.81
228.324	45.81
228.559	57.81
228.793	57.81
229.027	98.81
229.262	90.81
229.496	102.81
229.73	124.81
229.964	141.81
230.199	121.81
230.433	116.81
230.667	121.81
230.901	126.81
231.136	113.81
231.37	106.81
231.604	121.81
231.838	118.81
232.072	140.81
232.306	137.81
232.541	122.81
232.775	124.81
233.009	116.81
233.243	108.81
233.477	128.81
233.711	121.81
233.945	125.81
234.179	125.81
234.413	131.81
234.647	120.81
234.881	116.81
235.115	129.81
235.349	132.81
235.583	120.81
235.817	123.81
236.051	114.81
236.285	131.81
236.519	124.81
236.753	133.81
236.987	137.81
237.221	168.81
237.455	197.81
237.689	169.81
237.922	151.81
238.156	129.81
238.39	149.81
238.624	133.81
238.858	128.81
239.091	123.81
239.325	133.81
239.559	128.81
239.793	134.81
240.027	141.81
240.26	147.81
240.494	153.81
240.728	148.81
240.961	162.81
241.195	154.81
241.429	147.81
241.662	143.81
241.896	148.81
242.13	137.81
242.363	133.81
242.597	156.81
242.83	153.81
243.064	143.81
243.298	153.81
243.531	131.81
243.765	156.81
243.998	168.81
244.232	147.81
244.465	147.81
244.699	163.81
244.932	164.81
245.166	151.81
245.399	171.81
245.633	154.81
245.866	163.81
246.099	166.81
246.333	175.81
246.566	182.81
246.8	181.81
247.033	172.81
247.266	177.81
247.5	181.81
247.733	193.81
247.966	171.81
248.2	175.81
248.433	182.81
248.666	175.81
248.899	202.81
249.133	203.81
249.366	197.81
249.599	187.81
249.832	185.81
250.066	202.81
250.299	200.81
250.532	210.81
250.765	209.81
250.998	211.81
251.231	229.81
251.465	222.81
251.698	215.81
251.931	216.81
252.164	195.81
252.397	205.81
252.63	198.81
252.863	211.81
253.096	233.81
253.329	243.81
253.562	218.81
253.795	229.81
254.028	231.81
254.261	204.81
254.494	226.81
254.727	261.81
254.96	283.81
255.193	252.81
255.426	249.81
255.659	246.81
255.892	254.81
256.124	241.81
256.357	261.81
256.59	224.81
256.823	241.81
257.056	202.81
257.289	233.81
257.521	228.81
257.754	222.81
257.987	213.81
258.22	221.81
258.452	233.81
258.685	224.81
258.918	220.81
259.151	221.81
259.383	232.81
259.616	247.81
259.849	241.81
260.081	261.81
260.314	259.81
260.547	275.81
260.779	286.81
261.012	249.81
261.244	250.81
261.477	241.81
261.71	234.81
261.942	235.81
262.175	237.81
262.407	246.81
262.64	231.81
262.872	242.81
263.105	221.81
263.337	241.81
263.57	232.81
263.802	243.81
264.035	254.81
264.267	249.81
264.499	269.81
264.732	251.81
264.964	248.81
265.197	255.81
265.429	239.81
265.661	242.81
265.894	247.81
266.126	257.81
266.358	249.81
266.591	237.81
266.823	257.81
267.055	254.81
267.287	257.81
267.52	262.81
267.752	261.81
267.984	275.81
268.216	238.81
268.448	253.81
268.681	266.81
268.913	275.81
269.145	291.81
269.377	264.81
269.609	279.81
269.841	282.81
270.073	281.81
270.306	292.81
270.538	325.81
270.77	319.81
271.002	303.81
271.234	312.81
271.466	292.81
271.698	316.81
271.93	327.81
272.162	314.81
272.394	342.81
272.626	339.81
272.858	321.81
273.09	300.81
273.322	297.81
273.553	285.81
273.785	291.81
274.017	290.81
274.249	293.81
274.481	302.81
274.713	289.81
274.945	286.81
275.176	300.81
275.408	300.81
275.64	305.81
275.872	299.81
276.104	292.81
276.335	297.81
276.567	297.81
276.799	320.81
277.031	323.81
277.262	322.81
277.494	319.81
277.726	328.81
277.957	317.81
278.189	299.81
278.421	326.81
278.652	296.81
278.884	296.81
279.115	309.81
279.347	315.81
279.579	303.81
279.81	314.81
280.042	305.81
280.273	301.81
280.505	317.81
280.736	327.81
280.968	332.81
281.199	329.81
281.431	325.81
281.662	321.81
281.894	317.81
282.125	317.81
282.356	330.81
282.588	329.81
282.819	347.81
283.051	313.81
283.282	322.81
283.513	330.81
283.745	319.81
283.976	321.81
284.207	322.81
284.439	309.81
284.67	337.81
284.901	338.81
285.132	338.81
285.364	303.81
285.595	328.81
285.826	322.81
286.057	338.81
286.288	335.81
286.52	334.81
286.751	333.81
286.982	347.81
287.213	345.81
287.444	358.81
287.675	362.81
287.906	345.81
288.138	364.81
288.369	362.81
288.6	362.81
288.831	341.81
289.062	341.81
289.293	369.81
289.524	353.81
289.755	343.81
289.986	346.81
290.217	351.81
290.448	359.81
290.679	345.81
290.91	339.81
291.141	357.81
291.371	342.81
291.602	356.81
291.833	343.81
292.064	345.81
292.295	342.81
292.526	346.81
292.757	348.81
292.987	373.81
293.218	364.81
293.449	340.81
293.68	358.81
293.91	351.81
294.141	340.81
294.372	345.81
294.603	355.81
294.833	374.81
295.064	360.81
295.295	364.81
295.525	355.81
295.756	349.81
295.987	372.81
296.217	367.81
296.448	383.81
296.679	364.81
296.909	343.81
297.14	364.81
297.37	365.81
297.601	379.81
297.831	372.81
298.062	361.81
298.292	366.81
298.523	370.81
298.753	378.81
298.984	389.81
299.214	393.81
299.445	399.81
299.675	405.81
299.905	387.81
300.136	388.81
300.366	384.81
300.597	380.81
300.827	407.81
301.057	407.81
301.288	415.81
301.518	395.81
301.748	400.81
301.979	417.81
302.209	407.81
302.439	409.81
302.669	414.81
302.9	420.81
303.13	400.81
303.36	407.81
303.59	394.81
303.82	412.81
304.051	406.81
304.281	408.81
304.511	396.81
304.741	387.81
304.971	411.81
305.201	398.81
305.431	409.81
305.661	417.81
305.891	414.81
306.121	409.81
306.352	391.81
306.582	404.81
306.812	387.81
307.042	393.81
307.272	404.81
307.502	410.81
307.731	401.81
307.961	409.81
308.191	388.81
308.421	407.81
308.651	410.81
308.881	413.81
309.111	406.81
309.341	400.81
309.571	405.81
309.8	415.81
310.03	416.81
310.26	406.81
310.49	438.81
310.72	442.81
310.949	453.81
311.179	455.81
311.409	416.81
311.639	435.81
311.868	429.81
312.098	445.81
312.328	429.81
312.557	441.81
312.787	444.81
313.017	459.81
313.246	465.81
313.476	445.81
313.706	449.81
313.935	440.81
314.165	439.81
314.394	444.81
314.624	419.81
314.853	450.81
315.083	456.81
315.312	458.81
315.542	428.81
315.771	442.81
316.001	453.81
316.23	433.81
316.46	457.81
316.689	445.81
316.919	436.81
317.148	447.81
317.377	476.81
317.607	459.81
317.836	435.81
318.065	460.81
318.295	457.81
318.524	449.81
318.753	446.81
318.983	445.81
319.212	436.81
319.441	466.81
319.67	459.81
319.9	424.81
320.129	444.81
320.358	444.81
320.587	447.81
320.816	461.81
321.046	452.81
321.275	453.81
321.504	445.81
321.733	450.81
321.962	445.81
322.191	453.81
322.42	474.81
322.649	476.81
322.878	471.81
323.108	483.81
323.337	507.81
323.566	510.81
323.795	537.81
324.024	561.81
324.253	616.81
324.482	763.81
324.71	1097.81
324.939	1539.81
325.168	1367.81
325.397	776.81
325.626	606.81
325.855	561.81
326.084	543.81
326.313	513.81
326.542	537.81
326.77	561.81
326.999	602.81
327.228	738.81
327.457	1051.81
327.686	1218.81
327.914	885.81
328.143	651.81
328.372	594.81
328.6	561.81
328.829	551.81
329.058	552.81
329.287	602.81
329.515	582.81
329.744	555.81
329.972	547.81
330.201	544.81
330.43	597.81
330.658	613.81
330.887	597.81
331.115	591.81
331.344	559.81
331.572	558.81
331.801	539.81
332.03	568.81
332.258	524.81
332.486	559.81
332.715	543.81
332.943	558.81
333.172	592.81
333.4	595.81
333.629	604.81
333.857	613.81
334.085	632.81
334.314	621.81
334.542	641.81
334.771	645.81
334.999	602.81
335.227	601.81
335.455	595.81
335.684	567.81
335.912	581.81
336.14	555.81
336.369	578.81
336.597	573.81
336.825	563.81
337.053	550.81
337.281	546.81
337.51	558.81
337.738	550.81
337.966	531.81
338.194	545.81
338.422	529.81
338.65	531.81
338.878	536.81
339.106	515.81
339.334	543.81
339.562	549.81
339.79	525.81
340.018	526.81
340.246	522.81
340.474	517.81
340.702	523.81
340.93	506.81
341.158	533.81
341.386	533.81
341.614	517.81
341.842	523.81
342.07	525.81
342.298	524.81
342.526	521.81
342.754	504.81
342.981	505.81
343.209	517.81
343.437	525.81
343.665	552.81
343.893	586.81
344.12	598.81
344.348	582.81
344.576	588.81
344.804	554.81
345.031	533.81
345.259	531.81
345.487	533.81
345.714	523.81
345.942	520.81
346.17	508.81
346.397	516.81
346.625	480.81
346.853	498.81
347.08	488.81
347.308	495.81
347.535	488.81
347.763	483.81
347.99	491.81
348.218	493.81
348.445	504.81
348.673	478.81
348.9	493.81
349.128	512.81
349.355	489.81
349.583	481.81
349.81	479.81
350.037	467.81
350.265	481.81
350.492	479.81
350.72	487.81
350.947	499.81
351.174	482.81
351.402	494.81
351.629	482.81
351.856	470.81
352.083	469.81
352.311	504.81
352.538	481.81
352.765	499.81
352.992	489.81
353.22	487.81
353.447	481.81
353.674	495.81
353.901	477.81
354.128	466.81
354.355	468.81
354.583	485.81
354.81	474.81
355.037	483.81
355.264	482.81
355.491	478.81
355.718	473.81
355.945	505.81
356.172	489.81
356.399	479.81
356.626	458.81
356.853	478.81
357.08	467.81
357.307	463.81
357.534	490.81
357.761	457.81
357.988	484.81
358.215	477.81
358.441	468.81
358.668	457.81
358.895	496.81
359.122	490.81
359.349	486.81
359.576	508.81
359.802	512.81
360.029	513.81
360.256	499.81
360.483	505.81
360.709	488.81
360.936	490.81
361.163	493.81
361.39	499.81
361.616	503.81
361.843	483.81
362.07	475.81
362.296	510.81
362.523	483.81
362.749	490.81
362.976	496.81
363.203	481.81
363.429	508.81
363.656	473.81
363.882	485.81
364.109	461.81
364.335	476.81
364.562	482.81
364.788	495.81
365.015	484.81
365.241	485.81
365.468	498.81
365.694	474.81
365.92	513.81
366.147	497.81
366.373	498.81
366.599	471.81
366.826	488.81
367.052	493.81
367.278	478.81
367.505	500.81
367.731	506.81
367.957	492.81
368.184	484.81
368.41	502.81
368.636	491.81
368.862	489.81
369.089	505.81
369.315	489.81
369.541	485.81
369.767	499.81
369.993	512.81
370.219	473.81
370.445	499.81
370.672	506.81
370.898	488.81
371.124	489.81
371.35	513.81
371.576	519.81
371.802	491.81
372.028	488.81
372.254	511.81
372.48	521.81
372.706	491.81
372.932	510.81
373.158	529.81
373.384	515.81
373.61	501.81
373.835	520.81
374.061	504.81
374.287	524.81
374.513	525.81
374.739	525.81
374.965	533.81
375.191	547.81
375.416	539.81
375.642	532.81
375.868	517.81
376.094	525.81
376.319	512.81
376.545	521.81
376.771	523.81
376.997	511.81
377.222	505.81
377.448	519.81
377.674	507.81
377.899	520.81
378.125	489.81
378.35	506.81
378.576	516.81
378.802	484.81
379.027	495.81
379.253	510.81
379.478	513.81
379.704	533.81
379.929	496.81
380.155	484.81
380.38	509.81
380.606	499.81
380.831	519.81
381.057	515.81
381.282	515.81
381.507	523.81
381.733	509.81
381.958	531.81
382.184	494.81
382.409	523.81
382.634	521.81
382.86	521.81
383.085	542.81
383.31	555.81
383.535	554.81
383.761	558.81
383.986	571.81
384.211	569.81
384.436	573.81
384.662	568.81
384.887	569.81
385.112	567.81
385.337	587.81
385.562	574.81
385.787	574.81
386.013	586.81
386.238	589.81
386.463	593.81
386.688	606.81
386.913	597.81
387.138	576.81
387.363	579.81
387.588	599.81
387.813	597.81
388.038	581.81
388.263	562.81
388.488	579.81
388.713	575.81
388.938	583.81
389.163	574.81
389.387	580.81
389.612	571.81
389.837	585.81
390.062	588.81
390.287	570.81
390.512	585.81
390.736	579.81
390.961	587.81
391.186	574.81
391.411	589.81
391.636	598.81
391.86	637.81
392.085	595.81
392.31	612.81
392.534	616.81
392.759	633.81
392.984	610.81
393.208	625.81
393.433	604.81
393.658	606.81
393.882	610.81
394.107	615.81
394.331	596.81
394.556	613.81
394.78	614.81
395.005	586.81
395.229	605.81
395.454	633.81
395.678	633.81
395.903	650.81
396.127	641.81
396.352	632.81
396.576	628.81
396.801	603.81
397.025	625.81
397.249	607.81
397.474	644.81
397.698	645.81
397.922	654.81
398.147	642.81
398.371	663.81
398.595	678.81
398.82	690.81
399.044	711.81
399.268	793.81
399.492	848.81
399.717	924.81
399.941	965.81
400.165	881.81
400.389	887.81
400.613	775.81
400.837	743.81
401.062	723.81
401.286	705.81
401.51	689.81
401.734	707.81
401.958	681.81
402.182	697.81
402.406	705.81
402.63	720.81
402.854	729.81
403.078	734.81
403.302	748.81
403.526	771.81
403.75	760.81
403.974	749.81
404.198	751.81
404.422	784.81
404.645	757.81
404.869	733.81
405.093	791.81
405.317	814.81
405.541	828.81
405.765	791.81
405.988	771.81
406.212	773.81
406.436	805.81
406.66	805.81
406.883	796.81
407.107	809.81
407.331	865.81
407.555	941.81
407.778	945.81
408.002	866.81
408.226	825.81
408.449	793.81
408.673	779.81
408.896	823.81
409.12	841.81
409.344	806.81
409.567	759.81
409.791	742.81
410.014	766.81
410.238	741.81
410.461	760.81
410.685	734.81
410.908	733.81
411.132	735.81
411.355	758.81
411.578	772.81
411.802	725.81
412.025	717.81
412.249	739.81
412.472	760.81
412.695	782.81
412.919	767.81
413.142	715.81
413.365	711.81
413.589	702.81
413.812	693.81
414.035	705.81
414.258	702.81
414.482	700.81
414.705	716.81
414.928	689.81
415.151	686.81
415.374	686.81
415.597	694.81
415.821	673.81
416.044	685.81
416.267	700.81
416.49	695.81
416.713	653.81
416.936	673.81
417.159	671.81
417.382	682.81
417.605	705.81
417.828	715.81
418.051	695.81
418.274	718.81
418.497	674.81
418.72	715.81
418.943	678.81
419.166	730.81
419.389	759.81
419.611	754.81
419.834	735.81
420.057	745.81
420.28	727.81
420.503	714.81
420.726	694.81
420.948	728.81
421.171	754.81
421.394	753.81
421.617	715.81
421.839	693.81
422.062	697.81
422.285	719.81
422.507	737.81
422.73	843.81
422.953	803.81
423.175	747.81
423.398	755.81
423.621	742.81
423.843	803.81
424.066	783.81
424.288	772.81
424.511	722.81
424.733	795.81
424.956	843.81
425.178	820.81
425.401	801.81
425.623	842.81
425.846	756.81
426.068	705.81
426.291	705.81
426.513	707.81
426.735	714.81
426.958	744.81
427.18	790.81
427.402	904.81
427.625	941.81
427.847	854.81
428.069	755.81
428.292	717.81
428.514	684.81
428.736	653.81
428.958	671.81
429.181	640.81
429.403	649.81
429.625	660.81
429.847	679.81
430.069	715.81
430.292	697.81
430.514	657.81
430.736	673.81
430.958	636.81
431.18	632.81
431.402	614.81
431.624	634.81
431.846	643.81
432.068	630.81
432.29	639.81
432.512	629.81
432.734	652.81
432.956	653.81
433.178	638.81
433.4	671.81
433.622	641.81
433.844	638.81
434.066	637.81
434.287	656.81
434.509	663.81
434.731	669.81
434.953	695.81
435.175	721.81
435.397	729.81
435.618	719.81
435.84	742.81
436.062	774.81
436.284	806.81
436.505	730.81
436.727	687.81
436.949	669.81
437.17	669.81
437.392	662.81
437.614	670.81
437.835	687.81
438.057	740.81
438.278	794.81
438.5	804.81
438.721	852.81
438.943	855.81
439.165	716.81
439.386	697.81
439.608	684.81
439.829	689.81
440.05	699.81
440.272	712.81
440.493	706.81
440.715	685.81
440.936	655.81
441.158	693.81
441.379	684.81
441.6	694.81
441.822	715.81
442.043	738.81
442.264	825.81
442.486	824.81
442.707	750.81
442.928	718.81
443.149	722.81
443.371	704.81
443.592	770.81
443.813	866.81
444.034	898.81
444.255	794.81
444.476	771.81
444.698	799.81
444.919	803.81
445.14	895.81
445.361	812.81
445.582	753.81
445.803	804.81
446.024	837.81
446.245	861.81
446.466	781.81
446.687	721.81
446.908	680.81
447.129	660.81
447.35	649.81
447.571	655.81
447.792	639.81
448.013	637.81
448.234	625.81
448.455	674.81
448.675	735.81
448.896	859.81
449.117	715.81
449.338	706.81
449.559	795.81
449.779	886.81
450	753.81
450.221	639.81
450.442	632.81
450.662	610.81
450.883	606.81
451.104	644.81
451.324	618.81
451.545	607.81
451.766	592.81
451.986	594.81
452.207	576.81
452.428	596.81
452.648	567.81
452.869	597.81
453.089	583.81
453.31	600.81
453.53	583.81
453.751	576.81
453.971	601.81
454.192	586.81
454.412	562.81
454.633	562.81
454.853	549.81
455.073	575.81
455.294	604.81
455.514	654.81
455.734	620.81
455.955	581.81
456.175	541.81
456.395	564.81
456.616	564.81
456.836	546.81
457.056	539.81
457.276	537.81
457.497	552.81
457.717	567.81
457.937	553.81
458.157	546.81
458.377	589.81
458.598	605.81
458.818	653.81
459.038	702.81
459.258	722.81
459.478	647.81
459.698	652.81
459.918	664.81
460.138	671.81
460.358	687.81
460.578	699.81
460.798	726.81
461.018	707.81
461.238	701.81
461.458	671.81
461.678	711.81
461.898	695.81
462.118	706.81
462.338	707.81
462.558	722.81
462.777	761.81
462.997	807.81
463.217	831.81
463.437	883.81
463.657	833.81
463.876	797.81
464.096	806.81
464.316	789.81
464.536	807.81
464.755	763.81
464.975	773.81
465.195	787.81
465.414	778.81
465.634	694.81
465.854	666.81
466.073	647.81
466.293	648.81
466.512	621.81
466.732	611.81
466.951	620.81
467.171	601.81
467.391	643.81
467.61	627.81
467.829	622.81
468.049	617.81
468.268	598.81
468.488	604.81
468.707	596.81
468.927	597.81
469.146	588.81
469.365	599.81
469.585	611.81
469.804	625.81
470.023	622.81
470.243	625.81
470.462	637.81
470.681	615.81
470.901	619.81
471.12	612.81
471.339	634.81
471.558	627.81
471.777	625.81
471.997	603.81
472.216	606.81
472.435	637.81
472.654	619.81
472.873	627.81
473.092	598.81
473.311	587.81
473.53	632.81
473.749	601.81
473.968	625.81
474.187	711.81
474.406	737.81
474.625	649.81
474.844	589.81
475.063	602.81
475.282	607.81
475.501	602.81
475.72	614.81
475.939	631.81
476.158	634.81
476.377	603.81
476.596	643.81
476.814	658.81
477.033	663.81
477.252	674.81
477.471	665.81
477.69	677.81
477.908	653.81
478.127	682.81
478.346	685.81
478.564	693.81
478.783	708.81
479.002	689.81
479.22	735.81
479.439	727.81
479.658	749.81
479.876	727.81
480.095	749.81
480.313	788.81
480.532	796.81
480.751	792.81
480.969	766.81
481.188	824.81
481.406	799.81
481.624	734.81
481.843	737.81
482.061	702.81
482.28	715.81
482.498	687.81
482.717	702.81
482.935	696.81
483.153	703.81
483.372	712.81
483.59	694.81
483.808	713.81
484.027	721.81
484.245	731.81
484.463	728.81
484.681	714.81
484.9	742.81
485.118	719.81
485.336	738.81
485.554	734.81
485.772	750.81
485.99	762.81
486.209	723.81
486.427	745.81
486.645	743.81
486.863	757.81
487.081	755.81
487.299	756.81
487.517	759.81
487.735	731.81
487.953	770.81
488.171	741.81
488.389	754.81
488.607	731.81
488.825	732.81
489.043	733.81
489.261	759.81
489.479	767.81
489.696	764.81
489.914	759.81
490.132	744.81
490.35	748.81
490.568	789.81
490.786	765.81
491.003	791.81
491.221	807.81
491.439	822.81
491.657	827.81
491.874	855.81
492.092	840.81
492.31	828.81
492.527	849.81
492.745	869.81
492.963	836.81
493.18	850.81
493.398	861.81
493.615	878.81
493.833	883.81
494.05	883.81
494.268	856.81
494.485	861.81
494.703	844.81
494.92	854.81
495.138	859.81
495.355	862.81
495.573	863.81
495.79	893.81
496.008	878.81
496.225	883.81
496.442	893.81
496.66	897.81
496.877	865.81
497.094	895.81
497.312	908.81
497.529	911.81
497.746	941.81
497.963	932.81
498.181	1007.81
498.398	1040.81
498.615	1066.81
498.832	1101.81
499.049	1178.81
499.267	1203.81
499.484	1285.81
499.701	1345.81
499.918	1462.81
500.135	1591.81
500.352	1703.81
500.569	1781.81
500.786	1821.81
501.003	1713.81
501.22	1601.81
501.437	1513.81
501.654	1378.81
501.871	1341.81
502.088	1220.81
502.305	1173.81
502.522	1121.81
502.739	1055.81
502.956	1033.81
503.172	990.81
503.389	970.81
503.606	965.81
503.823	953.81
504.04	943.81
504.256	945.81
504.473	946.81
504.69	956.81
504.907	950.81
505.123	883.81
505.34	899.81
505.557	851.81
505.773	849.81
505.99	821.81
506.207	811.81
506.423	822.81
506.64	817.81
506.856	830.81
507.073	809.81
507.289	797.81
507.506	770.81
507.722	813.81
507.939	814.81
508.155	772.81
508.372	760.81
508.588	759.81
508.805	777.81
509.021	760.81
509.238	762.81
509.454	763.81
509.67	746.81
509.887	739.81
510.103	764.81
510.319	753.81
510.536	781.81
510.752	1148.81
510.968	983.81
511.184	742.81
511.401	703.81
511.617	741.81
511.833	742.81
512.049	717.81
512.265	703.81
512.481	735.81
512.698	717.81
512.914	728.81
513.13	714.81
513.346	692.81
513.562	694.81
513.778	726.81
513.994	706.81
514.21	732.81
514.426	738.81
514.642	757.81
514.858	755.81
515.074	794.81
515.29	899.81
515.506	1147.81
515.721	1028.81
515.937	814.81
516.153	800.81
516.369	791.81
516.585	774.81
516.801	785.81
517.016	821.81
517.232	867.81
517.448	850.81
517.664	883.81
517.879	860.81
518.095	876.81
518.311	899.81
518.527	855.81
518.742	831.81
518.958	789.81
519.173	781.81
519.389	777.81
519.605	719.81
519.82	750.81
520.036	763.81
520.251	722.81
520.467	731.81
520.682	726.81
520.898	766.81
521.113	770.81
521.329	750.81
521.544	817.81
521.76	907.81
521.975	1324.81
522.19	1393.81
522.406	883.81
522.621	716.81
522.836	682.81
523.052	688.81
523.267	655.81
523.482	663.81
523.698	648.81
523.913	647.81
524.128	659.81
524.343	664.81
524.559	635.81
524.774	631.81
524.989	625.81
525.204	657.81
525.419	627.81
525.634	608.81
525.849	617.81
526.064	620.81
526.28	613.81
526.495	620.81
526.71	610.81
526.925	602.81
527.14	619.81
527.355	606.81
527.57	610.81
527.785	622.81
527.999	613.81
528.214	606.81
528.429	619.81
528.644	628.81
528.859	601.81
529.074	615.81
529.289	631.81
529.503	645.81
529.718	658.81
529.933	614.81
530.148	624.81
530.363	610.81
530.577	622.81
530.792	617.81
531.007	601.81
531.221	604.81
531.436	611.81
531.651	609.81
531.865	600.81
532.08	618.81
532.295	603.81
532.509	609.81
532.724	613.81
532.938	637.81
533.153	611.81
533.367	585.81
533.582	634.81
533.796	587.81
534.011	599.81
534.225	620.81
534.44	625.81
534.654	625.81
534.868	581.81
535.083	595.81
535.297	589.81
535.511	576.81
535.726	602.81
535.94	591.81
536.154	578.81
536.369	583.81
536.583	571.81
536.797	595.81
537.011	581.81
537.225	574.81
537.44	545.81
537.654	582.81
537.868	567.81
538.082	554.81
538.296	565.81
538.51	573.81
538.724	563.81
538.938	567.81
539.153	567.81
539.367	591.81
539.581	570.81
539.795	548.81
540.009	549.81
540.222	561.81
540.436	541.81
540.65	571.81
540.864	582.81
541.078	575.81
541.292	586.81
541.506	557.81
541.72	569.81
541.934	562.81
542.147	547.81
542.361	568.81
542.575	552.81
542.789	567.81
543.002	567.81
543.216	567.81
543.43	558.81
543.644	533.81
543.857	565.81
544.071	541.81
544.285	579.81
544.498	567.81
544.712	563.81
544.925	559.81
545.139	549.81
545.352	584.81
545.566	595.81
545.779	566.81
545.993	577.81
546.206	577.81
546.42	574.81
546.633	572.81
546.847	561.81
547.06	581.81
547.274	554.81
547.487	565.81
547.7	561.81
547.914	571.81
548.127	568.81
548.34	558.81
548.554	568.81
548.767	569.81
548.98	559.81
549.193	546.81
549.407	583.81
549.62	585.81
549.833	579.81
550.046	573.81
550.259	545.81
550.473	570.81
550.686	547.81
550.899	569.81
551.112	567.81
551.325	553.81
551.538	549.81
551.751	574.81
551.964	560.81
552.177	582.81
552.39	571.81
552.603	574.81
552.816	571.81
553.029	593.81
553.242	596.81
553.455	618.81
553.667	603.81
553.88	598.81
554.093	621.81
554.306	598.81
554.519	587.81
554.732	559.81
554.944	569.81
555.157	541.81
555.37	550.81
555.583	557.81
555.795	539.81
556.008	536.81
556.221	520.81
556.433	520.81
556.646	499.81
556.859	482.81
557.071	475.81
557.284	519.81
557.496	502.81
557.709	511.81
557.921	512.81
558.134	502.81
558.346	464.81
558.559	481.81
558.771	472.81
558.984	477.81
559.196	475.81
559.409	495.81
559.621	485.81
559.833	463.81
560.046	500.81
560.258	488.81
560.47	473.81
560.683	492.81
560.895	490.81
561.107	494.81
561.32	488.81
561.532	512.81
561.744	509.81
561.956	482.81
562.168	482.81
562.381	474.81
562.593	481.81
562.805	515.81
563.017	521.81
563.229	493.81
563.441	490.81
563.653	509.81
563.865	525.81
564.077	504.81
564.289	519.81
564.501	535.81
564.713	533.81
564.925	506.81
565.137	540.81
565.349	536.81
565.561	570.81
565.773	586.81
565.985	607.81
566.197	627.81
566.408	627.81
566.62	676.81
566.832	719.81
567.044	741.81
567.255	718.81
567.467	770.81
567.679	799.81
567.891	834.81
568.102	810.81
568.314	813.81
568.526	743.81
568.737	687.81
568.949	649.81
569.161	641.81
569.372	572.81
569.584	571.81
569.795	543.81
570.007	532.81
570.218	545.81
570.43	539.81
570.641	520.81
570.853	523.81
571.064	509.81
571.276	519.81
571.487	491.81
571.698	509.81
571.91	477.81
572.121	469.81
572.333	461.81
572.544	455.81
572.755	448.81
572.966	470.81
573.178	449.81
573.389	443.81
573.6	419.81
573.811	419.81
574.023	424.81
574.234	441.81
574.445	434.81
574.656	447.81
574.867	444.81
575.078	422.81
575.289	434.81
575.501	420.81
575.712	415.81
575.923	418.81
576.134	439.81
576.345	427.81
576.556	429.81
576.767	421.81
576.978	401.81
577.188	391.81
577.399	396.81
577.61	425.81
577.821	417.81
578.032	388.81
578.243	420.81
578.454	569.81
578.665	459.81
578.875	405.81
579.086	395.81
579.297	374.81
579.508	374.81
579.718	392.81
579.929	389.81
580.14	382.81
580.35	363.81
580.561	368.81
580.772	382.81
580.982	371.81
581.193	359.81
581.403	367.81
581.614	389.81
581.825	383.81
582.035	394.81
582.246	385.81
582.456	378.81
582.667	373.81
582.877	387.81
583.087	360.81
583.298	387.81
583.508	369.81
583.719	380.81
583.929	361.81
584.139	383.81
584.35	362.81
584.56	369.81
584.77	373.81
584.981	356.81
585.191	373.81
585.401	369.81
585.611	389.81
585.821	391.81
586.032	350.81
586.242	362.81
586.452	354.81
586.662	339.81
586.872	362.81
587.082	364.81
587.292	374.81
587.502	369.81
587.713	362.81
587.923	347.81
588.133	346.81
588.343	354.81
588.553	350.81
588.762	350.81
588.972	367.81
589.182	350.81
589.392	365.81
589.602	364.81
589.812	354.81
590.022	382.81
590.232	373.81
590.441	376.81
590.651	365.81
590.861	375.81
591.071	376.81
591.281	379.81
591.49	373.81
591.7	365.81
591.91	365.81
592.119	397.81
592.329	389.81
592.539	407.81
592.748	441.81
592.958	409.81
593.167	435.81
593.377	437.81
593.587	431.81
593.796	422.81
594.006	457.81
594.215	427.81
594.424	449.81
594.634	428.81
594.843	411.81
595.053	422.81
595.262	424.81
595.472	396.81
595.681	405.81
595.89	385.81
596.1	382.81
596.309	371.81
596.518	381.81
596.727	380.81
596.937	370.81
597.146	341.81
597.355	376.81
597.564	328.81
597.774	331.81
597.983	340.81
598.192	324.81
598.401	348.81
598.61	347.81
598.819	330.81
599.028	329.81
599.237	350.81
599.446	322.81
599.655	328.81
599.864	322.81
600.073	318.81
600.282	316.81
600.491	319.81
600.7	314.81
600.909	328.81
601.118	332.81
601.327	321.81
601.536	314.81
601.745	309.81
601.953	308.81
602.162	296.81
602.371	307.81
602.58	302.81
602.789	304.81
602.997	298.81
603.206	308.81
603.415	287.81
603.623	308.81
603.832	292.81
604.041	293.81
604.249	306.81
604.458	313.81
604.666	289.81
604.875	299.81
605.084	312.81
605.292	297.81
605.501	303.81
605.709	306.81
605.918	293.81
606.126	305.81
606.334	290.81
606.543	294.81
606.751	300.81
606.96	298.81
607.168	300.81
607.376	291.81
607.585	315.81
607.793	299.81
608.001	286.81
608.21	298.81
608.418	287.81
608.626	309.81
608.834	301.81
609.043	284.81
609.251	309.81
609.459	279.81
609.667	282.81
609.875	302.81
610.083	290.81
610.291	285.81
610.499	299.81
610.707	285.81
610.916	286.81
611.124	303.81
611.332	280.81
611.54	282.81
611.748	287.81
611.955	284.81
612.163	281.81
612.371	290.81
612.579	280.81
612.787	293.81
612.995	275.81
613.203	296.81
613.411	293.81
613.618	291.81
613.826	288.81
614.034	299.81
614.242	281.81
614.449	278.81
614.657	288.81
614.865	287.81
615.072	285.81
615.28	280.81
615.488	292.81
615.695	287.81
615.903	287.81
616.111	292.81
616.318	307.81
616.526	285.81
616.733	286.81
616.941	282.81
617.148	278.81
617.356	254.81
617.563	284.81
617.771	282.81
617.978	272.81
618.185	295.81
618.393	305.81
618.6	273.81
618.807	291.81
619.015	283.81
619.222	298.81
619.429	291.81
619.637	294.81
619.844	283.81
620.051	280.81
620.258	279.81
620.466	281.81
620.673	277.81
620.88	268.81
621.087	271.81
621.294	293.81
621.501	273.81
621.708	268.81
621.915	267.81
622.122	270.81
622.329	277.81
622.536	266.81
622.743	271.81
622.95	262.81
623.157	263.81
623.364	248.81
623.571	270.81
623.778	269.81
623.985	264.81
624.192	251.81
624.399	250.81
624.606	282.81
624.812	248.81
625.019	238.81
625.226	251.81
625.433	244.81
625.639	265.81
625.846	260.81
626.053	236.81
626.259	260.81
626.466	251.81
626.673	247.81
626.879	221.81
627.086	245.81
627.293	261.81
627.499	225.81
627.706	229.81
627.912	259.81
628.119	246.81
628.325	249.81
628.532	245.81
628.738	241.81
628.945	234.81
629.151	238.81
629.357	238.81
629.564	232.81
629.77	216.81
629.976	221.81
630.183	228.81
630.389	242.81
630.595	233.81
630.802	233.81
631.008	233.81
631.214	220.81
631.42	245.81
631.627	220.81
631.833	243.81
632.039	215.81
632.245	216.81
632.451	236.81
632.657	232.81
632.863	216.81
633.069	226.81
633.275	211.81
633.481	202.81
633.688	225.81
633.893	230.81
634.099	213.81
634.305	235.81
634.511	207.81
634.717	218.81
634.923	222.81
635.129	199.81
635.335	213.81
635.541	220.81
635.747	204.81
635.952	220.81
636.158	223.81
636.364	217.81
636.57	225.81
636.775	225.81
636.981	197.81
637.187	206.81
637.392	222.81
637.598	213.81
637.804	212.81
638.009	211.81
638.215	204.81
638.421	236.81
638.626	205.81
638.832	204.81
639.037	201.81
639.243	201.81
639.448	198.81
639.654	215.81
639.859	203.81
640.065	195.81
640.27	206.81
640.475	215.81
640.681	200.81
640.886	219.81
641.091	194.81
641.297	202.81
641.502	190.81
641.707	204.81
641.913	192.81
642.118	200.81
642.323	201.81
642.528	188.81
642.733	202.81
642.939	195.81
643.144	183.81
643.349	188.81
643.554	200.81
643.759	188.81
643.964	191.81
644.169	183.81
644.374	195.81
644.579	193.81
644.784	187.81
644.989	195.81
645.194	196.81
645.399	193.81
645.604	190.81
645.809	196.81
646.014	204.81
646.219	191.81
646.423	196.81
646.628	202.81
646.833	190.81
647.038	195.81
647.243	195.81
647.447	187.81
647.652	210.81
647.857	185.81
648.062	221.81
648.266	209.81
648.471	205.81
648.676	198.81
648.88	218.81
649.085	196.81
649.289	205.81
649.494	203.81
649.698	210.81
649.903	193.81
650.107	194.81
650.312	203.81
650.516	174.81
650.721	170.81
650.925	173.81
651.13	183.81
651.334	165.81
651.539	171.81
651.743	180.81
651.947	165.81
652.152	180.81
652.356	171.81
652.56	158.81
652.764	165.81
652.969	173.81
653.173	164.81
653.377	157.81
653.581	160.81
653.785	160.81
653.99	147.81
654.194	159.81
654.398	163.81
654.602	151.81
654.806	158.81
655.01	149.81
655.214	144.81
655.418	147.81
655.622	141.81
655.826	150.81
656.03	149.81
656.234	153.81
656.438	174.81
656.642	161.81
656.846	137.81
657.049	149.81
657.253	144.81
657.457	125.81
657.661	134.81
657.865	137.81
658.068	133.81
658.272	114.81
658.476	131.81
658.68	130.81
658.883	124.81
659.087	109.81
659.291	106.81
659.494	99.81
659.698	90.81
659.901	98.81
660.105	104.81
660.309	101.81
660.512	99.81
660.716	105.81
660.919	96.81
661.123	100.81
661.326	94.81
661.53	91.81
661.733	111.81
661.936	90.81
662.14	85.81
662.343	97.81
662.546	101.81
662.75	86.81
662.953	83.81
663.156	79.81
663.36	73.81
663.563	79.81
663.766	82.81
663.969	66.81
664.173	95.81
664.376	95.81
664.579	93.81
664.782	80.81
664.985	83.81
665.188	85.81
665.391	88.81
665.594	85.81
665.797	73.81
666	79.81
666.203	79.81
666.406	80.81
666.609	80.81
666.812	91.81
667.015	80.81
667.218	86.81
667.421	94.81
667.624	86.81
667.827	79.81
668.03	64.81
668.232	95.81
668.435	81.81
668.638	65.81
668.841	89.81
669.043	76.81
669.246	83.81
669.449	88.81
669.651	77.81
669.854	91.81
670.057	88.81
670.259	92.81
670.462	76.81
670.665	95.81
670.867	88.81
671.07	78.81
671.272	71.81
671.475	84.81
671.677	87.81
671.88	93.81
672.082	90.81
672.284	82.81
672.487	82.81
672.689	82.81
672.892	85.81
