Data from 1963.PennyLincolnUp.Lamp.En5.5.200Scan.071719.P1._HRD10591_13-58-14-063.txt Node
Date: Thu Jul 18 13:58:14 EDT 2019
User: cochatt
Spectrometer: HR+D1059
Trigger mode: 1
Integration Time (sec): 1.000000E-1
Scans to average: 1
Electric dark correction enabled: true
Nonlinearity correction enabled: false
Boxcar width: 0
XAxis mode: Wavelengths
Number of Pixels in Spectrum: 2048
>>>>>Begin Spectral Data<<<<<
223.165	-12.62
223.4	-12.62
223.635	-12.62
223.869	-19.62
224.104	-12.62
224.338	-9.62
224.573	-15.62
224.808	-17.62
225.042	-12.62
225.277	7.38
225.511	-9.62
225.746	9.38
225.98	0.38
226.215	7.38
226.449	6.38
226.683	18.38
226.918	25.38
227.152	35.38
227.387	32.38
227.621	37.38
227.856	45.38
228.09	55.38
228.324	76.38
228.559	59.38
228.793	68.38
229.027	94.38
229.262	106.38
229.496	114.38
229.73	139.38
229.964	132.38
230.199	129.38
230.433	117.38
230.667	109.38
230.901	114.38
231.136	121.38
231.37	100.38
231.604	124.38
231.838	117.38
232.072	124.38
232.306	123.38
232.541	118.38
232.775	134.38
233.009	129.38
233.243	119.38
233.477	121.38
233.711	136.38
233.945	126.38
234.179	123.38
234.413	127.38
234.647	135.38
234.881	127.38
235.115	126.38
235.349	115.38
235.583	109.38
235.817	133.38
236.051	126.38
236.285	128.38
236.519	115.38
236.753	153.38
236.987	129.38
237.221	161.38
237.455	191.38
237.689	171.38
237.922	139.38
238.156	131.38
238.39	132.38
238.624	136.38
238.858	134.38
239.091	143.38
239.325	139.38
239.559	120.38
239.793	133.38
240.027	155.38
240.26	143.38
240.494	155.38
240.728	152.38
240.961	145.38
241.195	152.38
241.429	151.38
241.662	145.38
241.896	145.38
242.13	133.38
242.363	139.38
242.597	145.38
242.83	154.38
243.064	146.38
243.298	159.38
243.531	141.38
243.765	159.38
243.998	158.38
244.232	152.38
244.465	149.38
244.699	170.38
244.932	169.38
245.166	152.38
245.399	157.38
245.633	157.38
245.866	158.38
246.099	158.38
246.333	164.38
246.566	160.38
246.8	165.38
247.033	176.38
247.266	164.38
247.5	172.38
247.733	168.38
247.966	187.38
248.2	190.38
248.433	190.38
248.666	181.38
248.899	189.38
249.133	185.38
249.366	224.38
249.599	194.38
249.832	201.38
250.066	202.38
250.299	205.38
250.532	199.38
250.765	204.38
250.998	230.38
251.231	230.38
251.465	197.38
251.698	197.38
251.931	215.38
252.164	210.38
252.397	204.38
252.63	214.38
252.863	218.38
253.096	225.38
253.329	232.38
253.562	231.38
253.795	223.38
254.028	205.38
254.261	225.38
254.494	235.38
254.727	253.38
254.96	263.38
255.193	250.38
255.426	237.38
255.659	235.38
255.892	232.38
256.124	236.38
256.357	241.38
256.59	235.38
256.823	212.38
257.056	230.38
257.289	236.38
257.521	233.38
257.754	231.38
257.987	220.38
258.22	229.38
258.452	221.38
258.685	238.38
258.918	214.38
259.151	239.38
259.383	228.38
259.616	217.38
259.849	222.38
260.081	237.38
260.314	253.38
260.547	251.38
260.779	238.38
261.012	243.38
261.244	238.38
261.477	248.38
261.71	236.38
261.942	227.38
262.175	251.38
262.407	224.38
262.64	231.38
262.872	239.38
263.105	242.38
263.337	236.38
263.57	246.38
263.802	224.38
264.035	238.38
264.267	233.38
264.499	216.38
264.732	230.38
264.964	212.38
265.197	229.38
265.429	238.38
265.661	220.38
265.894	245.38
266.126	230.38
266.358	231.38
266.591	240.38
266.823	249.38
267.055	251.38
267.287	245.38
267.52	244.38
267.752	243.38
267.984	263.38
268.216	251.38
268.448	247.38
268.681	284.38
268.913	265.38
269.145	300.38
269.377	293.38
269.609	273.38
269.841	273.38
270.073	277.38
270.306	308.38
270.538	317.38
270.77	305.38
271.002	303.38
271.234	297.38
271.466	299.38
271.698	312.38
271.93	318.38
272.162	313.38
272.394	311.38
272.626	317.38
272.858	282.38
273.09	287.38
273.322	302.38
273.553	289.38
273.785	297.38
274.017	276.38
274.249	287.38
274.481	284.38
274.713	287.38
274.945	281.38
275.176	296.38
275.408	303.38
275.64	292.38
275.872	293.38
276.104	282.38
276.335	291.38
276.567	299.38
276.799	294.38
277.031	333.38
277.262	331.38
277.494	332.38
277.726	317.38
277.957	323.38
278.189	313.38
278.421	301.38
278.652	306.38
278.884	310.38
279.115	321.38
279.347	292.38
279.579	314.38
279.81	313.38
280.042	325.38
280.273	315.38
280.505	314.38
280.736	329.38
280.968	319.38
281.199	318.38
281.431	318.38
281.662	315.38
281.894	310.38
282.125	307.38
282.356	320.38
282.588	321.38
282.819	348.38
283.051	326.38
283.282	322.38
283.513	303.38
283.745	320.38
283.976	329.38
284.207	324.38
284.439	339.38
284.67	315.38
284.901	321.38
285.132	332.38
285.364	326.38
285.595	324.38
285.826	343.38
286.057	334.38
286.288	333.38
286.52	339.38
286.751	330.38
286.982	334.38
287.213	340.38
287.444	352.38
287.675	348.38
287.906	342.38
288.138	364.38
288.369	346.38
288.6	341.38
288.831	338.38
289.062	338.38
289.293	340.38
289.524	351.38
289.755	360.38
289.986	346.38
290.217	363.38
290.448	352.38
290.679	359.38
290.91	357.38
291.141	367.38
291.371	365.38
291.602	358.38
291.833	350.38
292.064	351.38
292.295	359.38
292.526	359.38
292.757	342.38
292.987	346.38
293.218	354.38
293.449	358.38
293.68	359.38
293.91	340.38
294.141	342.38
294.372	364.38
294.603	357.38
294.833	377.38
295.064	375.38
295.295	356.38
295.525	357.38
295.756	353.38
295.987	360.38
296.217	382.38
296.448	383.38
296.679	368.38
296.909	383.38
297.14	354.38
297.37	367.38
297.601	377.38
297.831	388.38
298.062	368.38
298.292	371.38
298.523	372.38
298.753	388.38
298.984	384.38
299.214	395.38
299.445	375.38
299.675	388.38
299.905	374.38
300.136	361.38
300.366	395.38
300.597	395.38
300.827	387.38
301.057	376.38
301.288	414.38
301.518	407.38
301.748	390.38
301.979	391.38
302.209	405.38
302.439	411.38
302.669	391.38
302.9	392.38
303.13	398.38
303.36	411.38
303.59	396.38
303.82	399.38
304.051	399.38
304.281	412.38
304.511	397.38
304.741	383.38
304.971	392.38
305.201	404.38
305.431	411.38
305.661	399.38
305.891	392.38
306.121	389.38
306.352	393.38
306.582	402.38
306.812	401.38
307.042	413.38
307.272	384.38
307.502	390.38
307.731	414.38
307.961	412.38
308.191	396.38
308.421	416.38
308.651	383.38
308.881	396.38
309.111	412.38
309.341	400.38
309.571	411.38
309.8	420.38
310.03	422.38
310.26	424.38
310.49	406.38
310.72	412.38
310.949	430.38
311.179	409.38
311.409	416.38
311.639	429.38
311.868	412.38
312.098	422.38
312.328	431.38
312.557	420.38
312.787	446.38
313.017	421.38
313.246	448.38
313.476	429.38
313.706	431.38
313.935	422.38
314.165	429.38
314.394	464.38
314.624	442.38
314.853	447.38
315.083	448.38
315.312	448.38
315.542	424.38
315.771	439.38
316.001	431.38
316.23	436.38
316.46	444.38
316.689	436.38
316.919	446.38
317.148	418.38
317.377	448.38
317.607	439.38
317.836	441.38
318.065	430.38
318.295	429.38
318.524	432.38
318.753	419.38
318.983	455.38
319.212	427.38
319.441	429.38
319.67	438.38
319.9	436.38
320.129	424.38
320.358	427.38
320.587	452.38
320.816	439.38
321.046	453.38
321.275	431.38
321.504	455.38
321.733	445.38
321.962	451.38
322.191	460.38
322.42	460.38
322.649	459.38
322.878	461.38
323.108	457.38
323.337	476.38
323.566	477.38
323.795	503.38
324.024	532.38
324.253	613.38
324.482	750.38
324.71	999.38
324.939	1445.38
325.168	1291.38
325.397	723.38
325.626	591.38
325.855	510.38
326.084	539.38
326.313	514.38
326.542	521.38
326.77	550.38
326.999	588.38
327.228	737.38
327.457	959.38
327.686	1155.38
327.914	831.38
328.143	633.38
328.372	571.38
328.6	530.38
328.829	536.38
329.058	558.38
329.287	555.38
329.515	530.38
329.744	537.38
329.972	533.38
330.201	523.38
330.43	581.38
330.658	591.38
330.887	585.38
331.115	592.38
331.344	561.38
331.572	535.38
331.801	536.38
332.03	516.38
332.258	520.38
332.486	523.38
332.715	563.38
332.943	565.38
333.172	585.38
333.4	577.38
333.629	592.38
333.857	613.38
334.085	592.38
334.314	616.38
334.542	623.38
334.771	651.38
334.999	633.38
335.227	587.38
335.455	570.38
335.684	590.38
335.912	579.38
336.14	548.38
336.369	547.38
336.597	549.38
336.825	552.38
337.053	549.38
337.281	523.38
337.51	548.38
337.738	537.38
337.966	546.38
338.194	516.38
338.422	521.38
338.65	533.38
338.878	533.38
339.106	540.38
339.334	511.38
339.562	518.38
339.79	500.38
340.018	501.38
340.246	491.38
340.474	515.38
340.702	520.38
340.93	512.38
341.158	525.38
341.386	504.38
341.614	513.38
341.842	516.38
342.07	501.38
342.298	479.38
342.526	509.38
342.754	494.38
342.981	487.38
343.209	507.38
343.437	525.38
343.665	539.38
343.893	577.38
344.12	562.38
344.348	586.38
344.576	551.38
344.804	527.38
345.031	527.38
345.259	542.38
345.487	505.38
345.714	484.38
345.942	499.38
346.17	477.38
346.397	498.38
346.625	496.38
346.853	476.38
347.08	485.38
347.308	469.38
347.535	493.38
347.763	478.38
347.99	494.38
348.218	499.38
348.445	505.38
348.673	479.38
348.9	479.38
349.128	490.38
349.355	452.38
349.583	472.38
349.81	484.38
350.037	467.38
350.265	469.38
350.492	465.38
350.72	476.38
350.947	487.38
351.174	506.38
351.402	492.38
351.629	473.38
351.856	462.38
352.083	473.38
352.311	490.38
352.538	493.38
352.765	496.38
352.992	480.38
353.22	470.38
353.447	475.38
353.674	466.38
353.901	446.38
354.128	469.38
354.355	465.38
354.583	485.38
354.81	456.38
355.037	461.38
355.264	462.38
355.491	493.38
355.718	461.38
355.945	475.38
356.172	464.38
356.399	460.38
356.626	476.38
356.853	468.38
357.08	469.38
357.307	463.38
357.534	470.38
357.761	469.38
357.988	484.38
358.215	471.38
358.441	471.38
358.668	458.38
358.895	484.38
359.122	480.38
359.349	469.38
359.576	474.38
359.802	508.38
360.029	514.38
360.256	512.38
360.483	514.38
360.709	480.38
360.936	479.38
361.163	491.38
361.39	491.38
361.616	484.38
361.843	486.38
362.07	484.38
362.296	495.38
362.523	480.38
362.749	505.38
362.976	471.38
363.203	485.38
363.429	466.38
363.656	465.38
363.882	481.38
364.109	460.38
364.335	445.38
364.562	468.38
364.788	482.38
365.015	477.38
365.241	475.38
365.468	478.38
365.694	496.38
365.92	464.38
366.147	468.38
366.373	488.38
366.599	475.38
366.826	484.38
367.052	463.38
367.278	470.38
367.505	478.38
367.731	467.38
367.957	488.38
368.184	494.38
368.41	466.38
368.636	494.38
368.862	486.38
369.089	507.38
369.315	507.38
369.541	507.38
369.767	488.38
369.993	491.38
370.219	462.38
370.445	500.38
370.672	483.38
370.898	472.38
371.124	501.38
371.35	485.38
371.576	490.38
371.802	491.38
372.028	486.38
372.254	505.38
372.48	517.38
372.706	512.38
372.932	519.38
373.158	506.38
373.384	522.38
373.61	482.38
373.835	515.38
374.061	498.38
374.287	507.38
374.513	535.38
374.739	525.38
374.965	539.38
375.191	550.38
375.416	526.38
375.642	506.38
375.868	515.38
376.094	515.38
376.319	531.38
376.545	506.38
376.771	508.38
376.997	501.38
377.222	485.38
377.448	490.38
377.674	511.38
377.899	472.38
378.125	510.38
378.35	484.38
378.576	501.38
378.802	512.38
379.027	506.38
379.253	506.38
379.478	478.38
379.704	498.38
379.929	500.38
380.155	517.38
380.38	476.38
380.606	495.38
380.831	480.38
381.057	499.38
381.282	486.38
381.507	503.38
381.733	513.38
381.958	514.38
382.184	513.38
382.409	517.38
382.634	544.38
382.86	524.38
383.085	529.38
383.31	527.38
383.535	529.38
383.761	518.38
383.986	547.38
384.211	545.38
384.436	565.38
384.662	563.38
384.887	572.38
385.112	563.38
385.337	566.38
385.562	539.38
385.787	554.38
386.013	568.38
386.238	587.38
386.463	558.38
386.688	558.38
386.913	563.38
387.138	590.38
387.363	575.38
387.588	586.38
387.813	580.38
388.038	590.38
388.263	581.38
388.488	561.38
388.713	586.38
388.938	551.38
389.163	580.38
389.387	569.38
389.612	549.38
389.837	572.38
390.062	568.38
390.287	553.38
390.512	569.38
390.736	581.38
390.961	575.38
391.186	600.38
391.411	613.38
391.636	607.38
391.86	612.38
392.085	590.38
392.31	632.38
392.534	646.38
392.759	615.38
392.984	578.38
393.208	602.38
393.433	592.38
393.658	596.38
393.882	595.38
394.107	583.38
394.331	591.38
394.556	585.38
394.78	589.38
395.005	604.38
395.229	591.38
395.454	617.38
395.678	640.38
395.903	655.38
396.127	627.38
396.352	643.38
396.576	625.38
396.801	587.38
397.025	604.38
397.249	628.38
397.474	616.38
397.698	631.38
397.922	645.38
398.147	655.38
398.371	663.38
398.595	663.38
398.82	686.38
399.044	733.38
399.268	764.38
399.492	848.38
399.717	934.38
399.941	920.38
400.165	868.38
400.389	844.38
400.613	794.38
400.837	747.38
401.062	730.38
401.286	673.38
401.51	725.38
401.734	709.38
401.958	694.38
402.182	712.38
402.406	718.38
402.63	709.38
402.854	719.38
403.078	714.38
403.302	733.38
403.526	715.38
403.75	757.38
403.974	750.38
404.198	755.38
404.422	746.38
404.645	755.38
404.869	767.38
405.093	769.38
405.317	808.38
405.541	819.38
405.765	769.38
405.988	777.38
406.212	753.38
406.436	768.38
406.66	807.38
406.883	793.38
407.107	849.38
407.331	885.38
407.555	915.38
407.778	934.38
408.002	863.38
408.226	816.38
408.449	810.38
408.673	776.38
408.896	784.38
409.12	792.38
409.344	804.38
409.567	762.38
409.791	750.38
410.014	723.38
410.238	690.38
410.461	716.38
410.685	731.38
410.908	729.38
411.132	729.38
411.355	783.38
411.578	763.38
411.802	703.38
412.025	699.38
412.249	726.38
412.472	730.38
412.695	752.38
412.919	731.38
413.142	704.38
413.365	676.38
413.589	692.38
413.812	698.38
414.035	663.38
414.258	680.38
414.482	682.38
414.705	689.38
414.928	678.38
415.151	691.38
415.374	687.38
415.597	688.38
415.821	672.38
416.044	692.38
416.267	656.38
416.49	661.38
416.713	667.38
416.936	671.38
417.159	666.38
417.382	654.38
417.605	652.38
417.828	681.38
418.051	702.38
418.274	699.38
418.497	680.38
418.72	697.38
418.943	682.38
419.166	743.38
419.389	757.38
419.611	729.38
419.834	703.38
420.057	725.38
420.28	704.38
420.503	687.38
420.726	667.38
420.948	691.38
421.171	727.38
421.394	730.38
421.617	709.38
421.839	685.38
422.062	707.38
422.285	680.38
422.507	755.38
422.73	797.38
422.953	776.38
423.175	729.38
423.398	723.38
423.621	722.38
423.843	736.38
424.066	746.38
424.288	713.38
424.511	726.38
424.733	757.38
424.956	811.38
425.178	790.38
425.401	792.38
425.623	802.38
425.846	721.38
426.068	687.38
426.291	701.38
426.513	675.38
426.735	681.38
426.958	715.38
427.18	761.38
427.402	859.38
427.625	936.38
427.847	827.38
428.069	750.38
428.292	726.38
428.514	681.38
428.736	652.38
428.958	629.38
429.181	636.38
429.403	637.38
429.625	635.38
429.847	661.38
430.069	685.38
430.292	701.38
430.514	663.38
430.736	665.38
430.958	649.38
431.18	632.38
431.402	623.38
431.624	629.38
431.846	619.38
432.068	633.38
432.29	647.38
432.512	639.38
432.734	634.38
432.956	633.38
433.178	663.38
433.4	632.38
433.622	651.38
433.844	653.38
434.066	599.38
434.287	643.38
434.509	670.38
434.731	661.38
434.953	676.38
435.175	675.38
435.397	709.38
435.618	695.38
435.84	713.38
436.062	731.38
436.284	808.38
436.505	723.38
436.727	655.38
436.949	665.38
437.17	641.38
437.392	623.38
437.614	645.38
437.835	665.38
438.057	728.38
438.278	793.38
438.5	746.38
438.721	841.38
438.943	838.38
439.165	713.38
439.386	661.38
439.608	655.38
439.829	655.38
440.05	676.38
440.272	722.38
440.493	694.38
440.715	654.38
440.936	642.38
441.158	669.38
441.379	667.38
441.6	698.38
441.822	694.38
442.043	731.38
442.264	753.38
442.486	793.38
442.707	731.38
442.928	715.38
443.149	711.38
443.371	709.38
443.592	746.38
443.813	836.38
444.034	851.38
444.255	811.38
444.476	763.38
444.698	763.38
444.919	777.38
445.14	881.38
445.361	806.38
445.582	752.38
445.803	773.38
446.024	795.38
446.245	854.38
446.466	752.38
446.687	691.38
446.908	663.38
447.129	635.38
447.35	624.38
447.571	611.38
447.792	611.38
448.013	616.38
448.234	616.38
448.455	653.38
448.675	753.38
448.896	806.38
449.117	715.38
449.338	684.38
449.559	751.38
449.779	810.38
450	716.38
450.221	652.38
450.442	612.38
450.662	592.38
450.883	605.38
451.104	625.38
451.324	618.38
451.545	591.38
451.766	593.38
451.986	573.38
452.207	579.38
452.428	563.38
452.648	589.38
452.869	576.38
453.089	574.38
453.31	580.38
453.53	563.38
453.751	571.38
453.971	556.38
454.192	585.38
454.412	568.38
454.633	559.38
454.853	547.38
455.073	554.38
455.294	581.38
455.514	628.38
455.734	601.38
455.955	570.38
456.175	521.38
456.395	542.38
456.616	541.38
456.836	536.38
457.056	543.38
457.276	532.38
457.497	517.38
457.717	552.38
457.937	543.38
458.157	582.38
458.377	576.38
458.598	571.38
458.818	627.38
459.038	682.38
459.258	679.38
459.478	655.38
459.698	673.38
459.918	632.38
460.138	662.38
460.358	669.38
460.578	673.38
460.798	701.38
461.018	705.38
461.238	684.38
461.458	688.38
461.678	676.38
461.898	687.38
462.118	702.38
462.338	713.38
462.558	764.38
462.777	772.38
462.997	793.38
463.217	825.38
463.437	848.38
463.657	813.38
463.876	760.38
464.096	759.38
464.316	727.38
464.536	764.38
464.755	749.38
464.975	732.38
465.195	705.38
465.414	755.38
465.634	697.38
465.854	667.38
466.073	641.38
466.293	639.38
466.512	611.38
466.732	609.38
466.951	594.38
467.171	608.38
467.391	615.38
467.61	606.38
467.829	601.38
468.049	602.38
468.268	593.38
468.488	593.38
468.707	574.38
468.927	590.38
469.146	583.38
469.365	580.38
469.585	603.38
469.804	597.38
470.023	638.38
470.243	631.38
470.462	613.38
470.681	624.38
470.901	663.38
471.12	617.38
471.339	629.38
471.558	587.38
471.777	629.38
471.997	587.38
472.216	608.38
472.435	622.38
472.654	598.38
472.873	590.38
473.092	608.38
473.311	590.38
473.53	588.38
473.749	593.38
473.968	612.38
474.187	683.38
474.406	695.38
474.625	634.38
474.844	614.38
475.063	591.38
475.282	579.38
475.501	610.38
475.72	604.38
475.939	613.38
476.158	609.38
476.377	605.38
476.596	601.38
476.814	614.38
477.033	647.38
477.252	627.38
477.471	637.38
477.69	652.38
477.908	663.38
478.127	654.38
478.346	697.38
478.564	697.38
478.783	714.38
479.002	736.38
479.22	725.38
479.439	722.38
479.658	734.38
479.876	703.38
480.095	751.38
480.313	771.38
480.532	766.38
480.751	803.38
480.969	783.38
481.188	792.38
481.406	797.38
481.624	759.38
481.843	714.38
482.061	713.38
482.28	716.38
482.498	707.38
482.717	682.38
482.935	695.38
483.153	698.38
483.372	670.38
483.59	676.38
483.808	722.38
484.027	708.38
484.245	703.38
484.463	723.38
484.681	716.38
484.9	717.38
485.118	704.38
485.336	693.38
485.554	727.38
485.772	715.38
485.99	703.38
486.209	741.38
486.427	711.38
486.645	726.38
486.863	735.38
487.081	758.38
487.299	737.38
487.517	720.38
487.735	727.38
487.953	736.38
488.171	732.38
488.389	738.38
488.607	721.38
488.825	719.38
489.043	726.38
489.261	738.38
489.479	722.38
489.696	751.38
489.914	751.38
490.132	769.38
490.35	766.38
490.568	775.38
490.786	779.38
491.003	763.38
491.221	790.38
491.439	799.38
491.657	799.38
491.874	810.38
492.092	810.38
492.31	781.38
492.527	815.38
492.745	797.38
492.963	831.38
493.18	830.38
493.398	849.38
493.615	825.38
493.833	837.38
494.05	831.38
494.268	848.38
494.485	853.38
494.703	841.38
494.92	870.38
495.138	820.38
495.355	836.38
495.573	840.38
495.79	842.38
496.008	812.38
496.225	879.38
496.442	879.38
496.66	876.38
496.877	866.38
497.094	863.38
497.312	887.38
497.529	901.38
497.746	969.38
497.963	955.38
498.181	976.38
498.398	992.38
498.615	1039.38
498.832	1115.38
499.049	1124.38
499.267	1182.38
499.484	1267.38
499.701	1368.38
499.918	1427.38
500.135	1557.38
500.352	1681.38
500.569	1767.38
500.786	1741.38
501.003	1664.38
501.22	1545.38
501.437	1450.38
501.654	1339.38
501.871	1309.38
502.088	1226.38
502.305	1139.38
502.522	1085.38
502.739	1067.38
502.956	998.38
503.172	964.38
503.389	951.38
503.606	953.38
503.823	924.38
504.04	941.38
504.256	908.38
504.473	936.38
504.69	899.38
504.907	924.38
505.123	912.38
505.34	864.38
505.557	831.38
505.773	827.38
505.99	814.38
506.207	791.38
506.423	805.38
506.64	793.38
506.856	761.38
507.073	785.38
507.289	768.38
507.506	773.38
507.722	743.38
507.939	773.38
508.155	765.38
508.372	735.38
508.588	737.38
508.805	724.38
509.021	751.38
509.238	744.38
509.454	752.38
509.67	752.38
509.887	724.38
510.103	732.38
510.319	724.38
510.536	779.38
510.752	1071.38
510.968	933.38
511.184	724.38
511.401	720.38
511.617	710.38
511.833	715.38
512.049	699.38
512.265	677.38
512.481	692.38
512.698	675.38
512.914	693.38
513.13	707.38
513.346	715.38
513.562	682.38
513.778	711.38
513.994	693.38
514.21	709.38
514.426	707.38
514.642	719.38
514.858	744.38
515.074	758.38
515.29	852.38
515.506	1116.38
515.721	1005.38
515.937	793.38
516.153	752.38
516.369	775.38
516.585	776.38
516.801	776.38
517.016	787.38
517.232	839.38
517.448	830.38
517.664	869.38
517.879	872.38
518.095	869.38
518.311	862.38
518.527	822.38
518.742	812.38
518.958	797.38
519.173	755.38
519.389	760.38
519.605	759.38
519.82	721.38
520.036	734.38
520.251	736.38
520.467	722.38
520.682	731.38
520.898	729.38
521.113	730.38
521.329	761.38
521.544	784.38
521.76	870.38
521.975	1256.38
522.19	1305.38
522.406	828.38
522.621	687.38
522.836	675.38
523.052	668.38
523.267	672.38
523.482	648.38
523.698	650.38
523.913	638.38
524.128	640.38
524.343	650.38
524.559	657.38
524.774	615.38
524.989	613.38
525.204	615.38
525.419	629.38
525.634	617.38
525.849	632.38
526.064	608.38
526.28	622.38
526.495	600.38
526.71	595.38
526.925	600.38
527.14	591.38
527.355	580.38
527.57	585.38
527.785	606.38
527.999	624.38
528.214	593.38
528.429	600.38
528.644	599.38
528.859	588.38
529.074	610.38
529.289	609.38
529.503	644.38
529.718	600.38
529.933	623.38
530.148	618.38
530.363	629.38
530.577	597.38
530.792	612.38
531.007	617.38
531.221	606.38
531.436	612.38
531.651	574.38
531.865	609.38
532.08	586.38
532.295	585.38
532.509	570.38
532.724	617.38
532.938	584.38
533.153	595.38
533.367	587.38
533.582	584.38
533.796	604.38
534.011	599.38
534.225	585.38
534.44	583.38
534.654	576.38
534.868	592.38
535.083	594.38
535.297	585.38
535.511	579.38
535.726	594.38
535.94	588.38
536.154	565.38
536.369	568.38
536.583	570.38
536.797	559.38
537.011	584.38
537.225	559.38
537.44	575.38
537.654	558.38
537.868	578.38
538.082	568.38
538.296	551.38
538.51	541.38
538.724	554.38
538.938	561.38
539.153	576.38
539.367	551.38
539.581	569.38
539.795	545.38
540.009	575.38
540.222	571.38
540.436	554.38
540.65	578.38
540.864	549.38
541.078	555.38
541.292	567.38
541.506	565.38
541.72	550.38
541.934	547.38
542.147	566.38
542.361	561.38
542.575	517.38
542.789	552.38
543.002	560.38
543.216	536.38
543.43	551.38
543.644	548.38
543.857	549.38
544.071	558.38
544.285	556.38
544.498	552.38
544.712	560.38
544.925	551.38
545.139	554.38
545.352	563.38
545.566	571.38
545.779	551.38
545.993	569.38
546.206	566.38
546.42	566.38
546.633	561.38
546.847	560.38
547.06	550.38
547.274	550.38
547.487	551.38
547.7	544.38
547.914	547.38
548.127	558.38
548.34	571.38
548.554	567.38
548.767	558.38
548.98	547.38
549.193	552.38
549.407	568.38
549.62	559.38
549.833	571.38
550.046	581.38
550.259	537.38
550.473	534.38
550.686	541.38
550.899	543.38
551.112	569.38
551.325	552.38
551.538	544.38
551.751	560.38
551.964	543.38
552.177	550.38
552.39	565.38
552.603	572.38
552.816	597.38
553.029	580.38
553.242	587.38
553.455	583.38
553.667	601.38
553.88	599.38
554.093	578.38
554.306	571.38
554.519	544.38
554.732	560.38
554.944	547.38
555.157	556.38
555.37	516.38
555.583	528.38
555.795	531.38
556.008	526.38
556.221	541.38
556.433	521.38
556.646	503.38
556.859	485.38
557.071	490.38
557.284	499.38
557.496	478.38
557.709	497.38
557.921	501.38
558.134	493.38
558.346	483.38
558.559	495.38
558.771	472.38
558.984	467.38
559.196	468.38
559.409	462.38
559.621	499.38
559.833	493.38
560.046	484.38
560.258	463.38
560.47	476.38
560.683	472.38
560.895	472.38
561.107	483.38
561.32	464.38
561.532	491.38
561.744	464.38
561.956	475.38
562.168	485.38
562.381	488.38
562.593	471.38
562.805	456.38
563.017	518.38
563.229	492.38
563.441	485.38
563.653	499.38
563.865	488.38
564.077	511.38
564.289	495.38
564.501	496.38
564.713	513.38
564.925	511.38
565.137	546.38
565.349	553.38
565.561	572.38
565.773	545.38
565.985	599.38
566.197	609.38
566.408	615.38
566.62	672.38
566.832	703.38
567.044	708.38
567.255	732.38
567.467	707.38
567.679	775.38
567.891	821.38
568.102	813.38
568.314	780.38
568.526	741.38
568.737	689.38
568.949	645.38
569.161	611.38
569.372	591.38
569.584	567.38
569.795	525.38
570.007	550.38
570.218	543.38
570.43	530.38
570.641	504.38
570.853	503.38
571.064	529.38
571.276	505.38
571.487	493.38
571.698	480.38
571.91	480.38
572.121	484.38
572.333	428.38
572.544	451.38
572.755	435.38
572.966	423.38
573.178	440.38
573.389	441.38
573.6	451.38
573.811	414.38
574.023	427.38
574.234	436.38
574.445	423.38
574.656	437.38
574.867	429.38
575.078	437.38
575.289	420.38
575.501	402.38
575.712	409.38
575.923	430.38
576.134	419.38
576.345	401.38
576.556	416.38
576.767	422.38
576.978	423.38
577.188	412.38
577.399	386.38
577.61	373.38
577.821	381.38
578.032	396.38
578.243	394.38
578.454	542.38
578.665	463.38
578.875	402.38
579.086	378.38
579.297	388.38
579.508	379.38
579.718	381.38
579.929	360.38
580.14	378.38
580.35	369.38
580.561	411.38
580.772	383.38
580.982	359.38
581.193	383.38
581.403	369.38
581.614	375.38
581.825	383.38
582.035	384.38
582.246	375.38
582.456	379.38
582.667	373.38
582.877	376.38
583.087	387.38
583.298	362.38
583.508	364.38
583.719	367.38
583.929	376.38
584.139	367.38
584.35	365.38
584.56	380.38
584.77	380.38
584.981	362.38
585.191	360.38
585.401	366.38
585.611	366.38
585.821	357.38
586.032	358.38
586.242	349.38
586.452	354.38
586.662	353.38
586.872	369.38
587.082	357.38
587.292	348.38
587.502	365.38
587.713	338.38
587.923	346.38
588.133	361.38
588.343	353.38
588.553	341.38
588.762	361.38
588.972	373.38
589.182	377.38
589.392	378.38
589.602	352.38
589.812	383.38
590.022	365.38
590.232	370.38
590.441	342.38
590.651	355.38
590.861	376.38
591.071	397.38
591.281	384.38
591.49	397.38
591.7	387.38
591.91	367.38
592.119	395.38
592.329	393.38
592.539	397.38
592.748	407.38
592.958	410.38
593.167	437.38
593.377	431.38
593.587	455.38
593.796	453.38
594.006	436.38
594.215	445.38
594.424	423.38
594.634	435.38
594.843	419.38
595.053	424.38
595.262	417.38
595.472	425.38
595.681	364.38
595.89	378.38
596.1	358.38
596.309	348.38
596.518	375.38
596.727	363.38
596.937	352.38
597.146	346.38
597.355	347.38
597.564	340.38
597.774	347.38
597.983	315.38
598.192	335.38
598.401	340.38
598.61	327.38
598.819	318.38
599.028	344.38
599.237	330.38
599.446	320.38
599.655	336.38
599.864	335.38
600.073	325.38
600.282	329.38
600.491	319.38
600.7	318.38
600.909	297.38
601.118	307.38
601.327	312.38
601.536	304.38
601.745	303.38
601.953	299.38
602.162	317.38
602.371	304.38
602.58	309.38
602.789	289.38
602.997	307.38
603.206	304.38
603.415	298.38
603.623	312.38
603.832	313.38
604.041	309.38
604.249	303.38
604.458	302.38
604.666	300.38
604.875	319.38
605.084	292.38
605.292	293.38
605.501	292.38
605.709	296.38
605.918	283.38
606.126	303.38
606.334	295.38
606.543	281.38
606.751	289.38
606.96	301.38
607.168	295.38
607.376	294.38
607.585	285.38
607.793	291.38
608.001	298.38
608.21	290.38
608.418	297.38
608.626	285.38
608.834	282.38
609.043	291.38
609.251	291.38
609.459	299.38
609.667	293.38
609.875	297.38
610.083	300.38
610.291	286.38
610.499	280.38
610.707	292.38
610.916	297.38
611.124	303.38
611.332	286.38
611.54	285.38
611.748	284.38
611.955	312.38
612.163	300.38
612.371	293.38
612.579	284.38
612.787	270.38
612.995	273.38
613.203	289.38
613.411	292.38
613.618	303.38
613.826	285.38
614.034	284.38
614.242	280.38
614.449	272.38
614.657	274.38
614.865	288.38
615.072	271.38
615.28	275.38
615.488	298.38
615.695	289.38
615.903	283.38
616.111	287.38
616.318	300.38
616.526	291.38
616.733	287.38
616.941	292.38
617.148	276.38
617.356	259.38
617.563	289.38
617.771	289.38
617.978	286.38
618.185	281.38
618.393	282.38
618.6	273.38
618.807	287.38
619.015	285.38
619.222	275.38
619.429	277.38
619.637	276.38
619.844	263.38
620.051	277.38
620.258	264.38
620.466	276.38
620.673	275.38
620.88	257.38
621.087	253.38
621.294	268.38
621.501	278.38
621.708	273.38
621.915	276.38
622.122	254.38
622.329	280.38
622.536	265.38
622.743	263.38
622.95	266.38
623.157	261.38
623.364	249.38
623.571	251.38
623.778	271.38
623.985	259.38
624.192	261.38
624.399	228.38
624.606	263.38
624.812	246.38
625.019	256.38
625.226	266.38
625.433	246.38
625.639	254.38
625.846	255.38
626.053	250.38
626.259	234.38
626.466	257.38
626.673	238.38
626.879	227.38
627.086	247.38
627.293	248.38
627.499	261.38
627.706	235.38
627.912	256.38
628.119	244.38
628.325	239.38
628.532	263.38
628.738	230.38
628.945	217.38
629.151	220.38
629.357	243.38
629.564	231.38
629.77	216.38
629.976	236.38
630.183	219.38
630.389	238.38
630.595	205.38
630.802	261.38
631.008	241.38
631.214	224.38
631.42	227.38
631.627	238.38
631.833	247.38
632.039	236.38
632.245	227.38
632.451	220.38
632.657	223.38
632.863	227.38
633.069	219.38
633.275	228.38
633.481	219.38
633.688	200.38
633.893	223.38
634.099	216.38
634.305	221.38
634.511	211.38
634.717	228.38
634.923	228.38
635.129	230.38
635.335	224.38
635.541	211.38
635.747	224.38
635.952	216.38
636.158	222.38
636.364	215.38
636.57	213.38
636.775	217.38
636.981	208.38
637.187	223.38
637.392	210.38
637.598	204.38
637.804	209.38
638.009	205.38
638.215	205.38
638.421	208.38
638.626	216.38
638.832	230.38
639.037	214.38
639.243	213.38
639.448	181.38
639.654	208.38
639.859	201.38
640.065	204.38
640.27	206.38
640.475	196.38
640.681	198.38
640.886	216.38
641.091	194.38
641.297	201.38
641.502	202.38
641.707	209.38
641.913	197.38
642.118	200.38
642.323	191.38
642.528	212.38
642.733	191.38
642.939	202.38
643.144	193.38
643.349	199.38
643.554	179.38
643.759	191.38
643.964	197.38
644.169	191.38
644.374	187.38
644.579	183.38
644.784	187.38
644.989	198.38
645.194	184.38
645.399	187.38
645.604	179.38
645.809	201.38
646.014	215.38
646.219	190.38
646.423	199.38
646.628	201.38
646.833	194.38
647.038	187.38
647.243	203.38
647.447	192.38
647.652	202.38
647.857	196.38
648.062	210.38
648.266	204.38
648.471	186.38
648.676	196.38
648.88	207.38
649.085	186.38
649.289	201.38
649.494	197.38
649.698	200.38
649.903	199.38
650.107	185.38
650.312	190.38
650.516	186.38
650.721	180.38
650.925	187.38
651.13	177.38
651.334	183.38
651.539	184.38
651.743	175.38
651.947	159.38
652.152	180.38
652.356	157.38
652.56	157.38
652.764	152.38
652.969	152.38
653.173	176.38
653.377	177.38
653.581	155.38
653.785	144.38
653.99	152.38
654.194	140.38
654.398	167.38
654.602	152.38
654.806	155.38
655.01	141.38
655.214	153.38
655.418	146.38
655.622	148.38
655.826	164.38
656.03	152.38
656.234	154.38
656.438	151.38
656.642	155.38
656.846	151.38
657.049	163.38
657.253	141.38
657.457	125.38
657.661	115.38
657.865	111.38
658.068	133.38
658.272	124.38
658.476	133.38
658.68	117.38
658.883	107.38
659.087	127.38
659.291	113.38
659.494	102.38
659.698	112.38
659.901	101.38
660.105	110.38
660.309	96.38
660.512	100.38
660.716	85.38
660.919	98.38
661.123	92.38
661.326	109.38
661.53	89.38
661.733	100.38
661.936	88.38
662.14	89.38
662.343	101.38
662.546	83.38
662.75	85.38
662.953	95.38
663.156	99.38
663.36	90.38
663.563	72.38
663.766	92.38
663.969	93.38
664.173	87.38
664.376	79.38
664.579	92.38
664.782	83.38
664.985	83.38
665.188	84.38
665.391	84.38
665.594	78.38
665.797	79.38
666	77.38
666.203	76.38
666.406	85.38
666.609	75.38
666.812	93.38
667.015	78.38
667.218	75.38
667.421	75.38
667.624	89.38
667.827	90.38
668.03	88.38
668.232	87.38
668.435	101.38
668.638	80.38
668.841	81.38
669.043	77.38
669.246	86.38
669.449	72.38
669.651	79.38
669.854	74.38
670.057	68.38
670.259	70.38
670.462	94.38
670.665	95.38
670.867	92.38
671.07	94.38
671.272	83.38
671.475	87.38
671.677	85.38
671.88	79.38
672.082	84.38
672.284	85.38
672.487	83.38
672.689	86.38
672.892	92.38
