Data from 1963.PennyLincolnUp.Lamp.En5.5.200Scan.071719.P1._HRD10591_13-59-10-063.txt Node
Date: Thu Jul 18 13:59:10 EDT 2019
User: cochatt
Spectrometer: HR+D1059
Trigger mode: 1
Integration Time (sec): 1.000000E-1
Scans to average: 1
Electric dark correction enabled: true
Nonlinearity correction enabled: false
Boxcar width: 0
XAxis mode: Wavelengths
Number of Pixels in Spectrum: 2048
>>>>>Begin Spectral Data<<<<<
223.165	-27.19
223.4	-27.19
223.635	-27.19
223.869	-28.19
224.104	-5.19
224.338	-14.19
224.573	3.81
224.808	-25.19
225.042	-18.19
225.277	-1.19
225.511	0.81
225.746	5.81
225.98	2.81
226.215	28.81
226.449	-0.19
226.683	15.81
226.918	21.81
227.152	39.81
227.387	26.81
227.621	39.81
227.856	50.81
228.09	47.81
228.324	24.81
228.559	67.81
228.793	70.81
229.027	109.81
229.262	97.81
229.496	109.81
229.73	125.81
229.964	124.81
230.199	130.81
230.433	120.81
230.667	109.81
230.901	122.81
231.136	115.81
231.37	110.81
231.604	109.81
231.838	117.81
232.072	111.81
232.306	125.81
232.541	130.81
232.775	119.81
233.009	115.81
233.243	127.81
233.477	126.81
233.711	111.81
233.945	135.81
234.179	118.81
234.413	125.81
234.647	106.81
234.881	123.81
235.115	130.81
235.349	139.81
235.583	125.81
235.817	142.81
236.051	121.81
236.285	125.81
236.519	125.81
236.753	123.81
236.987	147.81
237.221	164.81
237.455	193.81
237.689	183.81
237.922	145.81
238.156	143.81
238.39	136.81
238.624	132.81
238.858	132.81
239.091	124.81
239.325	138.81
239.559	150.81
239.793	135.81
240.027	141.81
240.26	151.81
240.494	160.81
240.728	161.81
240.961	173.81
241.195	164.81
241.429	141.81
241.662	129.81
241.896	138.81
242.13	149.81
242.363	148.81
242.597	139.81
242.83	137.81
243.064	154.81
243.298	151.81
243.531	141.81
243.765	159.81
243.998	141.81
244.232	161.81
244.465	175.81
244.699	143.81
244.932	163.81
245.166	157.81
245.399	157.81
245.633	164.81
245.866	170.81
246.099	163.81
246.333	171.81
246.566	168.81
246.8	170.81
247.033	166.81
247.266	181.81
247.5	198.81
247.733	189.81
247.966	190.81
248.2	191.81
248.433	179.81
248.666	205.81
248.899	214.81
249.133	192.81
249.366	205.81
249.599	196.81
249.832	187.81
250.066	191.81
250.299	198.81
250.532	188.81
250.765	202.81
250.998	235.81
251.231	230.81
251.465	217.81
251.698	205.81
251.931	211.81
252.164	207.81
252.397	214.81
252.63	212.81
252.863	216.81
253.096	220.81
253.329	221.81
253.562	247.81
253.795	228.81
254.028	213.81
254.261	223.81
254.494	233.81
254.727	243.81
254.96	259.81
255.193	258.81
255.426	249.81
255.659	237.81
255.892	232.81
256.124	231.81
256.357	261.81
256.59	263.81
256.823	235.81
257.056	222.81
257.289	217.81
257.521	226.81
257.754	233.81
257.987	226.81
258.22	228.81
258.452	220.81
258.685	222.81
258.918	223.81
259.151	244.81
259.383	227.81
259.616	214.81
259.849	241.81
260.081	229.81
260.314	266.81
260.547	277.81
260.779	275.81
261.012	247.81
261.244	230.81
261.477	237.81
261.71	249.81
261.942	228.81
262.175	247.81
262.407	246.81
262.64	244.81
262.872	233.81
263.105	253.81
263.337	232.81
263.57	242.81
263.802	230.81
264.035	230.81
264.267	234.81
264.499	232.81
264.732	245.81
264.964	237.81
265.197	250.81
265.429	258.81
265.661	260.81
265.894	248.81
266.126	231.81
266.358	241.81
266.591	245.81
266.823	243.81
267.055	265.81
267.287	259.81
267.52	262.81
267.752	262.81
267.984	264.81
268.216	266.81
268.448	258.81
268.681	266.81
268.913	273.81
269.145	295.81
269.377	286.81
269.609	291.81
269.841	291.81
270.073	285.81
270.306	302.81
270.538	315.81
270.77	329.81
271.002	316.81
271.234	314.81
271.466	319.81
271.698	333.81
271.93	331.81
272.162	325.81
272.394	344.81
272.626	340.81
272.858	314.81
273.09	294.81
273.322	281.81
273.553	307.81
273.785	291.81
274.017	287.81
274.249	288.81
274.481	302.81
274.713	286.81
274.945	295.81
275.176	305.81
275.408	308.81
275.64	289.81
275.872	293.81
276.104	291.81
276.335	287.81
276.567	285.81
276.799	315.81
277.031	325.81
277.262	320.81
277.494	324.81
277.726	330.81
277.957	325.81
278.189	321.81
278.421	322.81
278.652	321.81
278.884	311.81
279.115	310.81
279.347	317.81
279.579	305.81
279.81	315.81
280.042	316.81
280.273	318.81
280.505	320.81
280.736	322.81
280.968	316.81
281.199	317.81
281.431	311.81
281.662	319.81
281.894	319.81
282.125	318.81
282.356	355.81
282.588	347.81
282.819	365.81
283.051	333.81
283.282	322.81
283.513	330.81
283.745	333.81
283.976	338.81
284.207	340.81
284.439	341.81
284.67	324.81
284.901	335.81
285.132	346.81
285.364	332.81
285.595	346.81
285.826	349.81
286.057	354.81
286.288	334.81
286.52	329.81
286.751	338.81
286.982	363.81
287.213	373.81
287.444	344.81
287.675	353.81
287.906	348.81
288.138	349.81
288.369	380.81
288.6	358.81
288.831	344.81
289.062	354.81
289.293	357.81
289.524	341.81
289.755	375.81
289.986	343.81
290.217	341.81
290.448	353.81
290.679	361.81
290.91	353.81
291.141	370.81
291.371	357.81
291.602	363.81
291.833	338.81
292.064	355.81
292.295	374.81
292.526	377.81
292.757	355.81
292.987	352.81
293.218	350.81
293.449	358.81
293.68	366.81
293.91	360.81
294.141	347.81
294.372	348.81
294.603	360.81
294.833	359.81
295.064	354.81
295.295	359.81
295.525	375.81
295.756	367.81
295.987	378.81
296.217	381.81
296.448	394.81
296.679	386.81
296.909	370.81
297.14	365.81
297.37	392.81
297.601	375.81
297.831	366.81
298.062	379.81
298.292	381.81
298.523	387.81
298.753	401.81
298.984	390.81
299.214	373.81
299.445	377.81
299.675	393.81
299.905	386.81
300.136	376.81
300.366	390.81
300.597	401.81
300.827	409.81
301.057	400.81
301.288	377.81
301.518	421.81
301.748	412.81
301.979	411.81
302.209	454.81
302.439	419.81
302.669	411.81
302.9	419.81
303.13	403.81
303.36	407.81
303.59	411.81
303.82	415.81
304.051	415.81
304.281	419.81
304.511	413.81
304.741	400.81
304.971	397.81
305.201	382.81
305.431	402.81
305.661	396.81
305.891	410.81
306.121	396.81
306.352	405.81
306.582	385.81
306.812	394.81
307.042	394.81
307.272	399.81
307.502	409.81
307.731	414.81
307.961	410.81
308.191	398.81
308.421	394.81
308.651	398.81
308.881	416.81
309.111	413.81
309.341	417.81
309.571	412.81
309.8	413.81
310.03	429.81
310.26	446.81
310.49	420.81
310.72	422.81
310.949	427.81
311.179	466.81
311.409	445.81
311.639	425.81
311.868	450.81
312.098	433.81
312.328	441.81
312.557	459.81
312.787	481.81
313.017	445.81
313.246	458.81
313.476	442.81
313.706	453.81
313.935	460.81
314.165	470.81
314.394	470.81
314.624	465.81
314.853	449.81
315.083	454.81
315.312	447.81
315.542	440.81
315.771	469.81
316.001	443.81
316.23	439.81
316.46	452.81
316.689	439.81
316.919	460.81
317.148	457.81
317.377	464.81
317.607	448.81
317.836	450.81
318.065	441.81
318.295	447.81
318.524	460.81
318.753	417.81
318.983	418.81
319.212	448.81
319.441	467.81
319.67	460.81
319.9	456.81
320.129	451.81
320.358	449.81
320.587	460.81
320.816	458.81
321.046	462.81
321.275	445.81
321.504	456.81
321.733	477.81
321.962	473.81
322.191	483.81
322.42	475.81
322.649	478.81
322.878	493.81
323.108	500.81
323.337	501.81
323.566	510.81
323.795	535.81
324.024	555.81
324.253	625.81
324.482	811.81
324.71	1140.81
324.939	1667.81
325.168	1447.81
325.397	811.81
325.626	641.81
325.855	582.81
326.084	534.81
326.313	532.81
326.542	543.81
326.77	581.81
326.999	625.81
327.228	770.81
327.457	1101.81
327.686	1322.81
327.914	898.81
328.143	649.81
328.372	638.81
328.6	576.81
328.829	589.81
329.058	577.81
329.287	572.81
329.515	556.81
329.744	553.81
329.972	555.81
330.201	582.81
330.43	609.81
330.658	609.81
330.887	615.81
331.115	606.81
331.344	557.81
331.572	551.81
331.801	561.81
332.03	588.81
332.258	569.81
332.486	565.81
332.715	580.81
332.943	561.81
333.172	581.81
333.4	607.81
333.629	622.81
333.857	620.81
334.085	657.81
334.314	631.81
334.542	649.81
334.771	682.81
334.999	641.81
335.227	617.81
335.455	594.81
335.684	567.81
335.912	598.81
336.14	573.81
336.369	575.81
336.597	579.81
336.825	558.81
337.053	571.81
337.281	558.81
337.51	557.81
337.738	546.81
337.966	550.81
338.194	518.81
338.422	536.81
338.65	539.81
338.878	555.81
339.106	525.81
339.334	497.81
339.562	512.81
339.79	522.81
340.018	530.81
340.246	509.81
340.474	533.81
340.702	516.81
340.93	528.81
341.158	533.81
341.386	548.81
341.614	532.81
341.842	531.81
342.07	513.81
342.298	534.81
342.526	504.81
342.754	518.81
342.981	505.81
343.209	523.81
343.437	548.81
343.665	562.81
343.893	573.81
344.12	602.81
344.348	573.81
344.576	552.81
344.804	549.81
345.031	575.81
345.259	552.81
345.487	542.81
345.714	499.81
345.942	469.81
346.17	511.81
346.397	497.81
346.625	501.81
346.853	506.81
347.08	502.81
347.308	511.81
347.535	497.81
347.763	519.81
347.99	521.81
348.218	526.81
348.445	503.81
348.673	501.81
348.9	476.81
349.128	509.81
349.355	472.81
349.583	470.81
349.81	479.81
350.037	507.81
350.265	503.81
350.492	482.81
350.72	493.81
350.947	492.81
351.174	505.81
351.402	494.81
351.629	495.81
351.856	513.81
352.083	502.81
352.311	515.81
352.538	503.81
352.765	489.81
352.992	509.81
353.22	487.81
353.447	523.81
353.674	501.81
353.901	486.81
354.128	464.81
354.355	480.81
354.583	500.81
354.81	479.81
355.037	481.81
355.264	488.81
355.491	486.81
355.718	471.81
355.945	483.81
356.172	497.81
356.399	481.81
356.626	473.81
356.853	494.81
357.08	490.81
357.307	481.81
357.534	467.81
357.761	492.81
357.988	490.81
358.215	462.81
358.441	480.81
358.668	476.81
358.895	501.81
359.122	452.81
359.349	480.81
359.576	482.81
359.802	530.81
360.029	517.81
360.256	502.81
360.483	514.81
360.709	502.81
360.936	501.81
361.163	498.81
361.39	499.81
361.616	489.81
361.843	503.81
362.07	473.81
362.296	513.81
362.523	514.81
362.749	501.81
362.976	514.81
363.203	492.81
363.429	509.81
363.656	489.81
363.882	502.81
364.109	482.81
364.335	476.81
364.562	481.81
364.788	505.81
365.015	493.81
365.241	492.81
365.468	494.81
365.694	526.81
365.92	502.81
366.147	486.81
366.373	477.81
366.599	480.81
366.826	479.81
367.052	488.81
367.278	474.81
367.505	501.81
367.731	517.81
367.957	503.81
368.184	486.81
368.41	494.81
368.636	487.81
368.862	501.81
369.089	511.81
369.315	508.81
369.541	513.81
369.767	497.81
369.993	497.81
370.219	490.81
370.445	515.81
370.672	489.81
370.898	485.81
371.124	498.81
371.35	512.81
371.576	511.81
371.802	496.81
372.028	508.81
372.254	531.81
372.48	506.81
372.706	540.81
372.932	541.81
373.158	530.81
373.384	517.81
373.61	515.81
373.835	512.81
374.061	502.81
374.287	523.81
374.513	538.81
374.739	524.81
374.965	551.81
375.191	552.81
375.416	561.81
375.642	529.81
375.868	553.81
376.094	537.81
376.319	526.81
376.545	525.81
376.771	516.81
376.997	531.81
377.222	510.81
377.448	502.81
377.674	522.81
377.899	513.81
378.125	504.81
378.35	501.81
378.576	519.81
378.802	488.81
379.027	523.81
379.253	515.81
379.478	518.81
379.704	509.81
379.929	511.81
380.155	495.81
380.38	526.81
380.606	516.81
380.831	509.81
381.057	514.81
381.282	482.81
381.507	523.81
381.733	526.81
381.958	522.81
382.184	527.81
382.409	528.81
382.634	514.81
382.86	509.81
383.085	527.81
383.31	539.81
383.535	541.81
383.761	534.81
383.986	562.81
384.211	568.81
384.436	565.81
384.662	559.81
384.887	589.81
385.112	587.81
385.337	598.81
385.562	591.81
385.787	593.81
386.013	603.81
386.238	598.81
386.463	598.81
386.688	581.81
386.913	591.81
387.138	606.81
387.363	619.81
387.588	582.81
387.813	591.81
388.038	594.81
388.263	575.81
388.488	585.81
388.713	612.81
388.938	586.81
389.163	570.81
389.387	573.81
389.612	585.81
389.837	585.81
390.062	591.81
390.287	583.81
390.512	576.81
390.736	590.81
390.961	595.81
391.186	602.81
391.411	604.81
391.636	622.81
391.86	649.81
392.085	659.81
392.31	647.81
392.534	640.81
392.759	612.81
392.984	624.81
393.208	613.81
393.433	603.81
393.658	613.81
393.882	606.81
394.107	619.81
394.331	615.81
394.556	611.81
394.78	616.81
395.005	625.81
395.229	627.81
395.454	656.81
395.678	627.81
395.903	635.81
396.127	645.81
396.352	655.81
396.576	634.81
396.801	621.81
397.025	627.81
397.249	624.81
397.474	643.81
397.698	663.81
397.922	667.81
398.147	650.81
398.371	692.81
398.595	670.81
398.82	693.81
399.044	734.81
399.268	801.81
399.492	863.81
399.717	921.81
399.941	957.81
400.165	905.81
400.389	862.81
400.613	793.81
400.837	755.81
401.062	723.81
401.286	724.81
401.51	711.81
401.734	675.81
401.958	700.81
402.182	742.81
402.406	732.81
402.63	726.81
402.854	751.81
403.078	739.81
403.302	747.81
403.526	735.81
403.75	782.81
403.974	770.81
404.198	752.81
404.422	779.81
404.645	782.81
404.869	797.81
405.093	804.81
405.317	810.81
405.541	867.81
405.765	779.81
405.988	759.81
406.212	775.81
406.436	794.81
406.66	781.81
406.883	802.81
407.107	856.81
407.331	884.81
407.555	922.81
407.778	948.81
408.002	889.81
408.226	812.81
408.449	833.81
408.673	797.81
408.896	823.81
409.12	843.81
409.344	800.81
409.567	753.81
409.791	742.81
410.014	770.81
410.238	758.81
410.461	757.81
410.685	739.81
410.908	739.81
411.132	771.81
411.355	771.81
411.578	787.81
411.802	725.81
412.025	716.81
412.249	728.81
412.472	773.81
412.695	759.81
412.919	761.81
413.142	736.81
413.365	725.81
413.589	728.81
413.812	712.81
414.035	706.81
414.258	694.81
414.482	719.81
414.705	734.81
414.928	687.81
415.151	707.81
415.374	705.81
415.597	699.81
415.821	686.81
416.044	695.81
416.267	674.81
416.49	675.81
416.713	665.81
416.936	683.81
417.159	675.81
417.382	684.81
417.605	699.81
417.828	703.81
418.051	718.81
418.274	713.81
418.497	703.81
418.72	696.81
418.943	681.81
419.166	743.81
419.389	796.81
419.611	748.81
419.834	734.81
420.057	750.81
420.28	715.81
420.503	732.81
420.726	715.81
420.948	719.81
421.171	735.81
421.394	770.81
421.617	740.81
421.839	711.81
422.062	694.81
422.285	699.81
422.507	780.81
422.73	807.81
422.953	808.81
423.175	768.81
423.398	773.81
423.621	747.81
423.843	758.81
424.066	759.81
424.288	746.81
424.511	777.81
424.733	819.81
424.956	854.81
425.178	820.81
425.401	826.81
425.623	830.81
425.846	773.81
426.068	736.81
426.291	729.81
426.513	714.81
426.735	699.81
426.958	763.81
427.18	804.81
427.402	905.81
427.625	997.81
427.847	890.81
428.069	806.81
428.292	731.81
428.514	663.81
428.736	675.81
428.958	660.81
429.181	653.81
429.403	642.81
429.625	673.81
429.847	693.81
430.069	739.81
430.292	719.81
430.514	660.81
430.736	667.81
430.958	669.81
431.18	654.81
431.402	669.81
431.624	651.81
431.846	660.81
432.068	643.81
432.29	660.81
432.512	651.81
432.734	666.81
432.956	647.81
433.178	646.81
433.4	657.81
433.622	654.81
433.844	673.81
434.066	651.81
434.287	665.81
434.509	665.81
434.731	693.81
434.953	703.81
435.175	698.81
435.397	714.81
435.618	711.81
435.84	732.81
436.062	808.81
436.284	869.81
436.505	744.81
436.727	694.81
436.949	670.81
437.17	668.81
437.392	660.81
437.614	671.81
437.835	670.81
438.057	773.81
438.278	829.81
438.5	827.81
438.721	889.81
438.943	882.81
439.165	732.81
439.386	713.81
439.608	692.81
439.829	667.81
440.05	722.81
440.272	753.81
440.493	709.81
440.715	716.81
440.936	699.81
441.158	665.81
441.379	679.81
441.6	705.81
441.822	726.81
442.043	783.81
442.264	825.81
442.486	836.81
442.707	755.81
442.928	751.81
443.149	742.81
443.371	769.81
443.592	783.81
443.813	854.81
444.034	927.81
444.255	827.81
444.476	778.81
444.698	790.81
444.919	807.81
445.14	909.81
445.361	826.81
445.582	809.81
445.803	756.81
446.024	853.81
446.245	859.81
446.466	821.81
446.687	714.81
446.908	699.81
447.129	664.81
447.35	637.81
447.571	684.81
447.792	647.81
448.013	606.81
448.234	643.81
448.455	695.81
448.675	780.81
448.896	880.81
449.117	738.81
449.338	695.81
449.559	823.81
449.779	896.81
450	737.81
450.221	685.81
450.442	625.81
450.662	614.81
450.883	641.81
451.104	630.81
451.324	636.81
451.545	622.81
451.766	593.81
451.986	585.81
452.207	568.81
452.428	578.81
452.648	589.81
452.869	599.81
453.089	598.81
453.31	597.81
453.53	588.81
453.751	573.81
453.971	587.81
454.192	581.81
454.412	569.81
454.633	591.81
454.853	581.81
455.073	581.81
455.294	579.81
455.514	623.81
455.734	634.81
455.955	597.81
456.175	576.81
456.395	557.81
456.616	567.81
456.836	550.81
457.056	549.81
457.276	568.81
457.497	573.81
457.717	549.81
457.937	585.81
458.157	582.81
458.377	581.81
458.598	617.81
458.818	638.81
459.038	689.81
459.258	716.81
459.478	664.81
459.698	660.81
459.918	682.81
460.138	659.81
460.358	711.81
460.578	729.81
460.798	698.81
461.018	736.81
461.238	715.81
461.458	699.81
461.678	720.81
461.898	710.81
462.118	720.81
462.338	724.81
462.558	742.81
462.777	778.81
462.997	812.81
463.217	857.81
463.437	888.81
463.657	823.81
463.876	791.81
464.096	797.81
464.316	790.81
464.536	826.81
464.755	801.81
464.975	754.81
465.195	757.81
465.414	783.81
465.634	715.81
465.854	679.81
466.073	661.81
466.293	643.81
466.512	651.81
466.732	623.81
466.951	630.81
467.171	604.81
467.391	610.81
467.61	635.81
467.829	635.81
468.049	620.81
468.268	625.81
468.488	613.81
468.707	606.81
468.927	591.81
469.146	595.81
469.365	613.81
469.585	613.81
469.804	645.81
470.023	650.81
470.243	654.81
470.462	643.81
470.681	666.81
470.901	645.81
471.12	653.81
471.339	658.81
471.558	622.81
471.777	638.81
471.997	600.81
472.216	612.81
472.435	658.81
472.654	633.81
472.873	622.81
473.092	597.81
473.311	597.81
473.53	602.81
473.749	618.81
473.968	631.81
474.187	707.81
474.406	743.81
474.625	646.81
474.844	604.81
475.063	601.81
475.282	600.81
475.501	617.81
475.72	632.81
475.939	643.81
476.158	620.81
476.377	634.81
476.596	637.81
476.814	667.81
477.033	633.81
477.252	666.81
477.471	668.81
477.69	697.81
477.908	703.81
478.127	696.81
478.346	702.81
478.564	721.81
478.783	698.81
479.002	735.81
479.22	745.81
479.439	758.81
479.658	728.81
479.876	743.81
480.095	769.81
480.313	828.81
480.532	806.81
480.751	791.81
480.969	819.81
481.188	822.81
481.406	853.81
481.624	770.81
481.843	740.81
482.061	719.81
482.28	708.81
482.498	682.81
482.717	718.81
482.935	697.81
483.153	721.81
483.372	695.81
483.59	704.81
483.808	696.81
484.027	721.81
484.245	710.81
484.463	707.81
484.681	729.81
484.9	739.81
485.118	732.81
485.336	741.81
485.554	719.81
485.772	744.81
485.99	742.81
486.209	757.81
486.427	747.81
486.645	769.81
486.863	781.81
487.081	795.81
487.299	744.81
487.517	793.81
487.735	774.81
487.953	763.81
488.171	763.81
488.389	760.81
488.607	768.81
488.825	739.81
489.043	749.81
489.261	771.81
489.479	770.81
489.696	779.81
489.914	778.81
490.132	799.81
490.35	802.81
490.568	807.81
490.786	793.81
491.003	809.81
491.221	803.81
491.439	808.81
491.657	819.81
491.874	828.81
492.092	844.81
492.31	852.81
492.527	834.81
492.745	851.81
492.963	858.81
493.18	850.81
493.398	860.81
493.615	883.81
493.833	879.81
494.05	858.81
494.268	870.81
494.485	892.81
494.703	876.81
494.92	887.81
495.138	868.81
495.355	895.81
495.573	894.81
495.79	878.81
496.008	885.81
496.225	866.81
496.442	903.81
496.66	896.81
496.877	919.81
497.094	916.81
497.312	915.81
497.529	940.81
497.746	940.81
497.963	962.81
498.181	994.81
498.398	1035.81
498.615	1087.81
498.832	1127.81
499.049	1161.81
499.267	1258.81
499.484	1341.81
499.701	1422.81
499.918	1489.81
500.135	1629.81
500.352	1763.81
500.569	1839.81
500.786	1748.81
501.003	1709.81
501.22	1607.81
501.437	1510.81
501.654	1396.81
501.871	1337.81
502.088	1295.81
502.305	1170.81
502.522	1124.81
502.739	1085.81
502.956	1054.81
503.172	985.81
503.389	945.81
503.606	988.81
503.823	941.81
504.04	948.81
504.256	951.81
504.473	942.81
504.69	968.81
504.907	969.81
505.123	942.81
505.34	890.81
505.557	857.81
505.773	858.81
505.99	831.81
506.207	861.81
506.423	816.81
506.64	813.81
506.856	807.81
507.073	810.81
507.289	784.81
507.506	787.81
507.722	811.81
507.939	797.81
508.155	777.81
508.372	772.81
508.588	763.81
508.805	749.81
509.021	754.81
509.238	761.81
509.454	777.81
509.67	759.81
509.887	740.81
510.103	758.81
510.319	761.81
510.536	802.81
510.752	1176.81
510.968	1015.81
511.184	757.81
511.401	746.81
511.617	753.81
511.833	717.81
512.049	707.81
512.265	733.81
512.481	740.81
512.698	731.81
512.914	697.81
513.13	736.81
513.346	721.81
513.562	710.81
513.778	728.81
513.994	725.81
514.21	726.81
514.426	769.81
514.642	751.81
514.858	794.81
515.074	809.81
515.29	871.81
515.506	1153.81
515.721	1045.81
515.937	826.81
516.153	799.81
516.369	802.81
516.585	807.81
516.801	827.81
517.016	840.81
517.232	839.81
517.448	892.81
517.664	881.81
517.879	886.81
518.095	882.81
518.311	878.81
518.527	860.81
518.742	842.81
518.958	807.81
519.173	791.81
519.389	791.81
519.605	759.81
519.82	747.81
520.036	776.81
520.251	748.81
520.467	784.81
520.682	773.81
520.898	734.81
521.113	769.81
521.329	785.81
521.544	814.81
521.76	919.81
521.975	1376.81
522.19	1421.81
522.406	869.81
522.621	729.81
522.836	708.81
523.052	670.81
523.267	651.81
523.482	673.81
523.698	671.81
523.913	661.81
524.128	643.81
524.343	641.81
524.559	644.81
524.774	661.81
524.989	652.81
525.204	645.81
525.419	653.81
525.634	640.81
525.849	635.81
526.064	643.81
526.28	635.81
526.495	620.81
526.71	627.81
526.925	614.81
527.14	616.81
527.355	633.81
527.57	596.81
527.785	603.81
527.999	625.81
528.214	632.81
528.429	604.81
528.644	618.81
528.859	621.81
529.074	608.81
529.289	637.81
529.503	683.81
529.718	672.81
529.933	637.81
530.148	611.81
530.363	629.81
530.577	613.81
530.792	602.81
531.007	614.81
531.221	599.81
531.436	630.81
531.651	617.81
531.865	621.81
532.08	601.81
532.295	613.81
532.509	605.81
532.724	616.81
532.938	613.81
533.153	619.81
533.367	601.81
533.582	604.81
533.796	606.81
534.011	622.81
534.225	629.81
534.44	595.81
534.654	611.81
534.868	587.81
535.083	612.81
535.297	595.81
535.511	589.81
535.726	612.81
535.94	595.81
536.154	603.81
536.369	580.81
536.583	582.81
536.797	599.81
537.011	575.81
537.225	591.81
537.44	571.81
537.654	586.81
537.868	582.81
538.082	554.81
538.296	568.81
538.51	561.81
538.724	576.81
538.938	581.81
539.153	573.81
539.367	568.81
539.581	569.81
539.795	563.81
540.009	560.81
540.222	564.81
540.436	552.81
540.65	567.81
540.864	563.81
541.078	572.81
541.292	583.81
541.506	551.81
541.72	566.81
541.934	554.81
542.147	563.81
542.361	584.81
542.575	573.81
542.789	558.81
543.002	585.81
543.216	558.81
543.43	562.81
543.644	565.81
543.857	575.81
544.071	555.81
544.285	569.81
544.498	555.81
544.712	552.81
544.925	569.81
545.139	563.81
545.352	548.81
545.566	571.81
545.779	547.81
545.993	550.81
546.206	585.81
546.42	565.81
546.633	577.81
546.847	557.81
547.06	559.81
547.274	570.81
547.487	583.81
547.7	571.81
547.914	567.81
548.127	555.81
548.34	551.81
548.554	576.81
548.767	594.81
548.98	585.81
549.193	578.81
549.407	586.81
549.62	570.81
549.833	579.81
550.046	576.81
550.259	566.81
550.473	578.81
550.686	565.81
550.899	566.81
551.112	565.81
551.325	539.81
551.538	563.81
551.751	559.81
551.964	569.81
552.177	577.81
552.39	566.81
552.603	564.81
552.816	585.81
553.029	595.81
553.242	635.81
553.455	626.81
553.667	621.81
553.88	621.81
554.093	612.81
554.306	605.81
554.519	581.81
554.732	567.81
554.944	546.81
555.157	549.81
555.37	549.81
555.583	552.81
555.795	539.81
556.008	556.81
556.221	515.81
556.433	485.81
556.646	519.81
556.859	502.81
557.071	532.81
557.284	516.81
557.496	517.81
557.709	518.81
557.921	497.81
558.134	490.81
558.346	491.81
558.559	500.81
558.771	508.81
558.984	481.81
559.196	475.81
559.409	484.81
559.621	489.81
559.833	476.81
560.046	475.81
560.258	499.81
560.47	491.81
560.683	513.81
560.895	485.81
561.107	498.81
561.32	470.81
561.532	497.81
561.744	513.81
561.956	497.81
562.168	483.81
562.381	483.81
562.593	517.81
562.805	489.81
563.017	482.81
563.229	485.81
563.441	509.81
563.653	486.81
563.865	502.81
564.077	523.81
564.289	502.81
564.501	519.81
564.713	509.81
564.925	543.81
565.137	550.81
565.349	552.81
565.561	578.81
565.773	575.81
565.985	587.81
566.197	632.81
566.408	634.81
566.62	679.81
566.832	725.81
567.044	760.81
567.255	761.81
567.467	766.81
567.679	757.81
567.891	827.81
568.102	817.81
568.314	789.81
568.526	742.81
568.737	687.81
568.949	648.81
569.161	606.81
569.372	569.81
569.584	584.81
569.795	562.81
570.007	518.81
570.218	535.81
570.43	541.81
570.641	531.81
570.853	500.81
571.064	514.81
571.276	542.81
571.487	504.81
571.698	474.81
571.91	468.81
572.121	455.81
572.333	469.81
572.544	445.81
572.755	444.81
572.966	447.81
573.178	423.81
573.389	448.81
573.6	440.81
573.811	426.81
574.023	450.81
574.234	446.81
574.445	434.81
574.656	425.81
574.867	451.81
575.078	427.81
575.289	433.81
575.501	435.81
575.712	412.81
575.923	420.81
576.134	411.81
576.345	421.81
576.556	428.81
576.767	418.81
576.978	408.81
577.188	388.81
577.399	395.81
577.61	399.81
577.821	405.81
578.032	412.81
578.243	419.81
578.454	580.81
578.665	473.81
578.875	404.81
579.086	397.81
579.297	403.81
579.508	387.81
579.718	382.81
579.929	382.81
580.14	381.81
580.35	382.81
580.561	394.81
580.772	383.81
580.982	383.81
581.193	375.81
581.403	386.81
581.614	401.81
581.825	378.81
582.035	381.81
582.246	359.81
582.456	392.81
582.667	385.81
582.877	403.81
583.087	380.81
583.298	391.81
583.508	378.81
583.719	369.81
583.929	384.81
584.139	371.81
584.35	365.81
584.56	362.81
584.77	367.81
584.981	355.81
585.191	371.81
585.401	375.81
585.611	371.81
585.821	373.81
586.032	370.81
586.242	369.81
586.452	370.81
586.662	376.81
586.872	355.81
587.082	367.81
587.292	362.81
587.502	359.81
587.713	369.81
587.923	369.81
588.133	379.81
588.343	381.81
588.553	373.81
588.762	349.81
588.972	359.81
589.182	387.81
589.392	377.81
589.602	373.81
589.812	358.81
590.022	376.81
590.232	365.81
590.441	367.81
590.651	372.81
590.861	372.81
591.071	380.81
591.281	387.81
591.49	379.81
591.7	410.81
591.91	393.81
592.119	386.81
592.329	418.81
592.539	398.81
592.748	422.81
592.958	429.81
593.167	429.81
593.377	458.81
593.587	429.81
593.796	438.81
594.006	442.81
594.215	457.81
594.424	427.81
594.634	469.81
594.843	434.81
595.053	409.81
595.262	404.81
595.472	388.81
595.681	397.81
595.89	404.81
596.1	373.81
596.309	374.81
596.518	375.81
596.727	345.81
596.937	356.81
597.146	344.81
597.355	361.81
597.564	349.81
597.774	338.81
597.983	311.81
598.192	338.81
598.401	343.81
598.61	331.81
598.819	332.81
599.028	337.81
599.237	341.81
599.446	333.81
599.655	340.81
599.864	329.81
600.073	315.81
600.282	302.81
600.491	308.81
600.7	310.81
600.909	327.81
601.118	323.81
601.327	316.81
601.536	340.81
601.745	318.81
601.953	320.81
602.162	334.81
602.371	327.81
602.58	308.81
602.789	298.81
602.997	293.81
603.206	303.81
603.415	294.81
603.623	301.81
603.832	295.81
604.041	307.81
604.249	314.81
604.458	321.81
604.666	290.81
604.875	297.81
605.084	294.81
605.292	299.81
605.501	305.81
605.709	298.81
605.918	275.81
606.126	284.81
606.334	309.81
606.543	279.81
606.751	301.81
606.96	308.81
607.168	291.81
607.376	296.81
607.585	283.81
607.793	290.81
608.001	294.81
608.21	291.81
608.418	293.81
608.626	296.81
608.834	297.81
609.043	298.81
609.251	290.81
609.459	286.81
609.667	275.81
609.875	297.81
610.083	284.81
610.291	299.81
610.499	282.81
610.707	293.81
610.916	289.81
611.124	290.81
611.332	266.81
611.54	306.81
611.748	295.81
611.955	307.81
612.163	279.81
612.371	306.81
612.579	295.81
612.787	290.81
612.995	285.81
613.203	279.81
613.411	280.81
613.618	286.81
613.826	294.81
614.034	296.81
614.242	281.81
614.449	281.81
614.657	279.81
614.865	287.81
615.072	290.81
615.28	298.81
615.488	296.81
615.695	281.81
615.903	274.81
616.111	289.81
616.318	289.81
616.526	299.81
616.733	295.81
616.941	276.81
617.148	295.81
617.356	285.81
617.563	271.81
617.771	274.81
617.978	305.81
618.185	292.81
618.393	290.81
618.6	282.81
618.807	281.81
619.015	267.81
619.222	281.81
619.429	263.81
619.637	277.81
619.844	275.81
620.051	276.81
620.258	272.81
620.466	283.81
620.673	262.81
620.88	271.81
621.087	274.81
621.294	254.81
621.501	261.81
621.708	269.81
621.915	259.81
622.122	279.81
622.329	274.81
622.536	267.81
622.743	269.81
622.95	248.81
623.157	265.81
623.364	254.81
623.571	251.81
623.778	265.81
623.985	250.81
624.192	257.81
624.399	259.81
624.606	245.81
624.812	259.81
625.019	251.81
625.226	261.81
625.433	267.81
625.639	246.81
625.846	234.81
626.053	235.81
626.259	246.81
626.466	239.81
626.673	245.81
626.879	258.81
627.086	246.81
627.293	268.81
627.499	265.81
627.706	254.81
627.912	226.81
628.119	234.81
628.325	242.81
628.532	237.81
628.738	245.81
628.945	234.81
629.151	225.81
629.357	235.81
629.564	235.81
629.77	218.81
629.976	242.81
630.183	222.81
630.389	235.81
630.595	241.81
630.802	230.81
631.008	232.81
631.214	245.81
631.42	233.81
631.627	230.81
631.833	225.81
632.039	231.81
632.245	217.81
632.451	226.81
632.657	207.81
632.863	238.81
633.069	238.81
633.275	220.81
633.481	227.81
633.688	221.81
633.893	210.81
634.099	204.81
634.305	211.81
634.511	228.81
634.717	223.81
634.923	197.81
635.129	211.81
635.335	226.81
635.541	201.81
635.747	209.81
635.952	209.81
636.158	228.81
636.364	225.81
636.57	216.81
636.775	220.81
636.981	222.81
637.187	215.81
637.392	202.81
637.598	218.81
637.804	204.81
638.009	196.81
638.215	204.81
638.421	200.81
638.626	206.81
638.832	221.81
639.037	199.81
639.243	200.81
639.448	200.81
639.654	195.81
639.859	196.81
640.065	194.81
640.27	201.81
640.475	193.81
640.681	196.81
640.886	212.81
641.091	207.81
641.297	207.81
641.502	206.81
641.707	214.81
641.913	203.81
642.118	195.81
642.323	207.81
642.528	193.81
642.733	181.81
642.939	204.81
643.144	193.81
643.349	194.81
643.554	200.81
643.759	189.81
643.964	192.81
644.169	198.81
644.374	195.81
644.579	190.81
644.784	175.81
644.989	190.81
645.194	191.81
645.399	197.81
645.604	204.81
645.809	184.81
646.014	194.81
646.219	179.81
646.423	191.81
646.628	202.81
646.833	197.81
647.038	213.81
647.243	198.81
647.447	211.81
647.652	195.81
647.857	195.81
648.062	188.81
648.266	209.81
648.471	206.81
648.676	215.81
648.88	208.81
649.085	209.81
649.289	212.81
649.494	200.81
649.698	195.81
649.903	196.81
650.107	195.81
650.312	167.81
650.516	186.81
650.721	179.81
650.925	185.81
651.13	186.81
651.334	173.81
651.539	170.81
651.743	172.81
651.947	169.81
652.152	157.81
652.356	169.81
652.56	156.81
652.764	172.81
652.969	143.81
653.173	162.81
653.377	152.81
653.581	155.81
653.785	155.81
653.99	159.81
654.194	155.81
654.398	165.81
654.602	153.81
654.806	164.81
655.01	167.81
655.214	159.81
655.418	155.81
655.622	156.81
655.826	154.81
656.03	154.81
656.234	148.81
656.438	173.81
656.642	164.81
656.846	150.81
657.049	149.81
657.253	139.81
657.457	146.81
657.661	134.81
657.865	132.81
658.068	123.81
658.272	121.81
658.476	119.81
658.68	118.81
658.883	95.81
659.087	105.81
659.291	114.81
659.494	109.81
659.698	106.81
659.901	106.81
660.105	106.81
660.309	107.81
660.512	96.81
660.716	91.81
660.919	93.81
661.123	108.81
661.326	101.81
661.53	90.81
661.733	105.81
661.936	83.81
662.14	84.81
662.343	89.81
662.546	90.81
662.75	90.81
662.953	102.81
663.156	80.81
663.36	86.81
663.563	91.81
663.766	65.81
663.969	83.81
664.173	84.81
664.376	97.81
664.579	105.81
664.782	90.81
664.985	80.81
665.188	78.81
665.391	85.81
665.594	71.81
665.797	90.81
666	73.81
666.203	70.81
666.406	85.81
666.609	72.81
666.812	88.81
667.015	81.81
667.218	81.81
667.421	88.81
667.624	82.81
667.827	85.81
668.03	82.81
668.232	89.81
668.435	82.81
668.638	98.81
668.841	84.81
669.043	97.81
669.246	83.81
669.449	84.81
669.651	89.81
669.854	90.81
670.057	87.81
670.259	78.81
670.462	84.81
670.665	79.81
670.867	90.81
671.07	94.81
671.272	69.81
671.475	92.81
671.677	89.81
671.88	88.81
672.082	83.81
672.284	75.81
672.487	76.81
672.689	94.81
672.892	82.81
