Data from 1963.PennyLincolnUp.Lamp.En5.5.200Scan.071719.P1._HRD10591_13-59-37-064.txt Node
Date: Thu Jul 18 13:59:37 EDT 2019
User: cochatt
Spectrometer: HR+D1059
Trigger mode: 1
Integration Time (sec): 1.000000E-1
Scans to average: 1
Electric dark correction enabled: true
Nonlinearity correction enabled: false
Boxcar width: 0
XAxis mode: Wavelengths
Number of Pixels in Spectrum: 2048
>>>>>Begin Spectral Data<<<<<
223.165	-13.12
223.4	-13.12
223.635	-13.12
223.869	-2.12
224.104	-19.12
224.338	-5.12
224.573	-19.12
224.808	-19.12
225.042	-14.12
225.277	-14.12
225.511	3.88
225.746	-1.12
225.98	13.88
226.215	16.88
226.449	0.88
226.683	23.88
226.918	29.88
227.152	17.88
227.387	34.88
227.621	35.88
227.856	33.88
228.09	45.88
228.324	54.88
228.559	55.88
228.793	71.88
229.027	101.88
229.262	86.88
229.496	127.88
229.73	129.88
229.964	131.88
230.199	143.88
230.433	112.88
230.667	117.88
230.901	127.88
231.136	126.88
231.37	110.88
231.604	120.88
231.838	119.88
232.072	114.88
232.306	113.88
232.541	132.88
232.775	130.88
233.009	115.88
233.243	122.88
233.477	121.88
233.711	132.88
233.945	125.88
234.179	123.88
234.413	110.88
234.647	127.88
234.881	137.88
235.115	133.88
235.349	125.88
235.583	131.88
235.817	120.88
236.051	123.88
236.285	138.88
236.519	150.88
236.753	151.88
236.987	133.88
237.221	179.88
237.455	212.88
237.689	189.88
237.922	147.88
238.156	135.88
238.39	132.88
238.624	123.88
238.858	139.88
239.091	138.88
239.325	136.88
239.559	130.88
239.793	162.88
240.027	142.88
240.26	166.88
240.494	154.88
240.728	159.88
240.961	161.88
241.195	140.88
241.429	165.88
241.662	150.88
241.896	147.88
242.13	147.88
242.363	148.88
242.597	147.88
242.83	144.88
243.064	153.88
243.298	165.88
243.531	153.88
243.765	162.88
243.998	159.88
244.232	153.88
244.465	163.88
244.699	162.88
244.932	181.88
245.166	161.88
245.399	151.88
245.633	159.88
245.866	173.88
246.099	167.88
246.333	157.88
246.566	172.88
246.8	162.88
247.033	166.88
247.266	168.88
247.5	181.88
247.733	186.88
247.966	191.88
248.2	198.88
248.433	189.88
248.666	191.88
248.899	200.88
249.133	220.88
249.366	217.88
249.599	226.88
249.832	218.88
250.066	198.88
250.299	203.88
250.532	205.88
250.765	220.88
250.998	225.88
251.231	255.88
251.465	228.88
251.698	229.88
251.931	241.88
252.164	223.88
252.397	217.88
252.63	201.88
252.863	234.88
253.096	225.88
253.329	238.88
253.562	253.88
253.795	245.88
254.028	229.88
254.261	235.88
254.494	238.88
254.727	261.88
254.96	295.88
255.193	286.88
255.426	274.88
255.659	249.88
255.892	260.88
256.124	249.88
256.357	266.88
256.59	233.88
256.823	242.88
257.056	235.88
257.289	232.88
257.521	238.88
257.754	253.88
257.987	238.88
258.22	223.88
258.452	232.88
258.685	235.88
258.918	243.88
259.151	243.88
259.383	236.88
259.616	236.88
259.849	255.88
260.081	263.88
260.314	270.88
260.547	282.88
260.779	262.88
261.012	246.88
261.244	258.88
261.477	241.88
261.71	245.88
261.942	250.88
262.175	252.88
262.407	263.88
262.64	247.88
262.872	242.88
263.105	231.88
263.337	245.88
263.57	247.88
263.802	243.88
264.035	238.88
264.267	252.88
264.499	254.88
264.732	246.88
264.964	259.88
265.197	253.88
265.429	241.88
265.661	253.88
265.894	259.88
266.126	253.88
266.358	252.88
266.591	265.88
266.823	277.88
267.055	267.88
267.287	271.88
267.52	263.88
267.752	289.88
267.984	273.88
268.216	267.88
268.448	282.88
268.681	293.88
268.913	281.88
269.145	288.88
269.377	313.88
269.609	307.88
269.841	306.88
270.073	303.88
270.306	300.88
270.538	338.88
270.77	339.88
271.002	332.88
271.234	334.88
271.466	310.88
271.698	328.88
271.93	345.88
272.162	335.88
272.394	344.88
272.626	327.88
272.858	296.88
273.09	319.88
273.322	311.88
273.553	290.88
273.785	321.88
274.017	307.88
274.249	319.88
274.481	305.88
274.713	319.88
274.945	308.88
275.176	332.88
275.408	305.88
275.64	301.88
275.872	327.88
276.104	327.88
276.335	305.88
276.567	325.88
276.799	324.88
277.031	355.88
277.262	340.88
277.494	371.88
277.726	363.88
277.957	343.88
278.189	326.88
278.421	303.88
278.652	324.88
278.884	331.88
279.115	325.88
279.347	341.88
279.579	332.88
279.81	342.88
280.042	316.88
280.273	339.88
280.505	316.88
280.736	313.88
280.968	339.88
281.199	335.88
281.431	316.88
281.662	329.88
281.894	324.88
282.125	334.88
282.356	346.88
282.588	372.88
282.819	363.88
283.051	328.88
283.282	345.88
283.513	345.88
283.745	334.88
283.976	354.88
284.207	342.88
284.439	344.88
284.67	340.88
284.901	320.88
285.132	334.88
285.364	341.88
285.595	341.88
285.826	352.88
286.057	360.88
286.288	341.88
286.52	358.88
286.751	351.88
286.982	354.88
287.213	348.88
287.444	364.88
287.675	359.88
287.906	365.88
288.138	371.88
288.369	358.88
288.6	383.88
288.831	354.88
289.062	371.88
289.293	357.88
289.524	361.88
289.755	360.88
289.986	358.88
290.217	389.88
290.448	380.88
290.679	373.88
290.91	369.88
291.141	370.88
291.371	359.88
291.602	352.88
291.833	375.88
292.064	379.88
292.295	359.88
292.526	360.88
292.757	379.88
292.987	373.88
293.218	361.88
293.449	373.88
293.68	371.88
293.91	364.88
294.141	385.88
294.372	362.88
294.603	373.88
294.833	379.88
295.064	378.88
295.295	374.88
295.525	392.88
295.756	413.88
295.987	374.88
296.217	397.88
296.448	402.88
296.679	392.88
296.909	401.88
297.14	381.88
297.37	411.88
297.601	384.88
297.831	388.88
298.062	381.88
298.292	388.88
298.523	387.88
298.753	419.88
298.984	405.88
299.214	398.88
299.445	406.88
299.675	388.88
299.905	398.88
300.136	400.88
300.366	395.88
300.597	403.88
300.827	412.88
301.057	434.88
301.288	428.88
301.518	407.88
301.748	419.88
301.979	402.88
302.209	418.88
302.439	423.88
302.669	437.88
302.9	422.88
303.13	400.88
303.36	425.88
303.59	432.88
303.82	419.88
304.051	433.88
304.281	408.88
304.511	412.88
304.741	411.88
304.971	403.88
305.201	431.88
305.431	426.88
305.661	421.88
305.891	417.88
306.121	413.88
306.352	433.88
306.582	433.88
306.812	434.88
307.042	437.88
307.272	407.88
307.502	425.88
307.731	415.88
307.961	417.88
308.191	441.88
308.421	440.88
308.651	418.88
308.881	429.88
309.111	420.88
309.341	410.88
309.571	411.88
309.8	444.88
310.03	437.88
310.26	444.88
310.49	457.88
310.72	429.88
310.949	467.88
311.179	462.88
311.409	468.88
311.639	463.88
311.868	464.88
312.098	469.88
312.328	469.88
312.557	481.88
312.787	483.88
313.017	478.88
313.246	463.88
313.476	444.88
313.706	467.88
313.935	486.88
314.165	463.88
314.394	468.88
314.624	477.88
314.853	474.88
315.083	471.88
315.312	476.88
315.542	465.88
315.771	458.88
316.001	449.88
316.23	464.88
316.46	455.88
316.689	466.88
316.919	473.88
317.148	477.88
317.377	484.88
317.607	454.88
317.836	480.88
318.065	473.88
318.295	475.88
318.524	453.88
318.753	455.88
318.983	473.88
319.212	454.88
319.441	483.88
319.67	470.88
319.9	469.88
320.129	469.88
320.358	478.88
320.587	464.88
320.816	501.88
321.046	483.88
321.275	477.88
321.504	483.88
321.733	510.88
321.962	480.88
322.191	493.88
322.42	502.88
322.649	521.88
322.878	507.88
323.108	517.88
323.337	546.88
323.566	540.88
323.795	562.88
324.024	582.88
324.253	658.88
324.482	862.88
324.71	1267.88
324.939	1797.88
325.168	1617.88
325.397	865.88
325.626	669.88
325.855	591.88
326.084	573.88
326.313	539.88
326.542	561.88
326.77	589.88
326.999	668.88
327.228	819.88
327.457	1179.88
327.686	1401.88
327.914	1005.88
328.143	701.88
328.372	649.88
328.6	613.88
328.829	611.88
329.058	603.88
329.287	621.88
329.515	604.88
329.744	607.88
329.972	566.88
330.201	604.88
330.43	623.88
330.658	645.88
330.887	655.88
331.115	634.88
331.344	612.88
331.572	565.88
331.801	601.88
332.03	578.88
332.258	593.88
332.486	600.88
332.715	595.88
332.943	597.88
333.172	594.88
333.4	640.88
333.629	646.88
333.857	664.88
334.085	666.88
334.314	662.88
334.542	667.88
334.771	690.88
334.999	642.88
335.227	653.88
335.455	632.88
335.684	595.88
335.912	629.88
336.14	587.88
336.369	597.88
336.597	594.88
336.825	618.88
337.053	573.88
337.281	575.88
337.51	590.88
337.738	574.88
337.966	564.88
338.194	560.88
338.422	567.88
338.65	579.88
338.878	551.88
339.106	569.88
339.334	579.88
339.562	540.88
339.79	537.88
340.018	543.88
340.246	550.88
340.474	554.88
340.702	545.88
340.93	551.88
341.158	543.88
341.386	569.88
341.614	542.88
341.842	547.88
342.07	526.88
342.298	521.88
342.526	551.88
342.754	526.88
342.981	520.88
343.209	541.88
343.437	553.88
343.665	565.88
343.893	607.88
344.12	624.88
344.348	589.88
344.576	618.88
344.804	567.88
345.031	558.88
345.259	580.88
345.487	555.88
345.714	545.88
345.942	522.88
346.17	513.88
346.397	521.88
346.625	551.88
346.853	518.88
347.08	514.88
347.308	495.88
347.535	524.88
347.763	528.88
347.99	532.88
348.218	520.88
348.445	541.88
348.673	499.88
348.9	509.88
349.128	518.88
349.355	524.88
349.583	505.88
349.81	491.88
350.037	508.88
350.265	521.88
350.492	486.88
350.72	501.88
350.947	527.88
351.174	524.88
351.402	515.88
351.629	511.88
351.856	505.88
352.083	498.88
352.311	539.88
352.538	503.88
352.765	513.88
352.992	527.88
353.22	517.88
353.447	507.88
353.674	511.88
353.901	497.88
354.128	520.88
354.355	482.88
354.583	501.88
354.81	505.88
355.037	486.88
355.264	495.88
355.491	498.88
355.718	511.88
355.945	513.88
356.172	501.88
356.399	505.88
356.626	498.88
356.853	502.88
357.08	519.88
357.307	512.88
357.534	488.88
357.761	499.88
357.988	487.88
358.215	498.88
358.441	490.88
358.668	510.88
358.895	503.88
359.122	513.88
359.349	508.88
359.576	504.88
359.802	523.88
360.029	533.88
360.256	537.88
360.483	528.88
360.709	530.88
360.936	533.88
361.163	501.88
361.39	497.88
361.616	483.88
361.843	525.88
362.07	552.88
362.296	530.88
362.523	528.88
362.749	519.88
362.976	503.88
363.203	505.88
363.429	510.88
363.656	525.88
363.882	535.88
364.109	504.88
364.335	487.88
364.562	517.88
364.788	503.88
365.015	505.88
365.241	521.88
365.468	502.88
365.694	502.88
365.92	495.88
366.147	487.88
366.373	498.88
366.599	517.88
366.826	521.88
367.052	489.88
367.278	509.88
367.505	511.88
367.731	504.88
367.957	517.88
368.184	491.88
368.41	485.88
368.636	509.88
368.862	535.88
369.089	524.88
369.315	521.88
369.541	534.88
369.767	537.88
369.993	530.88
370.219	533.88
370.445	513.88
370.672	503.88
370.898	514.88
371.124	525.88
371.35	522.88
371.576	533.88
371.802	553.88
372.028	516.88
372.254	521.88
372.48	532.88
372.706	545.88
372.932	536.88
373.158	542.88
373.384	547.88
373.61	544.88
373.835	527.88
374.061	530.88
374.287	537.88
374.513	550.88
374.739	552.88
374.965	581.88
375.191	557.88
375.416	559.88
375.642	570.88
375.868	558.88
376.094	524.88
376.319	523.88
376.545	520.88
376.771	537.88
376.997	526.88
377.222	534.88
377.448	525.88
377.674	533.88
377.899	513.88
378.125	556.88
378.35	502.88
378.576	515.88
378.802	514.88
379.027	511.88
379.253	517.88
379.478	497.88
379.704	531.88
379.929	550.88
380.155	518.88
380.38	515.88
380.606	527.88
380.831	563.88
381.057	548.88
381.282	537.88
381.507	520.88
381.733	537.88
381.958	551.88
382.184	563.88
382.409	541.88
382.634	563.88
382.86	554.88
383.085	561.88
383.31	540.88
383.535	567.88
383.761	553.88
383.986	572.88
384.211	571.88
384.436	593.88
384.662	570.88
384.887	611.88
385.112	607.88
385.337	611.88
385.562	592.88
385.787	593.88
386.013	629.88
386.238	607.88
386.463	615.88
386.688	620.88
386.913	599.88
387.138	595.88
387.363	622.88
387.588	599.88
387.813	595.88
388.038	612.88
388.263	627.88
388.488	618.88
388.713	609.88
388.938	610.88
389.163	622.88
389.387	610.88
389.612	603.88
389.837	619.88
390.062	610.88
390.287	604.88
390.512	587.88
390.736	595.88
390.961	629.88
391.186	609.88
391.411	631.88
391.636	629.88
391.86	619.88
392.085	652.88
392.31	629.88
392.534	657.88
392.759	648.88
392.984	639.88
393.208	596.88
393.433	629.88
393.658	639.88
393.882	633.88
394.107	635.88
394.331	629.88
394.556	628.88
394.78	639.88
395.005	618.88
395.229	620.88
395.454	651.88
395.678	657.88
395.903	663.88
396.127	703.88
396.352	678.88
396.576	658.88
396.801	617.88
397.025	653.88
397.249	651.88
397.474	645.88
397.698	667.88
397.922	701.88
398.147	675.88
398.371	692.88
398.595	694.88
398.82	737.88
399.044	758.88
399.268	808.88
399.492	909.88
399.717	991.88
399.941	1003.88
400.165	951.88
400.389	921.88
400.613	838.88
400.837	758.88
401.062	757.88
401.286	722.88
401.51	721.88
401.734	725.88
401.958	726.88
402.182	754.88
402.406	721.88
402.63	762.88
402.854	777.88
403.078	757.88
403.302	794.88
403.526	773.88
403.75	817.88
403.974	804.88
404.198	789.88
404.422	776.88
404.645	811.88
404.869	806.88
405.093	840.88
405.317	814.88
405.541	874.88
405.765	830.88
405.988	802.88
406.212	799.88
406.436	807.88
406.66	835.88
406.883	842.88
407.107	858.88
407.331	911.88
407.555	989.88
407.778	975.88
408.002	919.88
408.226	879.88
408.449	843.88
408.673	820.88
408.896	862.88
409.12	899.88
409.344	857.88
409.567	792.88
409.791	798.88
410.014	775.88
410.238	799.88
410.461	769.88
410.685	771.88
410.908	786.88
411.132	806.88
411.355	834.88
411.578	796.88
411.802	768.88
412.025	758.88
412.249	761.88
412.472	777.88
412.695	814.88
412.919	807.88
413.142	772.88
413.365	738.88
413.589	739.88
413.812	737.88
414.035	723.88
414.258	702.88
414.482	695.88
414.705	717.88
414.928	729.88
415.151	737.88
415.374	721.88
415.597	728.88
415.821	677.88
416.044	707.88
416.267	713.88
416.49	737.88
416.713	698.88
416.936	734.88
417.159	726.88
417.382	709.88
417.605	733.88
417.828	743.88
418.051	750.88
418.274	721.88
418.497	689.88
418.72	725.88
418.943	733.88
419.166	770.88
419.389	795.88
419.611	782.88
419.834	765.88
420.057	753.88
420.28	753.88
420.503	726.88
420.726	736.88
420.948	743.88
421.171	755.88
421.394	790.88
421.617	737.88
421.839	736.88
422.062	750.88
422.285	759.88
422.507	794.88
422.73	867.88
422.953	825.88
423.175	777.88
423.398	803.88
423.621	745.88
423.843	814.88
424.066	794.88
424.288	781.88
424.511	773.88
424.733	821.88
424.956	895.88
425.178	864.88
425.401	867.88
425.623	890.88
425.846	801.88
426.068	769.88
426.291	766.88
426.513	729.88
426.735	735.88
426.958	751.88
427.18	828.88
427.402	932.88
427.625	1022.88
427.847	895.88
428.069	812.88
428.292	771.88
428.514	701.88
428.736	707.88
428.958	689.88
429.181	678.88
429.403	682.88
429.625	676.88
429.847	697.88
430.069	758.88
430.292	749.88
430.514	680.88
430.736	691.88
430.958	659.88
431.18	658.88
431.402	673.88
431.624	687.88
431.846	661.88
432.068	644.88
432.29	682.88
432.512	684.88
432.734	675.88
432.956	693.88
433.178	684.88
433.4	674.88
433.622	701.88
433.844	675.88
434.066	645.88
434.287	681.88
434.509	676.88
434.731	713.88
434.953	727.88
435.175	737.88
435.397	758.88
435.618	757.88
435.84	786.88
436.062	806.88
436.284	884.88
436.505	757.88
436.727	730.88
436.949	677.88
437.17	694.88
437.392	677.88
437.614	684.88
437.835	706.88
438.057	789.88
438.278	841.88
438.5	881.88
438.721	911.88
438.943	907.88
439.165	771.88
439.386	705.88
439.608	708.88
439.829	701.88
440.05	737.88
440.272	777.88
440.493	739.88
440.715	709.88
440.936	693.88
441.158	676.88
441.379	715.88
441.6	750.88
441.822	741.88
442.043	785.88
442.264	857.88
442.486	854.88
442.707	785.88
442.928	780.88
443.149	765.88
443.371	803.88
443.592	821.88
443.813	915.88
444.034	944.88
444.255	855.88
444.476	812.88
444.698	843.88
444.919	831.88
445.14	895.88
445.361	881.88
445.582	807.88
445.803	827.88
446.024	909.88
446.245	905.88
446.466	842.88
446.687	745.88
446.908	743.88
447.129	701.88
447.35	681.88
447.571	692.88
447.792	667.88
448.013	655.88
448.234	695.88
448.455	709.88
448.675	802.88
448.896	923.88
449.117	748.88
449.338	753.88
449.559	851.88
449.779	925.88
450	781.88
450.221	693.88
450.442	647.88
450.662	637.88
450.883	649.88
451.104	691.88
451.324	653.88
451.545	632.88
451.766	627.88
451.986	621.88
452.207	616.88
452.428	607.88
452.648	603.88
452.869	607.88
453.089	613.88
453.31	623.88
453.53	628.88
453.751	611.88
453.971	602.88
454.192	626.88
454.412	606.88
454.633	580.88
454.853	590.88
455.073	601.88
455.294	622.88
455.514	682.88
455.734	643.88
455.955	594.88
456.175	566.88
456.395	564.88
456.616	585.88
456.836	595.88
457.056	575.88
457.276	558.88
457.497	573.88
457.717	575.88
457.937	630.88
458.157	613.88
458.377	594.88
458.598	601.88
458.818	683.88
459.038	761.88
459.258	773.88
459.478	695.88
459.698	693.88
459.918	701.88
460.138	707.88
460.358	707.88
460.578	766.88
460.798	748.88
461.018	755.88
461.238	745.88
461.458	710.88
461.678	707.88
461.898	734.88
462.118	734.88
462.338	778.88
462.558	751.88
462.777	802.88
462.997	843.88
463.217	899.88
463.437	895.88
463.657	836.88
463.876	849.88
464.096	829.88
464.316	828.88
464.536	819.88
464.755	829.88
464.975	792.88
465.195	783.88
465.414	825.88
465.634	759.88
465.854	718.88
466.073	693.88
466.293	680.88
466.512	661.88
466.732	646.88
466.951	629.88
467.171	640.88
467.391	645.88
467.61	669.88
467.829	659.88
468.049	632.88
468.268	628.88
468.488	653.88
468.707	624.88
468.927	602.88
469.146	631.88
469.365	621.88
469.585	609.88
469.804	621.88
470.023	654.88
470.243	655.88
470.462	658.88
470.681	675.88
470.901	667.88
471.12	672.88
471.339	653.88
471.558	662.88
471.777	649.88
471.997	620.88
472.216	643.88
472.435	659.88
472.654	650.88
472.873	620.88
473.092	631.88
473.311	622.88
473.53	620.88
473.749	655.88
473.968	674.88
474.187	729.88
474.406	735.88
474.625	655.88
474.844	619.88
475.063	626.88
475.282	647.88
475.501	649.88
475.72	660.88
475.939	651.88
476.158	651.88
476.377	658.88
476.596	641.88
476.814	634.88
477.033	659.88
477.252	664.88
477.471	705.88
477.69	710.88
477.908	715.88
478.127	734.88
478.346	732.88
478.564	745.88
478.783	773.88
479.002	757.88
479.22	781.88
479.439	783.88
479.658	771.88
479.876	798.88
480.095	774.88
480.313	839.88
480.532	819.88
480.751	830.88
480.969	814.88
481.188	851.88
481.406	875.88
481.624	811.88
481.843	784.88
482.061	775.88
482.28	771.88
482.498	735.88
482.717	725.88
482.935	739.88
483.153	726.88
483.372	727.88
483.59	748.88
483.808	731.88
484.027	769.88
484.245	726.88
484.463	733.88
484.681	764.88
484.9	750.88
485.118	769.88
485.336	777.88
485.554	783.88
485.772	761.88
485.99	780.88
486.209	776.88
486.427	782.88
486.645	782.88
486.863	817.88
487.081	798.88
487.299	775.88
487.517	798.88
487.735	773.88
487.953	782.88
488.171	815.88
488.389	805.88
488.607	789.88
488.825	784.88
489.043	788.88
489.261	800.88
489.479	811.88
489.696	818.88
489.914	803.88
490.132	811.88
490.35	830.88
490.568	821.88
490.786	797.88
491.003	810.88
491.221	849.88
491.439	839.88
491.657	848.88
491.874	867.88
492.092	868.88
492.31	838.88
492.527	894.88
492.745	903.88
492.963	900.88
493.18	901.88
493.398	890.88
493.615	903.88
493.833	901.88
494.05	919.88
494.268	921.88
494.485	921.88
494.703	909.88
494.92	952.88
495.138	882.88
495.355	908.88
495.573	919.88
495.79	916.88
496.008	933.88
496.225	935.88
496.442	940.88
496.66	949.88
496.877	922.88
497.094	938.88
497.312	929.88
497.529	959.88
497.746	976.88
497.963	1029.88
498.181	1060.88
498.398	1046.88
498.615	1111.88
498.832	1155.88
499.049	1188.88
499.267	1283.88
499.484	1319.88
499.701	1447.88
499.918	1544.88
500.135	1641.88
500.352	1833.88
500.569	1864.88
500.786	1858.88
501.003	1840.88
501.22	1701.88
501.437	1563.88
501.654	1442.88
501.871	1350.88
502.088	1295.88
502.305	1250.88
502.522	1169.88
502.739	1161.88
502.956	1107.88
503.172	1033.88
503.389	1013.88
503.606	1018.88
503.823	970.88
504.04	1003.88
504.256	1001.88
504.473	1004.88
504.69	1002.88
504.907	1008.88
505.123	975.88
505.34	895.88
505.557	878.88
505.773	872.88
505.99	898.88
506.207	856.88
506.423	870.88
506.64	854.88
506.856	841.88
507.073	844.88
507.289	838.88
507.506	827.88
507.722	843.88
507.939	847.88
508.155	845.88
508.372	828.88
508.588	793.88
508.805	815.88
509.021	789.88
509.238	814.88
509.454	804.88
509.67	815.88
509.887	781.88
510.103	751.88
510.319	781.88
510.536	869.88
510.752	1260.88
510.968	1089.88
511.184	801.88
511.401	786.88
511.617	748.88
511.833	776.88
512.049	782.88
512.265	769.88
512.481	732.88
512.698	733.88
512.914	765.88
513.13	751.88
513.346	744.88
513.562	750.88
513.778	769.88
513.994	775.88
514.21	757.88
514.426	766.88
514.642	779.88
514.858	825.88
515.074	830.88
515.29	946.88
515.506	1249.88
515.721	1113.88
515.937	858.88
516.153	844.88
516.369	821.88
516.585	824.88
516.801	843.88
517.016	845.88
517.232	878.88
517.448	920.88
517.664	911.88
517.879	907.88
518.095	912.88
518.311	909.88
518.527	900.88
518.742	867.88
518.958	842.88
519.173	835.88
519.389	833.88
519.605	786.88
519.82	781.88
520.036	780.88
520.251	796.88
520.467	774.88
520.682	780.88
520.898	782.88
521.113	809.88
521.329	823.88
521.544	850.88
521.76	991.88
521.975	1474.88
522.19	1565.88
522.406	932.88
522.621	802.88
522.836	742.88
523.052	709.88
523.267	710.88
523.482	707.88
523.698	701.88
523.913	689.88
524.128	711.88
524.343	668.88
524.559	664.88
524.774	674.88
524.989	650.88
525.204	686.88
525.419	679.88
525.634	662.88
525.849	664.88
526.064	680.88
526.28	654.88
526.495	644.88
526.71	632.88
526.925	636.88
527.14	630.88
527.355	633.88
527.57	659.88
527.785	647.88
527.999	634.88
528.214	658.88
528.429	678.88
528.644	655.88
528.859	653.88
529.074	620.88
529.289	629.88
529.503	687.88
529.718	699.88
529.933	651.88
530.148	653.88
530.363	657.88
530.577	626.88
530.792	649.88
531.007	672.88
531.221	627.88
531.436	628.88
531.651	626.88
531.865	635.88
532.08	631.88
532.295	648.88
532.509	609.88
532.724	629.88
532.938	624.88
533.153	647.88
533.367	607.88
533.582	639.88
533.796	618.88
534.011	637.88
534.225	631.88
534.44	626.88
534.654	616.88
534.868	619.88
535.083	628.88
535.297	611.88
535.511	627.88
535.726	623.88
535.94	633.88
536.154	616.88
536.369	615.88
536.583	612.88
536.797	558.88
537.011	610.88
537.225	590.88
537.44	595.88
537.654	614.88
537.868	578.88
538.082	604.88
538.296	600.88
538.51	594.88
538.724	598.88
538.938	610.88
539.153	582.88
539.367	594.88
539.581	586.88
539.795	585.88
540.009	593.88
540.222	591.88
540.436	572.88
540.65	595.88
540.864	613.88
541.078	595.88
541.292	610.88
541.506	597.88
541.72	609.88
541.934	583.88
542.147	587.88
542.361	585.88
542.575	580.88
542.789	590.88
543.002	558.88
543.216	572.88
543.43	584.88
543.644	597.88
543.857	580.88
544.071	601.88
544.285	613.88
544.498	595.88
544.712	571.88
544.925	587.88
545.139	596.88
545.352	590.88
545.566	583.88
545.779	591.88
545.993	576.88
546.206	585.88
546.42	574.88
546.633	601.88
546.847	585.88
547.06	577.88
547.274	597.88
547.487	600.88
547.7	588.88
547.914	569.88
548.127	573.88
548.34	571.88
548.554	591.88
548.767	592.88
548.98	587.88
549.193	588.88
549.407	583.88
549.62	617.88
549.833	605.88
550.046	585.88
550.259	582.88
550.473	581.88
550.686	575.88
550.899	585.88
551.112	564.88
551.325	581.88
551.538	584.88
551.751	577.88
551.964	597.88
552.177	593.88
552.39	588.88
552.603	590.88
552.816	609.88
553.029	602.88
553.242	603.88
553.455	629.88
553.667	641.88
553.88	618.88
554.093	636.88
554.306	617.88
554.519	591.88
554.732	586.88
554.944	578.88
555.157	579.88
555.37	559.88
555.583	564.88
555.795	537.88
556.008	532.88
556.221	546.88
556.433	529.88
556.646	513.88
556.859	531.88
557.071	531.88
557.284	528.88
557.496	517.88
557.709	541.88
557.921	535.88
558.134	511.88
558.346	523.88
558.559	514.88
558.771	494.88
558.984	513.88
559.196	501.88
559.409	490.88
559.621	515.88
559.833	528.88
560.046	502.88
560.258	491.88
560.47	521.88
560.683	526.88
560.895	510.88
561.107	519.88
561.32	486.88
561.532	487.88
561.744	505.88
561.956	491.88
562.168	520.88
562.381	519.88
562.593	545.88
562.805	529.88
563.017	515.88
563.229	506.88
563.441	507.88
563.653	537.88
563.865	530.88
564.077	507.88
564.289	535.88
564.501	549.88
564.713	543.88
564.925	551.88
565.137	578.88
565.349	561.88
565.561	568.88
565.773	590.88
565.985	613.88
566.197	621.88
566.408	678.88
566.62	709.88
566.832	721.88
567.044	746.88
567.255	756.88
567.467	761.88
567.679	787.88
567.891	833.88
568.102	861.88
568.314	845.88
568.526	741.88
568.737	718.88
568.949	686.88
569.161	622.88
569.372	613.88
569.584	590.88
569.795	579.88
570.007	559.88
570.218	583.88
570.43	553.88
570.641	536.88
570.853	513.88
571.064	523.88
571.276	534.88
571.487	523.88
571.698	517.88
571.91	505.88
572.121	488.88
572.333	483.88
572.544	454.88
572.755	474.88
572.966	463.88
573.178	449.88
573.389	423.88
573.6	462.88
573.811	470.88
574.023	456.88
574.234	459.88
574.445	437.88
574.656	437.88
574.867	441.88
575.078	456.88
575.289	458.88
575.501	446.88
575.712	426.88
575.923	445.88
576.134	404.88
576.345	427.88
576.556	429.88
576.767	439.88
576.978	426.88
577.188	418.88
577.399	420.88
577.61	409.88
577.821	417.88
578.032	399.88
578.243	433.88
578.454	601.88
578.665	481.88
578.875	426.88
579.086	428.88
579.297	414.88
579.508	416.88
579.718	415.88
579.929	395.88
580.14	376.88
580.35	387.88
580.561	369.88
580.772	378.88
580.982	399.88
581.193	391.88
581.403	382.88
581.614	387.88
581.825	386.88
582.035	388.88
582.246	394.88
582.456	407.88
582.667	388.88
582.877	396.88
583.087	387.88
583.298	413.88
583.508	375.88
583.719	385.88
583.929	371.88
584.139	379.88
584.35	383.88
584.56	371.88
584.77	395.88
584.981	392.88
585.191	379.88
585.401	387.88
585.611	381.88
585.821	383.88
586.032	381.88
586.242	392.88
586.452	389.88
586.662	367.88
586.872	377.88
587.082	374.88
587.292	406.88
587.502	387.88
587.713	362.88
587.923	375.88
588.133	385.88
588.343	399.88
588.553	369.88
588.762	385.88
588.972	378.88
589.182	366.88
589.392	387.88
589.602	391.88
589.812	371.88
590.022	399.88
590.232	389.88
590.441	390.88
590.651	392.88
590.861	382.88
591.071	365.88
591.281	381.88
591.49	412.88
591.7	413.88
591.91	396.88
592.119	424.88
592.329	405.88
592.539	408.88
592.748	425.88
592.958	456.88
593.167	455.88
593.377	465.88
593.587	477.88
593.796	482.88
594.006	453.88
594.215	469.88
594.424	470.88
594.634	481.88
594.843	439.88
595.053	420.88
595.262	419.88
595.472	420.88
595.681	409.88
595.89	411.88
596.1	387.88
596.309	375.88
596.518	372.88
596.727	371.88
596.937	362.88
597.146	363.88
597.355	362.88
597.564	357.88
597.774	350.88
597.983	318.88
598.192	349.88
598.401	344.88
598.61	347.88
598.819	344.88
599.028	326.88
599.237	326.88
599.446	334.88
599.655	337.88
599.864	343.88
600.073	318.88
600.282	312.88
600.491	333.88
600.7	338.88
600.909	334.88
601.118	314.88
601.327	327.88
601.536	322.88
601.745	335.88
601.953	319.88
602.162	342.88
602.371	316.88
602.58	307.88
602.789	305.88
602.997	300.88
603.206	325.88
603.415	327.88
603.623	314.88
603.832	317.88
604.041	305.88
604.249	308.88
604.458	311.88
604.666	321.88
604.875	306.88
605.084	305.88
605.292	297.88
605.501	307.88
605.709	298.88
605.918	302.88
606.126	293.88
606.334	298.88
606.543	305.88
606.751	295.88
606.96	295.88
607.168	300.88
607.376	307.88
607.585	309.88
607.793	317.88
608.001	301.88
608.21	303.88
608.418	304.88
608.626	300.88
608.834	294.88
609.043	301.88
609.251	291.88
609.459	292.88
609.667	305.88
609.875	300.88
610.083	299.88
610.291	286.88
610.499	294.88
610.707	315.88
610.916	305.88
611.124	297.88
611.332	299.88
611.54	289.88
611.748	307.88
611.955	289.88
612.163	301.88
612.371	315.88
612.579	295.88
612.787	290.88
612.995	298.88
613.203	312.88
613.411	313.88
613.618	302.88
613.826	301.88
614.034	323.88
614.242	281.88
614.449	280.88
614.657	309.88
614.865	296.88
615.072	296.88
615.28	296.88
615.488	290.88
615.695	297.88
615.903	299.88
616.111	301.88
616.318	300.88
616.526	285.88
616.733	310.88
616.941	306.88
617.148	310.88
617.356	302.88
617.563	299.88
617.771	278.88
617.978	279.88
618.185	301.88
618.393	299.88
618.6	290.88
618.807	288.88
619.015	281.88
619.222	284.88
619.429	285.88
619.637	288.88
619.844	280.88
620.051	287.88
620.258	278.88
620.466	268.88
620.673	260.88
620.88	283.88
621.087	295.88
621.294	284.88
621.501	287.88
621.708	274.88
621.915	277.88
622.122	259.88
622.329	271.88
622.536	293.88
622.743	266.88
622.95	271.88
623.157	272.88
623.364	265.88
623.571	257.88
623.778	267.88
623.985	265.88
624.192	262.88
624.399	275.88
624.606	278.88
624.812	259.88
625.019	245.88
625.226	260.88
625.433	264.88
625.639	247.88
625.846	268.88
626.053	249.88
626.259	266.88
626.466	257.88
626.673	252.88
626.879	257.88
627.086	257.88
627.293	242.88
627.499	251.88
627.706	245.88
627.912	256.88
628.119	261.88
628.325	249.88
628.532	245.88
628.738	229.88
628.945	244.88
629.151	248.88
629.357	254.88
629.564	249.88
629.77	230.88
629.976	261.88
630.183	244.88
630.389	230.88
630.595	216.88
630.802	230.88
631.008	233.88
631.214	225.88
631.42	233.88
631.627	243.88
631.833	222.88
632.039	235.88
632.245	243.88
632.451	226.88
632.657	249.88
632.863	213.88
633.069	237.88
633.275	236.88
633.481	221.88
633.688	223.88
633.893	225.88
634.099	209.88
634.305	226.88
634.511	233.88
634.717	246.88
634.923	225.88
635.129	224.88
635.335	215.88
635.541	226.88
635.747	227.88
635.952	245.88
636.158	232.88
636.364	236.88
636.57	227.88
636.775	216.88
636.981	217.88
637.187	222.88
637.392	220.88
637.598	226.88
637.804	211.88
638.009	209.88
638.215	206.88
638.421	221.88
638.626	218.88
638.832	224.88
639.037	226.88
639.243	209.88
639.448	208.88
639.654	214.88
639.859	217.88
640.065	207.88
640.27	213.88
640.475	193.88
640.681	204.88
640.886	203.88
641.091	208.88
641.297	213.88
641.502	204.88
641.707	203.88
641.913	194.88
642.118	211.88
642.323	197.88
642.528	198.88
642.733	212.88
642.939	206.88
643.144	197.88
643.349	184.88
643.554	195.88
643.759	184.88
643.964	202.88
644.169	198.88
644.374	189.88
644.579	204.88
644.784	203.88
644.989	201.88
645.194	189.88
645.399	212.88
645.604	190.88
645.809	201.88
646.014	203.88
646.219	207.88
646.423	209.88
646.628	197.88
646.833	203.88
647.038	198.88
647.243	203.88
647.447	196.88
647.652	205.88
647.857	187.88
648.062	207.88
648.266	193.88
648.471	199.88
648.676	197.88
648.88	200.88
649.085	193.88
649.289	214.88
649.494	221.88
649.698	212.88
649.903	205.88
650.107	184.88
650.312	197.88
650.516	182.88
650.721	170.88
650.925	190.88
651.13	188.88
651.334	190.88
651.539	193.88
651.743	168.88
651.947	156.88
652.152	181.88
652.356	164.88
652.56	158.88
652.764	165.88
652.969	173.88
653.173	157.88
653.377	147.88
653.581	165.88
653.785	153.88
653.99	171.88
654.194	174.88
654.398	135.88
654.602	162.88
654.806	148.88
655.01	163.88
655.214	166.88
655.418	143.88
655.622	164.88
655.826	129.88
656.03	163.88
656.234	147.88
656.438	179.88
656.642	148.88
656.846	162.88
657.049	157.88
657.253	138.88
657.457	146.88
657.661	142.88
657.865	135.88
658.068	121.88
658.272	115.88
658.476	131.88
658.68	130.88
658.883	113.88
659.087	111.88
659.291	119.88
659.494	129.88
659.698	108.88
659.901	93.88
660.105	114.88
660.309	108.88
660.512	81.88
660.716	98.88
660.919	79.88
661.123	96.88
661.326	97.88
661.53	80.88
661.733	73.88
661.936	90.88
662.14	83.88
662.343	107.88
662.546	97.88
662.75	93.88
662.953	101.88
663.156	81.88
663.36	78.88
663.563	86.88
663.766	76.88
663.969	101.88
664.173	94.88
664.376	79.88
664.579	93.88
664.782	81.88
664.985	87.88
665.188	85.88
665.391	83.88
665.594	86.88
665.797	79.88
666	86.88
666.203	94.88
666.406	95.88
666.609	80.88
666.812	93.88
667.015	84.88
667.218	82.88
667.421	85.88
667.624	82.88
667.827	79.88
668.03	84.88
668.232	74.88
668.435	85.88
668.638	78.88
668.841	85.88
669.043	100.88
669.246	74.88
669.449	90.88
669.651	89.88
669.854	87.88
670.057	86.88
670.259	76.88
670.462	85.88
670.665	76.88
670.867	81.88
671.07	82.88
671.272	62.88
671.475	81.88
671.677	92.88
671.88	77.88
672.082	83.88
672.284	81.88
672.487	81.88
672.689	71.88
672.892	88.88
