Data from 1963.PennyLincolnUp.Lamp.En5.5.200Scan.071719.P1._HRD10591_13-59-47-064.txt Node
Date: Thu Jul 18 13:59:47 EDT 2019
User: cochatt
Spectrometer: HR+D1059
Trigger mode: 1
Integration Time (sec): 1.000000E-1
Scans to average: 1
Electric dark correction enabled: true
Nonlinearity correction enabled: false
Boxcar width: 0
XAxis mode: Wavelengths
Number of Pixels in Spectrum: 2048
>>>>>Begin Spectral Data<<<<<
223.165	-15.75
223.4	-15.75
223.635	-15.75
223.869	-15.75
224.104	-14.75
224.338	-22.75
224.573	-1.75
224.808	-28.75
225.042	-3.75
225.277	4.25
225.511	-9.75
225.746	9.25
225.98	8.25
226.215	5.25
226.449	6.25
226.683	24.25
226.918	35.25
227.152	20.25
227.387	20.25
227.621	33.25
227.856	28.25
228.09	39.25
228.324	50.25
228.559	49.25
228.793	56.25
229.027	92.25
229.262	94.25
229.496	104.25
229.73	123.25
229.964	124.25
230.199	116.25
230.433	131.25
230.667	122.25
230.901	106.25
231.136	111.25
231.37	120.25
231.604	105.25
231.838	120.25
232.072	110.25
232.306	114.25
232.541	124.25
232.775	114.25
233.009	121.25
233.243	129.25
233.477	111.25
233.711	116.25
233.945	125.25
234.179	131.25
234.413	125.25
234.647	125.25
234.881	109.25
235.115	118.25
235.349	118.25
235.583	126.25
235.817	123.25
236.051	120.25
236.285	127.25
236.519	142.25
236.753	134.25
236.987	125.25
237.221	169.25
237.455	196.25
237.689	184.25
237.922	149.25
238.156	130.25
238.39	133.25
238.624	136.25
238.858	131.25
239.091	138.25
239.325	146.25
239.559	135.25
239.793	135.25
240.027	144.25
240.26	144.25
240.494	168.25
240.728	160.25
240.961	157.25
241.195	158.25
241.429	155.25
241.662	156.25
241.896	146.25
242.13	143.25
242.363	153.25
242.597	152.25
242.83	148.25
243.064	159.25
243.298	163.25
243.531	149.25
243.765	147.25
243.998	146.25
244.232	153.25
244.465	168.25
244.699	162.25
244.932	171.25
245.166	171.25
245.399	168.25
245.633	166.25
245.866	165.25
246.099	152.25
246.333	164.25
246.566	160.25
246.8	157.25
247.033	167.25
247.266	178.25
247.5	163.25
247.733	187.25
247.966	194.25
248.2	184.25
248.433	186.25
248.666	188.25
248.899	203.25
249.133	220.25
249.366	212.25
249.599	189.25
249.832	184.25
250.066	194.25
250.299	196.25
250.532	195.25
250.765	211.25
250.998	227.25
251.231	246.25
251.465	223.25
251.698	225.25
251.931	222.25
252.164	198.25
252.397	200.25
252.63	206.25
252.863	203.25
253.096	225.25
253.329	233.25
253.562	244.25
253.795	233.25
254.028	213.25
254.261	221.25
254.494	230.25
254.727	247.25
254.96	272.25
255.193	267.25
255.426	264.25
255.659	233.25
255.892	236.25
256.124	245.25
256.357	254.25
256.59	237.25
256.823	242.25
257.056	218.25
257.289	226.25
257.521	232.25
257.754	221.25
257.987	221.25
258.22	227.25
258.452	226.25
258.685	226.25
258.918	216.25
259.151	231.25
259.383	229.25
259.616	243.25
259.849	251.25
260.081	253.25
260.314	268.25
260.547	260.25
260.779	263.25
261.012	258.25
261.244	256.25
261.477	235.25
261.71	245.25
261.942	251.25
262.175	243.25
262.407	246.25
262.64	243.25
262.872	251.25
263.105	234.25
263.337	234.25
263.57	215.25
263.802	232.25
264.035	240.25
264.267	248.25
264.499	239.25
264.732	256.25
264.964	238.25
265.197	224.25
265.429	226.25
265.661	242.25
265.894	244.25
266.126	250.25
266.358	230.25
266.591	258.25
266.823	232.25
267.055	270.25
267.287	256.25
267.52	246.25
267.752	263.25
267.984	256.25
268.216	246.25
268.448	259.25
268.681	278.25
268.913	267.25
269.145	298.25
269.377	302.25
269.609	306.25
269.841	304.25
270.073	293.25
270.306	319.25
270.538	320.25
270.77	293.25
271.002	318.25
271.234	328.25
271.466	319.25
271.698	317.25
271.93	316.25
272.162	333.25
272.394	344.25
272.626	333.25
272.858	322.25
273.09	313.25
273.322	302.25
273.553	283.25
273.785	283.25
274.017	290.25
274.249	280.25
274.481	292.25
274.713	289.25
274.945	315.25
275.176	313.25
275.408	304.25
275.64	304.25
275.872	277.25
276.104	299.25
276.335	300.25
276.567	325.25
276.799	311.25
277.031	325.25
277.262	338.25
277.494	342.25
277.726	341.25
277.957	338.25
278.189	320.25
278.421	320.25
278.652	303.25
278.884	307.25
279.115	297.25
279.347	327.25
279.579	322.25
279.81	316.25
280.042	315.25
280.273	322.25
280.505	322.25
280.736	315.25
280.968	317.25
281.199	317.25
281.431	330.25
281.662	314.25
281.894	322.25
282.125	320.25
282.356	329.25
282.588	352.25
282.819	351.25
283.051	329.25
283.282	335.25
283.513	316.25
283.745	333.25
283.976	340.25
284.207	343.25
284.439	349.25
284.67	339.25
284.901	325.25
285.132	353.25
285.364	339.25
285.595	326.25
285.826	340.25
286.057	335.25
286.288	337.25
286.52	333.25
286.751	353.25
286.982	356.25
287.213	338.25
287.444	337.25
287.675	355.25
287.906	367.25
288.138	364.25
288.369	359.25
288.6	356.25
288.831	364.25
289.062	344.25
289.293	359.25
289.524	371.25
289.755	352.25
289.986	345.25
290.217	357.25
290.448	366.25
290.679	340.25
290.91	378.25
291.141	362.25
291.371	368.25
291.602	363.25
291.833	348.25
292.064	365.25
292.295	374.25
292.526	363.25
292.757	363.25
292.987	356.25
293.218	339.25
293.449	356.25
293.68	363.25
293.91	348.25
294.141	372.25
294.372	379.25
294.603	366.25
294.833	362.25
295.064	361.25
295.295	354.25
295.525	361.25
295.756	365.25
295.987	386.25
296.217	409.25
296.448	396.25
296.679	373.25
296.909	366.25
297.14	373.25
297.37	360.25
297.601	368.25
297.831	372.25
298.062	385.25
298.292	384.25
298.523	389.25
298.753	395.25
298.984	385.25
299.214	385.25
299.445	389.25
299.675	396.25
299.905	410.25
300.136	396.25
300.366	395.25
300.597	397.25
300.827	405.25
301.057	406.25
301.288	411.25
301.518	412.25
301.748	427.25
301.979	411.25
302.209	394.25
302.439	407.25
302.669	394.25
302.9	405.25
303.13	400.25
303.36	411.25
303.59	410.25
303.82	407.25
304.051	410.25
304.281	409.25
304.511	399.25
304.741	420.25
304.971	398.25
305.201	402.25
305.431	390.25
305.661	402.25
305.891	405.25
306.121	408.25
306.352	418.25
306.582	391.25
306.812	430.25
307.042	412.25
307.272	398.25
307.502	418.25
307.731	416.25
307.961	392.25
308.191	406.25
308.421	388.25
308.651	413.25
308.881	393.25
309.111	398.25
309.341	410.25
309.571	403.25
309.8	417.25
310.03	418.25
310.26	432.25
310.49	421.25
310.72	455.25
310.949	462.25
311.179	462.25
311.409	444.25
311.639	464.25
311.868	463.25
312.098	464.25
312.328	436.25
312.557	457.25
312.787	448.25
313.017	420.25
313.246	447.25
313.476	426.25
313.706	450.25
313.935	436.25
314.165	460.25
314.394	471.25
314.624	458.25
314.853	458.25
315.083	449.25
315.312	453.25
315.542	455.25
315.771	446.25
316.001	433.25
316.23	451.25
316.46	439.25
316.689	446.25
316.919	453.25
317.148	460.25
317.377	435.25
317.607	484.25
317.836	461.25
318.065	461.25
318.295	439.25
318.524	448.25
318.753	462.25
318.983	443.25
319.212	436.25
319.441	461.25
319.67	462.25
319.9	461.25
320.129	448.25
320.358	436.25
320.587	440.25
320.816	455.25
321.046	449.25
321.275	460.25
321.504	466.25
321.733	468.25
321.962	465.25
322.191	462.25
322.42	478.25
322.649	480.25
322.878	500.25
323.108	501.25
323.337	498.25
323.566	516.25
323.795	548.25
324.024	585.25
324.253	644.25
324.482	788.25
324.71	1141.25
324.939	1662.25
325.168	1456.25
325.397	833.25
325.626	626.25
325.855	567.25
326.084	571.25
326.313	557.25
326.542	548.25
326.77	580.25
326.999	646.25
327.228	773.25
327.457	1106.25
327.686	1308.25
327.914	913.25
328.143	660.25
328.372	612.25
328.6	606.25
328.829	561.25
329.058	601.25
329.287	599.25
329.515	566.25
329.744	556.25
329.972	541.25
330.201	579.25
330.43	613.25
330.658	600.25
330.887	609.25
331.115	605.25
331.344	596.25
331.572	556.25
331.801	552.25
332.03	581.25
332.258	557.25
332.486	550.25
332.715	583.25
332.943	603.25
333.172	595.25
333.4	606.25
333.629	591.25
333.857	632.25
334.085	652.25
334.314	642.25
334.542	668.25
334.771	688.25
334.999	626.25
335.227	602.25
335.455	603.25
335.684	596.25
335.912	587.25
336.14	571.25
336.369	563.25
336.597	575.25
336.825	571.25
337.053	576.25
337.281	566.25
337.51	564.25
337.738	560.25
337.966	557.25
338.194	566.25
338.422	560.25
338.65	549.25
338.878	547.25
339.106	539.25
339.334	564.25
339.562	528.25
339.79	520.25
340.018	527.25
340.246	492.25
340.474	514.25
340.702	524.25
340.93	538.25
341.158	511.25
341.386	520.25
341.614	534.25
341.842	525.25
342.07	525.25
342.298	509.25
342.526	506.25
342.754	526.25
342.981	508.25
343.209	529.25
343.437	523.25
343.665	542.25
343.893	568.25
344.12	598.25
344.348	571.25
344.576	553.25
344.804	536.25
345.031	532.25
345.259	544.25
345.487	517.25
345.714	521.25
345.942	504.25
346.17	505.25
346.397	525.25
346.625	496.25
346.853	494.25
347.08	507.25
347.308	508.25
347.535	516.25
347.763	510.25
347.99	499.25
348.218	493.25
348.445	536.25
348.673	518.25
348.9	502.25
349.128	492.25
349.355	480.25
349.583	474.25
349.81	449.25
350.037	483.25
350.265	499.25
350.492	480.25
350.72	489.25
350.947	507.25
351.174	514.25
351.402	512.25
351.629	497.25
351.856	504.25
352.083	502.25
352.311	501.25
352.538	506.25
352.765	518.25
352.992	503.25
353.22	485.25
353.447	490.25
353.674	490.25
353.901	482.25
354.128	497.25
354.355	496.25
354.583	473.25
354.81	487.25
355.037	459.25
355.264	484.25
355.491	485.25
355.718	498.25
355.945	487.25
356.172	486.25
356.399	505.25
356.626	493.25
356.853	498.25
357.08	490.25
357.307	482.25
357.534	485.25
357.761	474.25
357.988	478.25
358.215	493.25
358.441	486.25
358.668	498.25
358.895	468.25
359.122	485.25
359.349	506.25
359.576	493.25
359.802	526.25
360.029	516.25
360.256	549.25
360.483	540.25
360.709	499.25
360.936	501.25
361.163	503.25
361.39	483.25
361.616	498.25
361.843	482.25
362.07	502.25
362.296	500.25
362.523	498.25
362.749	491.25
362.976	492.25
363.203	481.25
363.429	508.25
363.656	500.25
363.882	480.25
364.109	473.25
364.335	499.25
364.562	478.25
364.788	478.25
365.015	492.25
365.241	515.25
365.468	494.25
365.694	473.25
365.92	515.25
366.147	503.25
366.373	477.25
366.599	489.25
366.826	489.25
367.052	484.25
367.278	489.25
367.505	468.25
367.731	492.25
367.957	476.25
368.184	492.25
368.41	514.25
368.636	502.25
368.862	507.25
369.089	470.25
369.315	506.25
369.541	506.25
369.767	487.25
369.993	481.25
370.219	510.25
370.445	494.25
370.672	520.25
370.898	517.25
371.124	505.25
371.35	528.25
371.576	525.25
371.802	510.25
372.028	493.25
372.254	511.25
372.48	517.25
372.706	543.25
372.932	512.25
373.158	540.25
373.384	531.25
373.61	517.25
373.835	496.25
374.061	494.25
374.287	532.25
374.513	521.25
374.739	532.25
374.965	538.25
375.191	547.25
375.416	525.25
375.642	513.25
375.868	518.25
376.094	510.25
376.319	512.25
376.545	491.25
376.771	505.25
376.997	515.25
377.222	548.25
377.448	517.25
377.674	518.25
377.899	491.25
378.125	502.25
378.35	497.25
378.576	509.25
378.802	499.25
379.027	499.25
379.253	510.25
379.478	522.25
379.704	502.25
379.929	508.25
380.155	519.25
380.38	513.25
380.606	509.25
380.831	508.25
381.057	507.25
381.282	528.25
381.507	500.25
381.733	528.25
381.958	506.25
382.184	536.25
382.409	533.25
382.634	514.25
382.86	545.25
383.085	536.25
383.31	561.25
383.535	560.25
383.761	553.25
383.986	565.25
384.211	575.25
384.436	580.25
384.662	576.25
384.887	586.25
385.112	590.25
385.337	581.25
385.562	577.25
385.787	571.25
386.013	594.25
386.238	594.25
386.463	601.25
386.688	597.25
386.913	590.25
387.138	574.25
387.363	598.25
387.588	601.25
387.813	584.25
388.038	584.25
388.263	585.25
388.488	591.25
388.713	571.25
388.938	601.25
389.163	582.25
389.387	591.25
389.612	581.25
389.837	575.25
390.062	572.25
390.287	596.25
390.512	583.25
390.736	582.25
390.961	578.25
391.186	590.25
391.411	608.25
391.636	632.25
391.86	640.25
392.085	653.25
392.31	636.25
392.534	642.25
392.759	627.25
392.984	602.25
393.208	604.25
393.433	621.25
393.658	605.25
393.882	609.25
394.107	599.25
394.331	605.25
394.556	624.25
394.78	596.25
395.005	620.25
395.229	632.25
395.454	636.25
395.678	644.25
395.903	644.25
396.127	640.25
396.352	629.25
396.576	640.25
396.801	626.25
397.025	619.25
397.249	630.25
397.474	655.25
397.698	640.25
397.922	650.25
398.147	657.25
398.371	650.25
398.595	680.25
398.82	701.25
399.044	736.25
399.268	778.25
399.492	854.25
399.717	912.25
399.941	952.25
400.165	910.25
400.389	896.25
400.613	790.25
400.837	696.25
401.062	714.25
401.286	703.25
401.51	712.25
401.734	711.25
401.958	701.25
402.182	714.25
402.406	721.25
402.63	710.25
402.854	706.25
403.078	734.25
403.302	780.25
403.526	772.25
403.75	778.25
403.974	783.25
404.198	772.25
404.422	759.25
404.645	757.25
404.869	756.25
405.093	804.25
405.317	805.25
405.541	826.25
405.765	802.25
405.988	766.25
406.212	769.25
406.436	784.25
406.66	808.25
406.883	801.25
407.107	826.25
407.331	894.25
407.555	924.25
407.778	941.25
408.002	904.25
408.226	854.25
408.449	850.25
408.673	795.25
408.896	835.25
409.12	845.25
409.344	815.25
409.567	742.25
409.791	760.25
410.014	743.25
410.238	731.25
410.461	733.25
410.685	749.25
410.908	739.25
411.132	762.25
411.355	758.25
411.578	766.25
411.802	718.25
412.025	724.25
412.249	751.25
412.472	748.25
412.695	776.25
412.919	790.25
413.142	744.25
413.365	702.25
413.589	718.25
413.812	702.25
414.035	710.25
414.258	656.25
414.482	714.25
414.705	715.25
414.928	730.25
415.151	710.25
415.374	709.25
415.597	696.25
415.821	701.25
416.044	661.25
416.267	673.25
416.49	683.25
416.713	690.25
416.936	688.25
417.159	688.25
417.382	674.25
417.605	710.25
417.828	715.25
418.051	703.25
418.274	709.25
418.497	688.25
418.72	702.25
418.943	674.25
419.166	741.25
419.389	792.25
419.611	789.25
419.834	752.25
420.057	717.25
420.28	704.25
420.503	693.25
420.726	717.25
420.948	738.25
421.171	762.25
421.394	769.25
421.617	711.25
421.839	700.25
422.062	699.25
422.285	689.25
422.507	772.25
422.73	801.25
422.953	788.25
423.175	734.25
423.398	741.25
423.621	734.25
423.843	743.25
424.066	780.25
424.288	742.25
424.511	730.25
424.733	804.25
424.956	848.25
425.178	826.25
425.401	835.25
425.623	827.25
425.846	760.25
426.068	739.25
426.291	723.25
426.513	715.25
426.735	701.25
426.958	713.25
427.18	818.25
427.402	894.25
427.625	958.25
427.847	856.25
428.069	793.25
428.292	729.25
428.514	683.25
428.736	701.25
428.958	686.25
429.181	654.25
429.403	651.25
429.625	648.25
429.847	676.25
430.069	733.25
430.292	736.25
430.514	699.25
430.736	664.25
430.958	646.25
431.18	649.25
431.402	668.25
431.624	642.25
431.846	644.25
432.068	645.25
432.29	676.25
432.512	640.25
432.734	645.25
432.956	637.25
433.178	633.25
433.4	649.25
433.622	633.25
433.844	636.25
434.066	645.25
434.287	668.25
434.509	675.25
434.731	694.25
434.953	702.25
435.175	696.25
435.397	709.25
435.618	725.25
435.84	748.25
436.062	786.25
436.284	849.25
436.505	757.25
436.727	692.25
436.949	666.25
437.17	670.25
437.392	657.25
437.614	661.25
437.835	693.25
438.057	742.25
438.278	841.25
438.5	837.25
438.721	882.25
438.943	856.25
439.165	726.25
439.386	707.25
439.608	669.25
439.829	689.25
440.05	712.25
440.272	723.25
440.493	705.25
440.715	684.25
440.936	686.25
441.158	683.25
441.379	697.25
441.6	726.25
441.822	720.25
442.043	778.25
442.264	800.25
442.486	840.25
442.707	747.25
442.928	710.25
443.149	721.25
443.371	741.25
443.592	780.25
443.813	853.25
444.034	909.25
444.255	814.25
444.476	778.25
444.698	789.25
444.919	788.25
445.14	892.25
445.361	813.25
445.582	764.25
445.803	790.25
446.024	813.25
446.245	861.25
446.466	803.25
446.687	730.25
446.908	708.25
447.129	652.25
447.35	634.25
447.571	644.25
447.792	637.25
448.013	634.25
448.234	648.25
448.455	655.25
448.675	734.25
448.896	836.25
449.117	738.25
449.338	714.25
449.559	803.25
449.779	887.25
450	736.25
450.221	658.25
450.442	654.25
450.662	622.25
450.883	630.25
451.104	598.25
451.324	621.25
451.545	612.25
451.766	610.25
451.986	594.25
452.207	580.25
452.428	584.25
452.648	587.25
452.869	597.25
453.089	580.25
453.31	619.25
453.53	593.25
453.751	575.25
453.971	582.25
454.192	613.25
454.412	580.25
454.633	571.25
454.853	572.25
455.073	563.25
455.294	588.25
455.514	630.25
455.734	626.25
455.955	583.25
456.175	584.25
456.395	547.25
456.616	562.25
456.836	576.25
457.056	565.25
457.276	551.25
457.497	564.25
457.717	557.25
457.937	535.25
458.157	578.25
458.377	587.25
458.598	603.25
458.818	637.25
459.038	697.25
459.258	720.25
459.478	694.25
459.698	640.25
459.918	662.25
460.138	674.25
460.358	718.25
460.578	731.25
460.798	706.25
461.018	741.25
461.238	714.25
461.458	716.25
461.678	702.25
461.898	704.25
462.118	688.25
462.338	732.25
462.558	770.25
462.777	770.25
462.997	813.25
463.217	845.25
463.437	880.25
463.657	834.25
463.876	797.25
464.096	772.25
464.316	802.25
464.536	804.25
464.755	815.25
464.975	772.25
465.195	742.25
465.414	796.25
465.634	729.25
465.854	669.25
466.073	654.25
466.293	618.25
466.512	621.25
466.732	644.25
466.951	612.25
467.171	628.25
467.391	655.25
467.61	628.25
467.829	629.25
468.049	591.25
468.268	600.25
468.488	613.25
468.707	591.25
468.927	610.25
469.146	588.25
469.365	609.25
469.585	585.25
469.804	617.25
470.023	640.25
470.243	648.25
470.462	665.25
470.681	636.25
470.901	644.25
471.12	641.25
471.339	608.25
471.558	628.25
471.777	607.25
471.997	601.25
472.216	622.25
472.435	633.25
472.654	644.25
472.873	618.25
473.092	599.25
473.311	600.25
473.53	601.25
473.749	626.25
473.968	627.25
474.187	701.25
474.406	728.25
474.625	663.25
474.844	625.25
475.063	599.25
475.282	617.25
475.501	617.25
475.72	614.25
475.939	642.25
476.158	630.25
476.377	621.25
476.596	633.25
476.814	645.25
477.033	642.25
477.252	634.25
477.471	670.25
477.69	665.25
477.908	690.25
478.127	691.25
478.346	701.25
478.564	720.25
478.783	721.25
479.002	719.25
479.22	749.25
479.439	751.25
479.658	766.25
479.876	739.25
480.095	753.25
480.313	831.25
480.532	805.25
480.751	823.25
480.969	787.25
481.188	801.25
481.406	813.25
481.624	771.25
481.843	731.25
482.061	747.25
482.28	717.25
482.498	690.25
482.717	701.25
482.935	717.25
483.153	697.25
483.372	694.25
483.59	679.25
483.808	729.25
484.027	706.25
484.245	730.25
484.463	741.25
484.681	733.25
484.9	733.25
485.118	735.25
485.336	734.25
485.554	746.25
485.772	744.25
485.99	731.25
486.209	743.25
486.427	768.25
486.645	772.25
486.863	793.25
487.081	753.25
487.299	765.25
487.517	749.25
487.735	773.25
487.953	757.25
488.171	752.25
488.389	768.25
488.607	750.25
488.825	756.25
489.043	733.25
489.261	759.25
489.479	774.25
489.696	792.25
489.914	787.25
490.132	784.25
490.35	791.25
490.568	806.25
490.786	804.25
491.003	772.25
491.221	846.25
491.439	826.25
491.657	833.25
491.874	806.25
492.092	804.25
492.31	833.25
492.527	823.25
492.745	860.25
492.963	867.25
493.18	838.25
493.398	909.25
493.615	876.25
493.833	859.25
494.05	882.25
494.268	890.25
494.485	842.25
494.703	866.25
494.92	917.25
495.138	900.25
495.355	866.25
495.573	897.25
495.79	884.25
496.008	871.25
496.225	887.25
496.442	876.25
496.66	904.25
496.877	897.25
497.094	922.25
497.312	920.25
497.529	937.25
497.746	945.25
497.963	962.25
498.181	1006.25
498.398	1058.25
498.615	1059.25
498.832	1122.25
499.049	1146.25
499.267	1227.25
499.484	1306.25
499.701	1414.25
499.918	1478.25
500.135	1613.25
500.352	1745.25
500.569	1816.25
500.786	1818.25
501.003	1745.25
501.22	1638.25
501.437	1480.25
501.654	1386.25
501.871	1320.25
502.088	1241.25
502.305	1172.25
502.522	1113.25
502.739	1100.25
502.956	1026.25
503.172	990.25
503.389	936.25
503.606	982.25
503.823	944.25
504.04	930.25
504.256	975.25
504.473	973.25
504.69	970.25
504.907	949.25
505.123	910.25
505.34	895.25
505.557	877.25
505.773	841.25
505.99	835.25
506.207	837.25
506.423	833.25
506.64	835.25
506.856	816.25
507.073	833.25
507.289	823.25
507.506	825.25
507.722	808.25
507.939	819.25
508.155	802.25
508.372	771.25
508.588	773.25
508.805	773.25
509.021	744.25
509.238	765.25
509.454	760.25
509.67	760.25
509.887	733.25
510.103	744.25
510.319	772.25
510.536	813.25
510.752	1164.25
510.968	1013.25
511.184	749.25
511.401	722.25
511.617	761.25
511.833	710.25
512.049	733.25
512.265	722.25
512.481	718.25
512.698	722.25
512.914	728.25
513.13	718.25
513.346	722.25
513.562	715.25
513.778	718.25
513.994	708.25
514.21	724.25
514.426	717.25
514.642	770.25
514.858	770.25
515.074	802.25
515.29	892.25
515.506	1172.25
515.721	1048.25
515.937	821.25
516.153	801.25
516.369	800.25
516.585	814.25
516.801	809.25
517.016	849.25
517.232	856.25
517.448	844.25
517.664	883.25
517.879	860.25
518.095	884.25
518.311	874.25
518.527	882.25
518.742	839.25
518.958	803.25
519.173	786.25
519.389	790.25
519.605	753.25
519.82	749.25
520.036	771.25
520.251	752.25
520.467	766.25
520.682	777.25
520.898	770.25
521.113	783.25
521.329	746.25
521.544	822.25
521.76	945.25
521.975	1331.25
522.19	1372.25
522.406	906.25
522.621	742.25
522.836	706.25
523.052	707.25
523.267	696.25
523.482	653.25
523.698	638.25
523.913	682.25
524.128	657.25
524.343	636.25
524.559	647.25
524.774	634.25
524.989	646.25
525.204	644.25
525.419	657.25
525.634	634.25
525.849	640.25
526.064	610.25
526.28	640.25
526.495	631.25
526.71	619.25
526.925	638.25
527.14	634.25
527.355	622.25
527.57	634.25
527.785	625.25
527.999	608.25
528.214	606.25
528.429	628.25
528.644	640.25
528.859	621.25
529.074	600.25
529.289	634.25
529.503	677.25
529.718	640.25
529.933	637.25
530.148	634.25
530.363	627.25
530.577	609.25
530.792	602.25
531.007	620.25
531.221	619.25
531.436	650.25
531.651	624.25
531.865	633.25
532.08	623.25
532.295	611.25
532.509	610.25
532.724	613.25
532.938	614.25
533.153	625.25
533.367	598.25
533.582	592.25
533.796	603.25
534.011	591.25
534.225	594.25
534.44	602.25
534.654	597.25
534.868	599.25
535.083	593.25
535.297	584.25
535.511	593.25
535.726	585.25
535.94	605.25
536.154	590.25
536.369	574.25
536.583	592.25
536.797	562.25
537.011	580.25
537.225	585.25
537.44	573.25
537.654	569.25
537.868	565.25
538.082	594.25
538.296	562.25
538.51	576.25
538.724	583.25
538.938	581.25
539.153	591.25
539.367	574.25
539.581	578.25
539.795	566.25
540.009	568.25
540.222	561.25
540.436	545.25
540.65	562.25
540.864	568.25
541.078	588.25
541.292	588.25
541.506	574.25
541.72	552.25
541.934	548.25
542.147	578.25
542.361	581.25
542.575	541.25
542.789	537.25
543.002	558.25
543.216	584.25
543.43	575.25
543.644	556.25
543.857	558.25
544.071	576.25
544.285	573.25
544.498	547.25
544.712	552.25
544.925	559.25
545.139	584.25
545.352	562.25
545.566	591.25
545.779	585.25
545.993	580.25
546.206	585.25
546.42	573.25
546.633	570.25
546.847	572.25
547.06	532.25
547.274	568.25
547.487	562.25
547.7	573.25
547.914	570.25
548.127	571.25
548.34	580.25
548.554	584.25
548.767	584.25
548.98	602.25
549.193	572.25
549.407	592.25
549.62	576.25
549.833	580.25
550.046	575.25
550.259	565.25
550.473	561.25
550.686	564.25
550.899	577.25
551.112	566.25
551.325	573.25
551.538	555.25
551.751	558.25
551.964	547.25
552.177	566.25
552.39	568.25
552.603	579.25
552.816	595.25
553.029	596.25
553.242	627.25
553.455	621.25
553.667	619.25
553.88	612.25
554.093	575.25
554.306	600.25
554.519	596.25
554.732	564.25
554.944	552.25
555.157	546.25
555.37	557.25
555.583	548.25
555.795	547.25
556.008	536.25
556.221	508.25
556.433	501.25
556.646	527.25
556.859	516.25
557.071	493.25
557.284	483.25
557.496	504.25
557.709	511.25
557.921	505.25
558.134	509.25
558.346	517.25
558.559	506.25
558.771	497.25
558.984	500.25
559.196	491.25
559.409	482.25
559.621	476.25
559.833	491.25
560.046	506.25
560.258	485.25
560.47	516.25
560.683	495.25
560.895	507.25
561.107	474.25
561.32	483.25
561.532	499.25
561.744	500.25
561.956	498.25
562.168	491.25
562.381	487.25
562.593	518.25
562.805	484.25
563.017	513.25
563.229	517.25
563.441	493.25
563.653	496.25
563.865	502.25
564.077	493.25
564.289	520.25
564.501	512.25
564.713	532.25
564.925	538.25
565.137	556.25
565.349	535.25
565.561	568.25
565.773	574.25
565.985	591.25
566.197	642.25
566.408	638.25
566.62	669.25
566.832	710.25
567.044	736.25
567.255	731.25
567.467	761.25
567.679	795.25
567.891	772.25
568.102	833.25
568.314	815.25
568.526	766.25
568.737	678.25
568.949	659.25
569.161	619.25
569.372	579.25
569.584	540.25
569.795	554.25
570.007	550.25
570.218	548.25
570.43	537.25
570.641	508.25
570.853	505.25
571.064	515.25
571.276	493.25
571.487	490.25
571.698	493.25
571.91	481.25
572.121	461.25
572.333	468.25
572.544	446.25
572.755	425.25
572.966	453.25
573.178	459.25
573.389	441.25
573.6	438.25
573.811	425.25
574.023	428.25
574.234	422.25
574.445	422.25
574.656	436.25
574.867	421.25
575.078	422.25
575.289	408.25
575.501	408.25
575.712	402.25
575.923	398.25
576.134	415.25
576.345	428.25
576.556	397.25
576.767	418.25
576.978	388.25
577.188	418.25
577.399	397.25
577.61	406.25
577.821	417.25
578.032	416.25
578.243	426.25
578.454	563.25
578.665	458.25
578.875	395.25
579.086	392.25
579.297	405.25
579.508	387.25
579.718	393.25
579.929	382.25
580.14	388.25
580.35	402.25
580.561	374.25
580.772	392.25
580.982	374.25
581.193	361.25
581.403	380.25
581.614	360.25
581.825	390.25
582.035	370.25
582.246	385.25
582.456	376.25
582.667	363.25
582.877	382.25
583.087	372.25
583.298	377.25
583.508	348.25
583.719	376.25
583.929	365.25
584.139	380.25
584.35	380.25
584.56	375.25
584.77	382.25
584.981	368.25
585.191	360.25
585.401	365.25
585.611	370.25
585.821	383.25
586.032	381.25
586.242	388.25
586.452	381.25
586.662	352.25
586.872	374.25
587.082	371.25
587.292	355.25
587.502	372.25
587.713	357.25
587.923	357.25
588.133	358.25
588.343	372.25
588.553	366.25
588.762	366.25
588.972	357.25
589.182	357.25
589.392	366.25
589.602	358.25
589.812	381.25
590.022	370.25
590.232	373.25
590.441	357.25
590.651	376.25
590.861	394.25
591.071	379.25
591.281	389.25
591.49	388.25
591.7	388.25
591.91	388.25
592.119	383.25
592.329	402.25
592.539	408.25
592.748	402.25
592.958	417.25
593.167	436.25
593.377	453.25
593.587	442.25
593.796	446.25
594.006	436.25
594.215	439.25
594.424	454.25
594.634	448.25
594.843	419.25
595.053	421.25
595.262	403.25
595.472	393.25
595.681	394.25
595.89	372.25
596.1	361.25
596.309	384.25
596.518	361.25
596.727	364.25
596.937	362.25
597.146	358.25
597.355	372.25
597.564	334.25
597.774	347.25
597.983	342.25
598.192	318.25
598.401	341.25
598.61	320.25
598.819	344.25
599.028	325.25
599.237	313.25
599.446	333.25
599.655	335.25
599.864	331.25
600.073	328.25
600.282	321.25
600.491	318.25
600.7	329.25
600.909	320.25
601.118	296.25
601.327	318.25
601.536	333.25
601.745	313.25
601.953	320.25
602.162	307.25
602.371	309.25
602.58	306.25
602.789	300.25
602.997	299.25
603.206	313.25
603.415	316.25
603.623	310.25
603.832	314.25
604.041	297.25
604.249	306.25
604.458	289.25
604.666	290.25
604.875	304.25
605.084	302.25
605.292	314.25
605.501	295.25
605.709	314.25
605.918	315.25
606.126	310.25
606.334	292.25
606.543	292.25
606.751	295.25
606.96	286.25
607.168	297.25
607.376	284.25
607.585	283.25
607.793	299.25
608.001	298.25
608.21	286.25
608.418	289.25
608.626	294.25
608.834	280.25
609.043	295.25
609.251	298.25
609.459	284.25
609.667	285.25
609.875	292.25
610.083	276.25
610.291	280.25
610.499	296.25
610.707	305.25
610.916	302.25
611.124	289.25
611.332	290.25
611.54	298.25
611.748	282.25
611.955	282.25
612.163	276.25
612.371	265.25
612.579	282.25
612.787	304.25
612.995	297.25
613.203	276.25
613.411	301.25
613.618	297.25
613.826	294.25
614.034	277.25
614.242	295.25
614.449	264.25
614.657	289.25
614.865	300.25
615.072	294.25
615.28	293.25
615.488	289.25
615.695	297.25
615.903	290.25
616.111	291.25
616.318	301.25
616.526	285.25
616.733	283.25
616.941	275.25
617.148	268.25
617.356	283.25
617.563	274.25
617.771	273.25
617.978	270.25
618.185	289.25
618.393	256.25
618.6	274.25
618.807	279.25
619.015	294.25
619.222	284.25
619.429	280.25
619.637	270.25
619.844	293.25
620.051	263.25
620.258	269.25
620.466	280.25
620.673	260.25
620.88	265.25
621.087	263.25
621.294	272.25
621.501	270.25
621.708	282.25
621.915	257.25
622.122	248.25
622.329	258.25
622.536	262.25
622.743	267.25
622.95	270.25
623.157	262.25
623.364	258.25
623.571	258.25
623.778	244.25
623.985	243.25
624.192	265.25
624.399	255.25
624.606	247.25
624.812	252.25
625.019	251.25
625.226	242.25
625.433	250.25
625.639	250.25
625.846	230.25
626.053	235.25
626.259	248.25
626.466	256.25
626.673	245.25
626.879	242.25
627.086	230.25
627.293	240.25
627.499	252.25
627.706	252.25
627.912	245.25
628.119	248.25
628.325	241.25
628.532	243.25
628.738	238.25
628.945	241.25
629.151	239.25
629.357	231.25
629.564	221.25
629.77	215.25
629.976	232.25
630.183	227.25
630.389	243.25
630.595	231.25
630.802	231.25
631.008	209.25
631.214	233.25
631.42	231.25
631.627	217.25
631.833	229.25
632.039	228.25
632.245	211.25
632.451	224.25
632.657	219.25
632.863	228.25
633.069	221.25
633.275	216.25
633.481	209.25
633.688	201.25
633.893	216.25
634.099	215.25
634.305	237.25
634.511	213.25
634.717	226.25
634.923	217.25
635.129	198.25
635.335	224.25
635.541	208.25
635.747	211.25
635.952	238.25
636.158	206.25
636.364	195.25
636.57	244.25
636.775	221.25
636.981	224.25
637.187	201.25
637.392	221.25
637.598	202.25
637.804	211.25
638.009	205.25
638.215	189.25
638.421	199.25
638.626	194.25
638.832	195.25
639.037	196.25
639.243	196.25
639.448	209.25
639.654	211.25
639.859	204.25
640.065	192.25
640.27	209.25
640.475	201.25
640.681	212.25
640.886	198.25
641.091	190.25
641.297	208.25
641.502	186.25
641.707	194.25
641.913	190.25
642.118	205.25
642.323	198.25
642.528	190.25
642.733	183.25
642.939	200.25
643.144	210.25
643.349	204.25
643.554	202.25
643.759	209.25
643.964	198.25
644.169	214.25
644.374	188.25
644.579	188.25
644.784	192.25
644.989	202.25
645.194	182.25
645.399	186.25
645.604	192.25
645.809	188.25
646.014	197.25
646.219	200.25
646.423	213.25
646.628	186.25
646.833	184.25
647.038	189.25
647.243	202.25
647.447	190.25
647.652	196.25
647.857	196.25
648.062	199.25
648.266	184.25
648.471	189.25
648.676	201.25
648.88	210.25
649.085	211.25
649.289	193.25
649.494	182.25
649.698	208.25
649.903	210.25
650.107	207.25
650.312	177.25
650.516	179.25
650.721	179.25
650.925	169.25
651.13	177.25
651.334	178.25
651.539	172.25
651.743	174.25
651.947	180.25
652.152	184.25
652.356	161.25
652.56	152.25
652.764	158.25
652.969	154.25
653.173	137.25
653.377	160.25
653.581	153.25
653.785	172.25
653.99	148.25
654.194	152.25
654.398	146.25
654.602	152.25
654.806	132.25
655.01	154.25
655.214	146.25
655.418	157.25
655.622	153.25
655.826	150.25
656.03	156.25
656.234	148.25
656.438	149.25
656.642	162.25
656.846	157.25
657.049	140.25
657.253	139.25
657.457	132.25
657.661	118.25
657.865	116.25
658.068	142.25
658.272	130.25
658.476	107.25
658.68	117.25
658.883	122.25
659.087	119.25
659.291	102.25
659.494	117.25
659.698	109.25
659.901	103.25
660.105	101.25
660.309	116.25
660.512	104.25
660.716	101.25
660.919	104.25
661.123	102.25
661.326	91.25
661.53	102.25
661.733	104.25
661.936	88.25
662.14	91.25
662.343	76.25
662.546	85.25
662.75	98.25
662.953	80.25
663.156	80.25
663.36	73.25
663.563	77.25
663.766	72.25
663.969	72.25
664.173	71.25
664.376	88.25
664.579	85.25
664.782	81.25
664.985	78.25
665.188	93.25
665.391	72.25
665.594	87.25
665.797	77.25
666	68.25
666.203	84.25
666.406	94.25
666.609	76.25
666.812	84.25
667.015	87.25
667.218	80.25
667.421	89.25
667.624	74.25
667.827	90.25
668.03	75.25
668.232	80.25
668.435	85.25
668.638	83.25
668.841	85.25
669.043	72.25
669.246	92.25
669.449	78.25
669.651	71.25
669.854	95.25
670.057	95.25
670.259	70.25
670.462	77.25
670.665	90.25
670.867	89.25
671.07	84.25
671.272	76.25
671.475	92.25
671.677	75.25
671.88	95.25
672.082	85.25
672.284	87.25
672.487	91.25
672.689	78.25
672.892	81.25
