Data from 1963.PennyLincolnUp.Lamp.En5.5.200Scan.071719.P1._HRD10591_14-00-05-064.txt Node
Date: Thu Jul 18 14:00:05 EDT 2019
User: cochatt
Spectrometer: HR+D1059
Trigger mode: 1
Integration Time (sec): 1.000000E-1
Scans to average: 1
Electric dark correction enabled: true
Nonlinearity correction enabled: false
Boxcar width: 0
XAxis mode: Wavelengths
Number of Pixels in Spectrum: 2048
>>>>>Begin Spectral Data<<<<<
223.165	-14.12
223.4	-14.12
223.635	-14.12
223.869	-10.12
224.104	-1.12
224.338	-16.12
224.573	-19.12
224.808	-1.12
225.042	3.88
225.277	-13.12
225.511	-33.12
225.746	-4.12
225.98	15.88
226.215	15.88
226.449	12.88
226.683	17.88
226.918	15.88
227.152	29.88
227.387	30.88
227.621	43.88
227.856	43.88
228.09	45.88
228.324	40.88
228.559	52.88
228.793	61.88
229.027	117.88
229.262	107.88
229.496	120.88
229.73	133.88
229.964	156.88
230.199	133.88
230.433	114.88
230.667	123.88
230.901	113.88
231.136	109.88
231.37	110.88
231.604	120.88
231.838	124.88
232.072	134.88
232.306	130.88
232.541	111.88
232.775	135.88
233.009	139.88
233.243	129.88
233.477	129.88
233.711	112.88
233.945	128.88
234.179	122.88
234.413	114.88
234.647	119.88
234.881	127.88
235.115	141.88
235.349	132.88
235.583	127.88
235.817	128.88
236.051	133.88
236.285	135.88
236.519	129.88
236.753	137.88
236.987	139.88
237.221	157.88
237.455	227.88
237.689	165.88
237.922	145.88
238.156	146.88
238.39	133.88
238.624	144.88
238.858	145.88
239.091	140.88
239.325	133.88
239.559	158.88
239.793	142.88
240.027	151.88
240.26	155.88
240.494	170.88
240.728	159.88
240.961	162.88
241.195	155.88
241.429	157.88
241.662	150.88
241.896	153.88
242.13	140.88
242.363	147.88
242.597	159.88
242.83	154.88
243.064	150.88
243.298	165.88
243.531	156.88
243.765	162.88
243.998	167.88
244.232	155.88
244.465	171.88
244.699	173.88
244.932	168.88
245.166	172.88
245.399	177.88
245.633	169.88
245.866	161.88
246.099	174.88
246.333	166.88
246.566	163.88
246.8	178.88
247.033	174.88
247.266	173.88
247.5	171.88
247.733	176.88
247.966	211.88
248.2	189.88
248.433	203.88
248.666	192.88
248.899	193.88
249.133	225.88
249.366	215.88
249.599	199.88
249.832	205.88
250.066	192.88
250.299	214.88
250.532	199.88
250.765	229.88
250.998	242.88
251.231	253.88
251.465	232.88
251.698	226.88
251.931	206.88
252.164	225.88
252.397	225.88
252.63	232.88
252.863	211.88
253.096	235.88
253.329	247.88
253.562	242.88
253.795	245.88
254.028	238.88
254.261	227.88
254.494	232.88
254.727	245.88
254.96	268.88
255.193	294.88
255.426	231.88
255.659	257.88
255.892	250.88
256.124	241.88
256.357	256.88
256.59	251.88
256.823	233.88
257.056	251.88
257.289	216.88
257.521	217.88
257.754	201.88
257.987	223.88
258.22	236.88
258.452	226.88
258.685	233.88
258.918	225.88
259.151	246.88
259.383	230.88
259.616	238.88
259.849	241.88
260.081	269.88
260.314	257.88
260.547	261.88
260.779	268.88
261.012	248.88
261.244	248.88
261.477	263.88
261.71	229.88
261.942	245.88
262.175	273.88
262.407	272.88
262.64	255.88
262.872	223.88
263.105	253.88
263.337	250.88
263.57	253.88
263.802	250.88
264.035	251.88
264.267	265.88
264.499	245.88
264.732	257.88
264.964	241.88
265.197	273.88
265.429	261.88
265.661	265.88
265.894	266.88
266.126	264.88
266.358	239.88
266.591	255.88
266.823	254.88
267.055	273.88
267.287	275.88
267.52	245.88
267.752	270.88
267.984	263.88
268.216	261.88
268.448	280.88
268.681	284.88
268.913	280.88
269.145	304.88
269.377	311.88
269.609	307.88
269.841	306.88
270.073	316.88
270.306	314.88
270.538	354.88
270.77	354.88
271.002	303.88
271.234	309.88
271.466	327.88
271.698	353.88
271.93	345.88
272.162	351.88
272.394	336.88
272.626	321.88
272.858	321.88
273.09	313.88
273.322	303.88
273.553	311.88
273.785	281.88
274.017	306.88
274.249	301.88
274.481	299.88
274.713	297.88
274.945	322.88
275.176	321.88
275.408	315.88
275.64	316.88
275.872	318.88
276.104	304.88
276.335	309.88
276.567	317.88
276.799	336.88
277.031	344.88
277.262	376.88
277.494	354.88
277.726	329.88
277.957	336.88
278.189	327.88
278.421	311.88
278.652	306.88
278.884	326.88
279.115	301.88
279.347	314.88
279.579	313.88
279.81	303.88
280.042	331.88
280.273	328.88
280.505	314.88
280.736	332.88
280.968	330.88
281.199	318.88
281.431	344.88
281.662	313.88
281.894	318.88
282.125	365.88
282.356	320.88
282.588	352.88
282.819	354.88
283.051	329.88
283.282	317.88
283.513	347.88
283.745	332.88
283.976	333.88
284.207	345.88
284.439	335.88
284.67	327.88
284.901	340.88
285.132	334.88
285.364	338.88
285.595	365.88
285.826	345.88
286.057	358.88
286.288	357.88
286.52	345.88
286.751	363.88
286.982	368.88
287.213	344.88
287.444	367.88
287.675	349.88
287.906	351.88
288.138	365.88
288.369	373.88
288.6	345.88
288.831	370.88
289.062	362.88
289.293	377.88
289.524	345.88
289.755	352.88
289.986	365.88
290.217	374.88
290.448	367.88
290.679	385.88
290.91	355.88
291.141	365.88
291.371	379.88
291.602	366.88
291.833	343.88
292.064	373.88
292.295	351.88
292.526	345.88
292.757	367.88
292.987	377.88
293.218	366.88
293.449	365.88
293.68	381.88
293.91	383.88
294.141	373.88
294.372	362.88
294.603	367.88
294.833	378.88
295.064	362.88
295.295	380.88
295.525	384.88
295.756	371.88
295.987	389.88
296.217	387.88
296.448	403.88
296.679	373.88
296.909	377.88
297.14	381.88
297.37	380.88
297.601	386.88
297.831	370.88
298.062	370.88
298.292	399.88
298.523	426.88
298.753	395.88
298.984	382.88
299.214	393.88
299.445	389.88
299.675	399.88
299.905	381.88
300.136	398.88
300.366	407.88
300.597	424.88
300.827	409.88
301.057	407.88
301.288	413.88
301.518	416.88
301.748	416.88
301.979	438.88
302.209	409.88
302.439	413.88
302.669	439.88
302.9	428.88
303.13	399.88
303.36	446.88
303.59	413.88
303.82	416.88
304.051	447.88
304.281	439.88
304.511	414.88
304.741	430.88
304.971	423.88
305.201	407.88
305.431	407.88
305.661	409.88
305.891	432.88
306.121	429.88
306.352	402.88
306.582	410.88
306.812	437.88
307.042	413.88
307.272	414.88
307.502	401.88
307.731	409.88
307.961	416.88
308.191	408.88
308.421	402.88
308.651	413.88
308.881	421.88
309.111	431.88
309.341	420.88
309.571	442.88
309.8	434.88
310.03	454.88
310.26	436.88
310.49	461.88
310.72	445.88
310.949	470.88
311.179	459.88
311.409	447.88
311.639	454.88
311.868	455.88
312.098	440.88
312.328	470.88
312.557	457.88
312.787	462.88
313.017	467.88
313.246	454.88
313.476	472.88
313.706	465.88
313.935	485.88
314.165	478.88
314.394	498.88
314.624	471.88
314.853	435.88
315.083	452.88
315.312	474.88
315.542	458.88
315.771	454.88
316.001	470.88
316.23	460.88
316.46	462.88
316.689	477.88
316.919	471.88
317.148	473.88
317.377	489.88
317.607	456.88
317.836	476.88
318.065	443.88
318.295	463.88
318.524	464.88
318.753	479.88
318.983	464.88
319.212	461.88
319.441	472.88
319.67	482.88
319.9	467.88
320.129	457.88
320.358	458.88
320.587	470.88
320.816	471.88
321.046	457.88
321.275	477.88
321.504	468.88
321.733	453.88
321.962	476.88
322.191	481.88
322.42	501.88
322.649	522.88
322.878	490.88
323.108	495.88
323.337	534.88
323.566	537.88
323.795	574.88
324.024	611.88
324.253	664.88
324.482	837.88
324.71	1239.88
324.939	1780.88
325.168	1537.88
325.397	879.88
325.626	645.88
325.855	591.88
326.084	570.88
326.313	564.88
326.542	561.88
326.77	576.88
326.999	624.88
327.228	829.88
327.457	1152.88
327.686	1425.88
327.914	973.88
328.143	702.88
328.372	640.88
328.6	611.88
328.829	601.88
329.058	625.88
329.287	606.88
329.515	608.88
329.744	560.88
329.972	567.88
330.201	591.88
330.43	596.88
330.658	620.88
330.887	653.88
331.115	659.88
331.344	610.88
331.572	577.88
331.801	579.88
332.03	577.88
332.258	586.88
332.486	578.88
332.715	591.88
332.943	600.88
333.172	607.88
333.4	599.88
333.629	642.88
333.857	634.88
334.085	627.88
334.314	658.88
334.542	655.88
334.771	665.88
334.999	634.88
335.227	613.88
335.455	591.88
335.684	590.88
335.912	592.88
336.14	591.88
336.369	586.88
336.597	590.88
336.825	573.88
337.053	561.88
337.281	567.88
337.51	558.88
337.738	584.88
337.966	557.88
338.194	553.88
338.422	553.88
338.65	557.88
338.878	529.88
339.106	535.88
339.334	542.88
339.562	545.88
339.79	527.88
340.018	545.88
340.246	533.88
340.474	539.88
340.702	541.88
340.93	521.88
341.158	532.88
341.386	560.88
341.614	518.88
341.842	541.88
342.07	529.88
342.298	530.88
342.526	523.88
342.754	556.88
342.981	517.88
343.209	526.88
343.437	556.88
343.665	571.88
343.893	591.88
344.12	608.88
344.348	588.88
344.576	557.88
344.804	572.88
345.031	541.88
345.259	546.88
345.487	550.88
345.714	531.88
345.942	510.88
346.17	509.88
346.397	504.88
346.625	520.88
346.853	524.88
347.08	534.88
347.308	521.88
347.535	524.88
347.763	520.88
347.99	504.88
348.218	529.88
348.445	523.88
348.673	515.88
348.9	537.88
349.128	515.88
349.355	483.88
349.583	485.88
349.81	494.88
350.037	514.88
350.265	487.88
350.492	493.88
350.72	478.88
350.947	521.88
351.174	517.88
351.402	511.88
351.629	534.88
351.856	510.88
352.083	521.88
352.311	517.88
352.538	516.88
352.765	526.88
352.992	497.88
353.22	512.88
353.447	495.88
353.674	493.88
353.901	502.88
354.128	493.88
354.355	489.88
354.583	498.88
354.81	485.88
355.037	505.88
355.264	504.88
355.491	495.88
355.718	489.88
355.945	498.88
356.172	487.88
356.399	493.88
356.626	495.88
356.853	494.88
357.08	488.88
357.307	502.88
357.534	498.88
357.761	494.88
357.988	492.88
358.215	489.88
358.441	510.88
358.668	501.88
358.895	494.88
359.122	494.88
359.349	481.88
359.576	543.88
359.802	542.88
360.029	516.88
360.256	537.88
360.483	535.88
360.709	528.88
360.936	501.88
361.163	523.88
361.39	513.88
361.616	514.88
361.843	512.88
362.07	512.88
362.296	542.88
362.523	514.88
362.749	522.88
362.976	486.88
363.203	508.88
363.429	482.88
363.656	501.88
363.882	510.88
364.109	498.88
364.335	496.88
364.562	499.88
364.788	506.88
365.015	511.88
365.241	532.88
365.468	516.88
365.694	510.88
365.92	527.88
366.147	497.88
366.373	506.88
366.599	498.88
366.826	487.88
367.052	485.88
367.278	486.88
367.505	510.88
367.731	513.88
367.957	497.88
368.184	519.88
368.41	491.88
368.636	506.88
368.862	532.88
369.089	507.88
369.315	511.88
369.541	509.88
369.767	537.88
369.993	496.88
370.219	527.88
370.445	505.88
370.672	507.88
370.898	539.88
371.124	522.88
371.35	530.88
371.576	528.88
371.802	512.88
372.028	531.88
372.254	508.88
372.48	523.88
372.706	533.88
372.932	544.88
373.158	515.88
373.384	535.88
373.61	522.88
373.835	539.88
374.061	532.88
374.287	523.88
374.513	525.88
374.739	548.88
374.965	530.88
375.191	565.88
375.416	559.88
375.642	553.88
375.868	547.88
376.094	527.88
376.319	512.88
376.545	538.88
376.771	534.88
376.997	513.88
377.222	522.88
377.448	525.88
377.674	517.88
377.899	523.88
378.125	527.88
378.35	524.88
378.576	496.88
378.802	522.88
379.027	525.88
379.253	529.88
379.478	527.88
379.704	517.88
379.929	525.88
380.155	515.88
380.38	527.88
380.606	517.88
380.831	529.88
381.057	528.88
381.282	520.88
381.507	507.88
381.733	537.88
381.958	538.88
382.184	537.88
382.409	546.88
382.634	539.88
382.86	529.88
383.085	545.88
383.31	549.88
383.535	566.88
383.761	546.88
383.986	556.88
384.211	548.88
384.436	570.88
384.662	532.88
384.887	599.88
385.112	582.88
385.337	633.88
385.562	591.88
385.787	598.88
386.013	595.88
386.238	609.88
386.463	616.88
386.688	594.88
386.913	596.88
387.138	587.88
387.363	605.88
387.588	593.88
387.813	582.88
388.038	596.88
388.263	606.88
388.488	589.88
388.713	595.88
388.938	588.88
389.163	593.88
389.387	610.88
389.612	570.88
389.837	599.88
390.062	578.88
390.287	599.88
390.512	605.88
390.736	598.88
390.961	601.88
391.186	570.88
391.411	614.88
391.636	620.88
391.86	647.88
392.085	677.88
392.31	637.88
392.534	644.88
392.759	645.88
392.984	620.88
393.208	618.88
393.433	614.88
393.658	648.88
393.882	613.88
394.107	607.88
394.331	607.88
394.556	614.88
394.78	624.88
395.005	641.88
395.229	629.88
395.454	630.88
395.678	648.88
395.903	654.88
396.127	649.88
396.352	641.88
396.576	619.88
396.801	624.88
397.025	640.88
397.249	633.88
397.474	648.88
397.698	657.88
397.922	647.88
398.147	665.88
398.371	675.88
398.595	675.88
398.82	698.88
399.044	767.88
399.268	814.88
399.492	873.88
399.717	936.88
399.941	986.88
400.165	936.88
400.389	891.88
400.613	799.88
400.837	788.88
401.062	757.88
401.286	731.88
401.51	730.88
401.734	718.88
401.958	739.88
402.182	764.88
402.406	740.88
402.63	740.88
402.854	743.88
403.078	751.88
403.302	761.88
403.526	797.88
403.75	801.88
403.974	802.88
404.198	770.88
404.422	800.88
404.645	778.88
404.869	780.88
405.093	805.88
405.317	857.88
405.541	862.88
405.765	824.88
405.988	796.88
406.212	782.88
406.436	798.88
406.66	852.88
406.883	822.88
407.107	850.88
407.331	928.88
407.555	956.88
407.778	977.88
408.002	900.88
408.226	844.88
408.449	831.88
408.673	811.88
408.896	849.88
409.12	842.88
409.344	811.88
409.567	774.88
409.791	798.88
410.014	776.88
410.238	754.88
410.461	749.88
410.685	766.88
410.908	764.88
411.132	795.88
411.355	810.88
411.578	790.88
411.802	754.88
412.025	747.88
412.249	742.88
412.472	807.88
412.695	794.88
412.919	765.88
413.142	749.88
413.365	741.88
413.589	737.88
413.812	718.88
414.035	706.88
414.258	686.88
414.482	715.88
414.705	723.88
414.928	721.88
415.151	716.88
415.374	723.88
415.597	705.88
415.821	698.88
416.044	719.88
416.267	713.88
416.49	706.88
416.713	677.88
416.936	687.88
417.159	714.88
417.382	718.88
417.605	690.88
417.828	701.88
418.051	740.88
418.274	751.88
418.497	702.88
418.72	750.88
418.943	719.88
419.166	743.88
419.389	803.88
419.611	780.88
419.834	765.88
420.057	750.88
420.28	748.88
420.503	726.88
420.726	738.88
420.948	723.88
421.171	757.88
421.394	774.88
421.617	736.88
421.839	719.88
422.062	721.88
422.285	719.88
422.507	778.88
422.73	857.88
422.953	832.88
423.175	765.88
423.398	764.88
423.621	744.88
423.843	757.88
424.066	777.88
424.288	764.88
424.511	777.88
424.733	816.88
424.956	879.88
425.178	857.88
425.401	837.88
425.623	879.88
425.846	776.88
426.068	746.88
426.291	738.88
426.513	748.88
426.735	741.88
426.958	749.88
427.18	842.88
427.402	944.88
427.625	995.88
427.847	851.88
428.069	825.88
428.292	749.88
428.514	697.88
428.736	695.88
428.958	701.88
429.181	677.88
429.403	667.88
429.625	683.88
429.847	706.88
430.069	761.88
430.292	759.88
430.514	688.88
430.736	670.88
430.958	674.88
431.18	674.88
431.402	650.88
431.624	657.88
431.846	640.88
432.068	640.88
432.29	671.88
432.512	651.88
432.734	669.88
432.956	638.88
433.178	690.88
433.4	680.88
433.622	662.88
433.844	647.88
434.066	662.88
434.287	677.88
434.509	674.88
434.731	690.88
434.953	703.88
435.175	723.88
435.397	741.88
435.618	726.88
435.84	744.88
436.062	798.88
436.284	883.88
436.505	753.88
436.727	701.88
436.949	689.88
437.17	682.88
437.392	679.88
437.614	686.88
437.835	697.88
438.057	777.88
438.278	845.88
438.5	861.88
438.721	938.88
438.943	885.88
439.165	725.88
439.386	691.88
439.608	712.88
439.829	704.88
440.05	720.88
440.272	742.88
440.493	737.88
440.715	715.88
440.936	686.88
441.158	690.88
441.379	724.88
441.6	717.88
441.822	761.88
442.043	807.88
442.264	864.88
442.486	866.88
442.707	763.88
442.928	765.88
443.149	736.88
443.371	758.88
443.592	821.88
443.813	881.88
444.034	935.88
444.255	838.88
444.476	815.88
444.698	807.88
444.919	815.88
445.14	898.88
445.361	815.88
445.582	795.88
445.803	800.88
446.024	897.88
446.245	895.88
446.466	805.88
446.687	743.88
446.908	704.88
447.129	695.88
447.35	679.88
447.571	649.88
447.792	660.88
448.013	655.88
448.234	668.88
448.455	700.88
448.675	801.88
448.896	881.88
449.117	782.88
449.338	759.88
449.559	816.88
449.779	915.88
450	769.88
450.221	691.88
450.442	643.88
450.662	637.88
450.883	648.88
451.104	649.88
451.324	666.88
451.545	636.88
451.766	633.88
451.986	610.88
452.207	612.88
452.428	610.88
452.648	625.88
452.869	590.88
453.089	615.88
453.31	614.88
453.53	605.88
453.751	609.88
453.971	614.88
454.192	618.88
454.412	603.88
454.633	603.88
454.853	596.88
455.073	599.88
455.294	629.88
455.514	677.88
455.734	656.88
455.955	586.88
456.175	562.88
456.395	571.88
456.616	570.88
456.836	554.88
457.056	567.88
457.276	562.88
457.497	582.88
457.717	583.88
457.937	591.88
458.157	583.88
458.377	589.88
458.598	617.88
458.818	657.88
459.038	714.88
459.258	738.88
459.478	714.88
459.698	684.88
459.918	690.88
460.138	667.88
460.358	709.88
460.578	689.88
460.798	709.88
461.018	735.88
461.238	725.88
461.458	722.88
461.678	732.88
461.898	726.88
462.118	725.88
462.338	743.88
462.558	763.88
462.777	793.88
462.997	835.88
463.217	871.88
463.437	849.88
463.657	840.88
463.876	831.88
464.096	810.88
464.316	801.88
464.536	847.88
464.755	797.88
464.975	741.88
465.195	778.88
465.414	813.88
465.634	737.88
465.854	689.88
466.073	674.88
466.293	645.88
466.512	641.88
466.732	611.88
466.951	645.88
467.171	637.88
467.391	649.88
467.61	639.88
467.829	632.88
468.049	639.88
468.268	617.88
468.488	615.88
468.707	629.88
468.927	607.88
469.146	608.88
469.365	625.88
469.585	619.88
469.804	643.88
470.023	651.88
470.243	649.88
470.462	655.88
470.681	667.88
470.901	649.88
471.12	641.88
471.339	651.88
471.558	651.88
471.777	653.88
471.997	642.88
472.216	650.88
472.435	643.88
472.654	651.88
472.873	609.88
473.092	611.88
473.311	606.88
473.53	615.88
473.749	638.88
473.968	657.88
474.187	689.88
474.406	731.88
474.625	636.88
474.844	615.88
475.063	622.88
475.282	605.88
475.501	612.88
475.72	644.88
475.939	645.88
476.158	634.88
476.377	658.88
476.596	657.88
476.814	641.88
477.033	678.88
477.252	652.88
477.471	669.88
477.69	706.88
477.908	701.88
478.127	693.88
478.346	717.88
478.564	745.88
478.783	736.88
479.002	743.88
479.22	763.88
479.439	753.88
479.658	777.88
479.876	768.88
480.095	754.88
480.313	815.88
480.532	811.88
480.751	806.88
480.969	793.88
481.188	838.88
481.406	831.88
481.624	811.88
481.843	762.88
482.061	731.88
482.28	733.88
482.498	722.88
482.717	718.88
482.935	719.88
483.153	732.88
483.372	679.88
483.59	736.88
483.808	728.88
484.027	716.88
484.245	750.88
484.463	722.88
484.681	748.88
484.9	753.88
485.118	773.88
485.336	769.88
485.554	771.88
485.772	770.88
485.99	743.88
486.209	767.88
486.427	783.88
486.645	775.88
486.863	781.88
487.081	762.88
487.299	753.88
487.517	767.88
487.735	765.88
487.953	762.88
488.171	795.88
488.389	764.88
488.607	787.88
488.825	798.88
489.043	791.88
489.261	787.88
489.479	799.88
489.696	778.88
489.914	774.88
490.132	802.88
490.35	806.88
490.568	803.88
490.786	797.88
491.003	798.88
491.221	841.88
491.439	833.88
491.657	802.88
491.874	855.88
492.092	875.88
492.31	858.88
492.527	859.88
492.745	896.88
492.963	893.88
493.18	895.88
493.398	893.88
493.615	868.88
493.833	890.88
494.05	882.88
494.268	892.88
494.485	897.88
494.703	907.88
494.92	893.88
495.138	890.88
495.355	906.88
495.573	912.88
495.79	911.88
496.008	906.88
496.225	904.88
496.442	905.88
496.66	933.88
496.877	913.88
497.094	933.88
497.312	959.88
497.529	925.88
497.746	963.88
497.963	1015.88
498.181	1033.88
498.398	1061.88
498.615	1081.88
498.832	1147.88
499.049	1187.88
499.267	1245.88
499.484	1345.88
499.701	1400.88
499.918	1516.88
500.135	1662.88
500.352	1786.88
500.569	1840.88
500.786	1821.88
501.003	1741.88
501.22	1645.88
501.437	1552.88
501.654	1414.88
501.871	1369.88
502.088	1248.88
502.305	1213.88
502.522	1127.88
502.739	1119.88
502.956	1083.88
503.172	1014.88
503.389	1040.88
503.606	992.88
503.823	982.88
504.04	992.88
504.256	986.88
504.473	975.88
504.69	975.88
504.907	969.88
505.123	960.88
505.34	943.88
505.557	878.88
505.773	857.88
505.99	873.88
506.207	875.88
506.423	863.88
506.64	848.88
506.856	806.88
507.073	826.88
507.289	830.88
507.506	824.88
507.722	822.88
507.939	822.88
508.155	818.88
508.372	797.88
508.588	776.88
508.805	787.88
509.021	780.88
509.238	798.88
509.454	780.88
509.67	807.88
509.887	786.88
510.103	789.88
510.319	749.88
510.536	848.88
510.752	1240.88
510.968	1040.88
511.184	792.88
511.401	758.88
511.617	750.88
511.833	758.88
512.049	742.88
512.265	742.88
512.481	759.88
512.698	751.88
512.914	747.88
513.13	751.88
513.346	722.88
513.562	733.88
513.778	727.88
513.994	744.88
514.21	785.88
514.426	759.88
514.642	798.88
514.858	803.88
515.074	833.88
515.29	947.88
515.506	1196.88
515.721	1069.88
515.937	840.88
516.153	790.88
516.369	820.88
516.585	807.88
516.801	831.88
517.016	866.88
517.232	849.88
517.448	911.88
517.664	891.88
517.879	905.88
518.095	889.88
518.311	900.88
518.527	902.88
518.742	854.88
518.958	803.88
519.173	832.88
519.389	763.88
519.605	777.88
519.82	775.88
520.036	767.88
520.251	785.88
520.467	798.88
520.682	779.88
520.898	783.88
521.113	797.88
521.329	828.88
521.544	857.88
521.76	971.88
521.975	1507.88
522.19	1501.88
522.406	919.88
522.621	785.88
522.836	749.88
523.052	710.88
523.267	698.88
523.482	686.88
523.698	669.88
523.913	697.88
524.128	678.88
524.343	648.88
524.559	670.88
524.774	649.88
524.989	665.88
525.204	646.88
525.419	652.88
525.634	630.88
525.849	658.88
526.064	607.88
526.28	656.88
526.495	598.88
526.71	629.88
526.925	623.88
527.14	639.88
527.355	634.88
527.57	639.88
527.785	635.88
527.999	655.88
528.214	611.88
528.429	640.88
528.644	654.88
528.859	663.88
529.074	640.88
529.289	658.88
529.503	703.88
529.718	669.88
529.933	641.88
530.148	629.88
530.363	640.88
530.577	629.88
530.792	611.88
531.007	629.88
531.221	635.88
531.436	634.88
531.651	622.88
531.865	632.88
532.08	631.88
532.295	643.88
532.509	624.88
532.724	627.88
532.938	624.88
533.153	604.88
533.367	623.88
533.582	613.88
533.796	601.88
534.011	605.88
534.225	622.88
534.44	615.88
534.654	591.88
534.868	588.88
535.083	624.88
535.297	601.88
535.511	612.88
535.726	614.88
535.94	616.88
536.154	602.88
536.369	591.88
536.583	594.88
536.797	596.88
537.011	579.88
537.225	558.88
537.44	593.88
537.654	602.88
537.868	586.88
538.082	596.88
538.296	596.88
538.51	571.88
538.724	607.88
538.938	578.88
539.153	593.88
539.367	612.88
539.581	593.88
539.795	593.88
540.009	596.88
540.222	561.88
540.436	573.88
540.65	571.88
540.864	579.88
541.078	585.88
541.292	587.88
541.506	604.88
541.72	571.88
541.934	553.88
542.147	583.88
542.361	561.88
542.575	567.88
542.789	573.88
543.002	581.88
543.216	577.88
543.43	558.88
543.644	578.88
543.857	588.88
544.071	595.88
544.285	584.88
544.498	571.88
544.712	588.88
544.925	552.88
545.139	590.88
545.352	578.88
545.566	570.88
545.779	597.88
545.993	574.88
546.206	575.88
546.42	589.88
546.633	585.88
546.847	590.88
547.06	591.88
547.274	579.88
547.487	577.88
547.7	589.88
547.914	595.88
548.127	583.88
548.34	588.88
548.554	591.88
548.767	582.88
548.98	570.88
549.193	582.88
549.407	601.88
549.62	587.88
549.833	593.88
550.046	565.88
550.259	584.88
550.473	554.88
550.686	571.88
550.899	581.88
551.112	583.88
551.325	568.88
551.538	587.88
551.751	563.88
551.964	587.88
552.177	558.88
552.39	586.88
552.603	607.88
552.816	599.88
553.029	602.88
553.242	617.88
553.455	629.88
553.667	625.88
553.88	635.88
554.093	607.88
554.306	607.88
554.519	588.88
554.732	565.88
554.944	572.88
555.157	562.88
555.37	575.88
555.583	554.88
555.795	570.88
556.008	538.88
556.221	536.88
556.433	524.88
556.646	523.88
556.859	538.88
557.071	508.88
557.284	523.88
557.496	531.88
557.709	496.88
557.921	510.88
558.134	506.88
558.346	520.88
558.559	504.88
558.771	506.88
558.984	504.88
559.196	482.88
559.409	493.88
559.621	492.88
559.833	494.88
560.046	487.88
560.258	507.88
560.47	509.88
560.683	493.88
560.895	483.88
561.107	495.88
561.32	512.88
561.532	479.88
561.744	511.88
561.956	467.88
562.168	504.88
562.381	483.88
562.593	501.88
562.805	517.88
563.017	496.88
563.229	501.88
563.441	491.88
563.653	502.88
563.865	499.88
564.077	498.88
564.289	503.88
564.501	534.88
564.713	542.88
564.925	527.88
565.137	547.88
565.349	573.88
565.561	593.88
565.773	591.88
565.985	608.88
566.197	640.88
566.408	659.88
566.62	698.88
566.832	738.88
567.044	746.88
567.255	728.88
567.467	749.88
567.679	769.88
567.891	845.88
568.102	849.88
568.314	817.88
568.526	757.88
568.737	694.88
568.949	653.88
569.161	629.88
569.372	584.88
569.584	576.88
569.795	542.88
570.007	551.88
570.218	563.88
570.43	537.88
570.641	510.88
570.853	506.88
571.064	517.88
571.276	530.88
571.487	494.88
571.698	477.88
571.91	479.88
572.121	462.88
572.333	482.88
572.544	456.88
572.755	447.88
572.966	439.88
573.178	447.88
573.389	444.88
573.6	457.88
573.811	433.88
574.023	435.88
574.234	450.88
574.445	461.88
574.656	419.88
574.867	434.88
575.078	458.88
575.289	457.88
575.501	413.88
575.712	430.88
575.923	403.88
576.134	415.88
576.345	419.88
576.556	445.88
576.767	416.88
576.978	434.88
577.188	434.88
577.399	402.88
577.61	410.88
577.821	435.88
578.032	425.88
578.243	423.88
578.454	605.88
578.665	472.88
578.875	404.88
579.086	396.88
579.297	380.88
579.508	409.88
579.718	406.88
579.929	400.88
580.14	376.88
580.35	378.88
580.561	401.88
580.772	395.88
580.982	390.88
581.193	403.88
581.403	373.88
581.614	381.88
581.825	396.88
582.035	394.88
582.246	378.88
582.456	367.88
582.667	394.88
582.877	381.88
583.087	396.88
583.298	366.88
583.508	361.88
583.719	384.88
583.929	393.88
584.139	384.88
584.35	377.88
584.56	393.88
584.77	372.88
584.981	392.88
585.191	371.88
585.401	387.88
585.611	373.88
585.821	381.88
586.032	381.88
586.242	388.88
586.452	373.88
586.662	366.88
586.872	364.88
587.082	384.88
587.292	374.88
587.502	387.88
587.713	379.88
587.923	373.88
588.133	381.88
588.343	376.88
588.553	367.88
588.762	372.88
588.972	393.88
589.182	385.88
589.392	385.88
589.602	371.88
589.812	385.88
590.022	371.88
590.232	377.88
590.441	378.88
590.651	371.88
590.861	387.88
591.071	385.88
591.281	417.88
591.49	406.88
591.7	391.88
591.91	413.88
592.119	409.88
592.329	393.88
592.539	425.88
592.748	446.88
592.958	446.88
593.167	433.88
593.377	434.88
593.587	472.88
593.796	465.88
594.006	463.88
594.215	470.88
594.424	451.88
594.634	454.88
594.843	437.88
595.053	423.88
595.262	405.88
595.472	414.88
595.681	399.88
595.89	383.88
596.1	399.88
596.309	387.88
596.518	382.88
596.727	365.88
596.937	355.88
597.146	358.88
597.355	364.88
597.564	356.88
597.774	358.88
597.983	347.88
598.192	361.88
598.401	346.88
598.61	338.88
598.819	342.88
599.028	333.88
599.237	332.88
599.446	325.88
599.655	357.88
599.864	341.88
600.073	320.88
600.282	334.88
600.491	346.88
600.7	329.88
600.909	323.88
601.118	331.88
601.327	319.88
601.536	313.88
601.745	311.88
601.953	333.88
602.162	330.88
602.371	311.88
602.58	322.88
602.789	322.88
602.997	313.88
603.206	327.88
603.415	319.88
603.623	312.88
603.832	324.88
604.041	299.88
604.249	309.88
604.458	312.88
604.666	322.88
604.875	307.88
605.084	310.88
605.292	289.88
605.501	316.88
605.709	310.88
605.918	302.88
606.126	308.88
606.334	303.88
606.543	307.88
606.751	305.88
606.96	311.88
607.168	303.88
607.376	292.88
607.585	280.88
607.793	314.88
608.001	281.88
608.21	278.88
608.418	290.88
608.626	296.88
608.834	285.88
609.043	314.88
609.251	304.88
609.459	295.88
609.667	295.88
609.875	321.88
610.083	296.88
610.291	303.88
610.499	306.88
610.707	289.88
610.916	283.88
611.124	302.88
611.332	293.88
611.54	315.88
611.748	293.88
611.955	303.88
612.163	301.88
612.371	309.88
612.579	296.88
612.787	309.88
612.995	318.88
613.203	299.88
613.411	279.88
613.618	275.88
613.826	286.88
614.034	300.88
614.242	287.88
614.449	293.88
614.657	292.88
614.865	295.88
615.072	294.88
615.28	292.88
615.488	294.88
615.695	271.88
615.903	283.88
616.111	302.88
616.318	293.88
616.526	312.88
616.733	297.88
616.941	295.88
617.148	285.88
617.356	294.88
617.563	279.88
617.771	286.88
617.978	286.88
618.185	293.88
618.393	272.88
618.6	281.88
618.807	292.88
619.015	285.88
619.222	301.88
619.429	286.88
619.637	288.88
619.844	285.88
620.051	288.88
620.258	278.88
620.466	275.88
620.673	273.88
620.88	269.88
621.087	278.88
621.294	268.88
621.501	243.88
621.708	279.88
621.915	283.88
622.122	270.88
622.329	282.88
622.536	263.88
622.743	283.88
622.95	279.88
623.157	276.88
623.364	271.88
623.571	282.88
623.778	271.88
623.985	254.88
624.192	268.88
624.399	271.88
624.606	251.88
624.812	259.88
625.019	251.88
625.226	269.88
625.433	246.88
625.639	249.88
625.846	251.88
626.053	262.88
626.259	266.88
626.466	263.88
626.673	265.88
626.879	248.88
627.086	248.88
627.293	256.88
627.499	264.88
627.706	244.88
627.912	257.88
628.119	249.88
628.325	230.88
628.532	231.88
628.738	246.88
628.945	241.88
629.151	248.88
629.357	231.88
629.564	245.88
629.77	235.88
629.976	239.88
630.183	230.88
630.389	226.88
630.595	261.88
630.802	230.88
631.008	236.88
631.214	234.88
631.42	235.88
631.627	229.88
631.833	229.88
632.039	238.88
632.245	215.88
632.451	247.88
632.657	232.88
632.863	224.88
633.069	232.88
633.275	230.88
633.481	216.88
633.688	209.88
633.893	226.88
634.099	227.88
634.305	229.88
634.511	214.88
634.717	235.88
634.923	213.88
635.129	209.88
635.335	225.88
635.541	214.88
635.747	231.88
635.952	213.88
636.158	216.88
636.364	215.88
636.57	228.88
636.775	231.88
636.981	209.88
637.187	213.88
637.392	223.88
637.598	216.88
637.804	212.88
638.009	214.88
638.215	215.88
638.421	214.88
638.626	222.88
638.832	215.88
639.037	208.88
639.243	202.88
639.448	223.88
639.654	214.88
639.859	190.88
640.065	217.88
640.27	220.88
640.475	224.88
640.681	201.88
640.886	210.88
641.091	203.88
641.297	202.88
641.502	211.88
641.707	200.88
641.913	202.88
642.118	214.88
642.323	206.88
642.528	197.88
642.733	214.88
642.939	201.88
643.144	204.88
643.349	217.88
643.554	215.88
643.759	199.88
643.964	208.88
644.169	193.88
644.374	194.88
644.579	207.88
644.784	204.88
644.989	200.88
645.194	207.88
645.399	205.88
645.604	202.88
645.809	197.88
646.014	205.88
646.219	186.88
646.423	211.88
646.628	203.88
646.833	192.88
647.038	202.88
647.243	199.88
647.447	222.88
647.652	209.88
647.857	207.88
648.062	222.88
648.266	219.88
648.471	215.88
648.676	211.88
648.88	198.88
649.085	223.88
649.289	211.88
649.494	215.88
649.698	222.88
649.903	217.88
650.107	199.88
650.312	195.88
650.516	178.88
650.721	179.88
650.925	182.88
651.13	195.88
651.334	199.88
651.539	192.88
651.743	173.88
651.947	176.88
652.152	177.88
652.356	165.88
652.56	163.88
652.764	173.88
652.969	170.88
653.173	184.88
653.377	166.88
653.581	160.88
653.785	163.88
653.99	155.88
654.194	176.88
654.398	148.88
654.602	160.88
654.806	159.88
655.01	164.88
655.214	161.88
655.418	164.88
655.622	167.88
655.826	152.88
656.03	163.88
656.234	152.88
656.438	170.88
656.642	157.88
656.846	162.88
657.049	145.88
657.253	154.88
657.457	138.88
657.661	139.88
657.865	131.88
658.068	138.88
658.272	122.88
658.476	126.88
658.68	110.88
658.883	114.88
659.087	110.88
659.291	104.88
659.494	114.88
659.698	118.88
659.901	102.88
660.105	114.88
660.309	109.88
660.512	95.88
660.716	110.88
660.919	104.88
661.123	89.88
661.326	96.88
661.53	97.88
661.733	98.88
661.936	90.88
662.14	92.88
662.343	98.88
662.546	89.88
662.75	88.88
662.953	101.88
663.156	103.88
663.36	95.88
663.563	96.88
663.766	90.88
663.969	81.88
664.173	65.88
664.376	78.88
664.579	91.88
664.782	85.88
664.985	91.88
665.188	102.88
665.391	101.88
665.594	81.88
665.797	93.88
666	81.88
666.203	87.88
666.406	88.88
666.609	99.88
666.812	79.88
667.015	99.88
667.218	89.88
667.421	98.88
667.624	79.88
667.827	81.88
668.03	99.88
668.232	101.88
668.435	84.88
668.638	97.88
668.841	92.88
669.043	72.88
669.246	92.88
669.449	88.88
669.651	77.88
669.854	93.88
670.057	88.88
670.259	103.88
670.462	81.88
670.665	80.88
670.867	94.88
671.07	82.88
671.272	102.88
671.475	103.88
671.677	78.88
671.88	101.88
672.082	84.88
672.284	87.88
672.487	81.88
672.689	97.88
672.892	89.88
