Data from 1963.PennyLincolnUp.Lamp.En5.5.200Scan.071719.P1._HRD10591_13-57-56-063.txt Node
Date: Thu Jul 18 13:57:56 EDT 2019
User: cochatt
Spectrometer: HR+D1059
Trigger mode: 1
Integration Time (sec): 1.000000E-1
Scans to average: 1
Electric dark correction enabled: true
Nonlinearity correction enabled: false
Boxcar width: 0
XAxis mode: Wavelengths
Number of Pixels in Spectrum: 2048
>>>>>Begin Spectral Data<<<<<
223.165	-17.94
223.4	-17.94
223.635	-17.94
223.869	-4.94
224.104	-9.94
224.338	-10.94
224.573	-17.94
224.808	-7.94
225.042	2.06
225.277	-14.94
225.511	1.06
225.746	4.06
225.98	-11.94
226.215	9.06
226.449	6.06
226.683	16.06
226.918	32.06
227.152	26.06
227.387	26.06
227.621	32.06
227.856	42.06
228.09	47.06
228.324	56.06
228.559	55.06
228.793	59.06
229.027	95.06
229.262	101.06
229.496	104.06
229.73	137.06
229.964	135.06
230.199	122.06
230.433	118.06
230.667	117.06
230.901	120.06
231.136	119.06
231.37	119.06
231.604	116.06
231.838	117.06
232.072	116.06
232.306	126.06
232.541	125.06
232.775	135.06
233.009	107.06
233.243	125.06
233.477	121.06
233.711	128.06
233.945	126.06
234.179	128.06
234.413	127.06
234.647	116.06
234.881	125.06
235.115	110.06
235.349	113.06
235.583	141.06
235.817	123.06
236.051	141.06
236.285	137.06
236.519	137.06
236.753	145.06
236.987	139.06
237.221	162.06
237.455	174.06
237.689	163.06
237.922	141.06
238.156	126.06
238.39	146.06
238.624	125.06
238.858	141.06
239.091	139.06
239.325	126.06
239.559	124.06
239.793	131.06
240.027	133.06
240.26	149.06
240.494	141.06
240.728	135.06
240.961	162.06
241.195	141.06
241.429	135.06
241.662	145.06
241.896	148.06
242.13	150.06
242.363	158.06
242.597	134.06
242.83	154.06
243.064	155.06
243.298	155.06
243.531	133.06
243.765	151.06
243.998	168.06
244.232	155.06
244.465	153.06
244.699	150.06
244.932	165.06
245.166	160.06
245.399	166.06
245.633	159.06
245.866	155.06
246.099	157.06
246.333	156.06
246.566	156.06
246.8	162.06
247.033	171.06
247.266	167.06
247.5	167.06
247.733	167.06
247.966	185.06
248.2	165.06
248.433	183.06
248.666	177.06
248.899	168.06
249.133	179.06
249.366	194.06
249.599	191.06
249.832	184.06
250.066	174.06
250.299	197.06
250.532	199.06
250.765	209.06
250.998	205.06
251.231	219.06
251.465	201.06
251.698	199.06
251.931	200.06
252.164	213.06
252.397	195.06
252.63	209.06
252.863	219.06
253.096	217.06
253.329	212.06
253.562	235.06
253.795	218.06
254.028	211.06
254.261	200.06
254.494	220.06
254.727	243.06
254.96	248.06
255.193	256.06
255.426	235.06
255.659	220.06
255.892	220.06
256.124	210.06
256.357	217.06
256.59	225.06
256.823	199.06
257.056	221.06
257.289	220.06
257.521	234.06
257.754	216.06
257.987	211.06
258.22	199.06
258.452	209.06
258.685	222.06
258.918	217.06
259.151	223.06
259.383	213.06
259.616	224.06
259.849	235.06
260.081	238.06
260.314	258.06
260.547	251.06
260.779	248.06
261.012	250.06
261.244	221.06
261.477	244.06
261.71	228.06
261.942	246.06
262.175	237.06
262.407	238.06
262.64	233.06
262.872	228.06
263.105	226.06
263.337	229.06
263.57	236.06
263.802	230.06
264.035	233.06
264.267	238.06
264.499	248.06
264.732	249.06
264.964	230.06
265.197	231.06
265.429	245.06
265.661	245.06
265.894	239.06
266.126	237.06
266.358	240.06
266.591	243.06
266.823	254.06
267.055	269.06
267.287	236.06
267.52	235.06
267.752	257.06
267.984	256.06
268.216	254.06
268.448	272.06
268.681	240.06
268.913	248.06
269.145	292.06
269.377	281.06
269.609	270.06
269.841	261.06
270.073	266.06
270.306	278.06
270.538	296.06
270.77	290.06
271.002	298.06
271.234	285.06
271.466	302.06
271.698	303.06
271.93	302.06
272.162	309.06
272.394	291.06
272.626	313.06
272.858	297.06
273.09	280.06
273.322	305.06
273.553	276.06
273.785	303.06
274.017	285.06
274.249	293.06
274.481	286.06
274.713	288.06
274.945	276.06
275.176	283.06
275.408	290.06
275.64	288.06
275.872	301.06
276.104	296.06
276.335	288.06
276.567	307.06
276.799	303.06
277.031	310.06
277.262	333.06
277.494	307.06
277.726	309.06
277.957	302.06
278.189	296.06
278.421	284.06
278.652	296.06
278.884	285.06
279.115	286.06
279.347	289.06
279.579	288.06
279.81	304.06
280.042	329.06
280.273	318.06
280.505	301.06
280.736	288.06
280.968	307.06
281.199	294.06
281.431	319.06
281.662	287.06
281.894	306.06
282.125	302.06
282.356	321.06
282.588	336.06
282.819	339.06
283.051	323.06
283.282	325.06
283.513	314.06
283.745	333.06
283.976	312.06
284.207	320.06
284.439	329.06
284.67	318.06
284.901	325.06
285.132	325.06
285.364	325.06
285.595	321.06
285.826	332.06
286.057	357.06
286.288	318.06
286.52	331.06
286.751	326.06
286.982	332.06
287.213	333.06
287.444	325.06
287.675	332.06
287.906	338.06
288.138	339.06
288.369	347.06
288.6	344.06
288.831	339.06
289.062	342.06
289.293	344.06
289.524	340.06
289.755	349.06
289.986	338.06
290.217	329.06
290.448	340.06
290.679	327.06
290.91	347.06
291.141	324.06
291.371	349.06
291.602	339.06
291.833	341.06
292.064	344.06
292.295	337.06
292.526	351.06
292.757	332.06
292.987	323.06
293.218	337.06
293.449	352.06
293.68	345.06
293.91	348.06
294.141	349.06
294.372	347.06
294.603	351.06
294.833	341.06
295.064	367.06
295.295	368.06
295.525	366.06
295.756	359.06
295.987	357.06
296.217	365.06
296.448	376.06
296.679	370.06
296.909	328.06
297.14	358.06
297.37	364.06
297.601	359.06
297.831	355.06
298.062	359.06
298.292	384.06
298.523	361.06
298.753	375.06
298.984	363.06
299.214	374.06
299.445	375.06
299.675	376.06
299.905	374.06
300.136	380.06
300.366	372.06
300.597	383.06
300.827	379.06
301.057	391.06
301.288	415.06
301.518	389.06
301.748	383.06
301.979	382.06
302.209	364.06
302.439	367.06
302.669	398.06
302.9	389.06
303.13	386.06
303.36	385.06
303.59	399.06
303.82	392.06
304.051	402.06
304.281	390.06
304.511	403.06
304.741	397.06
304.971	405.06
305.201	391.06
305.431	376.06
305.661	397.06
305.891	391.06
306.121	377.06
306.352	389.06
306.582	414.06
306.812	411.06
307.042	398.06
307.272	387.06
307.502	381.06
307.731	394.06
307.961	383.06
308.191	381.06
308.421	385.06
308.651	380.06
308.881	388.06
309.111	380.06
309.341	416.06
309.571	407.06
309.8	406.06
310.03	425.06
310.26	405.06
310.49	405.06
310.72	431.06
310.949	423.06
311.179	415.06
311.409	425.06
311.639	416.06
311.868	417.06
312.098	414.06
312.328	414.06
312.557	429.06
312.787	414.06
313.017	434.06
313.246	441.06
313.476	431.06
313.706	423.06
313.935	424.06
314.165	427.06
314.394	429.06
314.624	455.06
314.853	421.06
315.083	426.06
315.312	430.06
315.542	435.06
315.771	416.06
316.001	405.06
316.23	423.06
316.46	433.06
316.689	423.06
316.919	421.06
317.148	453.06
317.377	430.06
317.607	435.06
317.836	432.06
318.065	432.06
318.295	409.06
318.524	434.06
318.753	425.06
318.983	448.06
319.212	405.06
319.441	430.06
319.67	417.06
319.9	427.06
320.129	429.06
320.358	435.06
320.587	434.06
320.816	429.06
321.046	435.06
321.275	433.06
321.504	444.06
321.733	439.06
321.962	444.06
322.191	436.06
322.42	452.06
322.649	456.06
322.878	468.06
323.108	443.06
323.337	486.06
323.566	465.06
323.795	478.06
324.024	496.06
324.253	536.06
324.482	695.06
324.71	943.06
324.939	1267.06
325.168	1159.06
325.397	692.06
325.626	563.06
325.855	525.06
326.084	509.06
326.313	486.06
326.542	510.06
326.77	519.06
326.999	558.06
327.228	648.06
327.457	883.06
327.686	1056.06
327.914	757.06
328.143	599.06
328.372	553.06
328.6	524.06
328.829	520.06
329.058	509.06
329.287	516.06
329.515	529.06
329.744	520.06
329.972	500.06
330.201	503.06
330.43	539.06
330.658	544.06
330.887	554.06
331.115	536.06
331.344	524.06
331.572	514.06
331.801	532.06
332.03	527.06
332.258	530.06
332.486	534.06
332.715	521.06
332.943	544.06
333.172	539.06
333.4	560.06
333.629	574.06
333.857	589.06
334.085	610.06
334.314	611.06
334.542	614.06
334.771	594.06
334.999	573.06
335.227	571.06
335.455	552.06
335.684	554.06
335.912	563.06
336.14	553.06
336.369	532.06
336.597	544.06
336.825	541.06
337.053	550.06
337.281	528.06
337.51	535.06
337.738	507.06
337.966	508.06
338.194	505.06
338.422	518.06
338.65	505.06
338.878	510.06
339.106	523.06
339.334	533.06
339.562	513.06
339.79	510.06
340.018	515.06
340.246	486.06
340.474	493.06
340.702	496.06
340.93	523.06
341.158	511.06
341.386	474.06
341.614	493.06
341.842	505.06
342.07	503.06
342.298	478.06
342.526	469.06
342.754	483.06
342.981	504.06
343.209	499.06
343.437	496.06
343.665	537.06
343.893	549.06
344.12	555.06
344.348	551.06
344.576	540.06
344.804	528.06
345.031	517.06
345.259	491.06
345.487	496.06
345.714	514.06
345.942	514.06
346.17	480.06
346.397	477.06
346.625	465.06
346.853	441.06
347.08	453.06
347.308	458.06
347.535	460.06
347.763	474.06
347.99	479.06
348.218	478.06
348.445	467.06
348.673	483.06
348.9	479.06
349.128	475.06
349.355	433.06
349.583	461.06
349.81	459.06
350.037	463.06
350.265	455.06
350.492	473.06
350.72	468.06
350.947	459.06
351.174	465.06
351.402	479.06
351.629	485.06
351.856	439.06
352.083	471.06
352.311	489.06
352.538	491.06
352.765	473.06
352.992	471.06
353.22	464.06
353.447	460.06
353.674	483.06
353.901	452.06
354.128	458.06
354.355	452.06
354.583	463.06
354.81	456.06
355.037	463.06
355.264	457.06
355.491	453.06
355.718	468.06
355.945	459.06
356.172	459.06
356.399	475.06
356.626	447.06
356.853	464.06
357.08	469.06
357.307	464.06
357.534	456.06
357.761	478.06
357.988	488.06
358.215	496.06
358.441	459.06
358.668	469.06
358.895	476.06
359.122	466.06
359.349	476.06
359.576	490.06
359.802	469.06
360.029	485.06
360.256	515.06
360.483	487.06
360.709	473.06
360.936	474.06
361.163	467.06
361.39	483.06
361.616	469.06
361.843	463.06
362.07	485.06
362.296	467.06
362.523	475.06
362.749	473.06
362.976	453.06
363.203	487.06
363.429	476.06
363.656	463.06
363.882	474.06
364.109	449.06
364.335	445.06
364.562	483.06
364.788	471.06
365.015	447.06
365.241	447.06
365.468	485.06
365.694	468.06
365.92	471.06
366.147	482.06
366.373	470.06
366.599	458.06
366.826	471.06
367.052	469.06
367.278	462.06
367.505	465.06
367.731	468.06
367.957	467.06
368.184	477.06
368.41	483.06
368.636	483.06
368.862	488.06
369.089	483.06
369.315	456.06
369.541	476.06
369.767	472.06
369.993	470.06
370.219	485.06
370.445	479.06
370.672	473.06
370.898	477.06
371.124	502.06
371.35	484.06
371.576	487.06
371.802	480.06
372.028	503.06
372.254	487.06
372.48	484.06
372.706	496.06
372.932	481.06
373.158	492.06
373.384	506.06
373.61	484.06
373.835	484.06
374.061	486.06
374.287	499.06
374.513	504.06
374.739	528.06
374.965	523.06
375.191	510.06
375.416	498.06
375.642	499.06
375.868	499.06
376.094	481.06
376.319	481.06
376.545	504.06
376.771	479.06
376.997	505.06
377.222	518.06
377.448	503.06
377.674	485.06
377.899	479.06
378.125	485.06
378.35	482.06
378.576	488.06
378.802	487.06
379.027	493.06
379.253	490.06
379.478	473.06
379.704	480.06
379.929	507.06
380.155	485.06
380.38	501.06
380.606	485.06
380.831	475.06
381.057	493.06
381.282	494.06
381.507	488.06
381.733	506.06
381.958	479.06
382.184	487.06
382.409	510.06
382.634	508.06
382.86	534.06
383.085	503.06
383.31	542.06
383.535	515.06
383.761	521.06
383.986	534.06
384.211	541.06
384.436	557.06
384.662	536.06
384.887	567.06
385.112	581.06
385.337	572.06
385.562	559.06
385.787	549.06
386.013	558.06
386.238	583.06
386.463	577.06
386.688	569.06
386.913	536.06
387.138	575.06
387.363	558.06
387.588	564.06
387.813	581.06
388.038	557.06
388.263	565.06
388.488	583.06
388.713	575.06
388.938	573.06
389.163	540.06
389.387	582.06
389.612	553.06
389.837	572.06
390.062	545.06
390.287	570.06
390.512	537.06
390.736	565.06
390.961	574.06
391.186	587.06
391.411	591.06
391.636	588.06
391.86	600.06
392.085	616.06
392.31	599.06
392.534	597.06
392.759	611.06
392.984	587.06
393.208	596.06
393.433	593.06
393.658	592.06
393.882	596.06
394.107	576.06
394.331	569.06
394.556	593.06
394.78	589.06
395.005	576.06
395.229	603.06
395.454	623.06
395.678	628.06
395.903	627.06
396.127	629.06
396.352	636.06
396.576	568.06
396.801	604.06
397.025	620.06
397.249	599.06
397.474	614.06
397.698	628.06
397.922	619.06
398.147	611.06
398.371	631.06
398.595	658.06
398.82	658.06
399.044	708.06
399.268	748.06
399.492	821.06
399.717	901.06
399.941	908.06
400.165	863.06
400.389	831.06
400.613	769.06
400.837	723.06
401.062	717.06
401.286	672.06
401.51	684.06
401.734	659.06
401.958	703.06
402.182	689.06
402.406	676.06
402.63	696.06
402.854	689.06
403.078	712.06
403.302	717.06
403.526	704.06
403.75	741.06
403.974	737.06
404.198	733.06
404.422	770.06
404.645	733.06
404.869	737.06
405.093	760.06
405.317	781.06
405.541	797.06
405.765	755.06
405.988	730.06
406.212	735.06
406.436	740.06
406.66	739.06
406.883	733.06
407.107	793.06
407.331	830.06
407.555	865.06
407.778	893.06
408.002	839.06
408.226	785.06
408.449	795.06
408.673	757.06
408.896	789.06
409.12	821.06
409.344	749.06
409.567	710.06
409.791	735.06
410.014	712.06
410.238	723.06
410.461	704.06
410.685	709.06
410.908	698.06
411.132	719.06
411.355	755.06
411.578	738.06
411.802	692.06
412.025	687.06
412.249	709.06
412.472	718.06
412.695	737.06
412.919	704.06
413.142	696.06
413.365	707.06
413.589	672.06
413.812	702.06
414.035	648.06
414.258	675.06
414.482	682.06
414.705	703.06
414.928	649.06
415.151	653.06
415.374	676.06
415.597	665.06
415.821	654.06
416.044	654.06
416.267	659.06
416.49	657.06
416.713	660.06
416.936	660.06
417.159	629.06
417.382	665.06
417.605	667.06
417.828	657.06
418.051	665.06
418.274	666.06
418.497	667.06
418.72	655.06
418.943	668.06
419.166	695.06
419.389	725.06
419.611	735.06
419.834	719.06
420.057	702.06
420.28	675.06
420.503	657.06
420.726	661.06
420.948	684.06
421.171	705.06
421.394	727.06
421.617	698.06
421.839	657.06
422.062	691.06
422.285	685.06
422.507	714.06
422.73	753.06
422.953	745.06
423.175	702.06
423.398	724.06
423.621	688.06
423.843	720.06
424.066	710.06
424.288	723.06
424.511	737.06
424.733	759.06
424.956	811.06
425.178	789.06
425.401	764.06
425.623	768.06
425.846	695.06
426.068	701.06
426.291	683.06
426.513	673.06
426.735	643.06
426.958	712.06
427.18	727.06
427.402	805.06
427.625	841.06
427.847	776.06
428.069	715.06
428.292	672.06
428.514	638.06
428.736	644.06
428.958	634.06
429.181	631.06
429.403	596.06
429.625	631.06
429.847	638.06
430.069	675.06
430.292	673.06
430.514	635.06
430.736	606.06
430.958	609.06
431.18	620.06
431.402	600.06
431.624	619.06
431.846	611.06
432.068	626.06
432.29	646.06
432.512	613.06
432.734	615.06
432.956	633.06
433.178	645.06
433.4	619.06
433.622	599.06
433.844	594.06
434.066	599.06
434.287	638.06
434.509	649.06
434.731	648.06
434.953	660.06
435.175	659.06
435.397	699.06
435.618	676.06
435.84	705.06
436.062	725.06
436.284	764.06
436.505	681.06
436.727	649.06
436.949	611.06
437.17	644.06
437.392	628.06
437.614	624.06
437.835	664.06
438.057	715.06
438.278	724.06
438.5	747.06
438.721	784.06
438.943	789.06
439.165	659.06
439.386	663.06
439.608	636.06
439.829	635.06
440.05	655.06
440.272	679.06
440.493	649.06
440.715	652.06
440.936	644.06
441.158	667.06
441.379	659.06
441.6	702.06
441.822	699.06
442.043	687.06
442.264	741.06
442.486	757.06
442.707	674.06
442.928	686.06
443.149	669.06
443.371	714.06
443.592	737.06
443.813	805.06
444.034	803.06
444.255	774.06
444.476	738.06
444.698	761.06
444.919	747.06
445.14	871.06
445.361	799.06
445.582	748.06
445.803	759.06
446.024	787.06
446.245	778.06
446.466	707.06
446.687	671.06
446.908	645.06
447.129	612.06
447.35	617.06
447.571	626.06
447.792	614.06
448.013	616.06
448.234	641.06
448.455	620.06
448.675	695.06
448.896	775.06
449.117	691.06
449.338	668.06
449.559	729.06
449.779	787.06
450	673.06
450.221	637.06
450.442	618.06
450.662	585.06
450.883	571.06
451.104	598.06
451.324	596.06
451.545	594.06
451.766	577.06
451.986	581.06
452.207	560.06
452.428	558.06
452.648	556.06
452.869	547.06
453.089	567.06
453.31	571.06
453.53	573.06
453.751	564.06
453.971	525.06
454.192	563.06
454.412	545.06
454.633	566.06
454.853	546.06
455.073	536.06
455.294	575.06
455.514	595.06
455.734	580.06
455.955	560.06
456.175	537.06
456.395	559.06
456.616	531.06
456.836	550.06
457.056	525.06
457.276	519.06
457.497	530.06
457.717	535.06
457.937	549.06
458.157	549.06
458.377	540.06
458.598	557.06
458.818	591.06
459.038	632.06
459.258	680.06
459.478	646.06
459.698	599.06
459.918	627.06
460.138	638.06
460.358	643.06
460.578	683.06
460.798	668.06
461.018	697.06
461.238	679.06
461.458	662.06
461.678	678.06
461.898	692.06
462.118	699.06
462.338	716.06
462.558	727.06
462.777	770.06
462.997	794.06
463.217	817.06
463.437	813.06
463.657	775.06
463.876	755.06
464.096	761.06
464.316	759.06
464.536	782.06
464.755	765.06
464.975	716.06
465.195	731.06
465.414	741.06
465.634	681.06
465.854	661.06
466.073	625.06
466.293	604.06
466.512	625.06
466.732	586.06
466.951	587.06
467.171	578.06
467.391	585.06
467.61	597.06
467.829	601.06
468.049	566.06
468.268	565.06
468.488	597.06
468.707	576.06
468.927	548.06
469.146	565.06
469.365	578.06
469.585	571.06
469.804	597.06
470.023	605.06
470.243	598.06
470.462	613.06
470.681	605.06
470.901	622.06
471.12	613.06
471.339	591.06
471.558	593.06
471.777	581.06
471.997	585.06
472.216	591.06
472.435	624.06
472.654	606.06
472.873	587.06
473.092	571.06
473.311	580.06
473.53	582.06
473.749	580.06
473.968	602.06
474.187	654.06
474.406	653.06
474.625	600.06
474.844	592.06
475.063	561.06
475.282	584.06
475.501	583.06
475.72	589.06
475.939	592.06
476.158	582.06
476.377	622.06
476.596	606.06
476.814	610.06
477.033	605.06
477.252	631.06
477.471	633.06
477.69	637.06
477.908	670.06
478.127	675.06
478.346	650.06
478.564	686.06
478.783	694.06
479.002	694.06
479.22	742.06
479.439	720.06
479.658	687.06
479.876	719.06
480.095	734.06
480.313	741.06
480.532	751.06
480.751	744.06
480.969	760.06
481.188	765.06
481.406	757.06
481.624	741.06
481.843	708.06
482.061	670.06
482.28	711.06
482.498	667.06
482.717	687.06
482.935	675.06
483.153	688.06
483.372	656.06
483.59	667.06
483.808	677.06
484.027	660.06
484.245	696.06
484.463	692.06
484.681	699.06
484.9	703.06
485.118	719.06
485.336	681.06
485.554	715.06
485.772	707.06
485.99	714.06
486.209	707.06
486.427	751.06
486.645	703.06
486.863	723.06
487.081	707.06
487.299	698.06
487.517	732.06
487.735	694.06
487.953	721.06
488.171	729.06
488.389	723.06
488.607	721.06
488.825	691.06
489.043	713.06
489.261	713.06
489.479	728.06
489.696	736.06
489.914	729.06
490.132	744.06
490.35	748.06
490.568	733.06
490.786	763.06
491.003	750.06
491.221	774.06
491.439	765.06
491.657	789.06
491.874	771.06
492.092	769.06
492.31	741.06
492.527	769.06
492.745	799.06
492.963	814.06
493.18	805.06
493.398	807.06
493.615	796.06
493.833	796.06
494.05	794.06
494.268	828.06
494.485	824.06
494.703	806.06
494.92	783.06
495.138	802.06
495.355	806.06
495.573	835.06
495.79	847.06
496.008	820.06
496.225	804.06
496.442	827.06
496.66	843.06
496.877	845.06
497.094	866.06
497.312	891.06
497.529	875.06
497.746	901.06
497.963	923.06
498.181	971.06
498.398	990.06
498.615	1004.06
498.832	1030.06
499.049	1114.06
499.267	1136.06
499.484	1246.06
499.701	1308.06
499.918	1404.06
500.135	1545.06
500.352	1676.06
500.569	1731.06
500.786	1728.06
501.003	1630.06
501.22	1512.06
501.437	1447.06
501.654	1303.06
501.871	1253.06
502.088	1166.06
502.305	1105.06
502.522	1029.06
502.739	1025.06
502.956	972.06
503.172	935.06
503.389	924.06
503.606	898.06
503.823	887.06
504.04	899.06
504.256	910.06
504.473	892.06
504.69	923.06
504.907	876.06
505.123	859.06
505.34	823.06
505.557	837.06
505.773	777.06
505.99	797.06
506.207	796.06
506.423	761.06
506.64	758.06
506.856	719.06
507.073	752.06
507.289	747.06
507.506	747.06
507.722	766.06
507.939	773.06
508.155	721.06
508.372	726.06
508.588	727.06
508.805	696.06
509.021	701.06
509.238	707.06
509.454	739.06
509.67	718.06
509.887	707.06
510.103	705.06
510.319	697.06
510.536	727.06
510.752	992.06
510.968	895.06
511.184	688.06
511.401	685.06
511.617	683.06
511.833	694.06
512.049	687.06
512.265	671.06
512.481	662.06
512.698	679.06
512.914	678.06
513.13	662.06
513.346	685.06
513.562	670.06
513.778	681.06
513.994	684.06
514.21	656.06
514.426	695.06
514.642	720.06
514.858	716.06
515.074	737.06
515.29	796.06
515.506	986.06
515.721	915.06
515.937	784.06
516.153	737.06
516.369	738.06
516.585	778.06
516.801	783.06
517.016	780.06
517.232	806.06
517.448	834.06
517.664	825.06
517.879	833.06
518.095	853.06
518.311	832.06
518.527	807.06
518.742	786.06
518.958	763.06
519.173	736.06
519.389	726.06
519.605	701.06
519.82	701.06
520.036	744.06
520.251	709.06
520.467	684.06
520.682	697.06
520.898	700.06
521.113	689.06
521.329	701.06
521.544	744.06
521.76	804.06
521.975	1121.06
522.19	1152.06
522.406	804.06
522.621	653.06
522.836	661.06
523.052	638.06
523.267	619.06
523.482	612.06
523.698	619.06
523.913	597.06
524.128	615.06
524.343	616.06
524.559	600.06
524.774	605.06
524.989	628.06
525.204	610.06
525.419	623.06
525.634	608.06
525.849	607.06
526.064	601.06
526.28	589.06
526.495	604.06
526.71	584.06
526.925	613.06
527.14	627.06
527.355	569.06
527.57	606.06
527.785	595.06
527.999	597.06
528.214	587.06
528.429	593.06
528.644	588.06
528.859	579.06
529.074	587.06
529.289	601.06
529.503	628.06
529.718	604.06
529.933	588.06
530.148	599.06
530.363	601.06
530.577	596.06
530.792	584.06
531.007	587.06
531.221	594.06
531.436	590.06
531.651	581.06
531.865	572.06
532.08	587.06
532.295	615.06
532.509	585.06
532.724	591.06
532.938	576.06
533.153	571.06
533.367	563.06
533.582	582.06
533.796	562.06
534.011	600.06
534.225	565.06
534.44	580.06
534.654	551.06
534.868	569.06
535.083	554.06
535.297	586.06
535.511	574.06
535.726	564.06
535.94	576.06
536.154	584.06
536.369	575.06
536.583	529.06
536.797	538.06
537.011	556.06
537.225	543.06
537.44	556.06
537.654	529.06
537.868	567.06
538.082	538.06
538.296	556.06
538.51	529.06
538.724	548.06
538.938	568.06
539.153	547.06
539.367	549.06
539.581	556.06
539.795	560.06
540.009	531.06
540.222	547.06
540.436	566.06
540.65	536.06
540.864	526.06
541.078	541.06
541.292	568.06
541.506	525.06
541.72	544.06
541.934	533.06
542.147	530.06
542.361	520.06
542.575	545.06
542.789	527.06
543.002	524.06
543.216	534.06
543.43	537.06
543.644	555.06
543.857	553.06
544.071	547.06
544.285	526.06
544.498	533.06
544.712	541.06
544.925	528.06
545.139	517.06
545.352	552.06
545.566	567.06
545.779	570.06
545.993	549.06
546.206	556.06
546.42	544.06
546.633	562.06
546.847	519.06
547.06	505.06
547.274	538.06
547.487	553.06
547.7	526.06
547.914	537.06
548.127	540.06
548.34	536.06
548.554	560.06
548.767	560.06
548.98	548.06
549.193	548.06
549.407	551.06
549.62	553.06
549.833	543.06
550.046	548.06
550.259	535.06
550.473	540.06
550.686	543.06
550.899	535.06
551.112	539.06
551.325	536.06
551.538	527.06
551.751	546.06
551.964	527.06
552.177	549.06
552.39	545.06
552.603	541.06
552.816	584.06
553.029	573.06
553.242	586.06
553.455	601.06
553.667	606.06
553.88	597.06
554.093	577.06
554.306	579.06
554.519	563.06
554.732	543.06
554.944	573.06
555.157	552.06
555.37	530.06
555.583	524.06
555.795	520.06
556.008	511.06
556.221	527.06
556.433	491.06
556.646	489.06
556.859	484.06
557.071	481.06
557.284	499.06
557.496	484.06
557.709	486.06
557.921	464.06
558.134	491.06
558.346	468.06
558.559	480.06
558.771	476.06
558.984	489.06
559.196	475.06
559.409	479.06
559.621	495.06
559.833	459.06
560.046	476.06
560.258	477.06
560.47	484.06
560.683	495.06
560.895	471.06
561.107	460.06
561.32	457.06
561.532	485.06
561.744	469.06
561.956	468.06
562.168	464.06
562.381	463.06
562.593	461.06
562.805	488.06
563.017	476.06
563.229	480.06
563.441	473.06
563.653	486.06
563.865	503.06
564.077	513.06
564.289	488.06
564.501	508.06
564.713	507.06
564.925	515.06
565.137	527.06
565.349	522.06
565.561	554.06
565.773	557.06
565.985	560.06
566.197	590.06
566.408	625.06
566.62	661.06
566.832	711.06
567.044	686.06
567.255	723.06
567.467	741.06
567.679	749.06
567.891	788.06
568.102	793.06
568.314	780.06
568.526	703.06
568.737	672.06
568.949	628.06
569.161	605.06
569.372	569.06
569.584	534.06
569.795	542.06
570.007	531.06
570.218	509.06
570.43	510.06
570.641	510.06
570.853	491.06
571.064	490.06
571.276	509.06
571.487	505.06
571.698	459.06
571.91	460.06
572.121	466.06
572.333	433.06
572.544	453.06
572.755	448.06
572.966	418.06
573.178	423.06
573.389	431.06
573.6	415.06
573.811	423.06
574.023	428.06
574.234	407.06
574.445	420.06
574.656	389.06
574.867	406.06
575.078	423.06
575.289	419.06
575.501	405.06
575.712	429.06
575.923	412.06
576.134	398.06
576.345	387.06
576.556	407.06
576.767	408.06
576.978	389.06
577.188	396.06
577.399	417.06
577.61	407.06
577.821	385.06
578.032	390.06
578.243	413.06
578.454	499.06
578.665	425.06
578.875	387.06
579.086	376.06
579.297	388.06
579.508	365.06
579.718	378.06
579.929	383.06
580.14	369.06
580.35	385.06
580.561	375.06
580.772	375.06
580.982	380.06
581.193	367.06
581.403	365.06
581.614	384.06
581.825	368.06
582.035	375.06
582.246	363.06
582.456	379.06
582.667	363.06
582.877	365.06
583.087	361.06
583.298	360.06
583.508	375.06
583.719	377.06
583.929	364.06
584.139	379.06
584.35	358.06
584.56	378.06
584.77	378.06
584.981	372.06
585.191	363.06
585.401	354.06
585.611	342.06
585.821	360.06
586.032	379.06
586.242	346.06
586.452	374.06
586.662	365.06
586.872	354.06
587.082	351.06
587.292	364.06
587.502	362.06
587.713	348.06
587.923	363.06
588.133	361.06
588.343	362.06
588.553	350.06
588.762	369.06
588.972	353.06
589.182	361.06
589.392	365.06
589.602	367.06
589.812	342.06
590.022	387.06
590.232	358.06
590.441	369.06
590.651	352.06
590.861	361.06
591.071	360.06
591.281	363.06
591.49	373.06
591.7	376.06
591.91	406.06
592.119	380.06
592.329	382.06
592.539	416.06
592.748	410.06
592.958	419.06
593.167	429.06
593.377	430.06
593.587	439.06
593.796	411.06
594.006	433.06
594.215	420.06
594.424	443.06
594.634	439.06
594.843	428.06
595.053	406.06
595.262	400.06
595.472	385.06
595.681	384.06
595.89	382.06
596.1	376.06
596.309	379.06
596.518	358.06
596.727	353.06
596.937	345.06
597.146	341.06
597.355	323.06
597.564	311.06
597.774	339.06
597.983	337.06
598.192	343.06
598.401	336.06
598.61	331.06
598.819	343.06
599.028	340.06
599.237	337.06
599.446	331.06
599.655	315.06
599.864	311.06
600.073	323.06
600.282	316.06
600.491	316.06
600.7	309.06
600.909	309.06
601.118	319.06
601.327	316.06
601.536	315.06
601.745	301.06
601.953	305.06
602.162	294.06
602.371	315.06
602.58	296.06
602.789	307.06
602.997	292.06
603.206	311.06
603.415	290.06
603.623	300.06
603.832	297.06
604.041	299.06
604.249	276.06
604.458	300.06
604.666	287.06
604.875	297.06
605.084	315.06
605.292	290.06
605.501	295.06
605.709	287.06
605.918	281.06
606.126	288.06
606.334	280.06
606.543	278.06
606.751	297.06
606.96	314.06
607.168	289.06
607.376	294.06
607.585	280.06
607.793	267.06
608.001	279.06
608.21	279.06
608.418	297.06
608.626	292.06
608.834	286.06
609.043	293.06
609.251	278.06
609.459	311.06
609.667	304.06
609.875	274.06
610.083	277.06
610.291	297.06
610.499	285.06
610.707	284.06
610.916	286.06
611.124	292.06
611.332	285.06
611.54	276.06
611.748	289.06
611.955	276.06
612.163	304.06
612.371	295.06
612.579	284.06
612.787	283.06
612.995	288.06
613.203	289.06
613.411	290.06
613.618	292.06
613.826	298.06
614.034	285.06
614.242	280.06
614.449	294.06
614.657	281.06
614.865	278.06
615.072	273.06
615.28	273.06
615.488	272.06
615.695	284.06
615.903	291.06
616.111	274.06
616.318	298.06
616.526	267.06
616.733	271.06
616.941	276.06
617.148	273.06
617.356	283.06
617.563	287.06
617.771	284.06
617.978	285.06
618.185	291.06
618.393	266.06
618.6	274.06
618.807	262.06
619.015	272.06
619.222	279.06
619.429	270.06
619.637	266.06
619.844	253.06
620.051	275.06
620.258	275.06
620.466	264.06
620.673	267.06
620.88	261.06
621.087	264.06
621.294	248.06
621.501	265.06
621.708	257.06
621.915	249.06
622.122	256.06
622.329	267.06
622.536	271.06
622.743	240.06
622.95	280.06
623.157	263.06
623.364	261.06
623.571	273.06
623.778	261.06
623.985	247.06
624.192	245.06
624.399	249.06
624.606	259.06
624.812	259.06
625.019	250.06
625.226	240.06
625.433	247.06
625.639	224.06
625.846	245.06
626.053	232.06
626.259	252.06
626.466	257.06
626.673	237.06
626.879	251.06
627.086	255.06
627.293	244.06
627.499	239.06
627.706	245.06
627.912	238.06
628.119	226.06
628.325	241.06
628.532	238.06
628.738	241.06
628.945	229.06
629.151	233.06
629.357	247.06
629.564	235.06
629.77	223.06
629.976	233.06
630.183	238.06
630.389	217.06
630.595	226.06
630.802	224.06
631.008	220.06
631.214	217.06
631.42	231.06
631.627	235.06
631.833	234.06
632.039	224.06
632.245	215.06
632.451	223.06
632.657	219.06
632.863	214.06
633.069	211.06
633.275	226.06
633.481	207.06
633.688	217.06
633.893	208.06
634.099	236.06
634.305	208.06
634.511	214.06
634.717	212.06
634.923	205.06
635.129	203.06
635.335	211.06
635.541	200.06
635.747	203.06
635.952	231.06
636.158	211.06
636.364	207.06
636.57	231.06
636.775	200.06
636.981	215.06
637.187	206.06
637.392	201.06
637.598	199.06
637.804	215.06
638.009	208.06
638.215	201.06
638.421	204.06
638.626	209.06
638.832	199.06
639.037	192.06
639.243	215.06
639.448	203.06
639.654	204.06
639.859	188.06
640.065	188.06
640.27	210.06
640.475	202.06
640.681	201.06
640.886	188.06
641.091	204.06
641.297	206.06
641.502	209.06
641.707	198.06
641.913	194.06
642.118	186.06
642.323	192.06
642.528	198.06
642.733	197.06
642.939	192.06
643.144	198.06
643.349	197.06
643.554	194.06
643.759	186.06
643.964	199.06
644.169	200.06
644.374	195.06
644.579	192.06
644.784	202.06
644.989	190.06
645.194	201.06
645.399	189.06
645.604	169.06
645.809	185.06
646.014	209.06
646.219	192.06
646.423	182.06
646.628	192.06
646.833	186.06
647.038	182.06
647.243	191.06
647.447	193.06
647.652	208.06
647.857	210.06
648.062	202.06
648.266	195.06
648.471	188.06
648.676	202.06
648.88	202.06
649.085	194.06
649.289	194.06
649.494	195.06
649.698	188.06
649.903	196.06
650.107	172.06
650.312	179.06
650.516	167.06
650.721	172.06
650.925	185.06
651.13	184.06
651.334	173.06
651.539	169.06
651.743	171.06
651.947	168.06
652.152	167.06
652.356	170.06
652.56	152.06
652.764	157.06
652.969	166.06
653.173	161.06
653.377	169.06
653.581	156.06
653.785	158.06
653.99	161.06
654.194	153.06
654.398	161.06
654.602	154.06
654.806	155.06
655.01	160.06
655.214	155.06
655.418	142.06
655.622	157.06
655.826	143.06
656.03	152.06
656.234	151.06
656.438	157.06
656.642	158.06
656.846	153.06
657.049	158.06
657.253	148.06
657.457	143.06
657.661	123.06
657.865	123.06
658.068	121.06
658.272	121.06
658.476	118.06
658.68	116.06
658.883	119.06
659.087	120.06
659.291	115.06
659.494	113.06
659.698	108.06
659.901	95.06
660.105	106.06
660.309	102.06
660.512	106.06
660.716	102.06
660.919	100.06
661.123	98.06
661.326	107.06
661.53	98.06
661.733	93.06
661.936	99.06
662.14	94.06
662.343	96.06
662.546	100.06
662.75	87.06
662.953	95.06
663.156	96.06
663.36	88.06
663.563	99.06
663.766	85.06
663.969	88.06
664.173	89.06
664.376	71.06
664.579	80.06
664.782	82.06
664.985	90.06
665.188	97.06
665.391	89.06
665.594	73.06
665.797	93.06
666	96.06
666.203	80.06
666.406	84.06
666.609	87.06
666.812	100.06
667.015	92.06
667.218	89.06
667.421	87.06
667.624	77.06
667.827	85.06
668.03	87.06
668.232	94.06
668.435	83.06
668.638	86.06
668.841	95.06
669.043	91.06
669.246	71.06
669.449	80.06
669.651	101.06
669.854	92.06
670.057	94.06
670.259	81.06
670.462	73.06
670.665	84.06
670.867	94.06
671.07	86.06
671.272	84.06
671.475	89.06
671.677	77.06
671.88	88.06
672.082	79.06
672.284	74.06
672.487	92.06
672.689	69.06
672.892	76.06
