Data from 1963.PennyLincolnUp.Lamp.En5.5.200Scan.071719.P1._HRD10591_13-59-20-063.txt Node
Date: Thu Jul 18 13:59:20 EDT 2019
User: cochatt
Spectrometer: HR+D1059
Trigger mode: 1
Integration Time (sec): 1.000000E-1
Scans to average: 1
Electric dark correction enabled: true
Nonlinearity correction enabled: false
Boxcar width: 0
XAxis mode: Wavelengths
Number of Pixels in Spectrum: 2048
>>>>>Begin Spectral Data<<<<<
223.165	-11.31
223.4	-11.31
223.635	-11.31
223.869	-30.31
224.104	-24.31
224.338	-7.31
224.573	-22.31
224.808	-17.31
225.042	-3.31
225.277	-1.31
225.511	-0.31
225.746	19.69
225.98	-1.31
226.215	16.69
226.449	18.69
226.683	13.69
226.918	18.69
227.152	31.69
227.387	39.69
227.621	49.69
227.856	52.69
228.09	36.69
228.324	49.69
228.559	55.69
228.793	63.69
229.027	102.69
229.262	101.69
229.496	123.69
229.73	132.69
229.964	161.69
230.199	122.69
230.433	117.69
230.667	138.69
230.901	111.69
231.136	116.69
231.37	128.69
231.604	118.69
231.838	131.69
232.072	124.69
232.306	106.69
232.541	134.69
232.775	113.69
233.009	116.69
233.243	124.69
233.477	131.69
233.711	124.69
233.945	136.69
234.179	122.69
234.413	137.69
234.647	132.69
234.881	113.69
235.115	136.69
235.349	138.69
235.583	118.69
235.817	133.69
236.051	139.69
236.285	151.69
236.519	148.69
236.753	120.69
236.987	152.69
237.221	170.69
237.455	224.69
237.689	196.69
237.922	160.69
238.156	133.69
238.39	126.69
238.624	140.69
238.858	144.69
239.091	137.69
239.325	152.69
239.559	142.69
239.793	137.69
240.027	141.69
240.26	177.69
240.494	164.69
240.728	174.69
240.961	158.69
241.195	162.69
241.429	157.69
241.662	166.69
241.896	153.69
242.13	164.69
242.363	147.69
242.597	150.69
242.83	155.69
243.064	176.69
243.298	173.69
243.531	168.69
243.765	164.69
243.998	140.69
244.232	160.69
244.465	162.69
244.699	162.69
244.932	166.69
245.166	182.69
245.399	169.69
245.633	182.69
245.866	173.69
246.099	181.69
246.333	167.69
246.566	177.69
246.8	174.69
247.033	166.69
247.266	188.69
247.5	188.69
247.733	200.69
247.966	188.69
248.2	191.69
248.433	196.69
248.666	202.69
248.899	206.69
249.133	198.69
249.366	215.69
249.599	207.69
249.832	206.69
250.066	197.69
250.299	200.69
250.532	213.69
250.765	223.69
250.998	228.69
251.231	243.69
251.465	231.69
251.698	228.69
251.931	240.69
252.164	219.69
252.397	223.69
252.63	210.69
252.863	240.69
253.096	239.69
253.329	237.69
253.562	241.69
253.795	237.69
254.028	248.69
254.261	230.69
254.494	242.69
254.727	260.69
254.96	283.69
255.193	290.69
255.426	260.69
255.659	246.69
255.892	237.69
256.124	235.69
256.357	260.69
256.59	230.69
256.823	258.69
257.056	247.69
257.289	249.69
257.521	236.69
257.754	225.69
257.987	231.69
258.22	229.69
258.452	246.69
258.685	246.69
258.918	231.69
259.151	250.69
259.383	257.69
259.616	260.69
259.849	254.69
260.081	245.69
260.314	275.69
260.547	264.69
260.779	281.69
261.012	262.69
261.244	270.69
261.477	261.69
261.71	260.69
261.942	233.69
262.175	268.69
262.407	270.69
262.64	255.69
262.872	228.69
263.105	240.69
263.337	240.69
263.57	247.69
263.802	238.69
264.035	232.69
264.267	250.69
264.499	247.69
264.732	253.69
264.964	246.69
265.197	256.69
265.429	248.69
265.661	248.69
265.894	248.69
266.126	267.69
266.358	270.69
266.591	246.69
266.823	272.69
267.055	234.69
267.287	268.69
267.52	254.69
267.752	249.69
267.984	249.69
268.216	284.69
268.448	292.69
268.681	280.69
268.913	289.69
269.145	294.69
269.377	326.69
269.609	327.69
269.841	306.69
270.073	308.69
270.306	314.69
270.538	329.69
270.77	342.69
271.002	314.69
271.234	317.69
271.466	317.69
271.698	334.69
271.93	341.69
272.162	347.69
272.394	338.69
272.626	334.69
272.858	329.69
273.09	318.69
273.322	309.69
273.553	310.69
273.785	303.69
274.017	306.69
274.249	319.69
274.481	297.69
274.713	312.69
274.945	312.69
275.176	303.69
275.408	305.69
275.64	312.69
275.872	301.69
276.104	305.69
276.335	309.69
276.567	318.69
276.799	329.69
277.031	349.69
277.262	356.69
277.494	365.69
277.726	345.69
277.957	340.69
278.189	334.69
278.421	320.69
278.652	342.69
278.884	328.69
279.115	313.69
279.347	304.69
279.579	300.69
279.81	315.69
280.042	305.69
280.273	314.69
280.505	314.69
280.736	321.69
280.968	327.69
281.199	343.69
281.431	342.69
281.662	343.69
281.894	341.69
282.125	338.69
282.356	346.69
282.588	354.69
282.819	355.69
283.051	341.69
283.282	356.69
283.513	352.69
283.745	355.69
283.976	328.69
284.207	367.69
284.439	366.69
284.67	362.69
284.901	354.69
285.132	366.69
285.364	335.69
285.595	348.69
285.826	354.69
286.057	358.69
286.288	356.69
286.52	342.69
286.751	376.69
286.982	352.69
287.213	341.69
287.444	364.69
287.675	346.69
287.906	381.69
288.138	380.69
288.369	369.69
288.6	378.69
288.831	376.69
289.062	376.69
289.293	368.69
289.524	358.69
289.755	377.69
289.986	382.69
290.217	364.69
290.448	357.69
290.679	367.69
290.91	359.69
291.141	357.69
291.371	382.69
291.602	407.69
291.833	358.69
292.064	377.69
292.295	364.69
292.526	364.69
292.757	404.69
292.987	357.69
293.218	374.69
293.449	382.69
293.68	400.69
293.91	367.69
294.141	373.69
294.372	372.69
294.603	398.69
294.833	370.69
295.064	386.69
295.295	382.69
295.525	371.69
295.756	386.69
295.987	383.69
296.217	388.69
296.448	402.69
296.679	399.69
296.909	390.69
297.14	394.69
297.37	389.69
297.601	400.69
297.831	376.69
298.062	395.69
298.292	398.69
298.523	406.69
298.753	394.69
298.984	412.69
299.214	406.69
299.445	386.69
299.675	410.69
299.905	411.69
300.136	417.69
300.366	405.69
300.597	409.69
300.827	405.69
301.057	403.69
301.288	431.69
301.518	421.69
301.748	429.69
301.979	440.69
302.209	417.69
302.439	434.69
302.669	416.69
302.9	404.69
303.13	420.69
303.36	419.69
303.59	426.69
303.82	425.69
304.051	437.69
304.281	410.69
304.511	420.69
304.741	416.69
304.971	434.69
305.201	420.69
305.431	402.69
305.661	418.69
305.891	430.69
306.121	425.69
306.352	438.69
306.582	437.69
306.812	425.69
307.042	414.69
307.272	424.69
307.502	423.69
307.731	409.69
307.961	417.69
308.191	409.69
308.421	448.69
308.651	406.69
308.881	445.69
309.111	426.69
309.341	432.69
309.571	439.69
309.8	434.69
310.03	458.69
310.26	434.69
310.49	451.69
310.72	441.69
310.949	457.69
311.179	472.69
311.409	472.69
311.639	451.69
311.868	448.69
312.098	476.69
312.328	475.69
312.557	465.69
312.787	461.69
313.017	468.69
313.246	484.69
313.476	472.69
313.706	463.69
313.935	474.69
314.165	465.69
314.394	493.69
314.624	472.69
314.853	466.69
315.083	465.69
315.312	459.69
315.542	480.69
315.771	451.69
316.001	475.69
316.23	492.69
316.46	466.69
316.689	463.69
316.919	480.69
317.148	466.69
317.377	485.69
317.607	465.69
317.836	465.69
318.065	476.69
318.295	455.69
318.524	468.69
318.753	478.69
318.983	465.69
319.212	474.69
319.441	452.69
319.67	474.69
319.9	448.69
320.129	473.69
320.358	472.69
320.587	440.69
320.816	459.69
321.046	473.69
321.275	482.69
321.504	486.69
321.733	480.69
321.962	500.69
322.191	491.69
322.42	502.69
322.649	495.69
322.878	520.69
323.108	511.69
323.337	528.69
323.566	537.69
323.795	562.69
324.024	621.69
324.253	674.69
324.482	832.69
324.71	1244.69
324.939	1723.69
325.168	1528.69
325.397	872.69
325.626	634.69
325.855	608.69
326.084	588.69
326.313	559.69
326.542	573.69
326.77	594.69
326.999	652.69
327.228	812.69
327.457	1122.69
327.686	1394.69
327.914	945.69
328.143	694.69
328.372	621.69
328.6	644.69
328.829	593.69
329.058	587.69
329.287	617.69
329.515	610.69
329.744	594.69
329.972	569.69
330.201	632.69
330.43	605.69
330.658	621.69
330.887	646.69
331.115	660.69
331.344	608.69
331.572	593.69
331.801	605.69
332.03	604.69
332.258	592.69
332.486	584.69
332.715	594.69
332.943	594.69
333.172	606.69
333.4	620.69
333.629	612.69
333.857	642.69
334.085	658.69
334.314	667.69
334.542	682.69
334.771	689.69
334.999	654.69
335.227	637.69
335.455	632.69
335.684	606.69
335.912	600.69
336.14	592.69
336.369	577.69
336.597	581.69
336.825	589.69
337.053	574.69
337.281	592.69
337.51	588.69
337.738	582.69
337.966	557.69
338.194	582.69
338.422	538.69
338.65	552.69
338.878	582.69
339.106	556.69
339.334	549.69
339.562	544.69
339.79	555.69
340.018	551.69
340.246	543.69
340.474	561.69
340.702	526.69
340.93	526.69
341.158	545.69
341.386	554.69
341.614	543.69
341.842	536.69
342.07	508.69
342.298	534.69
342.526	533.69
342.754	551.69
342.981	534.69
343.209	543.69
343.437	553.69
343.665	585.69
343.893	596.69
344.12	613.69
344.348	586.69
344.576	567.69
344.804	590.69
345.031	582.69
345.259	556.69
345.487	530.69
345.714	551.69
345.942	532.69
346.17	536.69
346.397	505.69
346.625	520.69
346.853	528.69
347.08	523.69
347.308	524.69
347.535	543.69
347.763	520.69
347.99	521.69
348.218	534.69
348.445	530.69
348.673	507.69
348.9	516.69
349.128	516.69
349.355	506.69
349.583	504.69
349.81	512.69
350.037	516.69
350.265	522.69
350.492	517.69
350.72	514.69
350.947	513.69
351.174	509.69
351.402	532.69
351.629	505.69
351.856	537.69
352.083	527.69
352.311	530.69
352.538	512.69
352.765	522.69
352.992	521.69
353.22	523.69
353.447	514.69
353.674	481.69
353.901	491.69
354.128	485.69
354.355	486.69
354.583	508.69
354.81	506.69
355.037	485.69
355.264	495.69
355.491	517.69
355.718	500.69
355.945	502.69
356.172	498.69
356.399	509.69
356.626	489.69
356.853	509.69
357.08	485.69
357.307	494.69
357.534	479.69
357.761	489.69
357.988	500.69
358.215	502.69
358.441	511.69
358.668	518.69
358.895	493.69
359.122	500.69
359.349	529.69
359.576	526.69
359.802	545.69
360.029	548.69
360.256	569.69
360.483	566.69
360.709	510.69
360.936	522.69
361.163	520.69
361.39	522.69
361.616	519.69
361.843	536.69
362.07	534.69
362.296	530.69
362.523	507.69
362.749	504.69
362.976	519.69
363.203	506.69
363.429	517.69
363.656	513.69
363.882	498.69
364.109	510.69
364.335	505.69
364.562	492.69
364.788	534.69
365.015	498.69
365.241	475.69
365.468	508.69
365.694	512.69
365.92	518.69
366.147	497.69
366.373	503.69
366.599	481.69
366.826	496.69
367.052	486.69
367.278	505.69
367.505	520.69
367.731	505.69
367.957	520.69
368.184	516.69
368.41	546.69
368.636	542.69
368.862	506.69
369.089	509.69
369.315	537.69
369.541	503.69
369.767	516.69
369.993	518.69
370.219	523.69
370.445	490.69
370.672	529.69
370.898	518.69
371.124	545.69
371.35	510.69
371.576	521.69
371.802	519.69
372.028	525.69
372.254	531.69
372.48	543.69
372.706	573.69
372.932	559.69
373.158	552.69
373.384	530.69
373.61	543.69
373.835	520.69
374.061	524.69
374.287	523.69
374.513	528.69
374.739	553.69
374.965	567.69
375.191	558.69
375.416	568.69
375.642	537.69
375.868	529.69
376.094	530.69
376.319	534.69
376.545	536.69
376.771	527.69
376.997	538.69
377.222	527.69
377.448	536.69
377.674	529.69
377.899	543.69
378.125	540.69
378.35	526.69
378.576	530.69
378.802	527.69
379.027	526.69
379.253	523.69
379.478	510.69
379.704	514.69
379.929	553.69
380.155	521.69
380.38	533.69
380.606	531.69
380.831	536.69
381.057	526.69
381.282	524.69
381.507	539.69
381.733	552.69
381.958	525.69
382.184	544.69
382.409	552.69
382.634	548.69
382.86	516.69
383.085	542.69
383.31	554.69
383.535	562.69
383.761	572.69
383.986	574.69
384.211	581.69
384.436	595.69
384.662	585.69
384.887	615.69
385.112	602.69
385.337	630.69
385.562	585.69
385.787	599.69
386.013	607.69
386.238	611.69
386.463	633.69
386.688	643.69
386.913	620.69
387.138	616.69
387.363	587.69
387.588	646.69
387.813	589.69
388.038	612.69
388.263	605.69
388.488	596.69
388.713	600.69
388.938	594.69
389.163	583.69
389.387	588.69
389.612	607.69
389.837	592.69
390.062	594.69
390.287	599.69
390.512	594.69
390.736	625.69
390.961	616.69
391.186	613.69
391.411	618.69
391.636	639.69
391.86	668.69
392.085	696.69
392.31	700.69
392.534	690.69
392.759	646.69
392.984	613.69
393.208	641.69
393.433	625.69
393.658	626.69
393.882	593.69
394.107	636.69
394.331	636.69
394.556	635.69
394.78	631.69
395.005	634.69
395.229	609.69
395.454	640.69
395.678	666.69
395.903	668.69
396.127	656.69
396.352	658.69
396.576	640.69
396.801	642.69
397.025	652.69
397.249	665.69
397.474	662.69
397.698	654.69
397.922	678.69
398.147	697.69
398.371	694.69
398.595	688.69
398.82	683.69
399.044	761.69
399.268	798.69
399.492	898.69
399.717	973.69
399.941	969.69
400.165	961.69
400.389	887.69
400.613	831.69
400.837	768.69
401.062	745.69
401.286	746.69
401.51	740.69
401.734	734.69
401.958	726.69
402.182	741.69
402.406	765.69
402.63	780.69
402.854	746.69
403.078	775.69
403.302	782.69
403.526	780.69
403.75	776.69
403.974	830.69
404.198	792.69
404.422	801.69
404.645	800.69
404.869	801.69
405.093	826.69
405.317	857.69
405.541	878.69
405.765	838.69
405.988	801.69
406.212	834.69
406.436	848.69
406.66	843.69
406.883	825.69
407.107	866.69
407.331	916.69
407.555	953.69
407.778	946.69
408.002	905.69
408.226	875.69
408.449	870.69
408.673	818.69
408.896	863.69
409.12	873.69
409.344	826.69
409.567	801.69
409.791	790.69
410.014	761.69
410.238	771.69
410.461	736.69
410.685	764.69
410.908	772.69
411.132	792.69
411.355	839.69
411.578	816.69
411.802	764.69
412.025	767.69
412.249	775.69
412.472	762.69
412.695	813.69
412.919	841.69
413.142	753.69
413.365	738.69
413.589	736.69
413.812	756.69
414.035	709.69
414.258	716.69
414.482	733.69
414.705	700.69
414.928	723.69
415.151	724.69
415.374	687.69
415.597	716.69
415.821	738.69
416.044	693.69
416.267	700.69
416.49	707.69
416.713	689.69
416.936	717.69
417.159	685.69
417.382	702.69
417.605	718.69
417.828	721.69
418.051	726.69
418.274	719.69
418.497	701.69
418.72	741.69
418.943	742.69
419.166	748.69
419.389	820.69
419.611	814.69
419.834	761.69
420.057	758.69
420.28	762.69
420.503	744.69
420.726	714.69
420.948	734.69
421.171	763.69
421.394	807.69
421.617	749.69
421.839	722.69
422.062	737.69
422.285	713.69
422.507	793.69
422.73	851.69
422.953	822.69
423.175	797.69
423.398	795.69
423.621	786.69
423.843	786.69
424.066	798.69
424.288	773.69
424.511	797.69
424.733	834.69
424.956	900.69
425.178	851.69
425.401	829.69
425.623	900.69
425.846	775.69
426.068	748.69
426.291	740.69
426.513	737.69
426.735	741.69
426.958	807.69
427.18	856.69
427.402	933.69
427.625	1024.69
427.847	894.69
428.069	817.69
428.292	768.69
428.514	724.69
428.736	707.69
428.958	704.69
429.181	682.69
429.403	670.69
429.625	702.69
429.847	718.69
430.069	776.69
430.292	768.69
430.514	655.69
430.736	671.69
430.958	694.69
431.18	676.69
431.402	675.69
431.624	658.69
431.846	657.69
432.068	674.69
432.29	708.69
432.512	687.69
432.734	700.69
432.956	678.69
433.178	672.69
433.4	670.69
433.622	663.69
433.844	660.69
434.066	674.69
434.287	684.69
434.509	674.69
434.731	721.69
434.953	732.69
435.175	742.69
435.397	765.69
435.618	729.69
435.84	784.69
436.062	833.69
436.284	866.69
436.505	786.69
436.727	724.69
436.949	671.69
437.17	700.69
437.392	689.69
437.614	673.69
437.835	702.69
438.057	783.69
438.278	842.69
438.5	847.69
438.721	922.69
438.943	908.69
439.165	746.69
439.386	709.69
439.608	702.69
439.829	704.69
440.05	717.69
440.272	772.69
440.493	733.69
440.715	704.69
440.936	722.69
441.158	696.69
441.379	722.69
441.6	719.69
441.822	761.69
442.043	804.69
442.264	874.69
442.486	870.69
442.707	782.69
442.928	772.69
443.149	799.69
443.371	793.69
443.592	813.69
443.813	869.69
444.034	948.69
444.255	862.69
444.476	821.69
444.698	843.69
444.919	868.69
445.14	944.69
445.361	854.69
445.582	817.69
445.803	806.69
446.024	907.69
446.245	894.69
446.466	853.69
446.687	751.69
446.908	708.69
447.129	690.69
447.35	668.69
447.571	657.69
447.792	644.69
448.013	650.69
448.234	672.69
448.455	686.69
448.675	803.69
448.896	900.69
449.117	795.69
449.338	737.69
449.559	825.69
449.779	918.69
450	780.69
450.221	659.69
450.442	657.69
450.662	630.69
450.883	623.69
451.104	658.69
451.324	660.69
451.545	634.69
451.766	637.69
451.986	598.69
452.207	602.69
452.428	614.69
452.648	606.69
452.869	609.69
453.089	592.69
453.31	640.69
453.53	603.69
453.751	604.69
453.971	603.69
454.192	638.69
454.412	607.69
454.633	620.69
454.853	594.69
455.073	608.69
455.294	610.69
455.514	667.69
455.734	638.69
455.955	604.69
456.175	592.69
456.395	573.69
456.616	581.69
456.836	570.69
457.056	595.69
457.276	580.69
457.497	605.69
457.717	570.69
457.937	574.69
458.157	593.69
458.377	602.69
458.598	617.69
458.818	682.69
459.038	730.69
459.258	758.69
459.478	702.69
459.698	683.69
459.918	705.69
460.138	700.69
460.358	719.69
460.578	737.69
460.798	752.69
461.018	759.69
461.238	751.69
461.458	747.69
461.678	722.69
461.898	737.69
462.118	735.69
462.338	757.69
462.558	762.69
462.777	798.69
462.997	868.69
463.217	891.69
463.437	892.69
463.657	828.69
463.876	833.69
464.096	799.69
464.316	825.69
464.536	821.69
464.755	811.69
464.975	825.69
465.195	812.69
465.414	795.69
465.634	748.69
465.854	697.69
466.073	678.69
466.293	659.69
466.512	655.69
466.732	649.69
466.951	642.69
467.171	626.69
467.391	646.69
467.61	611.69
467.829	654.69
468.049	641.69
468.268	626.69
468.488	642.69
468.707	628.69
468.927	635.69
469.146	603.69
469.365	613.69
469.585	634.69
469.804	621.69
470.023	654.69
470.243	646.69
470.462	671.69
470.681	660.69
470.901	664.69
471.12	677.69
471.339	665.69
471.558	641.69
471.777	650.69
471.997	635.69
472.216	638.69
472.435	672.69
472.654	644.69
472.873	598.69
473.092	624.69
473.311	631.69
473.53	618.69
473.749	630.69
473.968	658.69
474.187	717.69
474.406	749.69
474.625	659.69
474.844	637.69
475.063	637.69
475.282	651.69
475.501	644.69
475.72	645.69
475.939	668.69
476.158	636.69
476.377	654.69
476.596	648.69
476.814	660.69
477.033	671.69
477.252	664.69
477.471	686.69
477.69	674.69
477.908	689.69
478.127	719.69
478.346	734.69
478.564	753.69
478.783	750.69
479.002	736.69
479.22	758.69
479.439	774.69
479.658	753.69
479.876	769.69
480.095	765.69
480.313	809.69
480.532	839.69
480.751	833.69
480.969	833.69
481.188	860.69
481.406	878.69
481.624	813.69
481.843	760.69
482.061	720.69
482.28	737.69
482.498	741.69
482.717	713.69
482.935	729.69
483.153	722.69
483.372	747.69
483.59	707.69
483.808	742.69
484.027	744.69
484.245	744.69
484.463	744.69
484.681	767.69
484.9	760.69
485.118	763.69
485.336	766.69
485.554	760.69
485.772	758.69
485.99	751.69
486.209	776.69
486.427	796.69
486.645	778.69
486.863	803.69
487.081	793.69
487.299	802.69
487.517	797.69
487.735	770.69
487.953	783.69
488.171	778.69
488.389	796.69
488.607	769.69
488.825	796.69
489.043	790.69
489.261	792.69
489.479	798.69
489.696	804.69
489.914	790.69
490.132	830.69
490.35	836.69
490.568	836.69
490.786	838.69
491.003	829.69
491.221	836.69
491.439	842.69
491.657	857.69
491.874	866.69
492.092	885.69
492.31	884.69
492.527	894.69
492.745	914.69
492.963	901.69
493.18	882.69
493.398	906.69
493.615	897.69
493.833	915.69
494.05	933.69
494.268	927.69
494.485	936.69
494.703	926.69
494.92	920.69
495.138	899.69
495.355	892.69
495.573	920.69
495.79	920.69
496.008	937.69
496.225	920.69
496.442	927.69
496.66	936.69
496.877	950.69
497.094	931.69
497.312	954.69
497.529	1013.69
497.746	986.69
497.963	1012.69
498.181	1058.69
498.398	1099.69
498.615	1110.69
498.832	1180.69
499.049	1209.69
499.267	1278.69
499.484	1334.69
499.701	1430.69
499.918	1497.69
500.135	1649.69
500.352	1759.69
500.569	1872.69
500.786	1833.69
501.003	1760.69
501.22	1681.69
501.437	1571.69
501.654	1424.69
501.871	1370.69
502.088	1306.69
502.305	1217.69
502.522	1156.69
502.739	1128.69
502.956	1072.69
503.172	1041.69
503.389	1017.69
503.606	997.69
503.823	994.69
504.04	973.69
504.256	968.69
504.473	1009.69
504.69	1003.69
504.907	970.69
505.123	948.69
505.34	912.69
505.557	886.69
505.773	909.69
505.99	880.69
506.207	857.69
506.423	852.69
506.64	830.69
506.856	845.69
507.073	853.69
507.289	829.69
507.506	823.69
507.722	840.69
507.939	832.69
508.155	815.69
508.372	824.69
508.588	807.69
508.805	790.69
509.021	799.69
509.238	801.69
509.454	806.69
509.67	794.69
509.887	774.69
510.103	780.69
510.319	762.69
510.536	869.69
510.752	1220.69
510.968	1073.69
511.184	792.69
511.401	768.69
511.617	728.69
511.833	770.69
512.049	762.69
512.265	732.69
512.481	746.69
512.698	757.69
512.914	747.69
513.13	727.69
513.346	761.69
513.562	745.69
513.778	733.69
513.994	733.69
514.21	763.69
514.426	794.69
514.642	805.69
514.858	794.69
515.074	843.69
515.29	922.69
515.506	1249.69
515.721	1096.69
515.937	889.69
516.153	826.69
516.369	827.69
516.585	838.69
516.801	856.69
517.016	828.69
517.232	884.69
517.448	908.69
517.664	932.69
517.879	921.69
518.095	902.69
518.311	914.69
518.527	863.69
518.742	851.69
518.958	865.69
519.173	806.69
519.389	824.69
519.605	793.69
519.82	758.69
520.036	780.69
520.251	767.69
520.467	810.69
520.682	784.69
520.898	788.69
521.113	794.69
521.329	809.69
521.544	846.69
521.76	970.69
521.975	1454.69
522.19	1492.69
522.406	928.69
522.621	758.69
522.836	731.69
523.052	712.69
523.267	690.69
523.482	684.69
523.698	708.69
523.913	709.69
524.128	701.69
524.343	669.69
524.559	702.69
524.774	681.69
524.989	680.69
525.204	671.69
525.419	697.69
525.634	671.69
525.849	650.69
526.064	645.69
526.28	646.69
526.495	661.69
526.71	628.69
526.925	640.69
527.14	638.69
527.355	644.69
527.57	637.69
527.785	638.69
527.999	638.69
528.214	629.69
528.429	616.69
528.644	658.69
528.859	657.69
529.074	654.69
529.289	652.69
529.503	679.69
529.718	692.69
529.933	654.69
530.148	650.69
530.363	652.69
530.577	650.69
530.792	648.69
531.007	641.69
531.221	665.69
531.436	634.69
531.651	622.69
531.865	623.69
532.08	639.69
532.295	646.69
532.509	624.69
532.724	623.69
532.938	612.69
533.153	637.69
533.367	610.69
533.582	636.69
533.796	627.69
534.011	612.69
534.225	630.69
534.44	614.69
534.654	612.69
534.868	615.69
535.083	611.69
535.297	610.69
535.511	621.69
535.726	629.69
535.94	629.69
536.154	612.69
536.369	623.69
536.583	598.69
536.797	611.69
537.011	608.69
537.225	609.69
537.44	588.69
537.654	592.69
537.868	590.69
538.082	571.69
538.296	623.69
538.51	584.69
538.724	590.69
538.938	605.69
539.153	606.69
539.367	602.69
539.581	593.69
539.795	580.69
540.009	592.69
540.222	597.69
540.436	594.69
540.65	568.69
540.864	576.69
541.078	589.69
541.292	581.69
541.506	605.69
541.72	577.69
541.934	570.69
542.147	589.69
542.361	577.69
542.575	582.69
542.789	584.69
543.002	592.69
543.216	591.69
543.43	584.69
543.644	583.69
543.857	592.69
544.071	589.69
544.285	609.69
544.498	598.69
544.712	566.69
544.925	568.69
545.139	589.69
545.352	583.69
545.566	587.69
545.779	565.69
545.993	596.69
546.206	590.69
546.42	608.69
546.633	605.69
546.847	589.69
547.06	584.69
547.274	580.69
547.487	574.69
547.7	604.69
547.914	587.69
548.127	594.69
548.34	596.69
548.554	586.69
548.767	597.69
548.98	593.69
549.193	576.69
549.407	608.69
549.62	619.69
549.833	581.69
550.046	581.69
550.259	573.69
550.473	595.69
550.686	582.69
550.899	586.69
551.112	589.69
551.325	572.69
551.538	548.69
551.751	572.69
551.964	616.69
552.177	583.69
552.39	597.69
552.603	617.69
552.816	636.69
553.029	622.69
553.242	620.69
553.455	622.69
553.667	610.69
553.88	625.69
554.093	591.69
554.306	601.69
554.519	596.69
554.732	597.69
554.944	595.69
555.157	573.69
555.37	584.69
555.583	569.69
555.795	572.69
556.008	544.69
556.221	544.69
556.433	547.69
556.646	526.69
556.859	532.69
557.071	513.69
557.284	506.69
557.496	518.69
557.709	535.69
557.921	525.69
558.134	521.69
558.346	506.69
558.559	525.69
558.771	510.69
558.984	501.69
559.196	521.69
559.409	512.69
559.621	506.69
559.833	511.69
560.046	488.69
560.258	501.69
560.47	503.69
560.683	481.69
560.895	511.69
561.107	534.69
561.32	502.69
561.532	504.69
561.744	514.69
561.956	498.69
562.168	497.69
562.381	501.69
562.593	524.69
562.805	509.69
563.017	508.69
563.229	506.69
563.441	508.69
563.653	507.69
563.865	512.69
564.077	511.69
564.289	513.69
564.501	535.69
564.713	549.69
564.925	539.69
565.137	558.69
565.349	560.69
565.561	598.69
565.773	597.69
565.985	628.69
566.197	638.69
566.408	662.69
566.62	720.69
566.832	728.69
567.044	757.69
567.255	776.69
567.467	790.69
567.679	811.69
567.891	861.69
568.102	876.69
568.314	806.69
568.526	768.69
568.737	705.69
568.949	662.69
569.161	612.69
569.372	610.69
569.584	599.69
569.795	590.69
570.007	566.69
570.218	581.69
570.43	556.69
570.641	527.69
570.853	558.69
571.064	530.69
571.276	541.69
571.487	522.69
571.698	487.69
571.91	481.69
572.121	480.69
572.333	470.69
572.544	488.69
572.755	456.69
572.966	465.69
573.178	457.69
573.389	457.69
573.6	454.69
573.811	454.69
574.023	456.69
574.234	443.69
574.445	448.69
574.656	441.69
574.867	449.69
575.078	457.69
575.289	444.69
575.501	429.69
575.712	437.69
575.923	427.69
576.134	435.69
576.345	419.69
576.556	444.69
576.767	423.69
576.978	449.69
577.188	416.69
577.399	408.69
577.61	423.69
577.821	424.69
578.032	407.69
578.243	433.69
578.454	586.69
578.665	474.69
578.875	412.69
579.086	416.69
579.297	398.69
579.508	391.69
579.718	410.69
579.929	408.69
580.14	399.69
580.35	399.69
580.561	406.69
580.772	392.69
580.982	382.69
581.193	396.69
581.403	398.69
581.614	374.69
581.825	396.69
582.035	398.69
582.246	384.69
582.456	385.69
582.667	397.69
582.877	383.69
583.087	403.69
583.298	391.69
583.508	400.69
583.719	374.69
583.929	365.69
584.139	372.69
584.35	367.69
584.56	404.69
584.77	394.69
584.981	390.69
585.191	377.69
585.401	393.69
585.611	370.69
585.821	410.69
586.032	395.69
586.242	381.69
586.452	384.69
586.662	366.69
586.872	372.69
587.082	361.69
587.292	380.69
587.502	386.69
587.713	393.69
587.923	360.69
588.133	357.69
588.343	382.69
588.553	366.69
588.762	376.69
588.972	392.69
589.182	388.69
589.392	375.69
589.602	399.69
589.812	390.69
590.022	377.69
590.232	375.69
590.441	367.69
590.651	384.69
590.861	365.69
591.071	408.69
591.281	385.69
591.49	395.69
591.7	419.69
591.91	414.69
592.119	416.69
592.329	415.69
592.539	421.69
592.748	455.69
592.958	445.69
593.167	453.69
593.377	458.69
593.587	476.69
593.796	462.69
594.006	465.69
594.215	479.69
594.424	451.69
594.634	456.69
594.843	444.69
595.053	440.69
595.262	452.69
595.472	426.69
595.681	395.69
595.89	398.69
596.1	385.69
596.309	379.69
596.518	375.69
596.727	358.69
596.937	359.69
597.146	354.69
597.355	370.69
597.564	344.69
597.774	338.69
597.983	338.69
598.192	357.69
598.401	356.69
598.61	348.69
598.819	341.69
599.028	342.69
599.237	332.69
599.446	353.69
599.655	345.69
599.864	322.69
600.073	321.69
600.282	344.69
600.491	321.69
600.7	351.69
600.909	344.69
601.118	344.69
601.327	315.69
601.536	333.69
601.745	332.69
601.953	326.69
602.162	334.69
602.371	322.69
602.58	328.69
602.789	308.69
602.997	329.69
603.206	320.69
603.415	308.69
603.623	318.69
603.832	306.69
604.041	304.69
604.249	313.69
604.458	297.69
604.666	319.69
604.875	319.69
605.084	308.69
605.292	316.69
605.501	319.69
605.709	296.69
605.918	309.69
606.126	316.69
606.334	313.69
606.543	314.69
606.751	320.69
606.96	301.69
607.168	304.69
607.376	303.69
607.585	303.69
607.793	304.69
608.001	303.69
608.21	312.69
608.418	300.69
608.626	304.69
608.834	320.69
609.043	326.69
609.251	304.69
609.459	293.69
609.667	290.69
609.875	301.69
610.083	296.69
610.291	315.69
610.499	286.69
610.707	303.69
610.916	292.69
611.124	309.69
611.332	304.69
611.54	323.69
611.748	316.69
611.955	312.69
612.163	304.69
612.371	274.69
612.579	287.69
612.787	283.69
612.995	304.69
613.203	321.69
613.411	287.69
613.618	286.69
613.826	306.69
614.034	299.69
614.242	293.69
614.449	301.69
614.657	297.69
614.865	285.69
615.072	321.69
615.28	288.69
615.488	313.69
615.695	299.69
615.903	289.69
616.111	310.69
616.318	287.69
616.526	298.69
616.733	285.69
616.941	285.69
617.148	322.69
617.356	290.69
617.563	297.69
617.771	295.69
617.978	292.69
618.185	292.69
618.393	316.69
618.6	310.69
618.807	300.69
619.015	304.69
619.222	295.69
619.429	283.69
619.637	284.69
619.844	304.69
620.051	272.69
620.258	295.69
620.466	281.69
620.673	263.69
620.88	279.69
621.087	276.69
621.294	276.69
621.501	273.69
621.708	270.69
621.915	287.69
622.122	276.69
622.329	264.69
622.536	273.69
622.743	285.69
622.95	292.69
623.157	272.69
623.364	271.69
623.571	279.69
623.778	283.69
623.985	281.69
624.192	285.69
624.399	267.69
624.606	270.69
624.812	258.69
625.019	246.69
625.226	251.69
625.433	269.69
625.639	266.69
625.846	270.69
626.053	259.69
626.259	272.69
626.466	266.69
626.673	275.69
626.879	254.69
627.086	267.69
627.293	261.69
627.499	270.69
627.706	260.69
627.912	251.69
628.119	260.69
628.325	264.69
628.532	244.69
628.738	235.69
628.945	258.69
629.151	234.69
629.357	244.69
629.564	250.69
629.77	256.69
629.976	244.69
630.183	239.69
630.389	248.69
630.595	262.69
630.802	238.69
631.008	220.69
631.214	248.69
631.42	245.69
631.627	233.69
631.833	237.69
632.039	208.69
632.245	227.69
632.451	227.69
632.657	230.69
632.863	219.69
633.069	224.69
633.275	242.69
633.481	229.69
633.688	222.69
633.893	222.69
634.099	228.69
634.305	228.69
634.511	214.69
634.717	221.69
634.923	208.69
635.129	212.69
635.335	207.69
635.541	239.69
635.747	228.69
635.952	214.69
636.158	202.69
636.364	236.69
636.57	209.69
636.775	213.69
636.981	226.69
637.187	209.69
637.392	211.69
637.598	216.69
637.804	220.69
638.009	209.69
638.215	217.69
638.421	215.69
638.626	214.69
638.832	216.69
639.037	216.69
639.243	214.69
639.448	198.69
639.654	210.69
639.859	207.69
640.065	201.69
640.27	195.69
640.475	215.69
640.681	200.69
640.886	203.69
641.091	194.69
641.297	202.69
641.502	201.69
641.707	198.69
641.913	208.69
642.118	222.69
642.323	206.69
642.528	186.69
642.733	188.69
642.939	214.69
643.144	208.69
643.349	205.69
643.554	215.69
643.759	194.69
643.964	197.69
644.169	200.69
644.374	188.69
644.579	201.69
644.784	198.69
644.989	198.69
645.194	203.69
645.399	216.69
645.604	209.69
645.809	204.69
646.014	197.69
646.219	214.69
646.423	205.69
646.628	191.69
646.833	196.69
647.038	207.69
647.243	205.69
647.447	206.69
647.652	209.69
647.857	208.69
648.062	200.69
648.266	214.69
648.471	198.69
648.676	198.69
648.88	203.69
649.085	215.69
649.289	217.69
649.494	206.69
649.698	204.69
649.903	211.69
650.107	196.69
650.312	189.69
650.516	203.69
650.721	184.69
650.925	176.69
651.13	198.69
651.334	173.69
651.539	176.69
651.743	173.69
651.947	186.69
652.152	182.69
652.356	158.69
652.56	173.69
652.764	180.69
652.969	161.69
653.173	166.69
653.377	169.69
653.581	168.69
653.785	166.69
653.99	162.69
654.194	156.69
654.398	158.69
654.602	160.69
654.806	149.69
655.01	160.69
655.214	180.69
655.418	145.69
655.622	158.69
655.826	172.69
656.03	152.69
656.234	161.69
656.438	174.69
656.642	167.69
656.846	175.69
657.049	152.69
657.253	153.69
657.457	141.69
657.661	125.69
657.865	128.69
658.068	136.69
658.272	121.69
658.476	119.69
658.68	130.69
658.883	107.69
659.087	116.69
659.291	107.69
659.494	86.69
659.698	103.69
659.901	109.69
660.105	105.69
660.309	99.69
660.512	104.69
660.716	85.69
660.919	112.69
661.123	110.69
661.326	104.69
661.53	99.69
661.733	107.69
661.936	110.69
662.14	87.69
662.343	86.69
662.546	77.69
662.75	92.69
662.953	89.69
663.156	92.69
663.36	95.69
663.563	90.69
663.766	78.69
663.969	81.69
664.173	85.69
664.376	80.69
664.579	92.69
664.782	88.69
664.985	93.69
665.188	84.69
665.391	85.69
665.594	95.69
665.797	86.69
666	84.69
666.203	93.69
666.406	73.69
666.609	87.69
666.812	87.69
667.015	93.69
667.218	79.69
667.421	78.69
667.624	83.69
667.827	87.69
668.03	69.69
668.232	90.69
668.435	90.69
668.638	90.69
668.841	92.69
669.043	84.69
669.246	100.69
669.449	83.69
669.651	85.69
669.854	90.69
670.057	89.69
670.259	87.69
670.462	81.69
670.665	88.69
670.867	89.69
671.07	88.69
671.272	87.69
671.475	81.69
671.677	77.69
671.88	81.69
672.082	74.69
672.284	90.69
672.487	91.69
672.689	101.69
672.892	76.69
