Data from 1963.PennyLincolnUp.Lamp.En5.5.200Scan.071719.P1._HRD10591_13-58-02-062.txt Node
Date: Thu Jul 18 13:58:02 EDT 2019
User: cochatt
Spectrometer: HR+D1059
Trigger mode: 1
Integration Time (sec): 1.000000E-1
Scans to average: 1
Electric dark correction enabled: true
Nonlinearity correction enabled: false
Boxcar width: 0
XAxis mode: Wavelengths
Number of Pixels in Spectrum: 2048
>>>>>Begin Spectral Data<<<<<
223.165	-13.62
223.4	-13.62
223.635	-13.62
223.869	-12.62
224.104	-7.62
224.338	-26.62
224.573	-8.62
224.808	-12.62
225.042	-22.62
225.277	-12.62
225.511	-7.62
225.746	11.38
225.98	-5.62
226.215	22.38
226.449	7.38
226.683	25.38
226.918	33.38
227.152	30.38
227.387	27.38
227.621	46.38
227.856	49.38
228.09	68.38
228.324	53.38
228.559	60.38
228.793	70.38
229.027	100.38
229.262	111.38
229.496	122.38
229.73	107.38
229.964	137.38
230.199	120.38
230.433	111.38
230.667	108.38
230.901	103.38
231.136	106.38
231.37	112.38
231.604	103.38
231.838	103.38
232.072	119.38
232.306	121.38
232.541	121.38
232.775	124.38
233.009	125.38
233.243	107.38
233.477	107.38
233.711	131.38
233.945	118.38
234.179	127.38
234.413	113.38
234.647	122.38
234.881	129.38
235.115	125.38
235.349	129.38
235.583	126.38
235.817	133.38
236.051	131.38
236.285	126.38
236.519	110.38
236.753	123.38
236.987	138.38
237.221	171.38
237.455	202.38
237.689	181.38
237.922	133.38
238.156	146.38
238.39	133.38
238.624	118.38
238.858	145.38
239.091	134.38
239.325	139.38
239.559	136.38
239.793	137.38
240.027	129.38
240.26	145.38
240.494	157.38
240.728	155.38
240.961	149.38
241.195	147.38
241.429	131.38
241.662	149.38
241.896	146.38
242.13	144.38
242.363	149.38
242.597	156.38
242.83	147.38
243.064	135.38
243.298	152.38
243.531	157.38
243.765	158.38
243.998	156.38
244.232	149.38
244.465	156.38
244.699	164.38
244.932	167.38
245.166	157.38
245.399	165.38
245.633	154.38
245.866	163.38
246.099	169.38
246.333	165.38
246.566	159.38
246.8	171.38
247.033	161.38
247.266	177.38
247.5	171.38
247.733	190.38
247.966	175.38
248.2	198.38
248.433	177.38
248.666	189.38
248.899	187.38
249.133	185.38
249.366	211.38
249.599	199.38
249.832	179.38
250.066	199.38
250.299	194.38
250.532	191.38
250.765	195.38
250.998	201.38
251.231	235.38
251.465	226.38
251.698	197.38
251.931	209.38
252.164	199.38
252.397	196.38
252.63	205.38
252.863	215.38
253.096	215.38
253.329	236.38
253.562	217.38
253.795	224.38
254.028	221.38
254.261	227.38
254.494	227.38
254.727	263.38
254.96	271.38
255.193	263.38
255.426	216.38
255.659	228.38
255.892	247.38
256.124	230.38
256.357	242.38
256.59	244.38
256.823	226.38
257.056	223.38
257.289	217.38
257.521	232.38
257.754	231.38
257.987	231.38
258.22	236.38
258.452	230.38
258.685	207.38
258.918	220.38
259.151	212.38
259.383	243.38
259.616	232.38
259.849	233.38
260.081	257.38
260.314	249.38
260.547	257.38
260.779	248.38
261.012	243.38
261.244	233.38
261.477	239.38
261.71	237.38
261.942	239.38
262.175	243.38
262.407	251.38
262.64	225.38
262.872	236.38
263.105	233.38
263.337	238.38
263.57	234.38
263.802	250.38
264.035	236.38
264.267	231.38
264.499	234.38
264.732	241.38
264.964	235.38
265.197	236.38
265.429	231.38
265.661	244.38
265.894	277.38
266.126	238.38
266.358	247.38
266.591	235.38
266.823	263.38
267.055	254.38
267.287	260.38
267.52	263.38
267.752	262.38
267.984	234.38
268.216	267.38
268.448	274.38
268.681	257.38
268.913	260.38
269.145	281.38
269.377	283.38
269.609	287.38
269.841	277.38
270.073	284.38
270.306	291.38
270.538	310.38
270.77	311.38
271.002	291.38
271.234	297.38
271.466	307.38
271.698	319.38
271.93	339.38
272.162	325.38
272.394	305.38
272.626	320.38
272.858	300.38
273.09	314.38
273.322	290.38
273.553	298.38
273.785	297.38
274.017	287.38
274.249	280.38
274.481	294.38
274.713	285.38
274.945	294.38
275.176	292.38
275.408	303.38
275.64	295.38
275.872	298.38
276.104	295.38
276.335	313.38
276.567	301.38
276.799	330.38
277.031	327.38
277.262	338.38
277.494	335.38
277.726	329.38
277.957	314.38
278.189	313.38
278.421	291.38
278.652	313.38
278.884	307.38
279.115	322.38
279.347	292.38
279.579	309.38
279.81	299.38
280.042	307.38
280.273	305.38
280.505	303.38
280.736	307.38
280.968	314.38
281.199	312.38
281.431	319.38
281.662	313.38
281.894	321.38
282.125	322.38
282.356	329.38
282.588	344.38
282.819	337.38
283.051	333.38
283.282	309.38
283.513	330.38
283.745	305.38
283.976	330.38
284.207	330.38
284.439	350.38
284.67	330.38
284.901	337.38
285.132	326.38
285.364	317.38
285.595	311.38
285.826	328.38
286.057	327.38
286.288	342.38
286.52	323.38
286.751	327.38
286.982	327.38
287.213	337.38
287.444	362.38
287.675	331.38
287.906	343.38
288.138	341.38
288.369	355.38
288.6	361.38
288.831	362.38
289.062	350.38
289.293	343.38
289.524	351.38
289.755	337.38
289.986	350.38
290.217	343.38
290.448	335.38
290.679	354.38
290.91	349.38
291.141	354.38
291.371	359.38
291.602	352.38
291.833	357.38
292.064	356.38
292.295	358.38
292.526	349.38
292.757	353.38
292.987	335.38
293.218	346.38
293.449	360.38
293.68	361.38
293.91	358.38
294.141	363.38
294.372	360.38
294.603	361.38
294.833	371.38
295.064	377.38
295.295	371.38
295.525	365.38
295.756	348.38
295.987	367.38
296.217	370.38
296.448	380.38
296.679	373.38
296.909	362.38
297.14	356.38
297.37	379.38
297.601	382.38
297.831	387.38
298.062	357.38
298.292	369.38
298.523	377.38
298.753	380.38
298.984	358.38
299.214	387.38
299.445	363.38
299.675	376.38
299.905	399.38
300.136	387.38
300.366	390.38
300.597	374.38
300.827	413.38
301.057	403.38
301.288	389.38
301.518	404.38
301.748	402.38
301.979	394.38
302.209	413.38
302.439	397.38
302.669	397.38
302.9	402.38
303.13	405.38
303.36	401.38
303.59	400.38
303.82	403.38
304.051	405.38
304.281	388.38
304.511	405.38
304.741	389.38
304.971	405.38
305.201	409.38
305.431	394.38
305.661	386.38
305.891	408.38
306.121	394.38
306.352	387.38
306.582	403.38
306.812	372.38
307.042	383.38
307.272	403.38
307.502	403.38
307.731	410.38
307.961	407.38
308.191	403.38
308.421	402.38
308.651	407.38
308.881	406.38
309.111	389.38
309.341	397.38
309.571	412.38
309.8	419.38
310.03	411.38
310.26	416.38
310.49	421.38
310.72	405.38
310.949	439.38
311.179	477.38
311.409	427.38
311.639	420.38
311.868	445.38
312.098	452.38
312.328	445.38
312.557	428.38
312.787	439.38
313.017	445.38
313.246	440.38
313.476	437.38
313.706	440.38
313.935	444.38
314.165	456.38
314.394	438.38
314.624	441.38
314.853	431.38
315.083	444.38
315.312	459.38
315.542	435.38
315.771	425.38
316.001	462.38
316.23	460.38
316.46	436.38
316.689	439.38
316.919	442.38
317.148	436.38
317.377	476.38
317.607	450.38
317.836	439.38
318.065	430.38
318.295	426.38
318.524	443.38
318.753	447.38
318.983	435.38
319.212	434.38
319.441	447.38
319.67	459.38
319.9	457.38
320.129	442.38
320.358	450.38
320.587	460.38
320.816	433.38
321.046	443.38
321.275	460.38
321.504	458.38
321.733	473.38
321.962	457.38
322.191	445.38
322.42	486.38
322.649	475.38
322.878	482.38
323.108	484.38
323.337	500.38
323.566	485.38
323.795	513.38
324.024	531.38
324.253	602.38
324.482	752.38
324.71	1059.38
324.939	1468.38
325.168	1319.38
325.397	761.38
325.626	567.38
325.855	539.38
326.084	525.38
326.313	525.38
326.542	500.38
326.77	553.38
326.999	578.38
327.228	732.38
327.457	1019.38
327.686	1200.38
327.914	840.38
328.143	629.38
328.372	619.38
328.6	587.38
328.829	523.38
329.058	561.38
329.287	589.38
329.515	552.38
329.744	533.38
329.972	513.38
330.201	526.38
330.43	577.38
330.658	572.38
330.887	587.38
331.115	597.38
331.344	562.38
331.572	522.38
331.801	554.38
332.03	549.38
332.258	515.38
332.486	540.38
332.715	534.38
332.943	556.38
333.172	554.38
333.4	599.38
333.629	599.38
333.857	608.38
334.085	625.38
334.314	621.38
334.542	639.38
334.771	649.38
334.999	613.38
335.227	604.38
335.455	571.38
335.684	590.38
335.912	599.38
336.14	558.38
336.369	573.38
336.597	563.38
336.825	541.38
337.053	549.38
337.281	536.38
337.51	534.38
337.738	578.38
337.966	554.38
338.194	531.38
338.422	522.38
338.65	530.38
338.878	548.38
339.106	536.38
339.334	500.38
339.562	525.38
339.79	520.38
340.018	507.38
340.246	501.38
340.474	493.38
340.702	528.38
340.93	519.38
341.158	531.38
341.386	531.38
341.614	516.38
341.842	515.38
342.07	502.38
342.298	510.38
342.526	482.38
342.754	514.38
342.981	498.38
343.209	497.38
343.437	533.38
343.665	533.38
343.893	578.38
344.12	604.38
344.348	598.38
344.576	575.38
344.804	564.38
345.031	537.38
345.259	536.38
345.487	529.38
345.714	500.38
345.942	482.38
346.17	497.38
346.397	487.38
346.625	493.38
346.853	500.38
347.08	487.38
347.308	493.38
347.535	503.38
347.763	523.38
347.99	498.38
348.218	474.38
348.445	504.38
348.673	501.38
348.9	497.38
349.128	498.38
349.355	485.38
349.583	482.38
349.81	485.38
350.037	487.38
350.265	482.38
350.492	484.38
350.72	477.38
350.947	485.38
351.174	490.38
351.402	517.38
351.629	509.38
351.856	482.38
352.083	494.38
352.311	479.38
352.538	478.38
352.765	490.38
352.992	483.38
353.22	469.38
353.447	495.38
353.674	460.38
353.901	489.38
354.128	480.38
354.355	474.38
354.583	476.38
354.81	477.38
355.037	465.38
355.264	469.38
355.491	478.38
355.718	465.38
355.945	470.38
356.172	484.38
356.399	451.38
356.626	464.38
356.853	486.38
357.08	464.38
357.307	472.38
357.534	463.38
357.761	474.38
357.988	480.38
358.215	479.38
358.441	482.38
358.668	481.38
358.895	476.38
359.122	483.38
359.349	472.38
359.576	481.38
359.802	524.38
360.029	521.38
360.256	518.38
360.483	515.38
360.709	490.38
360.936	490.38
361.163	518.38
361.39	468.38
361.616	495.38
361.843	491.38
362.07	487.38
362.296	482.38
362.523	492.38
362.749	471.38
362.976	494.38
363.203	486.38
363.429	474.38
363.656	461.38
363.882	478.38
364.109	472.38
364.335	482.38
364.562	483.38
364.788	459.38
365.015	479.38
365.241	482.38
365.468	499.38
365.694	495.38
365.92	478.38
366.147	483.38
366.373	501.38
366.599	485.38
366.826	474.38
367.052	479.38
367.278	492.38
367.505	486.38
367.731	503.38
367.957	484.38
368.184	473.38
368.41	474.38
368.636	473.38
368.862	491.38
369.089	486.38
369.315	481.38
369.541	492.38
369.767	486.38
369.993	511.38
370.219	481.38
370.445	509.38
370.672	468.38
370.898	489.38
371.124	474.38
371.35	489.38
371.576	493.38
371.802	488.38
372.028	484.38
372.254	502.38
372.48	521.38
372.706	523.38
372.932	522.38
373.158	519.38
373.384	523.38
373.61	494.38
373.835	515.38
374.061	510.38
374.287	539.38
374.513	523.38
374.739	535.38
374.965	523.38
375.191	545.38
375.416	533.38
375.642	545.38
375.868	519.38
376.094	506.38
376.319	526.38
376.545	511.38
376.771	504.38
376.997	495.38
377.222	506.38
377.448	521.38
377.674	492.38
377.899	503.38
378.125	511.38
378.35	490.38
378.576	476.38
378.802	484.38
379.027	510.38
379.253	499.38
379.478	501.38
379.704	513.38
379.929	471.38
380.155	492.38
380.38	489.38
380.606	496.38
380.831	502.38
381.057	500.38
381.282	519.38
381.507	514.38
381.733	507.38
381.958	500.38
382.184	501.38
382.409	532.38
382.634	531.38
382.86	521.38
383.085	529.38
383.31	522.38
383.535	543.38
383.761	519.38
383.986	561.38
384.211	571.38
384.436	579.38
384.662	550.38
384.887	586.38
385.112	558.38
385.337	590.38
385.562	594.38
385.787	584.38
386.013	593.38
386.238	565.38
386.463	608.38
386.688	589.38
386.913	588.38
387.138	586.38
387.363	583.38
387.588	561.38
387.813	590.38
388.038	581.38
388.263	582.38
388.488	569.38
388.713	577.38
388.938	555.38
389.163	566.38
389.387	586.38
389.612	580.38
389.837	582.38
390.062	585.38
390.287	581.38
390.512	565.38
390.736	567.38
390.961	580.38
391.186	595.38
391.411	602.38
391.636	616.38
391.86	648.38
392.085	628.38
392.31	628.38
392.534	621.38
392.759	602.38
392.984	596.38
393.208	625.38
393.433	602.38
393.658	619.38
393.882	598.38
394.107	592.38
394.331	615.38
394.556	615.38
394.78	599.38
395.005	612.38
395.229	590.38
395.454	629.38
395.678	641.38
395.903	637.38
396.127	639.38
396.352	625.38
396.576	617.38
396.801	624.38
397.025	611.38
397.249	601.38
397.474	639.38
397.698	634.38
397.922	634.38
398.147	639.38
398.371	657.38
398.595	670.38
398.82	716.38
399.044	722.38
399.268	769.38
399.492	858.38
399.717	947.38
399.941	943.38
400.165	913.38
400.389	876.38
400.613	775.38
400.837	734.38
401.062	719.38
401.286	710.38
401.51	699.38
401.734	718.38
401.958	719.38
402.182	705.38
402.406	711.38
402.63	737.38
402.854	718.38
403.078	733.38
403.302	759.38
403.526	758.38
403.75	747.38
403.974	773.38
404.198	753.38
404.422	755.38
404.645	771.38
404.869	773.38
405.093	795.38
405.317	817.38
405.541	818.38
405.765	808.38
405.988	743.38
406.212	764.38
406.436	793.38
406.66	805.38
406.883	801.38
407.107	809.38
407.331	884.38
407.555	921.38
407.778	904.38
408.002	876.38
408.226	819.38
408.449	779.38
408.673	797.38
408.896	804.38
409.12	830.38
409.344	812.38
409.567	732.38
409.791	751.38
410.014	755.38
410.238	750.38
410.461	742.38
410.685	730.38
410.908	740.38
411.132	765.38
411.355	759.38
411.578	773.38
411.802	716.38
412.025	708.38
412.249	761.38
412.472	763.38
412.695	776.38
412.919	734.38
413.142	724.38
413.365	710.38
413.589	732.38
413.812	687.38
414.035	700.38
414.258	691.38
414.482	687.38
414.705	703.38
414.928	691.38
415.151	665.38
415.374	659.38
415.597	713.38
415.821	673.38
416.044	691.38
416.267	680.38
416.49	677.38
416.713	681.38
416.936	682.38
417.159	654.38
417.382	683.38
417.605	678.38
417.828	677.38
418.051	704.38
418.274	678.38
418.497	671.38
418.72	692.38
418.943	715.38
419.166	709.38
419.389	767.38
419.611	750.38
419.834	723.38
420.057	741.38
420.28	701.38
420.503	697.38
420.726	677.38
420.948	711.38
421.171	719.38
421.394	773.38
421.617	722.38
421.839	708.38
422.062	694.38
422.285	695.38
422.507	757.38
422.73	797.38
422.953	786.38
423.175	746.38
423.398	734.38
423.621	735.38
423.843	736.38
424.066	753.38
424.288	739.38
424.511	738.38
424.733	794.38
424.956	852.38
425.178	814.38
425.401	817.38
425.623	813.38
425.846	761.38
426.068	722.38
426.291	681.38
426.513	709.38
426.735	694.38
426.958	711.38
427.18	745.38
427.402	879.38
427.625	943.38
427.847	833.38
428.069	756.38
428.292	698.38
428.514	678.38
428.736	671.38
428.958	656.38
429.181	635.38
429.403	661.38
429.625	653.38
429.847	662.38
430.069	706.38
430.292	729.38
430.514	629.38
430.736	633.38
430.958	663.38
431.18	625.38
431.402	641.38
431.624	626.38
431.846	653.38
432.068	640.38
432.29	648.38
432.512	633.38
432.734	652.38
432.956	635.38
433.178	637.38
433.4	627.38
433.622	645.38
433.844	622.38
434.066	629.38
434.287	641.38
434.509	653.38
434.731	679.38
434.953	686.38
435.175	707.38
435.397	718.38
435.618	716.38
435.84	711.38
436.062	766.38
436.284	846.38
436.505	751.38
436.727	669.38
436.949	642.38
437.17	663.38
437.392	645.38
437.614	647.38
437.835	676.38
438.057	719.38
438.278	791.38
438.5	789.38
438.721	850.38
438.943	841.38
439.165	697.38
439.386	671.38
439.608	680.38
439.829	679.38
440.05	667.38
440.272	726.38
440.493	707.38
440.715	681.38
440.936	676.38
441.158	673.38
441.379	673.38
441.6	729.38
441.822	743.38
442.043	747.38
442.264	789.38
442.486	810.38
442.707	740.38
442.928	697.38
443.149	717.38
443.371	711.38
443.592	771.38
443.813	823.38
444.034	857.38
444.255	784.38
444.476	774.38
444.698	781.38
444.919	776.38
445.14	901.38
445.361	828.38
445.582	760.38
445.803	762.38
446.024	813.38
446.245	813.38
446.466	777.38
446.687	693.38
446.908	673.38
447.129	628.38
447.35	620.38
447.571	616.38
447.792	601.38
448.013	625.38
448.234	637.38
448.455	676.38
448.675	719.38
448.896	827.38
449.117	718.38
449.338	690.38
449.559	781.38
449.779	846.38
450	739.38
450.221	643.38
450.442	610.38
450.662	609.38
450.883	626.38
451.104	615.38
451.324	617.38
451.545	603.38
451.766	564.38
451.986	567.38
452.207	613.38
452.428	573.38
452.648	595.38
452.869	568.38
453.089	572.38
453.31	622.38
453.53	602.38
453.751	561.38
453.971	563.38
454.192	584.38
454.412	566.38
454.633	564.38
454.853	568.38
455.073	587.38
455.294	580.38
455.514	603.38
455.734	631.38
455.955	584.38
456.175	567.38
456.395	540.38
456.616	532.38
456.836	563.38
457.056	519.38
457.276	536.38
457.497	564.38
457.717	569.38
457.937	541.38
458.157	546.38
458.377	571.38
458.598	596.38
458.818	643.38
459.038	697.38
459.258	694.38
459.478	659.38
459.698	633.38
459.918	666.38
460.138	661.38
460.358	671.38
460.578	706.38
460.798	677.38
461.018	707.38
461.238	703.38
461.458	692.38
461.678	695.38
461.898	722.38
462.118	730.38
462.338	722.38
462.558	742.38
462.777	757.38
462.997	801.38
463.217	835.38
463.437	852.38
463.657	825.38
463.876	780.38
464.096	797.38
464.316	769.38
464.536	771.38
464.755	775.38
464.975	757.38
465.195	743.38
465.414	783.38
465.634	709.38
465.854	674.38
466.073	671.38
466.293	649.38
466.512	627.38
466.732	622.38
466.951	609.38
467.171	607.38
467.391	592.38
467.61	628.38
467.829	644.38
468.049	618.38
468.268	613.38
468.488	586.38
468.707	590.38
468.927	596.38
469.146	584.38
469.365	604.38
469.585	582.38
469.804	618.38
470.023	623.38
470.243	629.38
470.462	633.38
470.681	651.38
470.901	655.38
471.12	628.38
471.339	629.38
471.558	614.38
471.777	579.38
471.997	613.38
472.216	617.38
472.435	623.38
472.654	613.38
472.873	609.38
473.092	578.38
473.311	611.38
473.53	579.38
473.749	595.38
473.968	622.38
474.187	683.38
474.406	687.38
474.625	604.38
474.844	602.38
475.063	613.38
475.282	606.38
475.501	607.38
475.72	594.38
475.939	603.38
476.158	611.38
476.377	622.38
476.596	638.38
476.814	639.38
477.033	616.38
477.252	655.38
477.471	643.38
477.69	681.38
477.908	667.38
478.127	685.38
478.346	668.38
478.564	697.38
478.783	713.38
479.002	722.38
479.22	723.38
479.439	724.38
479.658	726.38
479.876	745.38
480.095	754.38
480.313	793.38
480.532	797.38
480.751	801.38
480.969	805.38
481.188	803.38
481.406	821.38
481.624	745.38
481.843	723.38
482.061	715.38
482.28	712.38
482.498	701.38
482.717	705.38
482.935	706.38
483.153	694.38
483.372	701.38
483.59	704.38
483.808	700.38
484.027	689.38
484.245	719.38
484.463	706.38
484.681	719.38
484.9	719.38
485.118	717.38
485.336	723.38
485.554	739.38
485.772	733.38
485.99	723.38
486.209	735.38
486.427	724.38
486.645	733.38
486.863	731.38
487.081	748.38
487.299	739.38
487.517	726.38
487.735	739.38
487.953	747.38
488.171	736.38
488.389	763.38
488.607	738.38
488.825	744.38
489.043	728.38
489.261	740.38
489.479	755.38
489.696	746.38
489.914	767.38
490.132	760.38
490.35	775.38
490.568	769.38
490.786	760.38
491.003	791.38
491.221	786.38
491.439	801.38
491.657	803.38
491.874	837.38
492.092	813.38
492.31	817.38
492.527	838.38
492.745	822.38
492.963	824.38
493.18	834.38
493.398	841.38
493.615	841.38
493.833	846.38
494.05	858.38
494.268	867.38
494.485	839.38
494.703	863.38
494.92	834.38
495.138	825.38
495.355	832.38
495.573	860.38
495.79	845.38
496.008	849.38
496.225	867.38
496.442	872.38
496.66	883.38
496.877	895.38
497.094	872.38
497.312	913.38
497.529	901.38
497.746	927.38
497.963	984.38
498.181	982.38
498.398	989.38
498.615	1046.38
498.832	1091.38
499.049	1153.38
499.267	1203.38
499.484	1274.38
499.701	1359.38
499.918	1445.38
500.135	1628.38
500.352	1731.38
500.569	1786.38
500.786	1787.38
501.003	1686.38
501.22	1594.38
501.437	1479.38
501.654	1393.38
501.871	1275.38
502.088	1205.38
502.305	1151.38
502.522	1093.38
502.739	1068.38
502.956	1009.38
503.172	997.38
503.389	971.38
503.606	967.38
503.823	930.38
504.04	910.38
504.256	917.38
504.473	943.38
504.69	960.38
504.907	943.38
505.123	909.38
505.34	907.38
505.557	846.38
505.773	830.38
505.99	821.38
506.207	812.38
506.423	819.38
506.64	809.38
506.856	769.38
507.073	785.38
507.289	785.38
507.506	774.38
507.722	783.38
507.939	775.38
508.155	766.38
508.372	749.38
508.588	742.38
508.805	759.38
509.021	751.38
509.238	761.38
509.454	758.38
509.67	768.38
509.887	726.38
510.103	705.38
510.319	733.38
510.536	836.38
510.752	1138.38
510.968	982.38
511.184	751.38
511.401	722.38
511.617	693.38
511.833	687.38
512.049	740.38
512.265	714.38
512.481	710.38
512.698	701.38
512.914	719.38
513.13	711.38
513.346	723.38
513.562	716.38
513.778	689.38
513.994	703.38
514.21	698.38
514.426	731.38
514.642	738.38
514.858	765.38
515.074	783.38
515.29	841.38
515.506	1115.38
515.721	1020.38
515.937	807.38
516.153	812.38
516.369	765.38
516.585	787.38
516.801	805.38
517.016	819.38
517.232	843.38
517.448	870.38
517.664	885.38
517.879	849.38
518.095	860.38
518.311	871.38
518.527	841.38
518.742	807.38
518.958	813.38
519.173	769.38
519.389	743.38
519.605	741.38
519.82	692.38
520.036	745.38
520.251	760.38
520.467	747.38
520.682	756.38
520.898	737.38
521.113	713.38
521.329	755.38
521.544	812.38
521.76	899.38
521.975	1297.38
522.19	1322.38
522.406	835.38
522.621	728.38
522.836	686.38
523.052	655.38
523.267	656.38
523.482	641.38
523.698	630.38
523.913	645.38
524.128	622.38
524.343	630.38
524.559	655.38
524.774	633.38
524.989	615.38
525.204	633.38
525.419	643.38
525.634	611.38
525.849	639.38
526.064	608.38
526.28	619.38
526.495	621.38
526.71	626.38
526.925	605.38
527.14	605.38
527.355	617.38
527.57	607.38
527.785	604.38
527.999	582.38
528.214	602.38
528.429	614.38
528.644	609.38
528.859	638.38
529.074	620.38
529.289	606.38
529.503	632.38
529.718	641.38
529.933	620.38
530.148	617.38
530.363	601.38
530.577	594.38
530.792	617.38
531.007	600.38
531.221	615.38
531.436	590.38
531.651	606.38
531.865	611.38
532.08	625.38
532.295	591.38
532.509	593.38
532.724	598.38
532.938	594.38
533.153	637.38
533.367	597.38
533.582	586.38
533.796	586.38
534.011	622.38
534.225	584.38
534.44	591.38
534.654	589.38
534.868	593.38
535.083	605.38
535.297	586.38
535.511	588.38
535.726	570.38
535.94	589.38
536.154	579.38
536.369	566.38
536.583	572.38
536.797	569.38
537.011	567.38
537.225	584.38
537.44	573.38
537.654	568.38
537.868	548.38
538.082	581.38
538.296	572.38
538.51	565.38
538.724	567.38
538.938	549.38
539.153	543.38
539.367	583.38
539.581	548.38
539.795	563.38
540.009	566.38
540.222	559.38
540.436	576.38
540.65	565.38
540.864	572.38
541.078	564.38
541.292	564.38
541.506	564.38
541.72	541.38
541.934	545.38
542.147	564.38
542.361	548.38
542.575	539.38
542.789	541.38
543.002	555.38
543.216	565.38
543.43	561.38
543.644	548.38
543.857	548.38
544.071	566.38
544.285	563.38
544.498	569.38
544.712	563.38
544.925	571.38
545.139	549.38
545.352	559.38
545.566	577.38
545.779	567.38
545.993	540.38
546.206	575.38
546.42	577.38
546.633	568.38
546.847	549.38
547.06	563.38
547.274	550.38
547.487	541.38
547.7	541.38
547.914	563.38
548.127	547.38
548.34	563.38
548.554	574.38
548.767	567.38
548.98	553.38
549.193	578.38
549.407	566.38
549.62	553.38
549.833	564.38
550.046	575.38
550.259	571.38
550.473	557.38
550.686	537.38
550.899	546.38
551.112	551.38
551.325	539.38
551.538	545.38
551.751	551.38
551.964	566.38
552.177	559.38
552.39	565.38
552.603	565.38
552.816	599.38
553.029	605.38
553.242	585.38
553.455	591.38
553.667	618.38
553.88	595.38
554.093	581.38
554.306	585.38
554.519	574.38
554.732	536.38
554.944	558.38
555.157	563.38
555.37	545.38
555.583	538.38
555.795	551.38
556.008	512.38
556.221	493.38
556.433	517.38
556.646	513.38
556.859	522.38
557.071	512.38
557.284	496.38
557.496	503.38
557.709	500.38
557.921	511.38
558.134	485.38
558.346	496.38
558.559	481.38
558.771	487.38
558.984	469.38
559.196	486.38
559.409	483.38
559.621	487.38
559.833	485.38
560.046	476.38
560.258	473.38
560.47	478.38
560.683	476.38
560.895	503.38
561.107	475.38
561.32	461.38
561.532	487.38
561.744	481.38
561.956	491.38
562.168	476.38
562.381	477.38
562.593	500.38
562.805	484.38
563.017	513.38
563.229	489.38
563.441	490.38
563.653	500.38
563.865	502.38
564.077	512.38
564.289	515.38
564.501	516.38
564.713	511.38
564.925	545.38
565.137	563.38
565.349	551.38
565.561	579.38
565.773	581.38
565.985	610.38
566.197	617.38
566.408	633.38
566.62	697.38
566.832	732.38
567.044	724.38
567.255	725.38
567.467	733.38
567.679	750.38
567.891	844.38
568.102	832.38
568.314	796.38
568.526	727.38
568.737	707.38
568.949	643.38
569.161	579.38
569.372	593.38
569.584	575.38
569.795	540.38
570.007	556.38
570.218	518.38
570.43	527.38
570.641	499.38
570.853	503.38
571.064	520.38
571.276	509.38
571.487	473.38
571.698	481.38
571.91	458.38
572.121	462.38
572.333	474.38
572.544	448.38
572.755	454.38
572.966	442.38
573.178	447.38
573.389	457.38
573.6	450.38
573.811	431.38
574.023	442.38
574.234	435.38
574.445	445.38
574.656	412.38
574.867	455.38
575.078	437.38
575.289	442.38
575.501	413.38
575.712	414.38
575.923	405.38
576.134	399.38
576.345	408.38
576.556	410.38
576.767	402.38
576.978	390.38
577.188	420.38
577.399	400.38
577.61	391.38
577.821	398.38
578.032	410.38
578.243	413.38
578.454	559.38
578.665	476.38
578.875	411.38
579.086	397.38
579.297	400.38
579.508	375.38
579.718	396.38
579.929	390.38
580.14	386.38
580.35	385.38
580.561	380.38
580.772	391.38
580.982	367.38
581.193	395.38
581.403	387.38
581.614	374.38
581.825	355.38
582.035	387.38
582.246	401.38
582.456	385.38
582.667	370.38
582.877	373.38
583.087	370.38
583.298	375.38
583.508	357.38
583.719	373.38
583.929	362.38
584.139	359.38
584.35	369.38
584.56	371.38
584.77	381.38
584.981	383.38
585.191	379.38
585.401	381.38
585.611	371.38
585.821	351.38
586.032	375.38
586.242	355.38
586.452	366.38
586.662	377.38
586.872	359.38
587.082	373.38
587.292	367.38
587.502	375.38
587.713	367.38
587.923	375.38
588.133	379.38
588.343	356.38
588.553	365.38
588.762	354.38
588.972	392.38
589.182	366.38
589.392	371.38
589.602	367.38
589.812	364.38
590.022	385.38
590.232	385.38
590.441	387.38
590.651	374.38
590.861	366.38
591.071	385.38
591.281	373.38
591.49	383.38
591.7	395.38
591.91	410.38
592.119	390.38
592.329	392.38
592.539	407.38
592.748	407.38
592.958	430.38
593.167	442.38
593.377	447.38
593.587	453.38
593.796	451.38
594.006	429.38
594.215	444.38
594.424	452.38
594.634	453.38
594.843	408.38
595.053	418.38
595.262	415.38
595.472	404.38
595.681	399.38
595.89	389.38
596.1	377.38
596.309	370.38
596.518	385.38
596.727	358.38
596.937	337.38
597.146	354.38
597.355	352.38
597.564	342.38
597.774	350.38
597.983	348.38
598.192	340.38
598.401	321.38
598.61	323.38
598.819	330.38
599.028	342.38
599.237	312.38
599.446	312.38
599.655	321.38
599.864	331.38
600.073	314.38
600.282	346.38
600.491	319.38
600.7	345.38
600.909	314.38
601.118	313.38
601.327	314.38
601.536	322.38
601.745	311.38
601.953	306.38
602.162	310.38
602.371	302.38
602.58	307.38
602.789	310.38
602.997	303.38
603.206	300.38
603.415	294.38
603.623	279.38
603.832	288.38
604.041	320.38
604.249	301.38
604.458	307.38
604.666	318.38
604.875	300.38
605.084	300.38
605.292	304.38
605.501	302.38
605.709	283.38
605.918	291.38
606.126	276.38
606.334	300.38
606.543	288.38
606.751	284.38
606.96	298.38
607.168	318.38
607.376	295.38
607.585	293.38
607.793	295.38
608.001	296.38
608.21	307.38
608.418	293.38
608.626	317.38
608.834	304.38
609.043	302.38
609.251	294.38
609.459	282.38
609.667	283.38
609.875	302.38
610.083	294.38
610.291	295.38
610.499	297.38
610.707	290.38
610.916	296.38
611.124	291.38
611.332	290.38
611.54	293.38
611.748	305.38
611.955	303.38
612.163	294.38
612.371	283.38
612.579	306.38
612.787	281.38
612.995	275.38
613.203	291.38
613.411	272.38
613.618	286.38
613.826	277.38
614.034	292.38
614.242	286.38
614.449	282.38
614.657	284.38
614.865	290.38
615.072	289.38
615.28	277.38
615.488	280.38
615.695	276.38
615.903	284.38
616.111	294.38
616.318	281.38
616.526	288.38
616.733	252.38
616.941	284.38
617.148	300.38
617.356	294.38
617.563	264.38
617.771	279.38
617.978	293.38
618.185	300.38
618.393	281.38
618.6	288.38
618.807	272.38
619.015	270.38
619.222	287.38
619.429	273.38
619.637	286.38
619.844	288.38
620.051	277.38
620.258	263.38
620.466	263.38
620.673	277.38
620.88	255.38
621.087	257.38
621.294	274.38
621.501	263.38
621.708	261.38
621.915	269.38
622.122	264.38
622.329	263.38
622.536	273.38
622.743	280.38
622.95	257.38
623.157	263.38
623.364	248.38
623.571	262.38
623.778	261.38
623.985	242.38
624.192	254.38
624.399	265.38
624.606	268.38
624.812	241.38
625.019	253.38
625.226	243.38
625.433	249.38
625.639	243.38
625.846	255.38
626.053	237.38
626.259	246.38
626.466	247.38
626.673	249.38
626.879	239.38
627.086	242.38
627.293	241.38
627.499	244.38
627.706	233.38
627.912	243.38
628.119	236.38
628.325	245.38
628.532	229.38
628.738	235.38
628.945	223.38
629.151	244.38
629.357	233.38
629.564	218.38
629.77	234.38
629.976	234.38
630.183	248.38
630.389	239.38
630.595	237.38
630.802	236.38
631.008	223.38
631.214	246.38
631.42	235.38
631.627	230.38
631.833	234.38
632.039	221.38
632.245	229.38
632.451	219.38
632.657	214.38
632.863	212.38
633.069	227.38
633.275	214.38
633.481	206.38
633.688	216.38
633.893	222.38
634.099	224.38
634.305	218.38
634.511	216.38
634.717	213.38
634.923	221.38
635.129	222.38
635.335	228.38
635.541	218.38
635.747	216.38
635.952	228.38
636.158	212.38
636.364	228.38
636.57	224.38
636.775	220.38
636.981	202.38
637.187	216.38
637.392	191.38
637.598	216.38
637.804	201.38
638.009	204.38
638.215	221.38
638.421	207.38
638.626	214.38
638.832	229.38
639.037	206.38
639.243	190.38
639.448	197.38
639.654	203.38
639.859	204.38
640.065	196.38
640.27	219.38
640.475	192.38
640.681	211.38
640.886	197.38
641.091	197.38
641.297	194.38
641.502	202.38
641.707	190.38
641.913	199.38
642.118	189.38
642.323	201.38
642.528	194.38
642.733	202.38
642.939	199.38
643.144	204.38
643.349	190.38
643.554	204.38
643.759	200.38
643.964	195.38
644.169	201.38
644.374	199.38
644.579	188.38
644.784	191.38
644.989	179.38
645.194	182.38
645.399	204.38
645.604	198.38
645.809	178.38
646.014	187.38
646.219	194.38
646.423	195.38
646.628	203.38
646.833	205.38
647.038	166.38
647.243	193.38
647.447	186.38
647.652	200.38
647.857	189.38
648.062	198.38
648.266	199.38
648.471	211.38
648.676	195.38
648.88	199.38
649.085	206.38
649.289	205.38
649.494	194.38
649.698	199.38
649.903	213.38
650.107	192.38
650.312	172.38
650.516	186.38
650.721	174.38
650.925	195.38
651.13	174.38
651.334	174.38
651.539	179.38
651.743	162.38
651.947	169.38
652.152	183.38
652.356	163.38
652.56	163.38
652.764	164.38
652.969	169.38
653.173	159.38
653.377	162.38
653.581	156.38
653.785	154.38
653.99	146.38
654.194	147.38
654.398	145.38
654.602	164.38
654.806	149.38
655.01	169.38
655.214	151.38
655.418	154.38
655.622	150.38
655.826	165.38
656.03	168.38
656.234	154.38
656.438	157.38
656.642	158.38
656.846	169.38
657.049	141.38
657.253	146.38
657.457	138.38
657.661	122.38
657.865	128.38
658.068	137.38
658.272	129.38
658.476	113.38
658.68	104.38
658.883	127.38
659.087	116.38
659.291	102.38
659.494	113.38
659.698	95.38
659.901	89.38
660.105	100.38
660.309	98.38
660.512	106.38
660.716	105.38
660.919	99.38
661.123	93.38
661.326	95.38
661.53	93.38
661.733	93.38
661.936	97.38
662.14	99.38
662.343	84.38
662.546	91.38
662.75	93.38
662.953	88.38
663.156	75.38
663.36	82.38
663.563	96.38
663.766	80.38
663.969	81.38
664.173	84.38
664.376	79.38
664.579	91.38
664.782	89.38
664.985	88.38
665.188	85.38
665.391	86.38
665.594	70.38
665.797	98.38
666	91.38
666.203	76.38
666.406	78.38
666.609	85.38
666.812	84.38
667.015	87.38
667.218	77.38
667.421	79.38
667.624	74.38
667.827	75.38
668.03	91.38
668.232	85.38
668.435	86.38
668.638	85.38
668.841	98.38
669.043	76.38
669.246	85.38
669.449	78.38
669.651	68.38
669.854	70.38
670.057	89.38
670.259	86.38
670.462	83.38
670.665	82.38
670.867	90.38
671.07	84.38
671.272	86.38
671.475	97.38
671.677	78.38
671.88	81.38
672.082	85.38
672.284	89.38
672.487	88.38
672.689	81.38
672.892	81.38
