Data from 1963.PennyLincolnUp.Lamp.En5.5.200Scan.071719.P1._HRD10591_13-58-41-063.txt Node
Date: Thu Jul 18 13:58:41 EDT 2019
User: cochatt
Spectrometer: HR+D1059
Trigger mode: 1
Integration Time (sec): 1.000000E-1
Scans to average: 1
Electric dark correction enabled: true
Nonlinearity correction enabled: false
Boxcar width: 0
XAxis mode: Wavelengths
Number of Pixels in Spectrum: 2048
>>>>>Begin Spectral Data<<<<<
223.165	-11.12
223.4	-11.12
223.635	-11.12
223.869	-18.12
224.104	-21.12
224.338	-1.12
224.573	-8.12
224.808	-22.12
225.042	-8.12
225.277	1.88
225.511	-7.12
225.746	3.88
225.98	3.88
226.215	11.88
226.449	17.88
226.683	8.88
226.918	25.88
227.152	22.88
227.387	38.88
227.621	52.88
227.856	40.88
228.09	45.88
228.324	62.88
228.559	60.88
228.793	74.88
229.027	87.88
229.262	103.88
229.496	114.88
229.73	112.88
229.964	136.88
230.199	135.88
230.433	124.88
230.667	101.88
230.901	118.88
231.136	117.88
231.37	108.88
231.604	118.88
231.838	118.88
232.072	115.88
232.306	112.88
232.541	118.88
232.775	129.88
233.009	115.88
233.243	123.88
233.477	116.88
233.711	129.88
233.945	126.88
234.179	122.88
234.413	126.88
234.647	126.88
234.881	117.88
235.115	112.88
235.349	123.88
235.583	120.88
235.817	117.88
236.051	114.88
236.285	112.88
236.519	125.88
236.753	135.88
236.987	141.88
237.221	165.88
237.455	199.88
237.689	179.88
237.922	128.88
238.156	126.88
238.39	124.88
238.624	125.88
238.858	134.88
239.091	130.88
239.325	123.88
239.559	140.88
239.793	141.88
240.027	147.88
240.26	154.88
240.494	165.88
240.728	154.88
240.961	149.88
241.195	139.88
241.429	147.88
241.662	150.88
241.896	141.88
242.13	153.88
242.363	145.88
242.597	156.88
242.83	144.88
243.064	142.88
243.298	148.88
243.531	156.88
243.765	166.88
243.998	159.88
244.232	151.88
244.465	150.88
244.699	153.88
244.932	155.88
245.166	162.88
245.399	178.88
245.633	164.88
245.866	161.88
246.099	147.88
246.333	167.88
246.566	165.88
246.8	161.88
247.033	172.88
247.266	192.88
247.5	183.88
247.733	184.88
247.966	182.88
248.2	173.88
248.433	171.88
248.666	185.88
248.899	192.88
249.133	217.88
249.366	216.88
249.599	205.88
249.832	182.88
250.066	194.88
250.299	194.88
250.532	207.88
250.765	207.88
250.998	238.88
251.231	209.88
251.465	207.88
251.698	233.88
251.931	221.88
252.164	220.88
252.397	206.88
252.63	217.88
252.863	222.88
253.096	225.88
253.329	238.88
253.562	209.88
253.795	215.88
254.028	225.88
254.261	234.88
254.494	231.88
254.727	246.88
254.96	264.88
255.193	282.88
255.426	244.88
255.659	238.88
255.892	232.88
256.124	237.88
256.357	248.88
256.59	240.88
256.823	232.88
257.056	237.88
257.289	211.88
257.521	213.88
257.754	222.88
257.987	222.88
258.22	211.88
258.452	237.88
258.685	217.88
258.918	224.88
259.151	234.88
259.383	233.88
259.616	230.88
259.849	246.88
260.081	253.88
260.314	260.88
260.547	256.88
260.779	242.88
261.012	239.88
261.244	249.88
261.477	256.88
261.71	231.88
261.942	241.88
262.175	245.88
262.407	259.88
262.64	235.88
262.872	246.88
263.105	241.88
263.337	240.88
263.57	226.88
263.802	245.88
264.035	238.88
264.267	235.88
264.499	240.88
264.732	265.88
264.964	242.88
265.197	245.88
265.429	245.88
265.661	235.88
265.894	232.88
266.126	252.88
266.358	229.88
266.591	250.88
266.823	251.88
267.055	249.88
267.287	257.88
267.52	258.88
267.752	276.88
267.984	254.88
268.216	264.88
268.448	250.88
268.681	261.88
268.913	280.88
269.145	282.88
269.377	309.88
269.609	294.88
269.841	272.88
270.073	293.88
270.306	310.88
270.538	334.88
270.77	307.88
271.002	318.88
271.234	304.88
271.466	311.88
271.698	327.88
271.93	311.88
272.162	331.88
272.394	301.88
272.626	302.88
272.858	308.88
273.09	306.88
273.322	288.88
273.553	296.88
273.785	291.88
274.017	295.88
274.249	296.88
274.481	308.88
274.713	306.88
274.945	312.88
275.176	299.88
275.408	311.88
275.64	292.88
275.872	312.88
276.104	299.88
276.335	307.88
276.567	306.88
276.799	304.88
277.031	328.88
277.262	341.88
277.494	326.88
277.726	282.88
277.957	326.88
278.189	314.88
278.421	301.88
278.652	306.88
278.884	329.88
279.115	323.88
279.347	311.88
279.579	317.88
279.81	310.88
280.042	298.88
280.273	306.88
280.505	297.88
280.736	305.88
280.968	320.88
281.199	326.88
281.431	293.88
281.662	308.88
281.894	310.88
282.125	315.88
282.356	321.88
282.588	352.88
282.819	362.88
283.051	331.88
283.282	312.88
283.513	336.88
283.745	335.88
283.976	322.88
284.207	336.88
284.439	324.88
284.67	328.88
284.901	320.88
285.132	326.88
285.364	331.88
285.595	342.88
285.826	325.88
286.057	332.88
286.288	342.88
286.52	321.88
286.751	354.88
286.982	334.88
287.213	340.88
287.444	372.88
287.675	356.88
287.906	354.88
288.138	344.88
288.369	351.88
288.6	357.88
288.831	336.88
289.062	345.88
289.293	358.88
289.524	347.88
289.755	354.88
289.986	356.88
290.217	360.88
290.448	346.88
290.679	340.88
290.91	347.88
291.141	364.88
291.371	384.88
291.602	351.88
291.833	359.88
292.064	369.88
292.295	345.88
292.526	347.88
292.757	346.88
292.987	347.88
293.218	332.88
293.449	370.88
293.68	344.88
293.91	357.88
294.141	368.88
294.372	370.88
294.603	382.88
294.833	357.88
295.064	359.88
295.295	365.88
295.525	370.88
295.756	374.88
295.987	369.88
296.217	379.88
296.448	381.88
296.679	369.88
296.909	364.88
297.14	360.88
297.37	379.88
297.601	368.88
297.831	381.88
298.062	371.88
298.292	374.88
298.523	381.88
298.753	378.88
298.984	382.88
299.214	379.88
299.445	385.88
299.675	372.88
299.905	388.88
300.136	381.88
300.366	373.88
300.597	385.88
300.827	387.88
301.057	394.88
301.288	400.88
301.518	426.88
301.748	427.88
301.979	400.88
302.209	402.88
302.439	405.88
302.669	421.88
302.9	391.88
303.13	400.88
303.36	409.88
303.59	403.88
303.82	405.88
304.051	416.88
304.281	393.88
304.511	404.88
304.741	401.88
304.971	413.88
305.201	396.88
305.431	404.88
305.661	423.88
305.891	389.88
306.121	407.88
306.352	416.88
306.582	408.88
306.812	396.88
307.042	416.88
307.272	409.88
307.502	418.88
307.731	403.88
307.961	398.88
308.191	400.88
308.421	391.88
308.651	419.88
308.881	436.88
309.111	427.88
309.341	408.88
309.571	408.88
309.8	421.88
310.03	423.88
310.26	432.88
310.49	429.88
310.72	438.88
310.949	433.88
311.179	465.88
311.409	445.88
311.639	451.88
311.868	444.88
312.098	418.88
312.328	435.88
312.557	466.88
312.787	456.88
313.017	471.88
313.246	454.88
313.476	425.88
313.706	452.88
313.935	456.88
314.165	450.88
314.394	471.88
314.624	456.88
314.853	473.88
315.083	455.88
315.312	464.88
315.542	447.88
315.771	440.88
316.001	441.88
316.23	430.88
316.46	442.88
316.689	459.88
316.919	452.88
317.148	473.88
317.377	456.88
317.607	460.88
317.836	446.88
318.065	445.88
318.295	449.88
318.524	434.88
318.753	438.88
318.983	452.88
319.212	421.88
319.441	445.88
319.67	449.88
319.9	465.88
320.129	442.88
320.358	455.88
320.587	462.88
320.816	463.88
321.046	448.88
321.275	462.88
321.504	446.88
321.733	435.88
321.962	464.88
322.191	471.88
322.42	456.88
322.649	467.88
322.878	487.88
323.108	487.88
323.337	496.88
323.566	510.88
323.795	532.88
324.024	550.88
324.253	643.88
324.482	777.88
324.71	1096.88
324.939	1578.88
325.168	1360.88
325.397	782.88
325.626	596.88
325.855	560.88
326.084	539.88
326.313	514.88
326.542	519.88
326.77	555.88
326.999	617.88
327.228	753.88
327.457	1046.88
327.686	1269.88
327.914	867.88
328.143	644.88
328.372	594.88
328.6	573.88
328.829	571.88
329.058	576.88
329.287	574.88
329.515	566.88
329.744	526.88
329.972	525.88
330.201	564.88
330.43	591.88
330.658	596.88
330.887	586.88
331.115	623.88
331.344	584.88
331.572	552.88
331.801	564.88
332.03	570.88
332.258	567.88
332.486	539.88
332.715	555.88
332.943	569.88
333.172	586.88
333.4	607.88
333.629	630.88
333.857	611.88
334.085	633.88
334.314	619.88
334.542	648.88
334.771	661.88
334.999	610.88
335.227	614.88
335.455	624.88
335.684	594.88
335.912	578.88
336.14	562.88
336.369	551.88
336.597	561.88
336.825	557.88
337.053	561.88
337.281	560.88
337.51	570.88
337.738	556.88
337.966	552.88
338.194	540.88
338.422	541.88
338.65	548.88
338.878	534.88
339.106	529.88
339.334	561.88
339.562	531.88
339.79	537.88
340.018	497.88
340.246	510.88
340.474	510.88
340.702	533.88
340.93	520.88
341.158	516.88
341.386	530.88
341.614	526.88
341.842	514.88
342.07	517.88
342.298	498.88
342.526	514.88
342.754	513.88
342.981	513.88
343.209	521.88
343.437	534.88
343.665	534.88
343.893	576.88
344.12	578.88
344.348	585.88
344.576	561.88
344.804	522.88
345.031	556.88
345.259	537.88
345.487	534.88
345.714	511.88
345.942	500.88
346.17	516.88
346.397	485.88
346.625	507.88
346.853	506.88
347.08	480.88
347.308	508.88
347.535	520.88
347.763	494.88
347.99	492.88
348.218	507.88
348.445	485.88
348.673	508.88
348.9	496.88
349.128	497.88
349.355	491.88
349.583	506.88
349.81	478.88
350.037	482.88
350.265	465.88
350.492	472.88
350.72	497.88
350.947	502.88
351.174	493.88
351.402	505.88
351.629	484.88
351.856	498.88
352.083	499.88
352.311	492.88
352.538	484.88
352.765	484.88
352.992	480.88
353.22	485.88
353.447	490.88
353.674	482.88
353.901	478.88
354.128	471.88
354.355	491.88
354.583	485.88
354.81	478.88
355.037	485.88
355.264	480.88
355.491	491.88
355.718	471.88
355.945	502.88
356.172	500.88
356.399	487.88
356.626	470.88
356.853	480.88
357.08	477.88
357.307	477.88
357.534	492.88
357.761	485.88
357.988	478.88
358.215	485.88
358.441	507.88
358.668	475.88
358.895	475.88
359.122	471.88
359.349	477.88
359.576	486.88
359.802	507.88
360.029	512.88
360.256	542.88
360.483	521.88
360.709	497.88
360.936	465.88
361.163	477.88
361.39	497.88
361.616	486.88
361.843	493.88
362.07	498.88
362.296	508.88
362.523	523.88
362.749	476.88
362.976	487.88
363.203	493.88
363.429	478.88
363.656	479.88
363.882	490.88
364.109	493.88
364.335	491.88
364.562	480.88
364.788	477.88
365.015	487.88
365.241	485.88
365.468	504.88
365.694	481.88
365.92	491.88
366.147	473.88
366.373	520.88
366.599	487.88
366.826	501.88
367.052	471.88
367.278	496.88
367.505	486.88
367.731	485.88
367.957	481.88
368.184	489.88
368.41	474.88
368.636	499.88
368.862	518.88
369.089	507.88
369.315	498.88
369.541	503.88
369.767	499.88
369.993	489.88
370.219	493.88
370.445	521.88
370.672	514.88
370.898	523.88
371.124	493.88
371.35	511.88
371.576	512.88
371.802	527.88
372.028	496.88
372.254	497.88
372.48	508.88
372.706	533.88
372.932	536.88
373.158	534.88
373.384	513.88
373.61	514.88
373.835	526.88
374.061	514.88
374.287	537.88
374.513	526.88
374.739	567.88
374.965	546.88
375.191	541.88
375.416	546.88
375.642	534.88
375.868	548.88
376.094	504.88
376.319	496.88
376.545	513.88
376.771	529.88
376.997	508.88
377.222	520.88
377.448	505.88
377.674	503.88
377.899	532.88
378.125	503.88
378.35	493.88
378.576	508.88
378.802	517.88
379.027	503.88
379.253	513.88
379.478	499.88
379.704	494.88
379.929	481.88
380.155	502.88
380.38	492.88
380.606	510.88
380.831	508.88
381.057	510.88
381.282	506.88
381.507	510.88
381.733	515.88
381.958	513.88
382.184	524.88
382.409	518.88
382.634	516.88
382.86	513.88
383.085	522.88
383.31	525.88
383.535	547.88
383.761	543.88
383.986	564.88
384.211	523.88
384.436	562.88
384.662	566.88
384.887	584.88
385.112	574.88
385.337	574.88
385.562	593.88
385.787	581.88
386.013	627.88
386.238	607.88
386.463	588.88
386.688	582.88
386.913	577.88
387.138	588.88
387.363	586.88
387.588	585.88
387.813	573.88
388.038	598.88
388.263	601.88
388.488	602.88
388.713	552.88
388.938	578.88
389.163	588.88
389.387	596.88
389.612	576.88
389.837	559.88
390.062	591.88
390.287	598.88
390.512	594.88
390.736	600.88
390.961	602.88
391.186	616.88
391.411	585.88
391.636	619.88
391.86	633.88
392.085	635.88
392.31	635.88
392.534	621.88
392.759	621.88
392.984	605.88
393.208	593.88
393.433	603.88
393.658	620.88
393.882	618.88
394.107	608.88
394.331	601.88
394.556	606.88
394.78	630.88
395.005	617.88
395.229	606.88
395.454	617.88
395.678	632.88
395.903	650.88
396.127	652.88
396.352	653.88
396.576	642.88
396.801	603.88
397.025	637.88
397.249	618.88
397.474	660.88
397.698	637.88
397.922	650.88
398.147	651.88
398.371	674.88
398.595	690.88
398.82	703.88
399.044	736.88
399.268	796.88
399.492	820.88
399.717	925.88
399.941	955.88
400.165	908.88
400.389	868.88
400.613	816.88
400.837	774.88
401.062	752.88
401.286	741.88
401.51	720.88
401.734	702.88
401.958	671.88
402.182	695.88
402.406	724.88
402.63	729.88
402.854	723.88
403.078	733.88
403.302	728.88
403.526	744.88
403.75	769.88
403.974	757.88
404.198	791.88
404.422	778.88
404.645	775.88
404.869	774.88
405.093	773.88
405.317	813.88
405.541	822.88
405.765	810.88
405.988	749.88
406.212	768.88
406.436	788.88
406.66	806.88
406.883	808.88
407.107	824.88
407.331	892.88
407.555	973.88
407.778	958.88
408.002	886.88
408.226	853.88
408.449	839.88
408.673	805.88
408.896	832.88
409.12	838.88
409.344	816.88
409.567	747.88
409.791	761.88
410.014	745.88
410.238	724.88
410.461	747.88
410.685	769.88
410.908	766.88
411.132	782.88
411.355	786.88
411.578	782.88
411.802	737.88
412.025	737.88
412.249	724.88
412.472	790.88
412.695	771.88
412.919	769.88
413.142	704.88
413.365	712.88
413.589	701.88
413.812	686.88
414.035	701.88
414.258	698.88
414.482	699.88
414.705	706.88
414.928	715.88
415.151	684.88
415.374	706.88
415.597	712.88
415.821	662.88
416.044	671.88
416.267	690.88
416.49	692.88
416.713	685.88
416.936	671.88
417.159	689.88
417.382	691.88
417.605	708.88
417.828	716.88
418.051	712.88
418.274	716.88
418.497	706.88
418.72	704.88
418.943	692.88
419.166	737.88
419.389	770.88
419.611	767.88
419.834	757.88
420.057	742.88
420.28	728.88
420.503	720.88
420.726	698.88
420.948	705.88
421.171	713.88
421.394	774.88
421.617	704.88
421.839	707.88
422.062	726.88
422.285	692.88
422.507	744.88
422.73	820.88
422.953	811.88
423.175	750.88
423.398	745.88
423.621	732.88
423.843	760.88
424.066	761.88
424.288	768.88
424.511	794.88
424.733	808.88
424.956	866.88
425.178	823.88
425.401	828.88
425.623	830.88
425.846	742.88
426.068	727.88
426.291	725.88
426.513	722.88
426.735	706.88
426.958	717.88
427.18	777.88
427.402	883.88
427.625	960.88
427.847	843.88
428.069	778.88
428.292	714.88
428.514	660.88
428.736	642.88
428.958	679.88
429.181	644.88
429.403	680.88
429.625	644.88
429.847	706.88
430.069	730.88
430.292	707.88
430.514	659.88
430.736	667.88
430.958	629.88
431.18	642.88
431.402	660.88
431.624	657.88
431.846	646.88
432.068	660.88
432.29	646.88
432.512	628.88
432.734	652.88
432.956	627.88
433.178	656.88
433.4	637.88
433.622	632.88
433.844	640.88
434.066	629.88
434.287	638.88
434.509	674.88
434.731	659.88
434.953	696.88
435.175	716.88
435.397	705.88
435.618	717.88
435.84	723.88
436.062	763.88
436.284	864.88
436.505	715.88
436.727	713.88
436.949	684.88
437.17	659.88
437.392	649.88
437.614	658.88
437.835	655.88
438.057	740.88
438.278	819.88
438.5	799.88
438.721	882.88
438.943	864.88
439.165	715.88
439.386	682.88
439.608	704.88
439.829	680.88
440.05	700.88
440.272	748.88
440.493	704.88
440.715	706.88
440.936	681.88
441.158	661.88
441.379	684.88
441.6	707.88
441.822	708.88
442.043	754.88
442.264	820.88
442.486	841.88
442.707	738.88
442.928	738.88
443.149	735.88
443.371	776.88
443.592	764.88
443.813	849.88
444.034	899.88
444.255	804.88
444.476	781.88
444.698	776.88
444.919	794.88
445.14	897.88
445.361	837.88
445.582	767.88
445.803	793.88
446.024	874.88
446.245	852.88
446.466	803.88
446.687	724.88
446.908	672.88
447.129	679.88
447.35	658.88
447.571	659.88
447.792	634.88
448.013	646.88
448.234	639.88
448.455	680.88
448.675	756.88
448.896	846.88
449.117	734.88
449.338	713.88
449.559	792.88
449.779	877.88
450	734.88
450.221	659.88
450.442	624.88
450.662	613.88
450.883	640.88
451.104	652.88
451.324	617.88
451.545	626.88
451.766	595.88
451.986	590.88
452.207	590.88
452.428	579.88
452.648	583.88
452.869	594.88
453.089	578.88
453.31	597.88
453.53	601.88
453.751	580.88
453.971	554.88
454.192	612.88
454.412	565.88
454.633	564.88
454.853	569.88
455.073	573.88
455.294	585.88
455.514	636.88
455.734	646.88
455.955	571.88
456.175	568.88
456.395	568.88
456.616	561.88
456.836	574.88
457.056	544.88
457.276	508.88
457.497	556.88
457.717	552.88
457.937	575.88
458.157	549.88
458.377	574.88
458.598	593.88
458.818	658.88
459.038	681.88
459.258	725.88
459.478	673.88
459.698	640.88
459.918	659.88
460.138	666.88
460.358	710.88
460.578	699.88
460.798	699.88
461.018	730.88
461.238	738.88
461.458	709.88
461.678	701.88
461.898	722.88
462.118	706.88
462.338	758.88
462.558	750.88
462.777	777.88
462.997	840.88
463.217	843.88
463.437	875.88
463.657	831.88
463.876	790.88
464.096	819.88
464.316	795.88
464.536	788.88
464.755	809.88
464.975	762.88
465.195	767.88
465.414	776.88
465.634	709.88
465.854	686.88
466.073	652.88
466.293	627.88
466.512	632.88
466.732	606.88
466.951	627.88
467.171	594.88
467.391	613.88
467.61	613.88
467.829	602.88
468.049	614.88
468.268	604.88
468.488	610.88
468.707	599.88
468.927	604.88
469.146	596.88
469.365	611.88
469.585	627.88
469.804	627.88
470.023	632.88
470.243	644.88
470.462	646.88
470.681	640.88
470.901	663.88
471.12	617.88
471.339	636.88
471.558	608.88
471.777	617.88
471.997	624.88
472.216	616.88
472.435	618.88
472.654	604.88
472.873	593.88
473.092	607.88
473.311	586.88
473.53	591.88
473.749	585.88
473.968	609.88
474.187	716.88
474.406	696.88
474.625	626.88
474.844	634.88
475.063	631.88
475.282	599.88
475.501	613.88
475.72	635.88
475.939	623.88
476.158	629.88
476.377	627.88
476.596	629.88
476.814	630.88
477.033	652.88
477.252	654.88
477.471	655.88
477.69	705.88
477.908	673.88
478.127	701.88
478.346	684.88
478.564	707.88
478.783	718.88
479.002	720.88
479.22	741.88
479.439	732.88
479.658	749.88
479.876	724.88
480.095	753.88
480.313	791.88
480.532	801.88
480.751	796.88
480.969	790.88
481.188	810.88
481.406	831.88
481.624	770.88
481.843	741.88
482.061	736.88
482.28	695.88
482.498	715.88
482.717	699.88
482.935	731.88
483.153	715.88
483.372	709.88
483.59	702.88
483.808	702.88
484.027	724.88
484.245	726.88
484.463	721.88
484.681	720.88
484.9	709.88
485.118	736.88
485.336	732.88
485.554	744.88
485.772	756.88
485.99	749.88
486.209	749.88
486.427	724.88
486.645	752.88
486.863	748.88
487.081	749.88
487.299	753.88
487.517	734.88
487.735	763.88
487.953	775.88
488.171	780.88
488.389	740.88
488.607	716.88
488.825	750.88
489.043	748.88
489.261	756.88
489.479	754.88
489.696	761.88
489.914	754.88
490.132	804.88
490.35	766.88
490.568	777.88
490.786	804.88
491.003	820.88
491.221	807.88
491.439	808.88
491.657	852.88
491.874	837.88
492.092	830.88
492.31	850.88
492.527	840.88
492.745	865.88
492.963	852.88
493.18	855.88
493.398	849.88
493.615	849.88
493.833	858.88
494.05	864.88
494.268	864.88
494.485	868.88
494.703	843.88
494.92	857.88
495.138	836.88
495.355	880.88
495.573	874.88
495.79	893.88
496.008	925.88
496.225	881.88
496.442	888.88
496.66	896.88
496.877	913.88
497.094	918.88
497.312	904.88
497.529	932.88
497.746	973.88
497.963	977.88
498.181	995.88
498.398	1049.88
498.615	1030.88
498.832	1119.88
499.049	1156.88
499.267	1221.88
499.484	1287.88
499.701	1371.88
499.918	1468.88
500.135	1638.88
500.352	1805.88
500.569	1840.88
500.786	1840.88
501.003	1713.88
501.22	1590.88
501.437	1466.88
501.654	1390.88
501.871	1349.88
502.088	1243.88
502.305	1167.88
502.522	1140.88
502.739	1102.88
502.956	1042.88
503.172	1009.88
503.389	977.88
503.606	953.88
503.823	964.88
504.04	921.88
504.256	934.88
504.473	947.88
504.69	965.88
504.907	938.88
505.123	913.88
505.34	875.88
505.557	853.88
505.773	868.88
505.99	819.88
506.207	838.88
506.423	841.88
506.64	797.88
506.856	790.88
507.073	810.88
507.289	777.88
507.506	809.88
507.722	823.88
507.939	825.88
508.155	776.88
508.372	769.88
508.588	782.88
508.805	775.88
509.021	777.88
509.238	769.88
509.454	790.88
509.67	752.88
509.887	756.88
510.103	741.88
510.319	763.88
510.536	839.88
510.752	1146.88
510.968	993.88
511.184	739.88
511.401	723.88
511.617	729.88
511.833	721.88
512.049	709.88
512.265	690.88
512.481	709.88
512.698	733.88
512.914	742.88
513.13	708.88
513.346	729.88
513.562	716.88
513.778	710.88
513.994	743.88
514.21	729.88
514.426	736.88
514.642	768.88
514.858	792.88
515.074	782.88
515.29	870.88
515.506	1171.88
515.721	1062.88
515.937	842.88
516.153	800.88
516.369	787.88
516.585	805.88
516.801	794.88
517.016	825.88
517.232	854.88
517.448	874.88
517.664	875.88
517.879	878.88
518.095	890.88
518.311	864.88
518.527	844.88
518.742	823.88
518.958	788.88
519.173	792.88
519.389	777.88
519.605	770.88
519.82	751.88
520.036	741.88
520.251	756.88
520.467	749.88
520.682	754.88
520.898	729.88
521.113	736.88
521.329	757.88
521.544	805.88
521.76	911.88
521.975	1353.88
522.19	1389.88
522.406	854.88
522.621	742.88
522.836	715.88
523.052	674.88
523.267	660.88
523.482	646.88
523.698	673.88
523.913	664.88
524.128	673.88
524.343	672.88
524.559	662.88
524.774	638.88
524.989	644.88
525.204	664.88
525.419	653.88
525.634	644.88
525.849	642.88
526.064	624.88
526.28	637.88
526.495	625.88
526.71	638.88
526.925	601.88
527.14	614.88
527.355	625.88
527.57	613.88
527.785	609.88
527.999	617.88
528.214	606.88
528.429	621.88
528.644	633.88
528.859	628.88
529.074	603.88
529.289	626.88
529.503	679.88
529.718	667.88
529.933	605.88
530.148	623.88
530.363	632.88
530.577	625.88
530.792	622.88
531.007	599.88
531.221	612.88
531.436	635.88
531.651	603.88
531.865	598.88
532.08	610.88
532.295	619.88
532.509	632.88
532.724	610.88
532.938	602.88
533.153	614.88
533.367	598.88
533.582	598.88
533.796	601.88
534.011	620.88
534.225	595.88
534.44	582.88
534.654	604.88
534.868	601.88
535.083	607.88
535.297	603.88
535.511	579.88
535.726	605.88
535.94	605.88
536.154	589.88
536.369	597.88
536.583	581.88
536.797	586.88
537.011	583.88
537.225	585.88
537.44	576.88
537.654	577.88
537.868	577.88
538.082	592.88
538.296	561.88
538.51	564.88
538.724	596.88
538.938	564.88
539.153	548.88
539.367	583.88
539.581	578.88
539.795	546.88
540.009	538.88
540.222	565.88
540.436	558.88
540.65	556.88
540.864	565.88
541.078	572.88
541.292	574.88
541.506	574.88
541.72	580.88
541.934	532.88
542.147	554.88
542.361	565.88
542.575	546.88
542.789	559.88
543.002	560.88
543.216	558.88
543.43	546.88
543.644	567.88
543.857	564.88
544.071	566.88
544.285	587.88
544.498	574.88
544.712	542.88
544.925	578.88
545.139	569.88
545.352	582.88
545.566	568.88
545.779	564.88
545.993	574.88
546.206	574.88
546.42	609.88
546.633	587.88
546.847	538.88
547.06	544.88
547.274	548.88
547.487	545.88
547.7	578.88
547.914	551.88
548.127	576.88
548.34	567.88
548.554	576.88
548.767	598.88
548.98	578.88
549.193	561.88
549.407	570.88
549.62	581.88
549.833	583.88
550.046	601.88
550.259	565.88
550.473	544.88
550.686	555.88
550.899	554.88
551.112	561.88
551.325	552.88
551.538	572.88
551.751	538.88
551.964	565.88
552.177	562.88
552.39	586.88
552.603	584.88
552.816	606.88
553.029	582.88
553.242	615.88
553.455	609.88
553.667	636.88
553.88	612.88
554.093	598.88
554.306	588.88
554.519	584.88
554.732	564.88
554.944	569.88
555.157	586.88
555.37	551.88
555.583	522.88
555.795	524.88
556.008	522.88
556.221	515.88
556.433	514.88
556.646	485.88
556.859	506.88
557.071	522.88
557.284	510.88
557.496	502.88
557.709	488.88
557.921	502.88
558.134	511.88
558.346	488.88
558.559	472.88
558.771	513.88
558.984	470.88
559.196	465.88
559.409	472.88
559.621	460.88
559.833	473.88
560.046	494.88
560.258	476.88
560.47	495.88
560.683	500.88
560.895	481.88
561.107	496.88
561.32	465.88
561.532	478.88
561.744	507.88
561.956	489.88
562.168	491.88
562.381	490.88
562.593	491.88
562.805	497.88
563.017	502.88
563.229	489.88
563.441	492.88
563.653	498.88
563.865	504.88
564.077	494.88
564.289	526.88
564.501	534.88
564.713	526.88
564.925	529.88
565.137	548.88
565.349	562.88
565.561	552.88
565.773	578.88
565.985	587.88
566.197	615.88
566.408	659.88
566.62	680.88
566.832	742.88
567.044	748.88
567.255	744.88
567.467	763.88
567.679	747.88
567.891	820.88
568.102	845.88
568.314	822.88
568.526	731.88
568.737	698.88
568.949	655.88
569.161	605.88
569.372	578.88
569.584	568.88
569.795	551.88
570.007	541.88
570.218	571.88
570.43	534.88
570.641	525.88
570.853	524.88
571.064	512.88
571.276	509.88
571.487	484.88
571.698	489.88
571.91	492.88
572.121	471.88
572.333	480.88
572.544	459.88
572.755	467.88
572.966	444.88
573.178	441.88
573.389	441.88
573.6	441.88
573.811	433.88
574.023	441.88
574.234	447.88
574.445	444.88
574.656	420.88
574.867	434.88
575.078	433.88
575.289	439.88
575.501	409.88
575.712	426.88
575.923	412.88
576.134	403.88
576.345	417.88
576.556	414.88
576.767	425.88
576.978	410.88
577.188	422.88
577.399	414.88
577.61	402.88
577.821	401.88
578.032	396.88
578.243	419.88
578.454	560.88
578.665	460.88
578.875	394.88
579.086	396.88
579.297	396.88
579.508	410.88
579.718	381.88
579.929	380.88
580.14	389.88
580.35	400.88
580.561	389.88
580.772	395.88
580.982	387.88
581.193	364.88
581.403	373.88
581.614	384.88
581.825	373.88
582.035	374.88
582.246	390.88
582.456	365.88
582.667	375.88
582.877	385.88
583.087	393.88
583.298	395.88
583.508	362.88
583.719	378.88
583.929	382.88
584.139	383.88
584.35	390.88
584.56	379.88
584.77	361.88
584.981	345.88
585.191	389.88
585.401	361.88
585.611	375.88
585.821	344.88
586.032	392.88
586.242	378.88
586.452	376.88
586.662	378.88
586.872	368.88
587.082	355.88
587.292	373.88
587.502	370.88
587.713	362.88
587.923	366.88
588.133	377.88
588.343	390.88
588.553	368.88
588.762	355.88
588.972	384.88
589.182	363.88
589.392	356.88
589.602	374.88
589.812	356.88
590.022	376.88
590.232	374.88
590.441	388.88
590.651	374.88
590.861	362.88
591.071	374.88
591.281	386.88
591.49	369.88
591.7	380.88
591.91	392.88
592.119	384.88
592.329	381.88
592.539	422.88
592.748	410.88
592.958	433.88
593.167	442.88
593.377	440.88
593.587	443.88
593.796	457.88
594.006	454.88
594.215	436.88
594.424	457.88
594.634	449.88
594.843	439.88
595.053	421.88
595.262	377.88
595.472	405.88
595.681	384.88
595.89	390.88
596.1	378.88
596.309	377.88
596.518	348.88
596.727	362.88
596.937	378.88
597.146	341.88
597.355	341.88
597.564	345.88
597.774	323.88
597.983	339.88
598.192	333.88
598.401	342.88
598.61	332.88
598.819	316.88
599.028	323.88
599.237	308.88
599.446	338.88
599.655	338.88
599.864	328.88
600.073	315.88
600.282	313.88
600.491	332.88
600.7	326.88
600.909	325.88
601.118	311.88
601.327	309.88
601.536	307.88
601.745	306.88
601.953	304.88
602.162	339.88
602.371	314.88
602.58	314.88
602.789	319.88
602.997	307.88
603.206	315.88
603.415	320.88
603.623	307.88
603.832	308.88
604.041	306.88
604.249	313.88
604.458	316.88
604.666	310.88
604.875	285.88
605.084	280.88
605.292	312.88
605.501	297.88
605.709	298.88
605.918	301.88
606.126	289.88
606.334	276.88
606.543	301.88
606.751	290.88
606.96	304.88
607.168	288.88
607.376	298.88
607.585	317.88
607.793	296.88
608.001	283.88
608.21	290.88
608.418	309.88
608.626	280.88
608.834	289.88
609.043	268.88
609.251	279.88
609.459	296.88
609.667	291.88
609.875	320.88
610.083	288.88
610.291	282.88
610.499	297.88
610.707	300.88
610.916	288.88
611.124	293.88
611.332	286.88
611.54	284.88
611.748	293.88
611.955	304.88
612.163	286.88
612.371	283.88
612.579	294.88
612.787	304.88
612.995	295.88
613.203	294.88
613.411	286.88
613.618	277.88
613.826	276.88
614.034	286.88
614.242	277.88
614.449	286.88
614.657	267.88
614.865	294.88
615.072	282.88
615.28	289.88
615.488	263.88
615.695	272.88
615.903	294.88
616.111	306.88
616.318	291.88
616.526	301.88
616.733	293.88
616.941	290.88
617.148	289.88
617.356	296.88
617.563	290.88
617.771	289.88
617.978	290.88
618.185	282.88
618.393	266.88
618.6	300.88
618.807	283.88
619.015	293.88
619.222	286.88
619.429	276.88
619.637	267.88
619.844	298.88
620.051	266.88
620.258	268.88
620.466	262.88
620.673	269.88
620.88	256.88
621.087	255.88
621.294	269.88
621.501	261.88
621.708	267.88
621.915	251.88
622.122	264.88
622.329	276.88
622.536	269.88
622.743	260.88
622.95	235.88
623.157	289.88
623.364	252.88
623.571	265.88
623.778	257.88
623.985	255.88
624.192	268.88
624.399	250.88
624.606	268.88
624.812	252.88
625.019	252.88
625.226	236.88
625.433	259.88
625.639	255.88
625.846	236.88
626.053	254.88
626.259	242.88
626.466	244.88
626.673	252.88
626.879	236.88
627.086	242.88
627.293	240.88
627.499	254.88
627.706	254.88
627.912	242.88
628.119	254.88
628.325	265.88
628.532	250.88
628.738	233.88
628.945	220.88
629.151	231.88
629.357	235.88
629.564	229.88
629.77	233.88
629.976	218.88
630.183	235.88
630.389	233.88
630.595	242.88
630.802	227.88
631.008	233.88
631.214	211.88
631.42	217.88
631.627	238.88
631.833	231.88
632.039	220.88
632.245	216.88
632.451	219.88
632.657	219.88
632.863	211.88
633.069	226.88
633.275	217.88
633.481	215.88
633.688	229.88
633.893	232.88
634.099	225.88
634.305	225.88
634.511	227.88
634.717	225.88
634.923	210.88
635.129	216.88
635.335	206.88
635.541	212.88
635.747	212.88
635.952	222.88
636.158	216.88
636.364	210.88
636.57	213.88
636.775	220.88
636.981	203.88
637.187	214.88
637.392	210.88
637.598	214.88
637.804	196.88
638.009	213.88
638.215	208.88
638.421	195.88
638.626	200.88
638.832	202.88
639.037	190.88
639.243	198.88
639.448	192.88
639.654	215.88
639.859	202.88
640.065	209.88
640.27	201.88
640.475	201.88
640.681	202.88
640.886	203.88
641.091	204.88
641.297	194.88
641.502	195.88
641.707	209.88
641.913	195.88
642.118	192.88
642.323	201.88
642.528	193.88
642.733	201.88
642.939	195.88
643.144	180.88
643.349	205.88
643.554	202.88
643.759	194.88
643.964	178.88
644.169	177.88
644.374	200.88
644.579	180.88
644.784	193.88
644.989	190.88
645.194	200.88
645.399	182.88
645.604	187.88
645.809	184.88
646.014	198.88
646.219	199.88
646.423	186.88
646.628	188.88
646.833	192.88
647.038	184.88
647.243	184.88
647.447	210.88
647.652	196.88
647.857	188.88
648.062	183.88
648.266	202.88
648.471	208.88
648.676	193.88
648.88	205.88
649.085	195.88
649.289	194.88
649.494	196.88
649.698	197.88
649.903	210.88
650.107	190.88
650.312	179.88
650.516	176.88
650.721	164.88
650.925	157.88
651.13	168.88
651.334	174.88
651.539	171.88
651.743	171.88
651.947	165.88
652.152	161.88
652.356	162.88
652.56	153.88
652.764	172.88
652.969	163.88
653.173	164.88
653.377	161.88
653.581	144.88
653.785	164.88
653.99	153.88
654.194	159.88
654.398	156.88
654.602	176.88
654.806	146.88
655.01	157.88
655.214	165.88
655.418	155.88
655.622	139.88
655.826	164.88
656.03	167.88
656.234	155.88
656.438	167.88
656.642	159.88
656.846	141.88
657.049	146.88
657.253	140.88
657.457	130.88
657.661	133.88
657.865	122.88
658.068	121.88
658.272	132.88
658.476	105.88
658.68	126.88
658.883	112.88
659.087	111.88
659.291	105.88
659.494	110.88
659.698	98.88
659.901	107.88
660.105	101.88
660.309	101.88
660.512	98.88
660.716	84.88
660.919	82.88
661.123	103.88
661.326	92.88
661.53	86.88
661.733	98.88
661.936	97.88
662.14	82.88
662.343	84.88
662.546	110.88
662.75	93.88
662.953	83.88
663.156	80.88
663.36	81.88
663.563	84.88
663.766	79.88
663.969	69.88
664.173	77.88
664.376	84.88
664.579	85.88
664.782	72.88
664.985	82.88
665.188	72.88
665.391	70.88
665.594	95.88
665.797	88.88
666	74.88
666.203	94.88
666.406	80.88
666.609	80.88
666.812	88.88
667.015	89.88
667.218	90.88
667.421	76.88
667.624	69.88
667.827	82.88
668.03	87.88
668.232	76.88
668.435	92.88
668.638	91.88
668.841	82.88
669.043	84.88
669.246	82.88
669.449	82.88
669.651	85.88
669.854	77.88
670.057	70.88
670.259	87.88
670.462	75.88
670.665	89.88
670.867	79.88
671.07	81.88
671.272	84.88
671.475	81.88
671.677	78.88
671.88	85.88
672.082	73.88
672.284	89.88
672.487	79.88
672.689	69.88
672.892	82.88
