Data from 1963.PennyLincolnUp.Lamp.En5.5.200Scan.071719.P1._HRD10591_13-57-17-062.txt Node
Date: Thu Jul 18 13:57:17 EDT 2019
User: cochatt
Spectrometer: HR+D1059
Trigger mode: 1
Integration Time (sec): 1.000000E-1
Scans to average: 1
Electric dark correction enabled: true
Nonlinearity correction enabled: false
Boxcar width: 0
XAxis mode: Wavelengths
Number of Pixels in Spectrum: 2048
>>>>>Begin Spectral Data<<<<<
223.165	-13.94
223.4	-13.94
223.635	-13.94
223.869	-11.94
224.104	-26.94
224.338	-13.94
224.573	-19.94
224.808	-6.94
225.042	-11.94
225.277	3.06
225.511	5.06
225.746	2.06
225.98	9.06
226.215	-7.94
226.449	14.06
226.683	30.06
226.918	26.06
227.152	24.06
227.387	24.06
227.621	46.06
227.856	39.06
228.09	52.06
228.324	59.06
228.559	57.06
228.793	57.06
229.027	88.06
229.262	92.06
229.496	98.06
229.73	101.06
229.964	134.06
230.199	115.06
230.433	108.06
230.667	118.06
230.901	105.06
231.136	113.06
231.37	114.06
231.604	120.06
231.838	107.06
232.072	108.06
232.306	114.06
232.541	121.06
232.775	115.06
233.009	120.06
233.243	116.06
233.477	111.06
233.711	109.06
233.945	114.06
234.179	118.06
234.413	116.06
234.647	126.06
234.881	110.06
235.115	119.06
235.349	109.06
235.583	129.06
235.817	108.06
236.051	132.06
236.285	132.06
236.519	137.06
236.753	132.06
236.987	129.06
237.221	148.06
237.455	172.06
237.689	146.06
237.922	131.06
238.156	124.06
238.39	121.06
238.624	116.06
238.858	134.06
239.091	126.06
239.325	131.06
239.559	121.06
239.793	129.06
240.027	135.06
240.26	142.06
240.494	147.06
240.728	143.06
240.961	139.06
241.195	141.06
241.429	131.06
241.662	127.06
241.896	151.06
242.13	143.06
242.363	129.06
242.597	131.06
242.83	136.06
243.064	151.06
243.298	140.06
243.531	138.06
243.765	159.06
243.998	135.06
244.232	150.06
244.465	141.06
244.699	153.06
244.932	171.06
245.166	157.06
245.399	166.06
245.633	157.06
245.866	157.06
246.099	167.06
246.333	151.06
246.566	162.06
246.8	158.06
247.033	162.06
247.266	167.06
247.5	156.06
247.733	169.06
247.966	169.06
248.2	172.06
248.433	169.06
248.666	180.06
248.899	173.06
249.133	181.06
249.366	186.06
249.599	185.06
249.832	174.06
250.066	188.06
250.299	171.06
250.532	193.06
250.765	199.06
250.998	198.06
251.231	218.06
251.465	212.06
251.698	202.06
251.931	203.06
252.164	206.06
252.397	195.06
252.63	211.06
252.863	210.06
253.096	212.06
253.329	204.06
253.562	219.06
253.795	210.06
254.028	211.06
254.261	211.06
254.494	205.06
254.727	235.06
254.96	230.06
255.193	221.06
255.426	220.06
255.659	217.06
255.892	228.06
256.124	234.06
256.357	233.06
256.59	230.06
256.823	220.06
257.056	226.06
257.289	203.06
257.521	207.06
257.754	208.06
257.987	219.06
258.22	221.06
258.452	209.06
258.685	217.06
258.918	214.06
259.151	233.06
259.383	203.06
259.616	228.06
259.849	212.06
260.081	240.06
260.314	259.06
260.547	238.06
260.779	235.06
261.012	228.06
261.244	222.06
261.477	226.06
261.71	234.06
261.942	233.06
262.175	236.06
262.407	230.06
262.64	226.06
262.872	214.06
263.105	228.06
263.337	226.06
263.57	237.06
263.802	229.06
264.035	228.06
264.267	229.06
264.499	216.06
264.732	225.06
264.964	234.06
265.197	232.06
265.429	224.06
265.661	238.06
265.894	240.06
266.126	225.06
266.358	239.06
266.591	243.06
266.823	253.06
267.055	245.06
267.287	249.06
267.52	234.06
267.752	244.06
267.984	240.06
268.216	236.06
268.448	259.06
268.681	251.06
268.913	262.06
269.145	275.06
269.377	270.06
269.609	277.06
269.841	271.06
270.073	262.06
270.306	298.06
270.538	286.06
270.77	303.06
271.002	290.06
271.234	263.06
271.466	278.06
271.698	291.06
271.93	297.06
272.162	309.06
272.394	309.06
272.626	309.06
272.858	287.06
273.09	279.06
273.322	278.06
273.553	289.06
273.785	279.06
274.017	275.06
274.249	281.06
274.481	287.06
274.713	267.06
274.945	293.06
275.176	269.06
275.408	283.06
275.64	284.06
275.872	284.06
276.104	277.06
276.335	291.06
276.567	292.06
276.799	287.06
277.031	305.06
277.262	278.06
277.494	322.06
277.726	297.06
277.957	290.06
278.189	308.06
278.421	300.06
278.652	300.06
278.884	293.06
279.115	293.06
279.347	327.06
279.579	296.06
279.81	296.06
280.042	294.06
280.273	315.06
280.505	305.06
280.736	296.06
280.968	293.06
281.199	300.06
281.431	305.06
281.662	291.06
281.894	322.06
282.125	311.06
282.356	308.06
282.588	308.06
282.819	326.06
283.051	318.06
283.282	297.06
283.513	307.06
283.745	317.06
283.976	314.06
284.207	334.06
284.439	332.06
284.67	319.06
284.901	325.06
285.132	347.06
285.364	320.06
285.595	344.06
285.826	334.06
286.057	332.06
286.288	338.06
286.52	317.06
286.751	329.06
286.982	328.06
287.213	329.06
287.444	329.06
287.675	318.06
287.906	325.06
288.138	334.06
288.369	334.06
288.6	326.06
288.831	350.06
289.062	352.06
289.293	318.06
289.524	344.06
289.755	330.06
289.986	346.06
290.217	350.06
290.448	344.06
290.679	341.06
290.91	341.06
291.141	345.06
291.371	349.06
291.602	344.06
291.833	337.06
292.064	349.06
292.295	342.06
292.526	351.06
292.757	325.06
292.987	346.06
293.218	350.06
293.449	350.06
293.68	330.06
293.91	356.06
294.141	352.06
294.372	349.06
294.603	336.06
294.833	344.06
295.064	367.06
295.295	356.06
295.525	356.06
295.756	334.06
295.987	326.06
296.217	354.06
296.448	378.06
296.679	337.06
296.909	346.06
297.14	355.06
297.37	350.06
297.601	376.06
297.831	353.06
298.062	357.06
298.292	373.06
298.523	349.06
298.753	366.06
298.984	367.06
299.214	355.06
299.445	354.06
299.675	377.06
299.905	359.06
300.136	361.06
300.366	385.06
300.597	351.06
300.827	381.06
301.057	381.06
301.288	378.06
301.518	394.06
301.748	390.06
301.979	401.06
302.209	391.06
302.439	398.06
302.669	389.06
302.9	383.06
303.13	386.06
303.36	371.06
303.59	381.06
303.82	384.06
304.051	386.06
304.281	400.06
304.511	380.06
304.741	376.06
304.971	407.06
305.201	362.06
305.431	372.06
305.661	372.06
305.891	379.06
306.121	400.06
306.352	377.06
306.582	378.06
306.812	382.06
307.042	379.06
307.272	382.06
307.502	392.06
307.731	378.06
307.961	398.06
308.191	382.06
308.421	382.06
308.651	401.06
308.881	395.06
309.111	402.06
309.341	381.06
309.571	399.06
309.8	389.06
310.03	392.06
310.26	380.06
310.49	399.06
310.72	426.06
310.949	407.06
311.179	396.06
311.409	428.06
311.639	426.06
311.868	398.06
312.098	407.06
312.328	409.06
312.557	434.06
312.787	425.06
313.017	430.06
313.246	413.06
313.476	426.06
313.706	424.06
313.935	406.06
314.165	412.06
314.394	435.06
314.624	423.06
314.853	409.06
315.083	413.06
315.312	422.06
315.542	420.06
315.771	417.06
316.001	422.06
316.23	440.06
316.46	431.06
316.689	428.06
316.919	424.06
317.148	415.06
317.377	414.06
317.607	423.06
317.836	430.06
318.065	420.06
318.295	433.06
318.524	443.06
318.753	416.06
318.983	414.06
319.212	431.06
319.441	430.06
319.67	420.06
319.9	422.06
320.129	420.06
320.358	435.06
320.587	423.06
320.816	427.06
321.046	433.06
321.275	430.06
321.504	425.06
321.733	425.06
321.962	443.06
322.191	449.06
322.42	438.06
322.649	407.06
322.878	457.06
323.108	479.06
323.337	478.06
323.566	476.06
323.795	466.06
324.024	481.06
324.253	527.06
324.482	620.06
324.71	818.06
324.939	1132.06
325.168	1033.06
325.397	623.06
325.626	499.06
325.855	477.06
326.084	470.06
326.313	486.06
326.542	478.06
326.77	499.06
326.999	543.06
327.228	629.06
327.457	793.06
327.686	919.06
327.914	682.06
328.143	542.06
328.372	521.06
328.6	521.06
328.829	495.06
329.058	508.06
329.287	521.06
329.515	511.06
329.744	503.06
329.972	497.06
330.201	515.06
330.43	524.06
330.658	514.06
330.887	538.06
331.115	542.06
331.344	522.06
331.572	508.06
331.801	511.06
332.03	523.06
332.258	506.06
332.486	520.06
332.715	507.06
332.943	527.06
333.172	533.06
333.4	563.06
333.629	578.06
333.857	590.06
334.085	574.06
334.314	580.06
334.542	584.06
334.771	591.06
334.999	582.06
335.227	581.06
335.455	554.06
335.684	557.06
335.912	562.06
336.14	545.06
336.369	539.06
336.597	538.06
336.825	509.06
337.053	523.06
337.281	527.06
337.51	536.06
337.738	501.06
337.966	518.06
338.194	507.06
338.422	518.06
338.65	513.06
338.878	506.06
339.106	512.06
339.334	509.06
339.562	487.06
339.79	494.06
340.018	485.06
340.246	490.06
340.474	492.06
340.702	492.06
340.93	492.06
341.158	481.06
341.386	478.06
341.614	495.06
341.842	485.06
342.07	466.06
342.298	489.06
342.526	478.06
342.754	477.06
342.981	494.06
343.209	481.06
343.437	504.06
343.665	527.06
343.893	541.06
344.12	585.06
344.348	555.06
344.576	548.06
344.804	543.06
345.031	494.06
345.259	500.06
345.487	505.06
345.714	491.06
345.942	473.06
346.17	487.06
346.397	459.06
346.625	453.06
346.853	467.06
347.08	463.06
347.308	470.06
347.535	486.06
347.763	475.06
347.99	443.06
348.218	464.06
348.445	458.06
348.673	470.06
348.9	470.06
349.128	457.06
349.355	442.06
349.583	451.06
349.81	466.06
350.037	451.06
350.265	458.06
350.492	489.06
350.72	446.06
350.947	462.06
351.174	466.06
351.402	456.06
351.629	467.06
351.856	466.06
352.083	482.06
352.311	465.06
352.538	466.06
352.765	469.06
352.992	464.06
353.22	461.06
353.447	454.06
353.674	451.06
353.901	463.06
354.128	448.06
354.355	461.06
354.583	449.06
354.81	452.06
355.037	453.06
355.264	451.06
355.491	454.06
355.718	487.06
355.945	459.06
356.172	447.06
356.399	479.06
356.626	437.06
356.853	465.06
357.08	444.06
357.307	458.06
357.534	452.06
357.761	471.06
357.988	478.06
358.215	455.06
358.441	458.06
358.668	461.06
358.895	471.06
359.122	460.06
359.349	475.06
359.576	467.06
359.802	462.06
360.029	484.06
360.256	471.06
360.483	502.06
360.709	452.06
360.936	477.06
361.163	474.06
361.39	457.06
361.616	451.06
361.843	453.06
362.07	457.06
362.296	461.06
362.523	468.06
362.749	467.06
362.976	450.06
363.203	456.06
363.429	447.06
363.656	466.06
363.882	474.06
364.109	446.06
364.335	449.06
364.562	459.06
364.788	476.06
365.015	447.06
365.241	456.06
365.468	447.06
365.694	483.06
365.92	461.06
366.147	466.06
366.373	470.06
366.599	456.06
366.826	475.06
367.052	475.06
367.278	470.06
367.505	472.06
367.731	497.06
367.957	477.06
368.184	449.06
368.41	455.06
368.636	485.06
368.862	474.06
369.089	472.06
369.315	467.06
369.541	477.06
369.767	472.06
369.993	467.06
370.219	466.06
370.445	471.06
370.672	477.06
370.898	460.06
371.124	489.06
371.35	482.06
371.576	482.06
371.802	481.06
372.028	484.06
372.254	486.06
372.48	493.06
372.706	480.06
372.932	501.06
373.158	498.06
373.384	504.06
373.61	486.06
373.835	479.06
374.061	485.06
374.287	499.06
374.513	491.06
374.739	499.06
374.965	530.06
375.191	538.06
375.416	536.06
375.642	507.06
375.868	504.06
376.094	478.06
376.319	503.06
376.545	475.06
376.771	504.06
376.997	489.06
377.222	474.06
377.448	484.06
377.674	486.06
377.899	490.06
378.125	482.06
378.35	476.06
378.576	495.06
378.802	470.06
379.027	484.06
379.253	490.06
379.478	484.06
379.704	462.06
379.929	462.06
380.155	473.06
380.38	490.06
380.606	460.06
380.831	502.06
381.057	491.06
381.282	488.06
381.507	499.06
381.733	494.06
381.958	512.06
382.184	501.06
382.409	485.06
382.634	514.06
382.86	521.06
383.085	541.06
383.31	547.06
383.535	525.06
383.761	513.06
383.986	523.06
384.211	527.06
384.436	511.06
384.662	551.06
384.887	555.06
385.112	571.06
385.337	557.06
385.562	538.06
385.787	573.06
386.013	571.06
386.238	564.06
386.463	569.06
386.688	581.06
386.913	563.06
387.138	579.06
387.363	561.06
387.588	546.06
387.813	564.06
388.038	550.06
388.263	547.06
388.488	565.06
388.713	554.06
388.938	565.06
389.163	549.06
389.387	551.06
389.612	554.06
389.837	543.06
390.062	565.06
390.287	553.06
390.512	548.06
390.736	550.06
390.961	571.06
391.186	577.06
391.411	574.06
391.636	580.06
391.86	609.06
392.085	613.06
392.31	626.06
392.534	612.06
392.759	587.06
392.984	628.06
393.208	625.06
393.433	664.06
393.658	687.06
393.882	613.06
394.107	588.06
394.331	590.06
394.556	580.06
394.78	578.06
395.005	574.06
395.229	584.06
395.454	608.06
395.678	620.06
395.903	611.06
396.127	627.06
396.352	631.06
396.576	592.06
396.801	629.06
397.025	651.06
397.249	630.06
397.474	618.06
397.698	638.06
397.922	618.06
398.147	635.06
398.371	646.06
398.595	638.06
398.82	663.06
399.044	693.06
399.268	756.06
399.492	803.06
399.717	893.06
399.941	906.06
400.165	856.06
400.389	814.06
400.613	763.06
400.837	723.06
401.062	708.06
401.286	684.06
401.51	659.06
401.734	666.06
401.958	698.06
402.182	669.06
402.406	677.06
402.63	696.06
402.854	701.06
403.078	692.06
403.302	727.06
403.526	736.06
403.75	733.06
403.974	735.06
404.198	728.06
404.422	741.06
404.645	732.06
404.869	729.06
405.093	781.06
405.317	783.06
405.541	774.06
405.765	729.06
405.988	688.06
406.212	729.06
406.436	742.06
406.66	747.06
406.883	747.06
407.107	761.06
407.331	833.06
407.555	863.06
407.778	881.06
408.002	835.06
408.226	785.06
408.449	796.06
408.673	746.06
408.896	774.06
409.12	792.06
409.344	759.06
409.567	715.06
409.791	734.06
410.014	706.06
410.238	702.06
410.461	700.06
410.685	714.06
410.908	699.06
411.132	716.06
411.355	723.06
411.578	751.06
411.802	717.06
412.025	713.06
412.249	703.06
412.472	699.06
412.695	737.06
412.919	722.06
413.142	695.06
413.365	646.06
413.589	673.06
413.812	664.06
414.035	647.06
414.258	693.06
414.482	659.06
414.705	671.06
414.928	651.06
415.151	677.06
415.374	654.06
415.597	663.06
415.821	650.06
416.044	655.06
416.267	654.06
416.49	654.06
416.713	665.06
416.936	643.06
417.159	649.06
417.382	673.06
417.605	655.06
417.828	686.06
418.051	670.06
418.274	692.06
418.497	657.06
418.72	651.06
418.943	676.06
419.166	685.06
419.389	729.06
419.611	725.06
419.834	706.06
420.057	702.06
420.28	680.06
420.503	667.06
420.726	678.06
420.948	695.06
421.171	677.06
421.394	709.06
421.617	672.06
421.839	673.06
422.062	660.06
422.285	642.06
422.507	720.06
422.73	773.06
422.953	741.06
423.175	708.06
423.398	693.06
423.621	705.06
423.843	723.06
424.066	701.06
424.288	714.06
424.511	717.06
424.733	719.06
424.956	780.06
425.178	774.06
425.401	743.06
425.623	751.06
425.846	693.06
426.068	670.06
426.291	670.06
426.513	647.06
426.735	661.06
426.958	691.06
427.18	733.06
427.402	806.06
427.625	872.06
427.847	750.06
428.069	707.06
428.292	653.06
428.514	620.06
428.736	609.06
428.958	643.06
429.181	616.06
429.403	627.06
429.625	630.06
429.847	641.06
430.069	659.06
430.292	678.06
430.514	621.06
430.736	611.06
430.958	597.06
431.18	617.06
431.402	598.06
431.624	601.06
431.846	606.06
432.068	587.06
432.29	629.06
432.512	618.06
432.734	615.06
432.956	594.06
433.178	615.06
433.4	590.06
433.622	596.06
433.844	613.06
434.066	615.06
434.287	618.06
434.509	641.06
434.731	650.06
434.953	690.06
435.175	685.06
435.397	693.06
435.618	663.06
435.84	671.06
436.062	694.06
436.284	749.06
436.505	698.06
436.727	637.06
436.949	599.06
437.17	609.06
437.392	613.06
437.614	615.06
437.835	626.06
438.057	671.06
438.278	729.06
438.5	735.06
438.721	807.06
438.943	745.06
439.165	677.06
439.386	651.06
439.608	621.06
439.829	641.06
440.05	647.06
440.272	663.06
440.493	655.06
440.715	622.06
440.936	652.06
441.158	621.06
441.379	647.06
441.6	653.06
441.822	661.06
442.043	689.06
442.264	726.06
442.486	735.06
442.707	698.06
442.928	683.06
443.149	691.06
443.371	694.06
443.592	732.06
443.813	774.06
444.034	822.06
444.255	750.06
444.476	710.06
444.698	720.06
444.919	728.06
445.14	867.06
445.361	787.06
445.582	710.06
445.803	693.06
446.024	761.06
446.245	758.06
446.466	680.06
446.687	655.06
446.908	639.06
447.129	602.06
447.35	615.06
447.571	611.06
447.792	590.06
448.013	599.06
448.234	587.06
448.455	623.06
448.675	685.06
448.896	759.06
449.117	675.06
449.338	683.06
449.559	720.06
449.779	767.06
450	669.06
450.221	593.06
450.442	607.06
450.662	576.06
450.883	562.06
451.104	581.06
451.324	564.06
451.545	558.06
451.766	565.06
451.986	527.06
452.207	549.06
452.428	546.06
452.648	539.06
452.869	541.06
453.089	561.06
453.31	575.06
453.53	545.06
453.751	551.06
453.971	531.06
454.192	560.06
454.412	534.06
454.633	525.06
454.853	535.06
455.073	541.06
455.294	540.06
455.514	589.06
455.734	579.06
455.955	537.06
456.175	530.06
456.395	513.06
456.616	533.06
456.836	531.06
457.056	526.06
457.276	519.06
457.497	535.06
457.717	518.06
457.937	547.06
458.157	558.06
458.377	547.06
458.598	578.06
458.818	584.06
459.038	631.06
459.258	669.06
459.478	599.06
459.698	633.06
459.918	621.06
460.138	662.06
460.358	667.06
460.578	662.06
460.798	668.06
461.018	685.06
461.238	670.06
461.458	675.06
461.678	650.06
461.898	683.06
462.118	685.06
462.338	701.06
462.558	723.06
462.777	742.06
462.997	775.06
463.217	826.06
463.437	817.06
463.657	758.06
463.876	736.06
464.096	771.06
464.316	744.06
464.536	745.06
464.755	732.06
464.975	725.06
465.195	739.06
465.414	747.06
465.634	662.06
465.854	649.06
466.073	606.06
466.293	622.06
466.512	608.06
466.732	611.06
466.951	594.06
467.171	567.06
467.391	585.06
467.61	595.06
467.829	576.06
468.049	607.06
468.268	575.06
468.488	575.06
468.707	565.06
468.927	591.06
469.146	576.06
469.365	589.06
469.585	563.06
469.804	611.06
470.023	590.06
470.243	594.06
470.462	610.06
470.681	599.06
470.901	628.06
471.12	625.06
471.339	601.06
471.558	593.06
471.777	590.06
471.997	589.06
472.216	590.06
472.435	608.06
472.654	589.06
472.873	573.06
473.092	583.06
473.311	573.06
473.53	561.06
473.749	549.06
473.968	591.06
474.187	659.06
474.406	643.06
474.625	602.06
474.844	600.06
475.063	607.06
475.282	570.06
475.501	585.06
475.72	585.06
475.939	567.06
476.158	585.06
476.377	618.06
476.596	595.06
476.814	618.06
477.033	610.06
477.252	636.06
477.471	651.06
477.69	643.06
477.908	660.06
478.127	670.06
478.346	667.06
478.564	684.06
478.783	703.06
479.002	699.06
479.22	692.06
479.439	731.06
479.658	697.06
479.876	702.06
480.095	732.06
480.313	787.06
480.532	774.06
480.751	755.06
480.969	740.06
481.188	745.06
481.406	749.06
481.624	713.06
481.843	703.06
482.061	674.06
482.28	670.06
482.498	663.06
482.717	678.06
482.935	674.06
483.153	677.06
483.372	671.06
483.59	691.06
483.808	673.06
484.027	694.06
484.245	707.06
484.463	705.06
484.681	697.06
484.9	684.06
485.118	706.06
485.336	691.06
485.554	728.06
485.772	686.06
485.99	701.06
486.209	735.06
486.427	716.06
486.645	713.06
486.863	687.06
487.081	689.06
487.299	718.06
487.517	717.06
487.735	708.06
487.953	718.06
488.171	720.06
488.389	691.06
488.607	735.06
488.825	711.06
489.043	706.06
489.261	731.06
489.479	741.06
489.696	740.06
489.914	715.06
490.132	739.06
490.35	724.06
490.568	730.06
490.786	740.06
491.003	751.06
491.221	771.06
491.439	746.06
491.657	777.06
491.874	796.06
492.092	765.06
492.31	770.06
492.527	781.06
492.745	790.06
492.963	813.06
493.18	781.06
493.398	806.06
493.615	790.06
493.833	831.06
494.05	807.06
494.268	813.06
494.485	805.06
494.703	836.06
494.92	826.06
495.138	806.06
495.355	828.06
495.573	835.06
495.79	832.06
496.008	839.06
496.225	828.06
496.442	836.06
496.66	819.06
496.877	822.06
497.094	865.06
497.312	880.06
497.529	873.06
497.746	885.06
497.963	920.06
498.181	954.06
498.398	958.06
498.615	991.06
498.832	1042.06
499.049	1109.06
499.267	1161.06
499.484	1249.06
499.701	1324.06
499.918	1414.06
500.135	1565.06
500.352	1684.06
500.569	1741.06
500.786	1715.06
501.003	1647.06
501.22	1557.06
501.437	1415.06
501.654	1309.06
501.871	1228.06
502.088	1179.06
502.305	1108.06
502.522	1077.06
502.739	1042.06
502.956	1006.06
503.172	976.06
503.389	940.06
503.606	893.06
503.823	891.06
504.04	893.06
504.256	902.06
504.473	921.06
504.69	907.06
504.907	919.06
505.123	876.06
505.34	843.06
505.557	809.06
505.773	778.06
505.99	800.06
506.207	775.06
506.423	746.06
506.64	766.06
506.856	768.06
507.073	759.06
507.289	745.06
507.506	769.06
507.722	750.06
507.939	712.06
508.155	733.06
508.372	698.06
508.588	729.06
508.805	718.06
509.021	701.06
509.238	714.06
509.454	706.06
509.67	717.06
509.887	705.06
510.103	703.06
510.319	693.06
510.536	722.06
510.752	909.06
510.968	823.06
511.184	702.06
511.401	668.06
511.617	669.06
511.833	694.06
512.049	669.06
512.265	684.06
512.481	666.06
512.698	673.06
512.914	683.06
513.13	654.06
513.346	665.06
513.562	656.06
513.778	657.06
513.994	688.06
514.21	695.06
514.426	690.06
514.642	709.06
514.858	695.06
515.074	715.06
515.29	764.06
515.506	905.06
515.721	823.06
515.937	760.06
516.153	713.06
516.369	717.06
516.585	745.06
516.801	719.06
517.016	787.06
517.232	821.06
517.448	806.06
517.664	817.06
517.879	837.06
518.095	858.06
518.311	822.06
518.527	795.06
518.742	771.06
518.958	772.06
519.173	738.06
519.389	749.06
519.605	731.06
519.82	702.06
520.036	695.06
520.251	707.06
520.467	706.06
520.682	705.06
520.898	682.06
521.113	647.06
521.329	686.06
521.544	705.06
521.76	795.06
521.975	963.06
522.19	1013.06
522.406	753.06
522.621	680.06
522.836	664.06
523.052	646.06
523.267	628.06
523.482	612.06
523.698	604.06
523.913	633.06
524.128	628.06
524.343	616.06
524.559	610.06
524.774	629.06
524.989	630.06
525.204	626.06
525.419	604.06
525.634	586.06
525.849	571.06
526.064	613.06
526.28	592.06
526.495	598.06
526.71	598.06
526.925	578.06
527.14	585.06
527.355	586.06
527.57	587.06
527.785	573.06
527.999	597.06
528.214	582.06
528.429	586.06
528.644	600.06
528.859	617.06
529.074	595.06
529.289	595.06
529.503	632.06
529.718	629.06
529.933	609.06
530.148	605.06
530.363	602.06
530.577	577.06
530.792	583.06
531.007	570.06
531.221	595.06
531.436	603.06
531.651	589.06
531.865	578.06
532.08	590.06
532.295	603.06
532.509	595.06
532.724	577.06
532.938	590.06
533.153	601.06
533.367	606.06
533.582	565.06
533.796	575.06
534.011	573.06
534.225	576.06
534.44	571.06
534.654	585.06
534.868	594.06
535.083	567.06
535.297	565.06
535.511	559.06
535.726	563.06
535.94	561.06
536.154	583.06
536.369	572.06
536.583	573.06
536.797	559.06
537.011	546.06
537.225	568.06
537.44	565.06
537.654	568.06
537.868	531.06
538.082	545.06
538.296	545.06
538.51	569.06
538.724	545.06
538.938	528.06
539.153	529.06
539.367	555.06
539.581	530.06
539.795	542.06
540.009	520.06
540.222	557.06
540.436	555.06
540.65	522.06
540.864	559.06
541.078	545.06
541.292	534.06
541.506	548.06
541.72	550.06
541.934	528.06
542.147	526.06
542.361	526.06
542.575	555.06
542.789	543.06
543.002	540.06
543.216	550.06
543.43	517.06
543.644	532.06
543.857	550.06
544.071	539.06
544.285	563.06
544.498	547.06
544.712	554.06
544.925	552.06
545.139	553.06
545.352	556.06
545.566	556.06
545.779	571.06
545.993	553.06
546.206	552.06
546.42	547.06
546.633	509.06
546.847	541.06
547.06	541.06
547.274	556.06
547.487	576.06
547.7	551.06
547.914	552.06
548.127	557.06
548.34	521.06
548.554	540.06
548.767	536.06
548.98	538.06
549.193	568.06
549.407	542.06
549.62	571.06
549.833	572.06
550.046	553.06
550.259	561.06
550.473	547.06
550.686	533.06
550.899	548.06
551.112	554.06
551.325	530.06
551.538	548.06
551.751	566.06
551.964	537.06
552.177	555.06
552.39	570.06
552.603	590.06
552.816	590.06
553.029	590.06
553.242	592.06
553.455	593.06
553.667	602.06
553.88	608.06
554.093	569.06
554.306	565.06
554.519	563.06
554.732	557.06
554.944	543.06
555.157	541.06
555.37	546.06
555.583	526.06
555.795	536.06
556.008	518.06
556.221	526.06
556.433	516.06
556.646	515.06
556.859	504.06
557.071	507.06
557.284	502.06
557.496	485.06
557.709	462.06
557.921	496.06
558.134	469.06
558.346	494.06
558.559	469.06
558.771	478.06
558.984	484.06
559.196	472.06
559.409	472.06
559.621	492.06
559.833	463.06
560.046	471.06
560.258	489.06
560.47	479.06
560.683	467.06
560.895	473.06
561.107	465.06
561.32	477.06
561.532	478.06
561.744	497.06
561.956	487.06
562.168	483.06
562.381	487.06
562.593	492.06
562.805	453.06
563.017	507.06
563.229	495.06
563.441	489.06
563.653	504.06
563.865	484.06
564.077	518.06
564.289	494.06
564.501	501.06
564.713	517.06
564.925	534.06
565.137	532.06
565.349	551.06
565.561	537.06
565.773	581.06
565.985	575.06
566.197	599.06
566.408	635.06
566.62	691.06
566.832	706.06
567.044	748.06
567.255	702.06
567.467	764.06
567.679	784.06
567.891	819.06
568.102	839.06
568.314	783.06
568.526	732.06
568.737	669.06
568.949	655.06
569.161	605.06
569.372	577.06
569.584	533.06
569.795	518.06
570.007	539.06
570.218	557.06
570.43	525.06
570.641	530.06
570.853	512.06
571.064	522.06
571.276	514.06
571.487	516.06
571.698	492.06
571.91	487.06
572.121	474.06
572.333	471.06
572.544	444.06
572.755	444.06
572.966	450.06
573.178	443.06
573.389	454.06
573.6	437.06
573.811	438.06
574.023	431.06
574.234	411.06
574.445	426.06
574.656	425.06
574.867	426.06
575.078	429.06
575.289	437.06
575.501	425.06
575.712	391.06
575.923	382.06
576.134	398.06
576.345	393.06
576.556	414.06
576.767	409.06
576.978	399.06
577.188	405.06
577.399	428.06
577.61	394.06
577.821	379.06
578.032	391.06
578.243	388.06
578.454	475.06
578.665	429.06
578.875	391.06
579.086	385.06
579.297	386.06
579.508	390.06
579.718	386.06
579.929	376.06
580.14	390.06
580.35	395.06
580.561	390.06
580.772	396.06
580.982	368.06
581.193	387.06
581.403	405.06
581.614	376.06
581.825	379.06
582.035	385.06
582.246	370.06
582.456	382.06
582.667	385.06
582.877	380.06
583.087	382.06
583.298	386.06
583.508	391.06
583.719	378.06
583.929	373.06
584.139	366.06
584.35	357.06
584.56	330.06
584.77	361.06
584.981	376.06
585.191	373.06
585.401	377.06
585.611	357.06
585.821	365.06
586.032	358.06
586.242	359.06
586.452	362.06
586.662	366.06
586.872	378.06
587.082	367.06
587.292	365.06
587.502	362.06
587.713	366.06
587.923	371.06
588.133	375.06
588.343	366.06
588.553	381.06
588.762	381.06
588.972	376.06
589.182	385.06
589.392	379.06
589.602	376.06
589.812	381.06
590.022	380.06
590.232	380.06
590.441	380.06
590.651	382.06
590.861	367.06
591.071	366.06
591.281	361.06
591.49	377.06
591.7	402.06
591.91	397.06
592.119	397.06
592.329	425.06
592.539	426.06
592.748	430.06
592.958	446.06
593.167	429.06
593.377	439.06
593.587	460.06
593.796	457.06
594.006	451.06
594.215	457.06
594.424	450.06
594.634	451.06
594.843	449.06
595.053	404.06
595.262	429.06
595.472	406.06
595.681	409.06
595.89	366.06
596.1	386.06
596.309	377.06
596.518	397.06
596.727	341.06
596.937	369.06
597.146	348.06
597.355	341.06
597.564	333.06
597.774	352.06
597.983	332.06
598.192	347.06
598.401	327.06
598.61	334.06
598.819	327.06
599.028	331.06
599.237	334.06
599.446	332.06
599.655	348.06
599.864	340.06
600.073	308.06
600.282	332.06
600.491	307.06
600.7	319.06
600.909	340.06
601.118	305.06
601.327	328.06
601.536	314.06
601.745	320.06
601.953	318.06
602.162	309.06
602.371	309.06
602.58	330.06
602.789	307.06
602.997	322.06
603.206	307.06
603.415	314.06
603.623	314.06
603.832	300.06
604.041	324.06
604.249	297.06
604.458	306.06
604.666	315.06
604.875	287.06
605.084	290.06
605.292	308.06
605.501	313.06
605.709	312.06
605.918	302.06
606.126	291.06
606.334	295.06
606.543	305.06
606.751	290.06
606.96	307.06
607.168	309.06
607.376	306.06
607.585	289.06
607.793	300.06
608.001	312.06
608.21	294.06
608.418	310.06
608.626	279.06
608.834	293.06
609.043	298.06
609.251	282.06
609.459	278.06
609.667	293.06
609.875	293.06
610.083	308.06
610.291	296.06
610.499	301.06
610.707	281.06
610.916	301.06
611.124	296.06
611.332	301.06
611.54	304.06
611.748	304.06
611.955	291.06
612.163	305.06
612.371	289.06
612.579	284.06
612.787	289.06
612.995	295.06
613.203	293.06
613.411	291.06
613.618	300.06
613.826	300.06
614.034	285.06
614.242	284.06
614.449	278.06
614.657	278.06
614.865	301.06
615.072	287.06
615.28	284.06
615.488	278.06
615.695	266.06
615.903	283.06
616.111	298.06
616.318	275.06
616.526	298.06
616.733	295.06
616.941	298.06
617.148	292.06
617.356	289.06
617.563	277.06
617.771	289.06
617.978	311.06
618.185	282.06
618.393	285.06
618.6	284.06
618.807	280.06
619.015	276.06
619.222	279.06
619.429	303.06
619.637	285.06
619.844	284.06
620.051	285.06
620.258	269.06
620.466	279.06
620.673	296.06
620.88	276.06
621.087	267.06
621.294	280.06
621.501	285.06
621.708	259.06
621.915	278.06
622.122	260.06
622.329	259.06
622.536	283.06
622.743	267.06
622.95	275.06
623.157	269.06
623.364	261.06
623.571	267.06
623.778	267.06
623.985	277.06
624.192	268.06
624.399	259.06
624.606	267.06
624.812	258.06
625.019	270.06
625.226	259.06
625.433	263.06
625.639	262.06
625.846	239.06
626.053	253.06
626.259	263.06
626.466	251.06
626.673	252.06
626.879	247.06
627.086	248.06
627.293	239.06
627.499	237.06
627.706	236.06
627.912	249.06
628.119	257.06
628.325	239.06
628.532	243.06
628.738	233.06
628.945	234.06
629.151	245.06
629.357	237.06
629.564	215.06
629.77	250.06
629.976	229.06
630.183	230.06
630.389	243.06
630.595	236.06
630.802	238.06
631.008	238.06
631.214	231.06
631.42	233.06
631.627	238.06
631.833	239.06
632.039	218.06
632.245	233.06
632.451	217.06
632.657	231.06
632.863	240.06
633.069	209.06
633.275	225.06
633.481	230.06
633.688	227.06
633.893	227.06
634.099	227.06
634.305	219.06
634.511	217.06
634.717	227.06
634.923	221.06
635.129	222.06
635.335	217.06
635.541	228.06
635.747	214.06
635.952	221.06
636.158	208.06
636.364	211.06
636.57	208.06
636.775	234.06
636.981	219.06
637.187	208.06
637.392	216.06
637.598	220.06
637.804	214.06
638.009	215.06
638.215	216.06
638.421	223.06
638.626	215.06
638.832	215.06
639.037	194.06
639.243	211.06
639.448	205.06
639.654	201.06
639.859	197.06
640.065	194.06
640.27	231.06
640.475	206.06
640.681	211.06
640.886	218.06
641.091	209.06
641.297	207.06
641.502	204.06
641.707	204.06
641.913	192.06
642.118	195.06
642.323	204.06
642.528	207.06
642.733	200.06
642.939	188.06
643.144	199.06
643.349	197.06
643.554	189.06
643.759	183.06
643.964	196.06
644.169	188.06
644.374	197.06
644.579	213.06
644.784	207.06
644.989	204.06
645.194	197.06
645.399	197.06
645.604	207.06
645.809	188.06
646.014	208.06
646.219	199.06
646.423	204.06
646.628	203.06
646.833	196.06
647.038	199.06
647.243	205.06
647.447	190.06
647.652	203.06
647.857	198.06
648.062	205.06
648.266	202.06
648.471	190.06
648.676	206.06
648.88	205.06
649.085	213.06
649.289	203.06
649.494	189.06
649.698	195.06
649.903	208.06
650.107	200.06
650.312	190.06
650.516	189.06
650.721	188.06
650.925	179.06
651.13	175.06
651.334	190.06
651.539	181.06
651.743	174.06
651.947	182.06
652.152	181.06
652.356	158.06
652.56	179.06
652.764	183.06
652.969	181.06
653.173	169.06
653.377	173.06
653.581	181.06
653.785	161.06
653.99	161.06
654.194	167.06
654.398	157.06
654.602	160.06
654.806	158.06
655.01	164.06
655.214	165.06
655.418	166.06
655.622	161.06
655.826	157.06
656.03	157.06
656.234	169.06
656.438	191.06
656.642	183.06
656.846	169.06
657.049	156.06
657.253	150.06
657.457	150.06
657.661	133.06
657.865	132.06
658.068	126.06
658.272	133.06
658.476	124.06
658.68	117.06
658.883	114.06
659.087	99.06
659.291	121.06
659.494	109.06
659.698	107.06
659.901	103.06
660.105	104.06
660.309	105.06
660.512	113.06
660.716	90.06
660.919	107.06
661.123	87.06
661.326	94.06
661.53	95.06
661.733	87.06
661.936	89.06
662.14	81.06
662.343	84.06
662.546	91.06
662.75	85.06
662.953	87.06
663.156	75.06
663.36	90.06
663.563	87.06
663.766	84.06
663.969	94.06
664.173	76.06
664.376	78.06
664.579	93.06
664.782	86.06
664.985	87.06
665.188	95.06
665.391	82.06
665.594	81.06
665.797	84.06
666	82.06
666.203	78.06
666.406	90.06
666.609	82.06
666.812	92.06
667.015	78.06
667.218	89.06
667.421	94.06
667.624	82.06
667.827	86.06
668.03	96.06
668.232	84.06
668.435	65.06
668.638	79.06
668.841	77.06
669.043	68.06
669.246	78.06
669.449	84.06
669.651	89.06
669.854	86.06
670.057	68.06
670.259	90.06
670.462	91.06
670.665	74.06
670.867	78.06
671.07	90.06
671.272	70.06
671.475	85.06
671.677	68.06
671.88	79.06
672.082	88.06
672.284	85.06
672.487	86.06
672.689	90.06
672.892	89.06
