Data from 1963.PennyLincolnUp.Lamp.En5.5.200Scan.071719.P1._HRD10591_13-59-09-063.txt Node
Date: Thu Jul 18 13:59:09 EDT 2019
User: cochatt
Spectrometer: HR+D1059
Trigger mode: 1
Integration Time (sec): 1.000000E-1
Scans to average: 1
Electric dark correction enabled: true
Nonlinearity correction enabled: false
Boxcar width: 0
XAxis mode: Wavelengths
Number of Pixels in Spectrum: 2048
>>>>>Begin Spectral Data<<<<<
223.165	6.75
223.4	6.75
223.635	6.75
223.869	-8.25
224.104	-14.25
224.338	-17.25
224.573	-22.25
224.808	-14.25
225.042	-5.25
225.277	-17.25
225.511	0.75
225.746	7.75
225.98	-1.25
226.215	8.75
226.449	24.75
226.683	8.75
226.918	14.75
227.152	27.75
227.387	24.75
227.621	38.75
227.856	42.75
228.09	40.75
228.324	41.75
228.559	48.75
228.793	55.75
229.027	90.75
229.262	105.75
229.496	105.75
229.73	126.75
229.964	151.75
230.199	119.75
230.433	105.75
230.667	117.75
230.901	119.75
231.136	114.75
231.37	101.75
231.604	102.75
231.838	121.75
232.072	124.75
232.306	110.75
232.541	123.75
232.775	117.75
233.009	120.75
233.243	112.75
233.477	123.75
233.711	119.75
233.945	116.75
234.179	118.75
234.413	110.75
234.647	126.75
234.881	118.75
235.115	101.75
235.349	122.75
235.583	136.75
235.817	114.75
236.051	131.75
236.285	126.75
236.519	131.75
236.753	140.75
236.987	140.75
237.221	164.75
237.455	211.75
237.689	163.75
237.922	138.75
238.156	118.75
238.39	148.75
238.624	126.75
238.858	111.75
239.091	140.75
239.325	125.75
239.559	135.75
239.793	154.75
240.027	154.75
240.26	131.75
240.494	160.75
240.728	160.75
240.961	156.75
241.195	140.75
241.429	144.75
241.662	149.75
241.896	135.75
242.13	147.75
242.363	140.75
242.597	145.75
242.83	136.75
243.064	146.75
243.298	141.75
243.531	134.75
243.765	153.75
243.998	161.75
244.232	147.75
244.465	156.75
244.699	150.75
244.932	151.75
245.166	165.75
245.399	154.75
245.633	156.75
245.866	171.75
246.099	167.75
246.333	159.75
246.566	168.75
246.8	182.75
247.033	166.75
247.266	159.75
247.5	182.75
247.733	175.75
247.966	188.75
248.2	181.75
248.433	175.75
248.666	184.75
248.899	198.75
249.133	188.75
249.366	214.75
249.599	209.75
249.832	187.75
250.066	207.75
250.299	190.75
250.532	192.75
250.765	218.75
250.998	228.75
251.231	229.75
251.465	206.75
251.698	207.75
251.931	226.75
252.164	209.75
252.397	194.75
252.63	217.75
252.863	231.75
253.096	235.75
253.329	233.75
253.562	236.75
253.795	223.75
254.028	224.75
254.261	235.75
254.494	249.75
254.727	259.75
254.96	297.75
255.193	278.75
255.426	238.75
255.659	232.75
255.892	244.75
256.124	230.75
256.357	236.75
256.59	241.75
256.823	228.75
257.056	223.75
257.289	234.75
257.521	236.75
257.754	228.75
257.987	223.75
258.22	230.75
258.452	225.75
258.685	230.75
258.918	210.75
259.151	231.75
259.383	234.75
259.616	223.75
259.849	242.75
260.081	252.75
260.314	249.75
260.547	246.75
260.779	241.75
261.012	251.75
261.244	243.75
261.477	235.75
261.71	230.75
261.942	244.75
262.175	223.75
262.407	235.75
262.64	245.75
262.872	228.75
263.105	232.75
263.337	236.75
263.57	237.75
263.802	238.75
264.035	244.75
264.267	225.75
264.499	214.75
264.732	246.75
264.964	240.75
265.197	254.75
265.429	257.75
265.661	245.75
265.894	231.75
266.126	259.75
266.358	257.75
266.591	259.75
266.823	272.75
267.055	257.75
267.287	261.75
267.52	233.75
267.752	248.75
267.984	246.75
268.216	278.75
268.448	257.75
268.681	269.75
268.913	271.75
269.145	289.75
269.377	303.75
269.609	305.75
269.841	296.75
270.073	270.75
270.306	302.75
270.538	348.75
270.77	322.75
271.002	307.75
271.234	309.75
271.466	310.75
271.698	329.75
271.93	328.75
272.162	332.75
272.394	320.75
272.626	303.75
272.858	288.75
273.09	300.75
273.322	287.75
273.553	302.75
273.785	277.75
274.017	287.75
274.249	306.75
274.481	304.75
274.713	299.75
274.945	311.75
275.176	299.75
275.408	295.75
275.64	305.75
275.872	302.75
276.104	314.75
276.335	298.75
276.567	325.75
276.799	321.75
277.031	341.75
277.262	338.75
277.494	331.75
277.726	329.75
277.957	324.75
278.189	346.75
278.421	299.75
278.652	316.75
278.884	303.75
279.115	304.75
279.347	307.75
279.579	309.75
279.81	308.75
280.042	307.75
280.273	311.75
280.505	298.75
280.736	315.75
280.968	326.75
281.199	315.75
281.431	327.75
281.662	311.75
281.894	313.75
282.125	303.75
282.356	340.75
282.588	327.75
282.819	342.75
283.051	345.75
283.282	302.75
283.513	330.75
283.745	328.75
283.976	346.75
284.207	331.75
284.439	323.75
284.67	328.75
284.901	348.75
285.132	352.75
285.364	353.75
285.595	335.75
285.826	325.75
286.057	321.75
286.288	334.75
286.52	355.75
286.751	332.75
286.982	326.75
287.213	330.75
287.444	336.75
287.675	335.75
287.906	352.75
288.138	372.75
288.369	364.75
288.6	386.75
288.831	362.75
289.062	366.75
289.293	363.75
289.524	334.75
289.755	340.75
289.986	353.75
290.217	375.75
290.448	357.75
290.679	340.75
290.91	344.75
291.141	358.75
291.371	376.75
291.602	348.75
291.833	366.75
292.064	367.75
292.295	350.75
292.526	347.75
292.757	346.75
292.987	348.75
293.218	361.75
293.449	357.75
293.68	371.75
293.91	360.75
294.141	359.75
294.372	344.75
294.603	369.75
294.833	351.75
295.064	350.75
295.295	361.75
295.525	375.75
295.756	371.75
295.987	367.75
296.217	380.75
296.448	386.75
296.679	378.75
296.909	370.75
297.14	385.75
297.37	361.75
297.601	382.75
297.831	369.75
298.062	363.75
298.292	378.75
298.523	370.75
298.753	375.75
298.984	383.75
299.214	389.75
299.445	393.75
299.675	403.75
299.905	386.75
300.136	394.75
300.366	383.75
300.597	395.75
300.827	418.75
301.057	398.75
301.288	394.75
301.518	417.75
301.748	406.75
301.979	392.75
302.209	422.75
302.439	406.75
302.669	406.75
302.9	410.75
303.13	404.75
303.36	408.75
303.59	400.75
303.82	427.75
304.051	414.75
304.281	409.75
304.511	407.75
304.741	412.75
304.971	390.75
305.201	425.75
305.431	397.75
305.661	398.75
305.891	403.75
306.121	398.75
306.352	416.75
306.582	434.75
306.812	405.75
307.042	405.75
307.272	406.75
307.502	407.75
307.731	429.75
307.961	432.75
308.191	384.75
308.421	410.75
308.651	395.75
308.881	404.75
309.111	415.75
309.341	428.75
309.571	426.75
309.8	413.75
310.03	445.75
310.26	430.75
310.49	432.75
310.72	446.75
310.949	447.75
311.179	441.75
311.409	453.75
311.639	440.75
311.868	443.75
312.098	437.75
312.328	456.75
312.557	456.75
312.787	487.75
313.017	474.75
313.246	449.75
313.476	466.75
313.706	454.75
313.935	457.75
314.165	463.75
314.394	460.75
314.624	461.75
314.853	456.75
315.083	455.75
315.312	439.75
315.542	437.75
315.771	445.75
316.001	446.75
316.23	443.75
316.46	457.75
316.689	446.75
316.919	440.75
317.148	452.75
317.377	471.75
317.607	450.75
317.836	443.75
318.065	453.75
318.295	415.75
318.524	452.75
318.753	435.75
318.983	443.75
319.212	438.75
319.441	452.75
319.67	464.75
319.9	462.75
320.129	449.75
320.358	457.75
320.587	450.75
320.816	488.75
321.046	466.75
321.275	460.75
321.504	447.75
321.733	464.75
321.962	461.75
322.191	461.75
322.42	478.75
322.649	496.75
322.878	495.75
323.108	494.75
323.337	497.75
323.566	521.75
323.795	524.75
324.024	542.75
324.253	631.75
324.482	816.75
324.71	1175.75
324.939	1654.75
325.168	1451.75
325.397	808.75
325.626	615.75
325.855	550.75
326.084	548.75
326.313	542.75
326.542	531.75
326.77	561.75
326.999	609.75
327.228	764.75
327.457	1123.75
327.686	1354.75
327.914	939.75
328.143	690.75
328.372	636.75
328.6	592.75
328.829	566.75
329.058	581.75
329.287	592.75
329.515	552.75
329.744	549.75
329.972	564.75
330.201	559.75
330.43	589.75
330.658	613.75
330.887	636.75
331.115	634.75
331.344	582.75
331.572	552.75
331.801	570.75
332.03	563.75
332.258	564.75
332.486	557.75
332.715	567.75
332.943	587.75
333.172	583.75
333.4	612.75
333.629	619.75
333.857	620.75
334.085	630.75
334.314	633.75
334.542	655.75
334.771	675.75
334.999	633.75
335.227	598.75
335.455	601.75
335.684	594.75
335.912	587.75
336.14	565.75
336.369	555.75
336.597	583.75
336.825	566.75
337.053	574.75
337.281	552.75
337.51	560.75
337.738	563.75
337.966	533.75
338.194	555.75
338.422	548.75
338.65	532.75
338.878	546.75
339.106	528.75
339.334	518.75
339.562	534.75
339.79	530.75
340.018	518.75
340.246	506.75
340.474	518.75
340.702	506.75
340.93	517.75
341.158	517.75
341.386	542.75
341.614	525.75
341.842	546.75
342.07	515.75
342.298	516.75
342.526	523.75
342.754	520.75
342.981	513.75
343.209	521.75
343.437	531.75
343.665	574.75
343.893	582.75
344.12	583.75
344.348	575.75
344.576	560.75
344.804	577.75
345.031	531.75
345.259	537.75
345.487	509.75
345.714	523.75
345.942	488.75
346.17	506.75
346.397	526.75
346.625	490.75
346.853	508.75
347.08	495.75
347.308	497.75
347.535	488.75
347.763	500.75
347.99	490.75
348.218	500.75
348.445	500.75
348.673	515.75
348.9	512.75
349.128	505.75
349.355	485.75
349.583	496.75
349.81	475.75
350.037	506.75
350.265	472.75
350.492	498.75
350.72	478.75
350.947	487.75
351.174	504.75
351.402	476.75
351.629	483.75
351.856	488.75
352.083	500.75
352.311	482.75
352.538	504.75
352.765	519.75
352.992	506.75
353.22	504.75
353.447	508.75
353.674	497.75
353.901	485.75
354.128	473.75
354.355	495.75
354.583	491.75
354.81	466.75
355.037	472.75
355.264	471.75
355.491	489.75
355.718	478.75
355.945	466.75
356.172	463.75
356.399	468.75
356.626	474.75
356.853	479.75
357.08	479.75
357.307	486.75
357.534	490.75
357.761	483.75
357.988	476.75
358.215	467.75
358.441	479.75
358.668	464.75
358.895	463.75
359.122	476.75
359.349	487.75
359.576	482.75
359.802	518.75
360.029	548.75
360.256	533.75
360.483	538.75
360.709	495.75
360.936	510.75
361.163	485.75
361.39	502.75
361.616	524.75
361.843	494.75
362.07	491.75
362.296	506.75
362.523	483.75
362.749	494.75
362.976	500.75
363.203	499.75
363.429	495.75
363.656	505.75
363.882	514.75
364.109	484.75
364.335	504.75
364.562	497.75
364.788	477.75
365.015	496.75
365.241	493.75
365.468	493.75
365.694	495.75
365.92	497.75
366.147	472.75
366.373	482.75
366.599	467.75
366.826	470.75
367.052	482.75
367.278	474.75
367.505	493.75
367.731	484.75
367.957	492.75
368.184	487.75
368.41	491.75
368.636	498.75
368.862	502.75
369.089	495.75
369.315	511.75
369.541	505.75
369.767	483.75
369.993	488.75
370.219	497.75
370.445	478.75
370.672	516.75
370.898	487.75
371.124	494.75
371.35	490.75
371.576	506.75
371.802	509.75
372.028	505.75
372.254	527.75
372.48	507.75
372.706	515.75
372.932	531.75
373.158	527.75
373.384	535.75
373.61	511.75
373.835	518.75
374.061	502.75
374.287	512.75
374.513	529.75
374.739	542.75
374.965	556.75
375.191	555.75
375.416	561.75
375.642	550.75
375.868	519.75
376.094	508.75
376.319	505.75
376.545	509.75
376.771	516.75
376.997	513.75
377.222	518.75
377.448	523.75
377.674	518.75
377.899	506.75
378.125	519.75
378.35	526.75
378.576	501.75
378.802	484.75
379.027	524.75
379.253	520.75
379.478	516.75
379.704	507.75
379.929	508.75
380.155	503.75
380.38	501.75
380.606	523.75
380.831	508.75
381.057	535.75
381.282	501.75
381.507	482.75
381.733	496.75
381.958	494.75
382.184	523.75
382.409	527.75
382.634	552.75
382.86	533.75
383.085	532.75
383.31	520.75
383.535	550.75
383.761	555.75
383.986	555.75
384.211	537.75
384.436	542.75
384.662	570.75
384.887	575.75
385.112	567.75
385.337	575.75
385.562	578.75
385.787	584.75
386.013	577.75
386.238	564.75
386.463	569.75
386.688	599.75
386.913	582.75
387.138	573.75
387.363	596.75
387.588	582.75
387.813	593.75
388.038	586.75
388.263	590.75
388.488	606.75
388.713	582.75
388.938	598.75
389.163	580.75
389.387	575.75
389.612	571.75
389.837	580.75
390.062	587.75
390.287	559.75
390.512	594.75
390.736	570.75
390.961	584.75
391.186	572.75
391.411	622.75
391.636	627.75
391.86	624.75
392.085	642.75
392.31	639.75
392.534	635.75
392.759	625.75
392.984	625.75
393.208	600.75
393.433	602.75
393.658	617.75
393.882	610.75
394.107	605.75
394.331	625.75
394.556	607.75
394.78	614.75
395.005	623.75
395.229	634.75
395.454	652.75
395.678	610.75
395.903	617.75
396.127	652.75
396.352	647.75
396.576	610.75
396.801	609.75
397.025	614.75
397.249	605.75
397.474	644.75
397.698	650.75
397.922	649.75
398.147	688.75
398.371	668.75
398.595	668.75
398.82	708.75
399.044	748.75
399.268	793.75
399.492	831.75
399.717	926.75
399.941	962.75
400.165	908.75
400.389	865.75
400.613	784.75
400.837	762.75
401.062	731.75
401.286	717.75
401.51	706.75
401.734	708.75
401.958	716.75
402.182	719.75
402.406	746.75
402.63	752.75
402.854	722.75
403.078	744.75
403.302	750.75
403.526	762.75
403.75	784.75
403.974	776.75
404.198	793.75
404.422	774.75
404.645	762.75
404.869	770.75
405.093	799.75
405.317	843.75
405.541	852.75
405.765	781.75
405.988	791.75
406.212	757.75
406.436	785.75
406.66	830.75
406.883	755.75
407.107	824.75
407.331	874.75
407.555	952.75
407.778	942.75
408.002	891.75
408.226	812.75
408.449	821.75
408.673	784.75
408.896	806.75
409.12	835.75
409.344	786.75
409.567	801.75
409.791	768.75
410.014	752.75
410.238	717.75
410.461	741.75
410.685	726.75
410.908	779.75
411.132	779.75
411.355	791.75
411.578	776.75
411.802	712.75
412.025	758.75
412.249	748.75
412.472	747.75
412.695	775.75
412.919	755.75
413.142	728.75
413.365	720.75
413.589	711.75
413.812	699.75
414.035	714.75
414.258	696.75
414.482	711.75
414.705	708.75
414.928	664.75
415.151	700.75
415.374	725.75
415.597	718.75
415.821	683.75
416.044	681.75
416.267	686.75
416.49	678.75
416.713	676.75
416.936	674.75
417.159	688.75
417.382	688.75
417.605	702.75
417.828	714.75
418.051	716.75
418.274	699.75
418.497	691.75
418.72	701.75
418.943	712.75
419.166	759.75
419.389	797.75
419.611	755.75
419.834	736.75
420.057	726.75
420.28	737.75
420.503	725.75
420.726	729.75
420.948	727.75
421.171	751.75
421.394	757.75
421.617	698.75
421.839	712.75
422.062	731.75
422.285	710.75
422.507	755.75
422.73	806.75
422.953	819.75
423.175	770.75
423.398	743.75
423.621	746.75
423.843	777.75
424.066	757.75
424.288	741.75
424.511	748.75
424.733	819.75
424.956	840.75
425.178	828.75
425.401	819.75
425.623	830.75
425.846	745.75
426.068	743.75
426.291	707.75
426.513	688.75
426.735	741.75
426.958	738.75
427.18	809.75
427.402	918.75
427.625	983.75
427.847	867.75
428.069	760.75
428.292	716.75
428.514	684.75
428.736	679.75
428.958	670.75
429.181	652.75
429.403	664.75
429.625	680.75
429.847	673.75
430.069	733.75
430.292	709.75
430.514	648.75
430.736	666.75
430.958	662.75
431.18	644.75
431.402	639.75
431.624	626.75
431.846	645.75
432.068	631.75
432.29	642.75
432.512	643.75
432.734	665.75
432.956	653.75
433.178	641.75
433.4	638.75
433.622	635.75
433.844	642.75
434.066	647.75
434.287	665.75
434.509	695.75
434.731	690.75
434.953	689.75
435.175	727.75
435.397	711.75
435.618	731.75
435.84	728.75
436.062	815.75
436.284	844.75
436.505	791.75
436.727	708.75
436.949	676.75
437.17	673.75
437.392	656.75
437.614	659.75
437.835	663.75
438.057	750.75
438.278	848.75
438.5	819.75
438.721	871.75
438.943	882.75
439.165	754.75
439.386	670.75
439.608	686.75
439.829	685.75
440.05	698.75
440.272	727.75
440.493	750.75
440.715	704.75
440.936	656.75
441.158	685.75
441.379	673.75
441.6	711.75
441.822	750.75
442.043	768.75
442.264	819.75
442.486	832.75
442.707	772.75
442.928	729.75
443.149	756.75
443.371	758.75
443.592	789.75
443.813	890.75
444.034	910.75
444.255	816.75
444.476	802.75
444.698	816.75
444.919	819.75
445.14	910.75
445.361	835.75
445.582	804.75
445.803	807.75
446.024	848.75
446.245	870.75
446.466	838.75
446.687	736.75
446.908	698.75
447.129	644.75
447.35	648.75
447.571	670.75
447.792	644.75
448.013	651.75
448.234	667.75
448.455	697.75
448.675	772.75
448.896	856.75
449.117	782.75
449.338	721.75
449.559	814.75
449.779	912.75
450	765.75
450.221	675.75
450.442	666.75
450.662	632.75
450.883	622.75
451.104	653.75
451.324	617.75
451.545	611.75
451.766	597.75
451.986	590.75
452.207	585.75
452.428	605.75
452.648	593.75
452.869	592.75
453.089	594.75
453.31	582.75
453.53	603.75
453.751	581.75
453.971	595.75
454.192	595.75
454.412	608.75
454.633	572.75
454.853	576.75
455.073	566.75
455.294	586.75
455.514	631.75
455.734	639.75
455.955	580.75
456.175	546.75
456.395	552.75
456.616	549.75
456.836	576.75
457.056	580.75
457.276	563.75
457.497	544.75
457.717	573.75
457.937	565.75
458.157	561.75
458.377	580.75
458.598	574.75
458.818	626.75
459.038	699.75
459.258	740.75
459.478	680.75
459.698	665.75
459.918	671.75
460.138	667.75
460.358	690.75
460.578	711.75
460.798	705.75
461.018	735.75
461.238	700.75
461.458	720.75
461.678	699.75
461.898	698.75
462.118	697.75
462.338	752.75
462.558	771.75
462.777	778.75
462.997	806.75
463.217	852.75
463.437	883.75
463.657	841.75
463.876	794.75
464.096	782.75
464.316	807.75
464.536	777.75
464.755	810.75
464.975	746.75
465.195	769.75
465.414	794.75
465.634	713.75
465.854	668.75
466.073	672.75
466.293	652.75
466.512	633.75
466.732	633.75
466.951	626.75
467.171	620.75
467.391	638.75
467.61	617.75
467.829	636.75
468.049	616.75
468.268	604.75
468.488	608.75
468.707	573.75
468.927	614.75
469.146	600.75
469.365	582.75
469.585	595.75
469.804	594.75
470.023	641.75
470.243	644.75
470.462	669.75
470.681	661.75
470.901	664.75
471.12	662.75
471.339	632.75
471.558	615.75
471.777	618.75
471.997	633.75
472.216	636.75
472.435	654.75
472.654	642.75
472.873	614.75
473.092	610.75
473.311	608.75
473.53	609.75
473.749	618.75
473.968	632.75
474.187	729.75
474.406	726.75
474.625	646.75
474.844	621.75
475.063	610.75
475.282	615.75
475.501	612.75
475.72	610.75
475.939	620.75
476.158	651.75
476.377	640.75
476.596	617.75
476.814	615.75
477.033	633.75
477.252	652.75
477.471	672.75
477.69	679.75
477.908	686.75
478.127	697.75
478.346	688.75
478.564	702.75
478.783	729.75
479.002	739.75
479.22	760.75
479.439	752.75
479.658	746.75
479.876	737.75
480.095	766.75
480.313	808.75
480.532	813.75
480.751	789.75
480.969	796.75
481.188	844.75
481.406	870.75
481.624	790.75
481.843	769.75
482.061	745.75
482.28	721.75
482.498	724.75
482.717	728.75
482.935	709.75
483.153	706.75
483.372	716.75
483.59	751.75
483.808	728.75
484.027	722.75
484.245	723.75
484.463	716.75
484.681	751.75
484.9	723.75
485.118	756.75
485.336	731.75
485.554	734.75
485.772	736.75
485.99	731.75
486.209	759.75
486.427	769.75
486.645	751.75
486.863	751.75
487.081	772.75
487.299	775.75
487.517	758.75
487.735	764.75
487.953	767.75
488.171	763.75
488.389	747.75
488.607	768.75
488.825	777.75
489.043	774.75
489.261	752.75
489.479	762.75
489.696	772.75
489.914	783.75
490.132	785.75
490.35	767.75
490.568	812.75
490.786	797.75
491.003	792.75
491.221	839.75
491.439	818.75
491.657	818.75
491.874	834.75
492.092	837.75
492.31	826.75
492.527	835.75
492.745	859.75
492.963	845.75
493.18	874.75
493.398	887.75
493.615	885.75
493.833	901.75
494.05	864.75
494.268	882.75
494.485	874.75
494.703	876.75
494.92	883.75
495.138	882.75
495.355	884.75
495.573	887.75
495.79	906.75
496.008	896.75
496.225	874.75
496.442	882.75
496.66	906.75
496.877	895.75
497.094	929.75
497.312	922.75
497.529	951.75
497.746	960.75
497.963	969.75
498.181	1013.75
498.398	1049.75
498.615	1061.75
498.832	1112.75
499.049	1154.75
499.267	1244.75
499.484	1287.75
499.701	1366.75
499.918	1489.75
500.135	1650.75
500.352	1769.75
500.569	1827.75
500.786	1817.75
501.003	1743.75
501.22	1638.75
501.437	1482.75
501.654	1386.75
501.871	1336.75
502.088	1256.75
502.305	1182.75
502.522	1137.75
502.739	1098.75
502.956	1048.75
503.172	1013.75
503.389	990.75
503.606	964.75
503.823	979.75
504.04	977.75
504.256	980.75
504.473	969.75
504.69	959.75
504.907	977.75
505.123	919.75
505.34	883.75
505.557	845.75
505.773	849.75
505.99	862.75
506.207	846.75
506.423	859.75
506.64	839.75
506.856	822.75
507.073	790.75
507.289	815.75
507.506	805.75
507.722	812.75
507.939	800.75
508.155	801.75
508.372	770.75
508.588	803.75
508.805	766.75
509.021	774.75
509.238	784.75
509.454	774.75
509.67	741.75
509.887	766.75
510.103	747.75
510.319	772.75
510.536	825.75
510.752	1186.75
510.968	985.75
511.184	772.75
511.401	740.75
511.617	724.75
511.833	740.75
512.049	731.75
512.265	714.75
512.481	728.75
512.698	674.75
512.914	732.75
513.13	736.75
513.346	724.75
513.562	716.75
513.778	702.75
513.994	698.75
514.21	715.75
514.426	752.75
514.642	780.75
514.858	809.75
515.074	793.75
515.29	899.75
515.506	1202.75
515.721	1050.75
515.937	812.75
516.153	800.75
516.369	802.75
516.585	789.75
516.801	804.75
517.016	832.75
517.232	842.75
517.448	879.75
517.664	894.75
517.879	868.75
518.095	899.75
518.311	855.75
518.527	822.75
518.742	833.75
518.958	825.75
519.173	777.75
519.389	787.75
519.605	766.75
519.82	754.75
520.036	749.75
520.251	787.75
520.467	775.75
520.682	764.75
520.898	783.75
521.113	768.75
521.329	805.75
521.544	834.75
521.76	961.75
521.975	1406.75
522.19	1465.75
522.406	882.75
522.621	762.75
522.836	713.75
523.052	683.75
523.267	679.75
523.482	673.75
523.698	646.75
523.913	660.75
524.128	672.75
524.343	645.75
524.559	643.75
524.774	630.75
524.989	650.75
525.204	653.75
525.419	634.75
525.634	650.75
525.849	621.75
526.064	629.75
526.28	622.75
526.495	630.75
526.71	620.75
526.925	622.75
527.14	622.75
527.355	621.75
527.57	598.75
527.785	626.75
527.999	626.75
528.214	610.75
528.429	619.75
528.644	632.75
528.859	588.75
529.074	602.75
529.289	617.75
529.503	662.75
529.718	652.75
529.933	634.75
530.148	632.75
530.363	628.75
530.577	585.75
530.792	612.75
531.007	578.75
531.221	619.75
531.436	626.75
531.651	620.75
531.865	609.75
532.08	597.75
532.295	623.75
532.509	607.75
532.724	619.75
532.938	606.75
533.153	602.75
533.367	606.75
533.582	601.75
533.796	618.75
534.011	589.75
534.225	603.75
534.44	598.75
534.654	591.75
534.868	594.75
535.083	603.75
535.297	599.75
535.511	611.75
535.726	602.75
535.94	614.75
536.154	623.75
536.369	588.75
536.583	602.75
536.797	594.75
537.011	542.75
537.225	574.75
537.44	579.75
537.654	579.75
537.868	570.75
538.082	558.75
538.296	579.75
538.51	589.75
538.724	570.75
538.938	552.75
539.153	580.75
539.367	572.75
539.581	575.75
539.795	556.75
540.009	574.75
540.222	553.75
540.436	575.75
540.65	562.75
540.864	564.75
541.078	574.75
541.292	564.75
541.506	572.75
541.72	564.75
541.934	567.75
542.147	576.75
542.361	565.75
542.575	575.75
542.789	562.75
543.002	555.75
543.216	572.75
543.43	553.75
543.644	585.75
543.857	590.75
544.071	574.75
544.285	565.75
544.498	572.75
544.712	558.75
544.925	574.75
545.139	592.75
545.352	558.75
545.566	537.75
545.779	562.75
545.993	584.75
546.206	564.75
546.42	572.75
546.633	559.75
546.847	587.75
547.06	554.75
547.274	574.75
547.487	566.75
547.7	568.75
547.914	555.75
548.127	586.75
548.34	574.75
548.554	579.75
548.767	560.75
548.98	576.75
549.193	584.75
549.407	556.75
549.62	584.75
549.833	575.75
550.046	579.75
550.259	567.75
550.473	569.75
550.686	544.75
550.899	575.75
551.112	577.75
551.325	541.75
551.538	564.75
551.751	544.75
551.964	593.75
552.177	579.75
552.39	575.75
552.603	579.75
552.816	602.75
553.029	582.75
553.242	607.75
553.455	614.75
553.667	590.75
553.88	607.75
554.093	627.75
554.306	584.75
554.519	587.75
554.732	569.75
554.944	566.75
555.157	558.75
555.37	552.75
555.583	544.75
555.795	535.75
556.008	533.75
556.221	523.75
556.433	497.75
556.646	522.75
556.859	511.75
557.071	518.75
557.284	515.75
557.496	514.75
557.709	523.75
557.921	531.75
558.134	480.75
558.346	508.75
558.559	510.75
558.771	503.75
558.984	506.75
559.196	495.75
559.409	497.75
559.621	498.75
559.833	492.75
560.046	480.75
560.258	510.75
560.47	475.75
560.683	462.75
560.895	477.75
561.107	490.75
561.32	468.75
561.532	481.75
561.744	500.75
561.956	492.75
562.168	495.75
562.381	500.75
562.593	464.75
562.805	513.75
563.017	499.75
563.229	495.75
563.441	514.75
563.653	516.75
563.865	520.75
564.077	516.75
564.289	512.75
564.501	523.75
564.713	507.75
564.925	564.75
565.137	537.75
565.349	532.75
565.561	561.75
565.773	576.75
565.985	598.75
566.197	631.75
566.408	640.75
566.62	696.75
566.832	743.75
567.044	737.75
567.255	738.75
567.467	760.75
567.679	752.75
567.891	834.75
568.102	824.75
568.314	823.75
568.526	743.75
568.737	675.75
568.949	644.75
569.161	598.75
569.372	578.75
569.584	557.75
569.795	543.75
570.007	550.75
570.218	555.75
570.43	553.75
570.641	498.75
570.853	513.75
571.064	517.75
571.276	545.75
571.487	514.75
571.698	496.75
571.91	481.75
572.121	475.75
572.333	467.75
572.544	459.75
572.755	427.75
572.966	433.75
573.178	456.75
573.389	445.75
573.6	424.75
573.811	454.75
574.023	436.75
574.234	438.75
574.445	448.75
574.656	419.75
574.867	427.75
575.078	420.75
575.289	422.75
575.501	416.75
575.712	401.75
575.923	400.75
576.134	420.75
576.345	405.75
576.556	401.75
576.767	399.75
576.978	410.75
577.188	390.75
577.399	384.75
577.61	405.75
577.821	406.75
578.032	405.75
578.243	432.75
578.454	574.75
578.665	488.75
578.875	392.75
579.086	382.75
579.297	380.75
579.508	418.75
579.718	404.75
579.929	387.75
580.14	375.75
580.35	389.75
580.561	387.75
580.772	383.75
580.982	372.75
581.193	356.75
581.403	384.75
581.614	386.75
581.825	395.75
582.035	380.75
582.246	380.75
582.456	384.75
582.667	388.75
582.877	377.75
583.087	375.75
583.298	380.75
583.508	377.75
583.719	379.75
583.929	379.75
584.139	382.75
584.35	378.75
584.56	378.75
584.77	354.75
584.981	366.75
585.191	382.75
585.401	366.75
585.611	346.75
585.821	379.75
586.032	364.75
586.242	360.75
586.452	363.75
586.662	357.75
586.872	351.75
587.082	373.75
587.292	374.75
587.502	349.75
587.713	359.75
587.923	350.75
588.133	371.75
588.343	359.75
588.553	355.75
588.762	370.75
588.972	370.75
589.182	374.75
589.392	381.75
589.602	381.75
589.812	383.75
590.022	377.75
590.232	370.75
590.441	368.75
590.651	368.75
590.861	381.75
591.071	364.75
591.281	394.75
591.49	380.75
591.7	395.75
591.91	389.75
592.119	402.75
592.329	382.75
592.539	427.75
592.748	419.75
592.958	422.75
593.167	430.75
593.377	441.75
593.587	449.75
593.796	451.75
594.006	448.75
594.215	449.75
594.424	445.75
594.634	452.75
594.843	437.75
595.053	413.75
595.262	404.75
595.472	386.75
595.681	368.75
595.89	388.75
596.1	377.75
596.309	373.75
596.518	367.75
596.727	369.75
596.937	354.75
597.146	373.75
597.355	363.75
597.564	344.75
597.774	348.75
597.983	338.75
598.192	349.75
598.401	353.75
598.61	345.75
598.819	337.75
599.028	328.75
599.237	315.75
599.446	342.75
599.655	339.75
599.864	326.75
600.073	315.75
600.282	336.75
600.491	318.75
600.7	307.75
600.909	322.75
601.118	298.75
601.327	313.75
601.536	302.75
601.745	306.75
601.953	306.75
602.162	312.75
602.371	299.75
602.58	293.75
602.789	295.75
602.997	316.75
603.206	313.75
603.415	318.75
603.623	293.75
603.832	298.75
604.041	308.75
604.249	305.75
604.458	300.75
604.666	295.75
604.875	299.75
605.084	279.75
605.292	279.75
605.501	295.75
605.709	291.75
605.918	296.75
606.126	313.75
606.334	310.75
606.543	282.75
606.751	284.75
606.96	289.75
607.168	293.75
607.376	289.75
607.585	295.75
607.793	298.75
608.001	282.75
608.21	293.75
608.418	295.75
608.626	295.75
608.834	298.75
609.043	292.75
609.251	288.75
609.459	279.75
609.667	290.75
609.875	301.75
610.083	287.75
610.291	291.75
610.499	287.75
610.707	294.75
610.916	286.75
611.124	315.75
611.332	294.75
611.54	297.75
611.748	301.75
611.955	283.75
612.163	273.75
612.371	275.75
612.579	277.75
612.787	287.75
612.995	282.75
613.203	282.75
613.411	279.75
613.618	289.75
613.826	284.75
614.034	288.75
614.242	283.75
614.449	278.75
614.657	288.75
614.865	274.75
615.072	286.75
615.28	282.75
615.488	273.75
615.695	287.75
615.903	294.75
616.111	278.75
616.318	280.75
616.526	296.75
616.733	299.75
616.941	277.75
617.148	289.75
617.356	277.75
617.563	270.75
617.771	282.75
617.978	279.75
618.185	279.75
618.393	274.75
618.6	290.75
618.807	273.75
619.015	275.75
619.222	290.75
619.429	287.75
619.637	278.75
619.844	281.75
620.051	266.75
620.258	274.75
620.466	255.75
620.673	259.75
620.88	263.75
621.087	261.75
621.294	254.75
621.501	264.75
621.708	259.75
621.915	250.75
622.122	267.75
622.329	282.75
622.536	253.75
622.743	259.75
622.95	264.75
623.157	248.75
623.364	261.75
623.571	258.75
623.778	262.75
623.985	254.75
624.192	268.75
624.399	232.75
624.606	244.75
624.812	243.75
625.019	267.75
625.226	257.75
625.433	262.75
625.639	256.75
625.846	248.75
626.053	247.75
626.259	251.75
626.466	260.75
626.673	234.75
626.879	243.75
627.086	246.75
627.293	234.75
627.499	251.75
627.706	242.75
627.912	248.75
628.119	259.75
628.325	244.75
628.532	249.75
628.738	249.75
628.945	242.75
629.151	235.75
629.357	233.75
629.564	250.75
629.77	230.75
629.976	246.75
630.183	215.75
630.389	231.75
630.595	221.75
630.802	221.75
631.008	228.75
631.214	233.75
631.42	238.75
631.627	240.75
631.833	238.75
632.039	212.75
632.245	210.75
632.451	218.75
632.657	213.75
632.863	214.75
633.069	230.75
633.275	220.75
633.481	202.75
633.688	226.75
633.893	210.75
634.099	224.75
634.305	214.75
634.511	202.75
634.717	223.75
634.923	212.75
635.129	210.75
635.335	217.75
635.541	203.75
635.747	214.75
635.952	201.75
636.158	218.75
636.364	214.75
636.57	224.75
636.775	229.75
636.981	210.75
637.187	217.75
637.392	213.75
637.598	209.75
637.804	205.75
638.009	225.75
638.215	216.75
638.421	210.75
638.626	208.75
638.832	207.75
639.037	201.75
639.243	193.75
639.448	218.75
639.654	187.75
639.859	198.75
640.065	198.75
640.27	223.75
640.475	195.75
640.681	182.75
640.886	206.75
641.091	182.75
641.297	197.75
641.502	184.75
641.707	195.75
641.913	187.75
642.118	196.75
642.323	201.75
642.528	190.75
642.733	196.75
642.939	178.75
643.144	179.75
643.349	195.75
643.554	186.75
643.759	207.75
643.964	188.75
644.169	192.75
644.374	196.75
644.579	193.75
644.784	196.75
644.989	184.75
645.194	188.75
645.399	193.75
645.604	201.75
645.809	195.75
646.014	193.75
646.219	195.75
646.423	198.75
646.628	201.75
646.833	204.75
647.038	179.75
647.243	208.75
647.447	180.75
647.652	202.75
647.857	194.75
648.062	208.75
648.266	206.75
648.471	198.75
648.676	202.75
648.88	195.75
649.085	189.75
649.289	203.75
649.494	207.75
649.698	208.75
649.903	209.75
650.107	197.75
650.312	186.75
650.516	190.75
650.721	190.75
650.925	186.75
651.13	164.75
651.334	164.75
651.539	158.75
651.743	172.75
651.947	162.75
652.152	166.75
652.356	154.75
652.56	151.75
652.764	155.75
652.969	158.75
653.173	167.75
653.377	171.75
653.581	147.75
653.785	158.75
653.99	153.75
654.194	164.75
654.398	149.75
654.602	149.75
654.806	145.75
655.01	158.75
655.214	146.75
655.418	147.75
655.622	141.75
655.826	157.75
656.03	135.75
656.234	150.75
656.438	158.75
656.642	148.75
656.846	138.75
657.049	143.75
657.253	142.75
657.457	127.75
657.661	126.75
657.865	112.75
658.068	100.75
658.272	123.75
658.476	120.75
658.68	117.75
658.883	105.75
659.087	100.75
659.291	107.75
659.494	102.75
659.698	105.75
659.901	99.75
660.105	99.75
660.309	98.75
660.512	106.75
660.716	111.75
660.919	106.75
661.123	100.75
661.326	105.75
661.53	81.75
661.733	90.75
661.936	103.75
662.14	94.75
662.343	81.75
662.546	76.75
662.75	76.75
662.953	83.75
663.156	84.75
663.36	77.75
663.563	80.75
663.766	79.75
663.969	81.75
664.173	78.75
664.376	74.75
664.579	74.75
664.782	100.75
664.985	78.75
665.188	80.75
665.391	82.75
665.594	89.75
665.797	81.75
666	75.75
666.203	75.75
666.406	82.75
666.609	86.75
666.812	75.75
667.015	76.75
667.218	88.75
667.421	81.75
667.624	76.75
667.827	71.75
668.03	79.75
668.232	76.75
668.435	79.75
668.638	72.75
668.841	85.75
669.043	72.75
669.246	81.75
669.449	74.75
669.651	85.75
669.854	92.75
670.057	73.75
670.259	67.75
670.462	80.75
670.665	77.75
670.867	79.75
671.07	87.75
671.272	82.75
671.475	76.75
671.677	89.75
671.88	89.75
672.082	84.75
672.284	75.75
672.487	86.75
672.689	80.75
672.892	78.75
