Data from 1963.PennyLincolnUp.Lamp.En5.5.200Scan.071719.P1._HRD10591_14-00-22-064.txt Node
Date: Thu Jul 18 14:00:22 EDT 2019
User: cochatt
Spectrometer: HR+D1059
Trigger mode: 1
Integration Time (sec): 1.000000E-1
Scans to average: 1
Electric dark correction enabled: true
Nonlinearity correction enabled: false
Boxcar width: 0
XAxis mode: Wavelengths
Number of Pixels in Spectrum: 2048
>>>>>Begin Spectral Data<<<<<
223.165	-20.5
223.4	-20.5
223.635	-20.5
223.869	-5.5
224.104	-11.5
224.338	-21.5
224.573	-9.5
224.808	-13.5
225.042	2.5
225.277	-22.5
225.511	0.5
225.746	-5.5
225.98	1.5
226.215	8.5
226.449	16.5
226.683	16.5
226.918	31.5
227.152	32.5
227.387	26.5
227.621	27.5
227.856	39.5
228.09	40.5
228.324	53.5
228.559	67.5
228.793	60.5
229.027	88.5
229.262	113.5
229.496	119.5
229.73	121.5
229.964	125.5
230.199	139.5
230.433	117.5
230.667	122.5
230.901	133.5
231.136	123.5
231.37	108.5
231.604	109.5
231.838	117.5
232.072	125.5
232.306	118.5
232.541	124.5
232.775	129.5
233.009	109.5
233.243	126.5
233.477	126.5
233.711	123.5
233.945	126.5
234.179	125.5
234.413	127.5
234.647	139.5
234.881	125.5
235.115	121.5
235.349	129.5
235.583	117.5
235.817	123.5
236.051	128.5
236.285	139.5
236.519	124.5
236.753	132.5
236.987	149.5
237.221	175.5
237.455	216.5
237.689	184.5
237.922	151.5
238.156	160.5
238.39	149.5
238.624	128.5
238.858	130.5
239.091	139.5
239.325	129.5
239.559	132.5
239.793	144.5
240.027	146.5
240.26	154.5
240.494	164.5
240.728	157.5
240.961	149.5
241.195	170.5
241.429	156.5
241.662	147.5
241.896	148.5
242.13	146.5
242.363	157.5
242.597	165.5
242.83	148.5
243.064	168.5
243.298	159.5
243.531	146.5
243.765	168.5
243.998	166.5
244.232	147.5
244.465	152.5
244.699	160.5
244.932	182.5
245.166	182.5
245.399	178.5
245.633	153.5
245.866	166.5
246.099	164.5
246.333	163.5
246.566	170.5
246.8	152.5
247.033	180.5
247.266	166.5
247.5	192.5
247.733	196.5
247.966	192.5
248.2	198.5
248.433	193.5
248.666	178.5
248.899	195.5
249.133	210.5
249.366	218.5
249.599	210.5
249.832	203.5
250.066	180.5
250.299	206.5
250.532	218.5
250.765	221.5
250.998	248.5
251.231	244.5
251.465	228.5
251.698	240.5
251.931	230.5
252.164	221.5
252.397	237.5
252.63	233.5
252.863	229.5
253.096	246.5
253.329	253.5
253.562	243.5
253.795	233.5
254.028	238.5
254.261	237.5
254.494	238.5
254.727	282.5
254.96	292.5
255.193	296.5
255.426	261.5
255.659	237.5
255.892	245.5
256.124	243.5
256.357	238.5
256.59	248.5
256.823	252.5
257.056	228.5
257.289	235.5
257.521	236.5
257.754	263.5
257.987	233.5
258.22	231.5
258.452	237.5
258.685	248.5
258.918	240.5
259.151	253.5
259.383	242.5
259.616	240.5
259.849	245.5
260.081	261.5
260.314	275.5
260.547	285.5
260.779	265.5
261.012	263.5
261.244	264.5
261.477	255.5
261.71	249.5
261.942	277.5
262.175	271.5
262.407	264.5
262.64	252.5
262.872	236.5
263.105	241.5
263.337	263.5
263.57	267.5
263.802	257.5
264.035	246.5
264.267	263.5
264.499	254.5
264.732	260.5
264.964	248.5
265.197	245.5
265.429	249.5
265.661	256.5
265.894	262.5
266.126	237.5
266.358	260.5
266.591	252.5
266.823	255.5
267.055	251.5
267.287	265.5
267.52	255.5
267.752	265.5
267.984	263.5
268.216	279.5
268.448	287.5
268.681	277.5
268.913	291.5
269.145	316.5
269.377	318.5
269.609	333.5
269.841	300.5
270.073	309.5
270.306	325.5
270.538	334.5
270.77	357.5
271.002	349.5
271.234	333.5
271.466	347.5
271.698	353.5
271.93	364.5
272.162	345.5
272.394	350.5
272.626	344.5
272.858	309.5
273.09	327.5
273.322	330.5
273.553	301.5
273.785	301.5
274.017	314.5
274.249	314.5
274.481	307.5
274.713	324.5
274.945	324.5
275.176	320.5
275.408	313.5
275.64	334.5
275.872	322.5
276.104	341.5
276.335	315.5
276.567	320.5
276.799	345.5
277.031	350.5
277.262	362.5
277.494	366.5
277.726	341.5
277.957	349.5
278.189	333.5
278.421	329.5
278.652	335.5
278.884	316.5
279.115	320.5
279.347	329.5
279.579	337.5
279.81	334.5
280.042	323.5
280.273	327.5
280.505	332.5
280.736	341.5
280.968	312.5
281.199	318.5
281.431	310.5
281.662	326.5
281.894	319.5
282.125	310.5
282.356	359.5
282.588	362.5
282.819	364.5
283.051	358.5
283.282	338.5
283.513	358.5
283.745	361.5
283.976	338.5
284.207	364.5
284.439	345.5
284.67	358.5
284.901	359.5
285.132	347.5
285.364	363.5
285.595	354.5
285.826	350.5
286.057	344.5
286.288	356.5
286.52	355.5
286.751	353.5
286.982	338.5
287.213	357.5
287.444	350.5
287.675	364.5
287.906	384.5
288.138	384.5
288.369	373.5
288.6	379.5
288.831	376.5
289.062	381.5
289.293	379.5
289.524	365.5
289.755	360.5
289.986	352.5
290.217	374.5
290.448	351.5
290.679	340.5
290.91	371.5
291.141	361.5
291.371	347.5
291.602	388.5
291.833	362.5
292.064	366.5
292.295	371.5
292.526	364.5
292.757	366.5
292.987	377.5
293.218	352.5
293.449	382.5
293.68	380.5
293.91	382.5
294.141	363.5
294.372	374.5
294.603	388.5
294.833	392.5
295.064	371.5
295.295	393.5
295.525	372.5
295.756	368.5
295.987	397.5
296.217	428.5
296.448	422.5
296.679	396.5
296.909	390.5
297.14	399.5
297.37	395.5
297.601	404.5
297.831	398.5
298.062	397.5
298.292	408.5
298.523	430.5
298.753	403.5
298.984	392.5
299.214	393.5
299.445	400.5
299.675	408.5
299.905	412.5
300.136	415.5
300.366	405.5
300.597	395.5
300.827	415.5
301.057	417.5
301.288	440.5
301.518	444.5
301.748	405.5
301.979	426.5
302.209	433.5
302.439	433.5
302.669	441.5
302.9	438.5
303.13	436.5
303.36	420.5
303.59	439.5
303.82	433.5
304.051	444.5
304.281	440.5
304.511	437.5
304.741	411.5
304.971	435.5
305.201	436.5
305.431	421.5
305.661	434.5
305.891	413.5
306.121	413.5
306.352	417.5
306.582	436.5
306.812	426.5
307.042	450.5
307.272	397.5
307.502	411.5
307.731	430.5
307.961	433.5
308.191	422.5
308.421	418.5
308.651	435.5
308.881	441.5
309.111	424.5
309.341	418.5
309.571	435.5
309.8	416.5
310.03	450.5
310.26	450.5
310.49	461.5
310.72	432.5
310.949	467.5
311.179	478.5
311.409	483.5
311.639	474.5
311.868	475.5
312.098	464.5
312.328	475.5
312.557	479.5
312.787	480.5
313.017	481.5
313.246	483.5
313.476	472.5
313.706	463.5
313.935	462.5
314.165	481.5
314.394	475.5
314.624	488.5
314.853	484.5
315.083	466.5
315.312	493.5
315.542	473.5
315.771	472.5
316.001	479.5
316.23	468.5
316.46	461.5
316.689	483.5
316.919	471.5
317.148	486.5
317.377	456.5
317.607	482.5
317.836	501.5
318.065	472.5
318.295	460.5
318.524	457.5
318.753	473.5
318.983	477.5
319.212	473.5
319.441	466.5
319.67	485.5
319.9	458.5
320.129	467.5
320.358	474.5
320.587	479.5
320.816	481.5
321.046	503.5
321.275	494.5
321.504	485.5
321.733	488.5
321.962	488.5
322.191	496.5
322.42	518.5
322.649	521.5
322.878	563.5
323.108	531.5
323.337	547.5
323.566	583.5
323.795	568.5
324.024	589.5
324.253	669.5
324.482	875.5
324.71	1282.5
324.939	1870.5
325.168	1630.5
325.397	897.5
325.626	658.5
325.855	606.5
326.084	590.5
326.313	581.5
326.542	567.5
326.77	608.5
326.999	669.5
327.228	840.5
327.457	1222.5
327.686	1459.5
327.914	1033.5
328.143	725.5
328.372	646.5
328.6	636.5
328.829	612.5
329.058	666.5
329.287	668.5
329.515	611.5
329.744	603.5
329.972	588.5
330.201	586.5
330.43	619.5
330.658	633.5
330.887	684.5
331.115	652.5
331.344	609.5
331.572	581.5
331.801	603.5
332.03	606.5
332.258	587.5
332.486	580.5
332.715	605.5
332.943	603.5
333.172	605.5
333.4	628.5
333.629	653.5
333.857	655.5
334.085	677.5
334.314	691.5
334.542	681.5
334.771	717.5
334.999	677.5
335.227	648.5
335.455	621.5
335.684	602.5
335.912	593.5
336.14	601.5
336.369	615.5
336.597	607.5
336.825	591.5
337.053	599.5
337.281	585.5
337.51	564.5
337.738	563.5
337.966	587.5
338.194	567.5
338.422	572.5
338.65	574.5
338.878	564.5
339.106	542.5
339.334	549.5
339.562	573.5
339.79	561.5
340.018	557.5
340.246	556.5
340.474	550.5
340.702	546.5
340.93	545.5
341.158	556.5
341.386	555.5
341.614	552.5
341.842	565.5
342.07	527.5
342.298	527.5
342.526	548.5
342.754	553.5
342.981	532.5
343.209	532.5
343.437	581.5
343.665	562.5
343.893	589.5
344.12	607.5
344.348	609.5
344.576	598.5
344.804	601.5
345.031	563.5
345.259	590.5
345.487	558.5
345.714	543.5
345.942	530.5
346.17	529.5
346.397	549.5
346.625	519.5
346.853	536.5
347.08	524.5
347.308	525.5
347.535	539.5
347.763	521.5
347.99	532.5
348.218	522.5
348.445	550.5
348.673	517.5
348.9	529.5
349.128	546.5
349.355	500.5
349.583	523.5
349.81	506.5
350.037	502.5
350.265	498.5
350.492	533.5
350.72	541.5
350.947	507.5
351.174	535.5
351.402	553.5
351.629	541.5
351.856	515.5
352.083	521.5
352.311	521.5
352.538	516.5
352.765	530.5
352.992	537.5
353.22	506.5
353.447	523.5
353.674	523.5
353.901	505.5
354.128	528.5
354.355	489.5
354.583	487.5
354.81	506.5
355.037	516.5
355.264	516.5
355.491	501.5
355.718	508.5
355.945	494.5
356.172	504.5
356.399	480.5
356.626	484.5
356.853	514.5
357.08	491.5
357.307	484.5
357.534	525.5
357.761	498.5
357.988	525.5
358.215	479.5
358.441	509.5
358.668	525.5
358.895	525.5
359.122	507.5
359.349	490.5
359.576	530.5
359.802	526.5
360.029	571.5
360.256	579.5
360.483	554.5
360.709	515.5
360.936	527.5
361.163	531.5
361.39	533.5
361.616	518.5
361.843	549.5
362.07	505.5
362.296	501.5
362.523	516.5
362.749	526.5
362.976	538.5
363.203	510.5
363.429	526.5
363.656	509.5
363.882	521.5
364.109	486.5
364.335	508.5
364.562	533.5
364.788	526.5
365.015	514.5
365.241	527.5
365.468	505.5
365.694	508.5
365.92	524.5
366.147	517.5
366.373	507.5
366.599	511.5
366.826	490.5
367.052	484.5
367.278	527.5
367.505	501.5
367.731	527.5
367.957	544.5
368.184	513.5
368.41	529.5
368.636	530.5
368.862	546.5
369.089	539.5
369.315	524.5
369.541	499.5
369.767	528.5
369.993	527.5
370.219	549.5
370.445	544.5
370.672	519.5
370.898	538.5
371.124	521.5
371.35	541.5
371.576	541.5
371.802	516.5
372.028	513.5
372.254	524.5
372.48	522.5
372.706	557.5
372.932	569.5
373.158	553.5
373.384	546.5
373.61	546.5
373.835	552.5
374.061	520.5
374.287	564.5
374.513	557.5
374.739	554.5
374.965	570.5
375.191	581.5
375.416	575.5
375.642	550.5
375.868	568.5
376.094	546.5
376.319	540.5
376.545	532.5
376.771	530.5
376.997	554.5
377.222	544.5
377.448	525.5
377.674	544.5
377.899	509.5
378.125	530.5
378.35	544.5
378.576	540.5
378.802	528.5
379.027	515.5
379.253	533.5
379.478	544.5
379.704	538.5
379.929	557.5
380.155	508.5
380.38	538.5
380.606	523.5
380.831	553.5
381.057	546.5
381.282	547.5
381.507	538.5
381.733	552.5
381.958	549.5
382.184	546.5
382.409	563.5
382.634	565.5
382.86	560.5
383.085	567.5
383.31	556.5
383.535	550.5
383.761	558.5
383.986	577.5
384.211	619.5
384.436	586.5
384.662	600.5
384.887	599.5
385.112	600.5
385.337	605.5
385.562	633.5
385.787	627.5
386.013	608.5
386.238	628.5
386.463	639.5
386.688	604.5
386.913	630.5
387.138	601.5
387.363	607.5
387.588	617.5
387.813	605.5
388.038	610.5
388.263	612.5
388.488	597.5
388.713	597.5
388.938	612.5
389.163	613.5
389.387	620.5
389.612	601.5
389.837	594.5
390.062	600.5
390.287	618.5
390.512	595.5
390.736	618.5
390.961	628.5
391.186	619.5
391.411	646.5
391.636	635.5
391.86	670.5
392.085	668.5
392.31	660.5
392.534	663.5
392.759	659.5
392.984	664.5
393.208	652.5
393.433	622.5
393.658	612.5
393.882	628.5
394.107	640.5
394.331	654.5
394.556	625.5
394.78	624.5
395.005	619.5
395.229	654.5
395.454	670.5
395.678	651.5
395.903	667.5
396.127	662.5
396.352	674.5
396.576	629.5
396.801	657.5
397.025	645.5
397.249	662.5
397.474	680.5
397.698	676.5
397.922	705.5
398.147	686.5
398.371	740.5
398.595	697.5
398.82	726.5
399.044	752.5
399.268	816.5
399.492	892.5
399.717	958.5
399.941	976.5
400.165	970.5
400.389	928.5
400.613	823.5
400.837	783.5
401.062	800.5
401.286	764.5
401.51	744.5
401.734	739.5
401.958	750.5
402.182	756.5
402.406	778.5
402.63	753.5
402.854	770.5
403.078	768.5
403.302	795.5
403.526	822.5
403.75	802.5
403.974	825.5
404.198	826.5
404.422	823.5
404.645	827.5
404.869	811.5
405.093	829.5
405.317	824.5
405.541	913.5
405.765	857.5
405.988	803.5
406.212	816.5
406.436	843.5
406.66	869.5
406.883	853.5
407.107	886.5
407.331	927.5
407.555	980.5
407.778	1010.5
408.002	917.5
408.226	882.5
408.449	868.5
408.673	839.5
408.896	846.5
409.12	877.5
409.344	867.5
409.567	788.5
409.791	801.5
410.014	790.5
410.238	777.5
410.461	760.5
410.685	806.5
410.908	807.5
411.132	826.5
411.355	845.5
411.578	786.5
411.802	747.5
412.025	770.5
412.249	792.5
412.472	791.5
412.695	824.5
412.919	822.5
413.142	780.5
413.365	777.5
413.589	762.5
413.812	724.5
414.035	716.5
414.258	742.5
414.482	736.5
414.705	740.5
414.928	722.5
415.151	730.5
415.374	722.5
415.597	708.5
415.821	724.5
416.044	714.5
416.267	712.5
416.49	712.5
416.713	696.5
416.936	726.5
417.159	710.5
417.382	717.5
417.605	731.5
417.828	737.5
418.051	742.5
418.274	735.5
418.497	727.5
418.72	741.5
418.943	740.5
419.166	748.5
419.389	820.5
419.611	811.5
419.834	773.5
420.057	777.5
420.28	771.5
420.503	741.5
420.726	736.5
420.948	760.5
421.171	796.5
421.394	826.5
421.617	754.5
421.839	734.5
422.062	743.5
422.285	740.5
422.507	818.5
422.73	872.5
422.953	858.5
423.175	805.5
423.398	778.5
423.621	802.5
423.843	801.5
424.066	783.5
424.288	770.5
424.511	833.5
424.733	828.5
424.956	920.5
425.178	874.5
425.401	888.5
425.623	905.5
425.846	825.5
426.068	786.5
426.291	738.5
426.513	732.5
426.735	779.5
426.958	763.5
427.18	824.5
427.402	946.5
427.625	1044.5
427.847	931.5
428.069	837.5
428.292	772.5
428.514	710.5
428.736	699.5
428.958	702.5
429.181	674.5
429.403	692.5
429.625	672.5
429.847	724.5
430.069	757.5
430.292	788.5
430.514	700.5
430.736	682.5
430.958	665.5
431.18	677.5
431.402	675.5
431.624	673.5
431.846	646.5
432.068	672.5
432.29	696.5
432.512	672.5
432.734	662.5
432.956	693.5
433.178	704.5
433.4	701.5
433.622	680.5
433.844	659.5
434.066	678.5
434.287	686.5
434.509	693.5
434.731	710.5
434.953	740.5
435.175	767.5
435.397	772.5
435.618	756.5
435.84	767.5
436.062	833.5
436.284	887.5
436.505	774.5
436.727	739.5
436.949	717.5
437.17	702.5
437.392	678.5
437.614	706.5
437.835	711.5
438.057	804.5
438.278	880.5
438.5	845.5
438.721	920.5
438.943	915.5
439.165	773.5
439.386	747.5
439.608	744.5
439.829	730.5
440.05	768.5
440.272	795.5
440.493	758.5
440.715	712.5
440.936	722.5
441.158	696.5
441.379	723.5
441.6	734.5
441.822	796.5
442.043	797.5
442.264	851.5
442.486	900.5
442.707	788.5
442.928	774.5
443.149	771.5
443.371	804.5
443.592	841.5
443.813	916.5
444.034	968.5
444.255	844.5
444.476	836.5
444.698	828.5
444.919	845.5
445.14	901.5
445.361	834.5
445.582	808.5
445.803	825.5
446.024	898.5
446.245	902.5
446.466	872.5
446.687	762.5
446.908	733.5
447.129	715.5
447.35	683.5
447.571	701.5
447.792	668.5
448.013	680.5
448.234	662.5
448.455	734.5
448.675	825.5
448.896	902.5
449.117	813.5
449.338	753.5
449.559	866.5
449.779	954.5
450	785.5
450.221	722.5
450.442	672.5
450.662	675.5
450.883	633.5
451.104	653.5
451.324	645.5
451.545	637.5
451.766	643.5
451.986	619.5
452.207	631.5
452.428	603.5
452.648	608.5
452.869	618.5
453.089	632.5
453.31	632.5
453.53	640.5
453.751	619.5
453.971	615.5
454.192	601.5
454.412	598.5
454.633	608.5
454.853	588.5
455.073	628.5
455.294	610.5
455.514	671.5
455.734	674.5
455.955	593.5
456.175	579.5
456.395	556.5
456.616	571.5
456.836	563.5
457.056	576.5
457.276	574.5
457.497	588.5
457.717	575.5
457.937	590.5
458.157	571.5
458.377	619.5
458.598	640.5
458.818	657.5
459.038	735.5
459.258	777.5
459.478	722.5
459.698	683.5
459.918	678.5
460.138	710.5
460.358	756.5
460.578	749.5
460.798	750.5
461.018	736.5
461.238	758.5
461.458	727.5
461.678	721.5
461.898	740.5
462.118	740.5
462.338	761.5
462.558	776.5
462.777	832.5
462.997	860.5
463.217	888.5
463.437	886.5
463.657	845.5
463.876	831.5
464.096	808.5
464.316	816.5
464.536	828.5
464.755	789.5
464.975	802.5
465.195	808.5
465.414	824.5
465.634	742.5
465.854	717.5
466.073	691.5
466.293	670.5
466.512	687.5
466.732	634.5
466.951	640.5
467.171	661.5
467.391	654.5
467.61	647.5
467.829	690.5
468.049	651.5
468.268	637.5
468.488	637.5
468.707	626.5
468.927	641.5
469.146	650.5
469.365	643.5
469.585	660.5
469.804	664.5
470.023	683.5
470.243	669.5
470.462	676.5
470.681	650.5
470.901	689.5
471.12	677.5
471.339	654.5
471.558	668.5
471.777	653.5
471.997	658.5
472.216	639.5
472.435	677.5
472.654	650.5
472.873	616.5
473.092	648.5
473.311	633.5
473.53	642.5
473.749	646.5
473.968	677.5
474.187	750.5
474.406	782.5
474.625	665.5
474.844	646.5
475.063	650.5
475.282	627.5
475.501	673.5
475.72	645.5
475.939	674.5
476.158	655.5
476.377	658.5
476.596	673.5
476.814	676.5
477.033	677.5
477.252	698.5
477.471	721.5
477.69	707.5
477.908	700.5
478.127	740.5
478.346	734.5
478.564	740.5
478.783	764.5
479.002	765.5
479.22	764.5
479.439	777.5
479.658	794.5
479.876	775.5
480.095	786.5
480.313	811.5
480.532	849.5
480.751	820.5
480.969	837.5
481.188	874.5
481.406	898.5
481.624	798.5
481.843	750.5
482.061	761.5
482.28	753.5
482.498	741.5
482.717	722.5
482.935	735.5
483.153	734.5
483.372	723.5
483.59	737.5
483.808	748.5
484.027	749.5
484.245	762.5
484.463	753.5
484.681	768.5
484.9	744.5
485.118	752.5
485.336	761.5
485.554	777.5
485.772	782.5
485.99	778.5
486.209	776.5
486.427	796.5
486.645	798.5
486.863	845.5
487.081	817.5
487.299	790.5
487.517	808.5
487.735	786.5
487.953	776.5
488.171	778.5
488.389	782.5
488.607	793.5
488.825	814.5
489.043	781.5
489.261	833.5
489.479	794.5
489.696	803.5
489.914	806.5
490.132	823.5
490.35	830.5
490.568	814.5
490.786	819.5
491.003	841.5
491.221	868.5
491.439	890.5
491.657	881.5
491.874	881.5
492.092	883.5
492.31	901.5
492.527	898.5
492.745	914.5
492.963	916.5
493.18	913.5
493.398	913.5
493.615	951.5
493.833	907.5
494.05	908.5
494.268	918.5
494.485	935.5
494.703	932.5
494.92	965.5
495.138	908.5
495.355	935.5
495.573	933.5
495.79	935.5
496.008	937.5
496.225	926.5
496.442	965.5
496.66	956.5
496.877	942.5
497.094	973.5
497.312	969.5
497.529	963.5
497.746	1000.5
497.963	1051.5
498.181	1067.5
498.398	1091.5
498.615	1146.5
498.832	1207.5
499.049	1204.5
499.267	1254.5
499.484	1369.5
499.701	1437.5
499.918	1522.5
500.135	1719.5
500.352	1847.5
500.569	1867.5
500.786	1875.5
501.003	1815.5
501.22	1701.5
501.437	1589.5
501.654	1477.5
501.871	1394.5
502.088	1334.5
502.305	1225.5
502.522	1148.5
502.739	1161.5
502.956	1078.5
503.172	1040.5
503.389	1051.5
503.606	1038.5
503.823	1005.5
504.04	998.5
504.256	1004.5
504.473	1000.5
504.69	1004.5
504.907	984.5
505.123	965.5
505.34	948.5
505.557	907.5
505.773	906.5
505.99	897.5
506.207	903.5
506.423	873.5
506.64	848.5
506.856	869.5
507.073	869.5
507.289	853.5
507.506	861.5
507.722	834.5
507.939	858.5
508.155	844.5
508.372	839.5
508.588	825.5
508.805	819.5
509.021	788.5
509.238	820.5
509.454	844.5
509.67	829.5
509.887	829.5
510.103	806.5
510.319	815.5
510.536	884.5
510.752	1294.5
510.968	1128.5
511.184	798.5
511.401	785.5
511.617	778.5
511.833	780.5
512.049	768.5
512.265	793.5
512.481	765.5
512.698	746.5
512.914	776.5
513.13	747.5
513.346	739.5
513.562	785.5
513.778	782.5
513.994	763.5
514.21	800.5
514.426	803.5
514.642	803.5
514.858	830.5
515.074	844.5
515.29	973.5
515.506	1306.5
515.721	1148.5
515.937	875.5
516.153	853.5
516.369	855.5
516.585	834.5
516.801	880.5
517.016	865.5
517.232	908.5
517.448	918.5
517.664	911.5
517.879	952.5
518.095	929.5
518.311	914.5
518.527	896.5
518.742	890.5
518.958	861.5
519.173	838.5
519.389	824.5
519.605	805.5
519.82	788.5
520.036	809.5
520.251	821.5
520.467	810.5
520.682	840.5
520.898	800.5
521.113	829.5
521.329	824.5
521.544	878.5
521.76	1052.5
521.975	1595.5
522.19	1639.5
522.406	971.5
522.621	796.5
522.836	753.5
523.052	726.5
523.267	716.5
523.482	710.5
523.698	696.5
523.913	682.5
524.128	695.5
524.343	697.5
524.559	665.5
524.774	688.5
524.989	682.5
525.204	672.5
525.419	672.5
525.634	677.5
525.849	683.5
526.064	652.5
526.28	663.5
526.495	644.5
526.71	638.5
526.925	667.5
527.14	672.5
527.355	654.5
527.57	651.5
527.785	644.5
527.999	637.5
528.214	646.5
528.429	650.5
528.644	633.5
528.859	668.5
529.074	653.5
529.289	675.5
529.503	713.5
529.718	696.5
529.933	660.5
530.148	668.5
530.363	638.5
530.577	639.5
530.792	643.5
531.007	650.5
531.221	639.5
531.436	646.5
531.651	635.5
531.865	630.5
532.08	618.5
532.295	663.5
532.509	633.5
532.724	646.5
532.938	638.5
533.153	641.5
533.367	649.5
533.582	652.5
533.796	621.5
534.011	618.5
534.225	617.5
534.44	628.5
534.654	614.5
534.868	637.5
535.083	629.5
535.297	644.5
535.511	635.5
535.726	661.5
535.94	636.5
536.154	619.5
536.369	606.5
536.583	604.5
536.797	612.5
537.011	596.5
537.225	598.5
537.44	602.5
537.654	608.5
537.868	605.5
538.082	595.5
538.296	602.5
538.51	606.5
538.724	620.5
538.938	606.5
539.153	596.5
539.367	609.5
539.581	607.5
539.795	606.5
540.009	596.5
540.222	598.5
540.436	590.5
540.65	577.5
540.864	590.5
541.078	609.5
541.292	608.5
541.506	584.5
541.72	605.5
541.934	582.5
542.147	580.5
542.361	586.5
542.575	586.5
542.789	561.5
543.002	610.5
543.216	576.5
543.43	580.5
543.644	618.5
543.857	586.5
544.071	582.5
544.285	599.5
544.498	589.5
544.712	585.5
544.925	590.5
545.139	600.5
545.352	596.5
545.566	580.5
545.779	574.5
545.993	610.5
546.206	589.5
546.42	626.5
546.633	594.5
546.847	603.5
547.06	578.5
547.274	604.5
547.487	584.5
547.7	597.5
547.914	612.5
548.127	579.5
548.34	584.5
548.554	586.5
548.767	574.5
548.98	596.5
549.193	597.5
549.407	595.5
549.62	606.5
549.833	613.5
550.046	577.5
550.259	583.5
550.473	583.5
550.686	577.5
550.899	601.5
551.112	590.5
551.325	594.5
551.538	586.5
551.751	581.5
551.964	573.5
552.177	585.5
552.39	582.5
552.603	612.5
552.816	608.5
553.029	601.5
553.242	637.5
553.455	644.5
553.667	649.5
553.88	638.5
554.093	626.5
554.306	611.5
554.519	611.5
554.732	609.5
554.944	610.5
555.157	576.5
555.37	594.5
555.583	573.5
555.795	546.5
556.008	554.5
556.221	537.5
556.433	538.5
556.646	530.5
556.859	572.5
557.071	523.5
557.284	518.5
557.496	514.5
557.709	542.5
557.921	508.5
558.134	490.5
558.346	515.5
558.559	510.5
558.771	523.5
558.984	503.5
559.196	516.5
559.409	521.5
559.621	534.5
559.833	486.5
560.046	512.5
560.258	512.5
560.47	502.5
560.683	512.5
560.895	490.5
561.107	510.5
561.32	503.5
561.532	483.5
561.744	530.5
561.956	516.5
562.168	514.5
562.381	508.5
562.593	527.5
562.805	523.5
563.017	537.5
563.229	522.5
563.441	518.5
563.653	555.5
563.865	534.5
564.077	513.5
564.289	535.5
564.501	539.5
564.713	554.5
564.925	564.5
565.137	574.5
565.349	572.5
565.561	548.5
565.773	598.5
565.985	629.5
566.197	662.5
566.408	666.5
566.62	707.5
566.832	754.5
567.044	746.5
567.255	748.5
567.467	772.5
567.679	829.5
567.891	871.5
568.102	861.5
568.314	824.5
568.526	748.5
568.737	734.5
568.949	677.5
569.161	643.5
569.372	598.5
569.584	585.5
569.795	569.5
570.007	569.5
570.218	564.5
570.43	588.5
570.641	534.5
570.853	523.5
571.064	550.5
571.276	533.5
571.487	532.5
571.698	532.5
571.91	493.5
572.121	479.5
572.333	488.5
572.544	482.5
572.755	482.5
572.966	459.5
573.178	464.5
573.389	462.5
573.6	440.5
573.811	466.5
574.023	466.5
574.234	463.5
574.445	450.5
574.656	449.5
574.867	448.5
575.078	453.5
575.289	462.5
575.501	448.5
575.712	445.5
575.923	438.5
576.134	442.5
576.345	407.5
576.556	419.5
576.767	425.5
576.978	428.5
577.188	437.5
577.399	418.5
577.61	408.5
577.821	416.5
578.032	444.5
578.243	451.5
578.454	630.5
578.665	488.5
578.875	404.5
579.086	417.5
579.297	394.5
579.508	391.5
579.718	406.5
579.929	383.5
580.14	407.5
580.35	404.5
580.561	388.5
580.772	391.5
580.982	394.5
581.193	384.5
581.403	411.5
581.614	413.5
581.825	390.5
582.035	387.5
582.246	387.5
582.456	382.5
582.667	395.5
582.877	382.5
583.087	392.5
583.298	373.5
583.508	390.5
583.719	387.5
583.929	404.5
584.139	384.5
584.35	387.5
584.56	378.5
584.77	392.5
584.981	389.5
585.191	374.5
585.401	377.5
585.611	390.5
585.821	385.5
586.032	404.5
586.242	377.5
586.452	386.5
586.662	377.5
586.872	395.5
587.082	389.5
587.292	387.5
587.502	401.5
587.713	362.5
587.923	375.5
588.133	370.5
588.343	386.5
588.553	363.5
588.762	377.5
588.972	376.5
589.182	386.5
589.392	385.5
589.602	385.5
589.812	393.5
590.022	387.5
590.232	389.5
590.441	369.5
590.651	409.5
590.861	386.5
591.071	380.5
591.281	412.5
591.49	401.5
591.7	391.5
591.91	385.5
592.119	406.5
592.329	425.5
592.539	431.5
592.748	436.5
592.958	465.5
593.167	459.5
593.377	456.5
593.587	453.5
593.796	454.5
594.006	465.5
594.215	483.5
594.424	467.5
594.634	465.5
594.843	450.5
595.053	428.5
595.262	423.5
595.472	392.5
595.681	391.5
595.89	395.5
596.1	380.5
596.309	367.5
596.518	393.5
596.727	392.5
596.937	377.5
597.146	364.5
597.355	354.5
597.564	344.5
597.774	340.5
597.983	326.5
598.192	342.5
598.401	362.5
598.61	341.5
598.819	331.5
599.028	348.5
599.237	326.5
599.446	321.5
599.655	340.5
599.864	345.5
600.073	340.5
600.282	345.5
600.491	332.5
600.7	330.5
600.909	329.5
601.118	328.5
601.327	324.5
601.536	329.5
601.745	333.5
601.953	321.5
602.162	320.5
602.371	343.5
602.58	325.5
602.789	308.5
602.997	330.5
603.206	320.5
603.415	324.5
603.623	332.5
603.832	319.5
604.041	304.5
604.249	310.5
604.458	310.5
604.666	302.5
604.875	333.5
605.084	315.5
605.292	323.5
605.501	308.5
605.709	302.5
605.918	297.5
606.126	307.5
606.334	294.5
606.543	311.5
606.751	308.5
606.96	314.5
607.168	278.5
607.376	285.5
607.585	296.5
607.793	308.5
608.001	320.5
608.21	294.5
608.418	308.5
608.626	315.5
608.834	305.5
609.043	289.5
609.251	302.5
609.459	289.5
609.667	283.5
609.875	307.5
610.083	302.5
610.291	300.5
610.499	307.5
610.707	304.5
610.916	310.5
611.124	316.5
611.332	284.5
611.54	315.5
611.748	315.5
611.955	297.5
612.163	296.5
612.371	306.5
612.579	285.5
612.787	288.5
612.995	300.5
613.203	307.5
613.411	315.5
613.618	283.5
613.826	304.5
614.034	300.5
614.242	300.5
614.449	293.5
614.657	282.5
614.865	309.5
615.072	331.5
615.28	311.5
615.488	300.5
615.695	290.5
615.903	280.5
616.111	292.5
616.318	296.5
616.526	289.5
616.733	308.5
616.941	300.5
617.148	308.5
617.356	293.5
617.563	307.5
617.771	299.5
617.978	313.5
618.185	290.5
618.393	306.5
618.6	285.5
618.807	275.5
619.015	290.5
619.222	291.5
619.429	265.5
619.637	281.5
619.844	293.5
620.051	292.5
620.258	289.5
620.466	280.5
620.673	258.5
620.88	265.5
621.087	267.5
621.294	283.5
621.501	277.5
621.708	277.5
621.915	275.5
622.122	273.5
622.329	266.5
622.536	288.5
622.743	280.5
622.95	270.5
623.157	259.5
623.364	262.5
623.571	276.5
623.778	272.5
623.985	264.5
624.192	261.5
624.399	259.5
624.606	260.5
624.812	240.5
625.019	271.5
625.226	253.5
625.433	263.5
625.639	251.5
625.846	249.5
626.053	249.5
626.259	258.5
626.466	262.5
626.673	253.5
626.879	254.5
627.086	265.5
627.293	252.5
627.499	241.5
627.706	240.5
627.912	252.5
628.119	249.5
628.325	248.5
628.532	245.5
628.738	236.5
628.945	240.5
629.151	241.5
629.357	247.5
629.564	233.5
629.77	253.5
629.976	223.5
630.183	240.5
630.389	240.5
630.595	232.5
630.802	217.5
631.008	230.5
631.214	235.5
631.42	237.5
631.627	232.5
631.833	228.5
632.039	220.5
632.245	218.5
632.451	233.5
632.657	231.5
632.863	223.5
633.069	232.5
633.275	224.5
633.481	236.5
633.688	221.5
633.893	224.5
634.099	227.5
634.305	222.5
634.511	227.5
634.717	228.5
634.923	219.5
635.129	212.5
635.335	218.5
635.541	229.5
635.747	236.5
635.952	219.5
636.158	225.5
636.364	213.5
636.57	227.5
636.775	215.5
636.981	233.5
637.187	218.5
637.392	216.5
637.598	221.5
637.804	214.5
638.009	205.5
638.215	224.5
638.421	201.5
638.626	208.5
638.832	223.5
639.037	202.5
639.243	210.5
639.448	204.5
639.654	206.5
639.859	200.5
640.065	208.5
640.27	203.5
640.475	207.5
640.681	214.5
640.886	206.5
641.091	193.5
641.297	203.5
641.502	209.5
641.707	224.5
641.913	195.5
642.118	203.5
642.323	197.5
642.528	210.5
642.733	198.5
642.939	194.5
643.144	181.5
643.349	186.5
643.554	201.5
643.759	187.5
643.964	189.5
644.169	207.5
644.374	198.5
644.579	189.5
644.784	184.5
644.989	205.5
645.194	196.5
645.399	199.5
645.604	184.5
645.809	192.5
646.014	200.5
646.219	194.5
646.423	193.5
646.628	204.5
646.833	197.5
647.038	188.5
647.243	183.5
647.447	206.5
647.652	208.5
647.857	198.5
648.062	209.5
648.266	218.5
648.471	203.5
648.676	210.5
648.88	205.5
649.085	215.5
649.289	209.5
649.494	192.5
649.698	206.5
649.903	215.5
650.107	200.5
650.312	194.5
650.516	194.5
650.721	174.5
650.925	176.5
651.13	189.5
651.334	179.5
651.539	170.5
651.743	188.5
651.947	166.5
652.152	176.5
652.356	186.5
652.56	169.5
652.764	178.5
652.969	166.5
653.173	174.5
653.377	168.5
653.581	154.5
653.785	153.5
653.99	143.5
654.194	156.5
654.398	166.5
654.602	151.5
654.806	150.5
655.01	148.5
655.214	158.5
655.418	142.5
655.622	151.5
655.826	151.5
656.03	159.5
656.234	157.5
656.438	168.5
656.642	164.5
656.846	157.5
657.049	146.5
657.253	156.5
657.457	146.5
657.661	124.5
657.865	113.5
658.068	125.5
658.272	120.5
658.476	105.5
658.68	116.5
658.883	98.5
659.087	115.5
659.291	116.5
659.494	109.5
659.698	94.5
659.901	106.5
660.105	102.5
660.309	114.5
660.512	101.5
660.716	102.5
660.919	82.5
661.123	81.5
661.326	86.5
661.53	90.5
661.733	84.5
661.936	89.5
662.14	75.5
662.343	94.5
662.546	68.5
662.75	83.5
662.953	101.5
663.156	72.5
663.36	90.5
663.563	74.5
663.766	93.5
663.969	83.5
664.173	86.5
664.376	81.5
664.579	88.5
664.782	87.5
664.985	95.5
665.188	100.5
665.391	74.5
665.594	91.5
665.797	91.5
666	77.5
666.203	97.5
666.406	78.5
666.609	90.5
666.812	87.5
667.015	74.5
667.218	84.5
667.421	88.5
667.624	78.5
667.827	81.5
668.03	87.5
668.232	84.5
668.435	83.5
668.638	87.5
668.841	81.5
669.043	89.5
669.246	85.5
669.449	78.5
669.651	89.5
669.854	76.5
670.057	79.5
670.259	71.5
670.462	87.5
670.665	73.5
670.867	81.5
671.07	83.5
671.272	80.5
671.475	85.5
671.677	89.5
671.88	90.5
672.082	88.5
672.284	85.5
672.487	85.5
672.689	77.5
672.892	78.5
