Data from 1963.PennyLincolnUp.Lamp.En5.5.200Scan.071719.P1._HRD10591_14-00-24-064.txt Node
Date: Thu Jul 18 14:00:24 EDT 2019
User: cochatt
Spectrometer: HR+D1059
Trigger mode: 1
Integration Time (sec): 1.000000E-1
Scans to average: 1
Electric dark correction enabled: true
Nonlinearity correction enabled: false
Boxcar width: 0
XAxis mode: Wavelengths
Number of Pixels in Spectrum: 2048
>>>>>Begin Spectral Data<<<<<
223.165	-4.75
223.4	-4.75
223.635	-4.75
223.869	-17.75
224.104	-16.75
224.338	-14.75
224.573	-15.75
224.808	-2.75
225.042	-6.75
225.277	-6.75
225.511	-6.75
225.746	4.25
225.98	-6.75
226.215	17.25
226.449	18.25
226.683	25.25
226.918	10.25
227.152	24.25
227.387	25.25
227.621	32.25
227.856	46.25
228.09	53.25
228.324	62.25
228.559	55.25
228.793	69.25
229.027	93.25
229.262	104.25
229.496	127.25
229.73	130.25
229.964	131.25
230.199	127.25
230.433	110.25
230.667	107.25
230.901	126.25
231.136	120.25
231.37	123.25
231.604	116.25
231.838	117.25
232.072	115.25
232.306	126.25
232.541	120.25
232.775	118.25
233.009	140.25
233.243	127.25
233.477	125.25
233.711	126.25
233.945	107.25
234.179	127.25
234.413	143.25
234.647	126.25
234.881	127.25
235.115	124.25
235.349	139.25
235.583	121.25
235.817	132.25
236.051	139.25
236.285	141.25
236.519	140.25
236.753	131.25
236.987	145.25
237.221	193.25
237.455	219.25
237.689	203.25
237.922	140.25
238.156	144.25
238.39	138.25
238.624	139.25
238.858	124.25
239.091	152.25
239.325	131.25
239.559	139.25
239.793	155.25
240.027	141.25
240.26	160.25
240.494	173.25
240.728	146.25
240.961	161.25
241.195	155.25
241.429	149.25
241.662	155.25
241.896	155.25
242.13	144.25
242.363	143.25
242.597	168.25
242.83	140.25
243.064	160.25
243.298	161.25
243.531	160.25
243.765	154.25
243.998	156.25
244.232	160.25
244.465	161.25
244.699	189.25
244.932	173.25
245.166	165.25
245.399	170.25
245.633	167.25
245.866	174.25
246.099	172.25
246.333	173.25
246.566	184.25
246.8	183.25
247.033	184.25
247.266	174.25
247.5	195.25
247.733	184.25
247.966	192.25
248.2	199.25
248.433	199.25
248.666	179.25
248.899	214.25
249.133	215.25
249.366	224.25
249.599	202.25
249.832	195.25
250.066	189.25
250.299	195.25
250.532	232.25
250.765	209.25
250.998	248.25
251.231	248.25
251.465	244.25
251.698	249.25
251.931	227.25
252.164	226.25
252.397	232.25
252.63	247.25
252.863	254.25
253.096	245.25
253.329	255.25
253.562	244.25
253.795	255.25
254.028	232.25
254.261	238.25
254.494	238.25
254.727	260.25
254.96	300.25
255.193	289.25
255.426	263.25
255.659	243.25
255.892	246.25
256.124	269.25
256.357	254.25
256.59	241.25
256.823	215.25
257.056	251.25
257.289	249.25
257.521	244.25
257.754	236.25
257.987	233.25
258.22	238.25
258.452	226.25
258.685	243.25
258.918	227.25
259.151	235.25
259.383	251.25
259.616	247.25
259.849	263.25
260.081	275.25
260.314	276.25
260.547	297.25
260.779	267.25
261.012	259.25
261.244	252.25
261.477	261.25
261.71	252.25
261.942	256.25
262.175	271.25
262.407	265.25
262.64	263.25
262.872	243.25
263.105	257.25
263.337	241.25
263.57	257.25
263.802	267.25
264.035	245.25
264.267	252.25
264.499	244.25
264.732	252.25
264.964	240.25
265.197	251.25
265.429	239.25
265.661	255.25
265.894	258.25
266.126	273.25
266.358	255.25
266.591	275.25
266.823	273.25
267.055	275.25
267.287	265.25
267.52	267.25
267.752	267.25
267.984	281.25
268.216	282.25
268.448	268.25
268.681	281.25
268.913	277.25
269.145	283.25
269.377	321.25
269.609	309.25
269.841	320.25
270.073	305.25
270.306	323.25
270.538	341.25
270.77	345.25
271.002	348.25
271.234	313.25
271.466	340.25
271.698	344.25
271.93	325.25
272.162	362.25
272.394	365.25
272.626	342.25
272.858	334.25
273.09	325.25
273.322	302.25
273.553	289.25
273.785	307.25
274.017	320.25
274.249	331.25
274.481	304.25
274.713	304.25
274.945	298.25
275.176	325.25
275.408	336.25
275.64	306.25
275.872	313.25
276.104	319.25
276.335	337.25
276.567	324.25
276.799	319.25
277.031	358.25
277.262	346.25
277.494	359.25
277.726	358.25
277.957	343.25
278.189	337.25
278.421	311.25
278.652	336.25
278.884	342.25
279.115	333.25
279.347	333.25
279.579	311.25
279.81	319.25
280.042	349.25
280.273	328.25
280.505	346.25
280.736	353.25
280.968	316.25
281.199	332.25
281.431	333.25
281.662	328.25
281.894	334.25
282.125	305.25
282.356	361.25
282.588	361.25
282.819	379.25
283.051	326.25
283.282	329.25
283.513	350.25
283.745	357.25
283.976	336.25
284.207	350.25
284.439	340.25
284.67	351.25
284.901	347.25
285.132	353.25
285.364	359.25
285.595	347.25
285.826	349.25
286.057	346.25
286.288	354.25
286.52	361.25
286.751	356.25
286.982	351.25
287.213	353.25
287.444	369.25
287.675	376.25
287.906	389.25
288.138	368.25
288.369	377.25
288.6	378.25
288.831	381.25
289.062	360.25
289.293	377.25
289.524	367.25
289.755	379.25
289.986	403.25
290.217	378.25
290.448	360.25
290.679	365.25
290.91	365.25
291.141	368.25
291.371	353.25
291.602	367.25
291.833	371.25
292.064	365.25
292.295	375.25
292.526	375.25
292.757	353.25
292.987	385.25
293.218	382.25
293.449	384.25
293.68	377.25
293.91	381.25
294.141	364.25
294.372	360.25
294.603	391.25
294.833	383.25
295.064	399.25
295.295	402.25
295.525	366.25
295.756	379.25
295.987	391.25
296.217	405.25
296.448	401.25
296.679	397.25
296.909	396.25
297.14	380.25
297.37	408.25
297.601	408.25
297.831	404.25
298.062	408.25
298.292	412.25
298.523	409.25
298.753	420.25
298.984	421.25
299.214	416.25
299.445	417.25
299.675	399.25
299.905	433.25
300.136	409.25
300.366	391.25
300.597	398.25
300.827	417.25
301.057	402.25
301.288	432.25
301.518	431.25
301.748	436.25
301.979	430.25
302.209	421.25
302.439	439.25
302.669	456.25
302.9	431.25
303.13	413.25
303.36	449.25
303.59	451.25
303.82	429.25
304.051	444.25
304.281	431.25
304.511	435.25
304.741	428.25
304.971	439.25
305.201	423.25
305.431	438.25
305.661	437.25
305.891	427.25
306.121	445.25
306.352	433.25
306.582	435.25
306.812	419.25
307.042	423.25
307.272	425.25
307.502	419.25
307.731	442.25
307.961	433.25
308.191	425.25
308.421	416.25
308.651	427.25
308.881	431.25
309.111	428.25
309.341	443.25
309.571	443.25
309.8	459.25
310.03	454.25
310.26	456.25
310.49	452.25
310.72	473.25
310.949	455.25
311.179	479.25
311.409	473.25
311.639	470.25
311.868	463.25
312.098	437.25
312.328	484.25
312.557	487.25
312.787	481.25
313.017	495.25
313.246	487.25
313.476	461.25
313.706	481.25
313.935	473.25
314.165	496.25
314.394	502.25
314.624	479.25
314.853	477.25
315.083	488.25
315.312	476.25
315.542	469.25
315.771	465.25
316.001	480.25
316.23	467.25
316.46	493.25
316.689	466.25
316.919	489.25
317.148	499.25
317.377	496.25
317.607	463.25
317.836	495.25
318.065	487.25
318.295	462.25
318.524	476.25
318.753	462.25
318.983	466.25
319.212	468.25
319.441	460.25
319.67	469.25
319.9	495.25
320.129	439.25
320.358	473.25
320.587	507.25
320.816	489.25
321.046	481.25
321.275	500.25
321.504	487.25
321.733	501.25
321.962	476.25
322.191	526.25
322.42	523.25
322.649	527.25
322.878	530.25
323.108	526.25
323.337	523.25
323.566	535.25
323.795	567.25
324.024	605.25
324.253	681.25
324.482	873.25
324.71	1264.25
324.939	1798.25
325.168	1587.25
325.397	887.25
325.626	661.25
325.855	574.25
326.084	568.25
326.313	563.25
326.542	575.25
326.77	599.25
326.999	663.25
327.228	827.25
327.457	1163.25
327.686	1417.25
327.914	1029.25
328.143	722.25
328.372	625.25
328.6	627.25
328.829	624.25
329.058	614.25
329.287	633.25
329.515	594.25
329.744	612.25
329.972	608.25
330.201	595.25
330.43	632.25
330.658	635.25
330.887	657.25
331.115	644.25
331.344	613.25
331.572	581.25
331.801	589.25
332.03	609.25
332.258	603.25
332.486	585.25
332.715	600.25
332.943	613.25
333.172	617.25
333.4	672.25
333.629	646.25
333.857	653.25
334.085	661.25
334.314	663.25
334.542	694.25
334.771	703.25
334.999	647.25
335.227	651.25
335.455	607.25
335.684	625.25
335.912	611.25
336.14	569.25
336.369	591.25
336.597	611.25
336.825	595.25
337.053	593.25
337.281	587.25
337.51	573.25
337.738	576.25
337.966	566.25
338.194	566.25
338.422	566.25
338.65	568.25
338.878	551.25
339.106	552.25
339.334	558.25
339.562	533.25
339.79	533.25
340.018	535.25
340.246	555.25
340.474	530.25
340.702	559.25
340.93	532.25
341.158	560.25
341.386	563.25
341.614	567.25
341.842	543.25
342.07	560.25
342.298	551.25
342.526	537.25
342.754	547.25
342.981	542.25
343.209	539.25
343.437	556.25
343.665	582.25
343.893	597.25
344.12	601.25
344.348	623.25
344.576	574.25
344.804	576.25
345.031	581.25
345.259	588.25
345.487	552.25
345.714	544.25
345.942	526.25
346.17	529.25
346.397	500.25
346.625	504.25
346.853	504.25
347.08	524.25
347.308	522.25
347.535	536.25
347.763	548.25
347.99	504.25
348.218	517.25
348.445	544.25
348.673	543.25
348.9	524.25
349.128	520.25
349.355	515.25
349.583	523.25
349.81	501.25
350.037	527.25
350.265	489.25
350.492	515.25
350.72	522.25
350.947	504.25
351.174	529.25
351.402	513.25
351.629	505.25
351.856	502.25
352.083	528.25
352.311	547.25
352.538	524.25
352.765	549.25
352.992	536.25
353.22	502.25
353.447	499.25
353.674	513.25
353.901	520.25
354.128	511.25
354.355	492.25
354.583	468.25
354.81	505.25
355.037	502.25
355.264	528.25
355.491	528.25
355.718	526.25
355.945	513.25
356.172	497.25
356.399	517.25
356.626	492.25
356.853	506.25
357.08	507.25
357.307	489.25
357.534	496.25
357.761	501.25
357.988	517.25
358.215	470.25
358.441	513.25
358.668	535.25
358.895	519.25
359.122	517.25
359.349	520.25
359.576	494.25
359.802	544.25
360.029	545.25
360.256	561.25
360.483	551.25
360.709	542.25
360.936	545.25
361.163	517.25
361.39	515.25
361.616	512.25
361.843	527.25
362.07	520.25
362.296	532.25
362.523	541.25
362.749	534.25
362.976	535.25
363.203	529.25
363.429	529.25
363.656	520.25
363.882	500.25
364.109	510.25
364.335	487.25
364.562	499.25
364.788	496.25
365.015	510.25
365.241	488.25
365.468	523.25
365.694	533.25
365.92	534.25
366.147	521.25
366.373	516.25
366.599	488.25
366.826	519.25
367.052	505.25
367.278	525.25
367.505	498.25
367.731	517.25
367.957	497.25
368.184	515.25
368.41	525.25
368.636	534.25
368.862	535.25
369.089	528.25
369.315	524.25
369.541	549.25
369.767	522.25
369.993	501.25
370.219	523.25
370.445	522.25
370.672	527.25
370.898	529.25
371.124	526.25
371.35	501.25
371.576	528.25
371.802	532.25
372.028	548.25
372.254	519.25
372.48	522.25
372.706	538.25
372.932	547.25
373.158	541.25
373.384	545.25
373.61	549.25
373.835	540.25
374.061	531.25
374.287	538.25
374.513	531.25
374.739	540.25
374.965	583.25
375.191	571.25
375.416	556.25
375.642	557.25
375.868	566.25
376.094	543.25
376.319	527.25
376.545	539.25
376.771	524.25
376.997	540.25
377.222	545.25
377.448	534.25
377.674	540.25
377.899	540.25
378.125	535.25
378.35	535.25
378.576	535.25
378.802	543.25
379.027	538.25
379.253	538.25
379.478	541.25
379.704	540.25
379.929	530.25
380.155	516.25
380.38	517.25
380.606	511.25
380.831	539.25
381.057	557.25
381.282	521.25
381.507	534.25
381.733	536.25
381.958	539.25
382.184	541.25
382.409	553.25
382.634	552.25
382.86	564.25
383.085	541.25
383.31	544.25
383.535	563.25
383.761	574.25
383.986	579.25
384.211	591.25
384.436	581.25
384.662	590.25
384.887	588.25
385.112	582.25
385.337	645.25
385.562	608.25
385.787	611.25
386.013	608.25
386.238	621.25
386.463	614.25
386.688	606.25
386.913	594.25
387.138	597.25
387.363	611.25
387.588	633.25
387.813	602.25
388.038	623.25
388.263	584.25
388.488	632.25
388.713	600.25
388.938	600.25
389.163	596.25
389.387	583.25
389.612	616.25
389.837	599.25
390.062	587.25
390.287	583.25
390.512	604.25
390.736	588.25
390.961	641.25
391.186	638.25
391.411	630.25
391.636	637.25
391.86	636.25
392.085	632.25
392.31	675.25
392.534	649.25
392.759	650.25
392.984	622.25
393.208	660.25
393.433	627.25
393.658	636.25
393.882	628.25
394.107	615.25
394.331	637.25
394.556	627.25
394.78	638.25
395.005	649.25
395.229	623.25
395.454	641.25
395.678	685.25
395.903	643.25
396.127	707.25
396.352	692.25
396.576	669.25
396.801	651.25
397.025	632.25
397.249	637.25
397.474	676.25
397.698	669.25
397.922	697.25
398.147	678.25
398.371	681.25
398.595	719.25
398.82	748.25
399.044	750.25
399.268	805.25
399.492	911.25
399.717	962.25
399.941	1002.25
400.165	957.25
400.389	897.25
400.613	865.25
400.837	793.25
401.062	784.25
401.286	728.25
401.51	734.25
401.734	747.25
401.958	726.25
402.182	740.25
402.406	742.25
402.63	763.25
402.854	769.25
403.078	792.25
403.302	804.25
403.526	816.25
403.75	809.25
403.974	813.25
404.198	823.25
404.422	823.25
404.645	821.25
404.869	781.25
405.093	848.25
405.317	856.25
405.541	901.25
405.765	835.25
405.988	821.25
406.212	806.25
406.436	835.25
406.66	825.25
406.883	859.25
407.107	909.25
407.331	940.25
407.555	970.25
407.778	974.25
408.002	922.25
408.226	893.25
408.449	860.25
408.673	835.25
408.896	855.25
409.12	879.25
409.344	839.25
409.567	792.25
409.791	799.25
410.014	765.25
410.238	782.25
410.461	773.25
410.685	791.25
410.908	795.25
411.132	821.25
411.355	827.25
411.578	804.25
411.802	797.25
412.025	785.25
412.249	786.25
412.472	792.25
412.695	799.25
412.919	825.25
413.142	785.25
413.365	747.25
413.589	748.25
413.812	742.25
414.035	720.25
414.258	728.25
414.482	726.25
414.705	724.25
414.928	721.25
415.151	717.25
415.374	735.25
415.597	704.25
415.821	694.25
416.044	710.25
416.267	712.25
416.49	720.25
416.713	708.25
416.936	697.25
417.159	703.25
417.382	723.25
417.605	731.25
417.828	718.25
418.051	728.25
418.274	744.25
418.497	728.25
418.72	717.25
418.943	751.25
419.166	787.25
419.389	810.25
419.611	782.25
419.834	783.25
420.057	765.25
420.28	755.25
420.503	739.25
420.726	752.25
420.948	749.25
421.171	764.25
421.394	797.25
421.617	769.25
421.839	749.25
422.062	763.25
422.285	726.25
422.507	795.25
422.73	847.25
422.953	838.25
423.175	816.25
423.398	784.25
423.621	780.25
423.843	788.25
424.066	805.25
424.288	797.25
424.511	806.25
424.733	853.25
424.956	894.25
425.178	894.25
425.401	886.25
425.623	887.25
425.846	801.25
426.068	757.25
426.291	747.25
426.513	720.25
426.735	777.25
426.958	799.25
427.18	859.25
427.402	975.25
427.625	1031.25
427.847	912.25
428.069	834.25
428.292	779.25
428.514	721.25
428.736	700.25
428.958	686.25
429.181	683.25
429.403	688.25
429.625	679.25
429.847	715.25
430.069	771.25
430.292	760.25
430.514	691.25
430.736	685.25
430.958	675.25
431.18	691.25
431.402	661.25
431.624	663.25
431.846	680.25
432.068	671.25
432.29	656.25
432.512	665.25
432.734	687.25
432.956	678.25
433.178	682.25
433.4	720.25
433.622	685.25
433.844	679.25
434.066	685.25
434.287	660.25
434.509	697.25
434.731	712.25
434.953	728.25
435.175	744.25
435.397	767.25
435.618	755.25
435.84	781.25
436.062	841.25
436.284	911.25
436.505	807.25
436.727	762.25
436.949	712.25
437.17	680.25
437.392	696.25
437.614	694.25
437.835	723.25
438.057	783.25
438.278	864.25
438.5	866.25
438.721	932.25
438.943	902.25
439.165	768.25
439.386	744.25
439.608	748.25
439.829	725.25
440.05	718.25
440.272	775.25
440.493	732.25
440.715	728.25
440.936	710.25
441.158	726.25
441.379	724.25
441.6	743.25
441.822	755.25
442.043	808.25
442.264	849.25
442.486	899.25
442.707	789.25
442.928	759.25
443.149	773.25
443.371	760.25
443.592	812.25
443.813	905.25
444.034	979.25
444.255	847.25
444.476	808.25
444.698	824.25
444.919	855.25
445.14	940.25
445.361	865.25
445.582	819.25
445.803	838.25
446.024	900.25
446.245	894.25
446.466	823.25
446.687	759.25
446.908	725.25
447.129	696.25
447.35	697.25
447.571	681.25
447.792	665.25
448.013	686.25
448.234	682.25
448.455	712.25
448.675	797.25
448.896	892.25
449.117	803.25
449.338	756.25
449.559	848.25
449.779	931.25
450	783.25
450.221	699.25
450.442	667.25
450.662	646.25
450.883	674.25
451.104	672.25
451.324	662.25
451.545	640.25
451.766	640.25
451.986	643.25
452.207	600.25
452.428	623.25
452.648	606.25
452.869	608.25
453.089	613.25
453.31	651.25
453.53	628.25
453.751	597.25
453.971	606.25
454.192	612.25
454.412	612.25
454.633	609.25
454.853	600.25
455.073	603.25
455.294	632.25
455.514	677.25
455.734	667.25
455.955	594.25
456.175	603.25
456.395	567.25
456.616	569.25
456.836	593.25
457.056	580.25
457.276	546.25
457.497	575.25
457.717	563.25
457.937	600.25
458.157	612.25
458.377	583.25
458.598	640.25
458.818	649.25
459.038	729.25
459.258	763.25
459.478	707.25
459.698	700.25
459.918	694.25
460.138	716.25
460.358	725.25
460.578	703.25
460.798	731.25
461.018	746.25
461.238	751.25
461.458	727.25
461.678	741.25
461.898	745.25
462.118	749.25
462.338	756.25
462.558	792.25
462.777	824.25
462.997	813.25
463.217	891.25
463.437	916.25
463.657	875.25
463.876	827.25
464.096	835.25
464.316	822.25
464.536	848.25
464.755	817.25
464.975	804.25
465.195	804.25
465.414	825.25
465.634	746.25
465.854	694.25
466.073	691.25
466.293	670.25
466.512	648.25
466.732	640.25
466.951	670.25
467.171	643.25
467.391	640.25
467.61	660.25
467.829	641.25
468.049	633.25
468.268	636.25
468.488	631.25
468.707	625.25
468.927	607.25
469.146	601.25
469.365	627.25
469.585	627.25
469.804	644.25
470.023	645.25
470.243	667.25
470.462	676.25
470.681	703.25
470.901	693.25
471.12	670.25
471.339	663.25
471.558	647.25
471.777	649.25
471.997	650.25
472.216	636.25
472.435	675.25
472.654	665.25
472.873	643.25
473.092	639.25
473.311	630.25
473.53	636.25
473.749	630.25
473.968	708.25
474.187	756.25
474.406	756.25
474.625	699.25
474.844	639.25
475.063	638.25
475.282	670.25
475.501	624.25
475.72	645.25
475.939	641.25
476.158	646.25
476.377	655.25
476.596	667.25
476.814	679.25
477.033	671.25
477.252	687.25
477.471	711.25
477.69	704.25
477.908	707.25
478.127	716.25
478.346	729.25
478.564	743.25
478.783	768.25
479.002	783.25
479.22	760.25
479.439	767.25
479.658	803.25
479.876	814.25
480.095	814.25
480.313	821.25
480.532	832.25
480.751	836.25
480.969	825.25
481.188	873.25
481.406	889.25
481.624	821.25
481.843	781.25
482.061	761.25
482.28	757.25
482.498	727.25
482.717	760.25
482.935	735.25
483.153	726.25
483.372	751.25
483.59	758.25
483.808	740.25
484.027	736.25
484.245	748.25
484.463	775.25
484.681	769.25
484.9	744.25
485.118	759.25
485.336	764.25
485.554	764.25
485.772	782.25
485.99	763.25
486.209	780.25
486.427	801.25
486.645	753.25
486.863	785.25
487.081	777.25
487.299	808.25
487.517	808.25
487.735	793.25
487.953	807.25
488.171	788.25
488.389	805.25
488.607	780.25
488.825	807.25
489.043	755.25
489.261	800.25
489.479	796.25
489.696	782.25
489.914	816.25
490.132	802.25
490.35	837.25
490.568	828.25
490.786	845.25
491.003	840.25
491.221	835.25
491.439	873.25
491.657	886.25
491.874	891.25
492.092	886.25
492.31	885.25
492.527	891.25
492.745	917.25
492.963	922.25
493.18	901.25
493.398	894.25
493.615	899.25
493.833	937.25
494.05	943.25
494.268	918.25
494.485	921.25
494.703	902.25
494.92	909.25
495.138	899.25
495.355	939.25
495.573	929.25
495.79	887.25
496.008	930.25
496.225	947.25
496.442	934.25
496.66	955.25
496.877	945.25
497.094	953.25
497.312	961.25
497.529	976.25
497.746	985.25
497.963	1022.25
498.181	1049.25
498.398	1083.25
498.615	1096.25
498.832	1145.25
499.049	1242.25
499.267	1262.25
499.484	1356.25
499.701	1433.25
499.918	1532.25
500.135	1665.25
500.352	1836.25
500.569	1885.25
500.786	1854.25
501.003	1800.25
501.22	1667.25
501.437	1553.25
501.654	1445.25
501.871	1371.25
502.088	1319.25
502.305	1274.25
502.522	1165.25
502.739	1153.25
502.956	1068.25
503.172	1056.25
503.389	1064.25
503.606	1023.25
503.823	1007.25
504.04	991.25
504.256	1007.25
504.473	981.25
504.69	1004.25
504.907	1022.25
505.123	993.25
505.34	962.25
505.557	908.25
505.773	909.25
505.99	856.25
506.207	875.25
506.423	850.25
506.64	868.25
506.856	861.25
507.073	848.25
507.289	871.25
507.506	841.25
507.722	837.25
507.939	846.25
508.155	823.25
508.372	819.25
508.588	807.25
508.805	800.25
509.021	798.25
509.238	815.25
509.454	798.25
509.67	793.25
509.887	803.25
510.103	800.25
510.319	792.25
510.536	869.25
510.752	1231.25
510.968	1069.25
511.184	811.25
511.401	769.25
511.617	765.25
511.833	749.25
512.049	786.25
512.265	781.25
512.481	779.25
512.698	751.25
512.914	772.25
513.13	751.25
513.346	747.25
513.562	759.25
513.778	750.25
513.994	783.25
514.21	781.25
514.426	792.25
514.642	826.25
514.858	821.25
515.074	854.25
515.29	929.25
515.506	1223.25
515.721	1101.25
515.937	868.25
516.153	824.25
516.369	842.25
516.585	823.25
516.801	844.25
517.016	861.25
517.232	910.25
517.448	885.25
517.664	906.25
517.879	923.25
518.095	934.25
518.311	917.25
518.527	873.25
518.742	868.25
518.958	860.25
519.173	836.25
519.389	811.25
519.605	823.25
519.82	788.25
520.036	793.25
520.251	822.25
520.467	798.25
520.682	802.25
520.898	787.25
521.113	805.25
521.329	816.25
521.544	871.25
521.76	1035.25
521.975	1508.25
522.19	1527.25
522.406	951.25
522.621	779.25
522.836	741.25
523.052	744.25
523.267	708.25
523.482	717.25
523.698	694.25
523.913	689.25
524.128	684.25
524.343	681.25
524.559	672.25
524.774	677.25
524.989	653.25
525.204	692.25
525.419	696.25
525.634	692.25
525.849	672.25
526.064	676.25
526.28	670.25
526.495	638.25
526.71	662.25
526.925	652.25
527.14	643.25
527.355	667.25
527.57	628.25
527.785	634.25
527.999	651.25
528.214	662.25
528.429	631.25
528.644	624.25
528.859	675.25
529.074	637.25
529.289	663.25
529.503	694.25
529.718	695.25
529.933	680.25
530.148	670.25
530.363	663.25
530.577	632.25
530.792	641.25
531.007	625.25
531.221	615.25
531.436	662.25
531.651	652.25
531.865	658.25
532.08	621.25
532.295	679.25
532.509	619.25
532.724	631.25
532.938	631.25
533.153	655.25
533.367	633.25
533.582	621.25
533.796	630.25
534.011	628.25
534.225	613.25
534.44	631.25
534.654	607.25
534.868	629.25
535.083	622.25
535.297	621.25
535.511	613.25
535.726	613.25
535.94	613.25
536.154	627.25
536.369	585.25
536.583	617.25
536.797	627.25
537.011	605.25
537.225	617.25
537.44	614.25
537.654	614.25
537.868	606.25
538.082	567.25
538.296	614.25
538.51	593.25
538.724	629.25
538.938	594.25
539.153	592.25
539.367	589.25
539.581	593.25
539.795	606.25
540.009	599.25
540.222	597.25
540.436	593.25
540.65	586.25
540.864	603.25
541.078	590.25
541.292	603.25
541.506	565.25
541.72	586.25
541.934	594.25
542.147	592.25
542.361	597.25
542.575	585.25
542.789	575.25
543.002	588.25
543.216	568.25
543.43	593.25
543.644	600.25
543.857	586.25
544.071	578.25
544.285	582.25
544.498	583.25
544.712	584.25
544.925	593.25
545.139	590.25
545.352	606.25
545.566	605.25
545.779	590.25
545.993	603.25
546.206	605.25
546.42	602.25
546.633	585.25
546.847	591.25
547.06	571.25
547.274	578.25
547.487	578.25
547.7	577.25
547.914	595.25
548.127	591.25
548.34	601.25
548.554	599.25
548.767	605.25
548.98	582.25
549.193	580.25
549.407	586.25
549.62	600.25
549.833	611.25
550.046	615.25
550.259	590.25
550.473	585.25
550.686	569.25
550.899	567.25
551.112	577.25
551.325	583.25
551.538	584.25
551.751	600.25
551.964	560.25
552.177	598.25
552.39	588.25
552.603	600.25
552.816	609.25
553.029	614.25
553.242	632.25
553.455	630.25
553.667	643.25
553.88	634.25
554.093	632.25
554.306	641.25
554.519	599.25
554.732	572.25
554.944	584.25
555.157	588.25
555.37	572.25
555.583	564.25
555.795	558.25
556.008	541.25
556.221	541.25
556.433	547.25
556.646	548.25
556.859	535.25
557.071	547.25
557.284	524.25
557.496	524.25
557.709	540.25
557.921	511.25
558.134	518.25
558.346	502.25
558.559	533.25
558.771	510.25
558.984	491.25
559.196	498.25
559.409	519.25
559.621	504.25
559.833	508.25
560.046	509.25
560.258	490.25
560.47	495.25
560.683	543.25
560.895	506.25
561.107	523.25
561.32	533.25
561.532	511.25
561.744	518.25
561.956	523.25
562.168	502.25
562.381	513.25
562.593	524.25
562.805	510.25
563.017	515.25
563.229	513.25
563.441	535.25
563.653	525.25
563.865	523.25
564.077	535.25
564.289	547.25
564.501	531.25
564.713	546.25
564.925	552.25
565.137	565.25
565.349	567.25
565.561	576.25
565.773	593.25
565.985	627.25
566.197	648.25
566.408	684.25
566.62	697.25
566.832	746.25
567.044	759.25
567.255	764.25
567.467	779.25
567.679	789.25
567.891	857.25
568.102	868.25
568.314	838.25
568.526	778.25
568.737	715.25
568.949	674.25
569.161	648.25
569.372	600.25
569.584	578.25
569.795	569.25
570.007	552.25
570.218	569.25
570.43	576.25
570.641	542.25
570.853	554.25
571.064	539.25
571.276	530.25
571.487	537.25
571.698	510.25
571.91	506.25
572.121	502.25
572.333	477.25
572.544	455.25
572.755	464.25
572.966	471.25
573.178	461.25
573.389	446.25
573.6	452.25
573.811	471.25
574.023	454.25
574.234	446.25
574.445	486.25
574.656	464.25
574.867	459.25
575.078	445.25
575.289	457.25
575.501	453.25
575.712	433.25
575.923	429.25
576.134	435.25
576.345	427.25
576.556	428.25
576.767	432.25
576.978	447.25
577.188	426.25
577.399	418.25
577.61	409.25
577.821	427.25
578.032	401.25
578.243	422.25
578.454	589.25
578.665	502.25
578.875	428.25
579.086	405.25
579.297	419.25
579.508	409.25
579.718	402.25
579.929	407.25
580.14	415.25
580.35	400.25
580.561	413.25
580.772	409.25
580.982	417.25
581.193	405.25
581.403	413.25
581.614	410.25
581.825	392.25
582.035	401.25
582.246	389.25
582.456	397.25
582.667	412.25
582.877	396.25
583.087	389.25
583.298	398.25
583.508	368.25
583.719	387.25
583.929	379.25
584.139	384.25
584.35	398.25
584.56	383.25
584.77	367.25
584.981	387.25
585.191	363.25
585.401	403.25
585.611	387.25
585.821	378.25
586.032	402.25
586.242	384.25
586.452	387.25
586.662	370.25
586.872	377.25
587.082	390.25
587.292	372.25
587.502	384.25
587.713	378.25
587.923	377.25
588.133	377.25
588.343	381.25
588.553	419.25
588.762	395.25
588.972	385.25
589.182	368.25
589.392	391.25
589.602	380.25
589.812	381.25
590.022	398.25
590.232	373.25
590.441	379.25
590.651	383.25
590.861	391.25
591.071	407.25
591.281	404.25
591.49	384.25
591.7	412.25
591.91	437.25
592.119	415.25
592.329	415.25
592.539	411.25
592.748	460.25
592.958	445.25
593.167	444.25
593.377	467.25
593.587	463.25
593.796	461.25
594.006	456.25
594.215	459.25
594.424	462.25
594.634	449.25
594.843	433.25
595.053	433.25
595.262	430.25
595.472	412.25
595.681	426.25
595.89	400.25
596.1	398.25
596.309	376.25
596.518	380.25
596.727	366.25
596.937	356.25
597.146	362.25
597.355	382.25
597.564	352.25
597.774	352.25
597.983	348.25
598.192	341.25
598.401	359.25
598.61	357.25
598.819	343.25
599.028	341.25
599.237	336.25
599.446	320.25
599.655	333.25
599.864	332.25
600.073	335.25
600.282	328.25
600.491	325.25
600.7	323.25
600.909	335.25
601.118	349.25
601.327	336.25
601.536	329.25
601.745	324.25
601.953	336.25
602.162	336.25
602.371	335.25
602.58	330.25
602.789	319.25
602.997	325.25
603.206	312.25
603.415	318.25
603.623	328.25
603.832	307.25
604.041	314.25
604.249	314.25
604.458	312.25
604.666	311.25
604.875	294.25
605.084	290.25
605.292	308.25
605.501	309.25
605.709	304.25
605.918	314.25
606.126	324.25
606.334	305.25
606.543	292.25
606.751	295.25
606.96	304.25
607.168	301.25
607.376	296.25
607.585	315.25
607.793	286.25
608.001	307.25
608.21	311.25
608.418	294.25
608.626	300.25
608.834	301.25
609.043	313.25
609.251	301.25
609.459	305.25
609.667	289.25
609.875	307.25
610.083	302.25
610.291	303.25
610.499	308.25
610.707	295.25
610.916	316.25
611.124	305.25
611.332	295.25
611.54	330.25
611.748	305.25
611.955	299.25
612.163	294.25
612.371	295.25
612.579	304.25
612.787	288.25
612.995	299.25
613.203	315.25
613.411	293.25
613.618	295.25
613.826	301.25
614.034	299.25
614.242	299.25
614.449	319.25
614.657	295.25
614.865	291.25
615.072	294.25
615.28	292.25
615.488	302.25
615.695	320.25
615.903	305.25
616.111	313.25
616.318	323.25
616.526	304.25
616.733	316.25
616.941	308.25
617.148	301.25
617.356	309.25
617.563	286.25
617.771	300.25
617.978	295.25
618.185	318.25
618.393	297.25
618.6	299.25
618.807	292.25
619.015	300.25
619.222	302.25
619.429	289.25
619.637	294.25
619.844	289.25
620.051	291.25
620.258	285.25
620.466	290.25
620.673	282.25
620.88	281.25
621.087	279.25
621.294	303.25
621.501	279.25
621.708	302.25
621.915	272.25
622.122	277.25
622.329	269.25
622.536	277.25
622.743	280.25
622.95	270.25
623.157	267.25
623.364	281.25
623.571	278.25
623.778	270.25
623.985	279.25
624.192	267.25
624.399	271.25
624.606	277.25
624.812	267.25
625.019	288.25
625.226	270.25
625.433	265.25
625.639	259.25
625.846	262.25
626.053	256.25
626.259	255.25
626.466	247.25
626.673	264.25
626.879	259.25
627.086	262.25
627.293	270.25
627.499	265.25
627.706	262.25
627.912	253.25
628.119	265.25
628.325	254.25
628.532	258.25
628.738	230.25
628.945	256.25
629.151	247.25
629.357	253.25
629.564	251.25
629.77	234.25
629.976	225.25
630.183	231.25
630.389	268.25
630.595	259.25
630.802	255.25
631.008	229.25
631.214	239.25
631.42	240.25
631.627	221.25
631.833	234.25
632.039	248.25
632.245	221.25
632.451	241.25
632.657	242.25
632.863	239.25
633.069	233.25
633.275	220.25
633.481	235.25
633.688	229.25
633.893	220.25
634.099	233.25
634.305	224.25
634.511	220.25
634.717	236.25
634.923	209.25
635.129	220.25
635.335	216.25
635.541	235.25
635.747	231.25
635.952	209.25
636.158	218.25
636.364	223.25
636.57	227.25
636.775	219.25
636.981	224.25
637.187	223.25
637.392	227.25
637.598	223.25
637.804	216.25
638.009	206.25
638.215	232.25
638.421	196.25
638.626	212.25
638.832	212.25
639.037	216.25
639.243	197.25
639.448	212.25
639.654	215.25
639.859	222.25
640.065	214.25
640.27	224.25
640.475	209.25
640.681	200.25
640.886	211.25
641.091	194.25
641.297	214.25
641.502	210.25
641.707	199.25
641.913	201.25
642.118	206.25
642.323	197.25
642.528	196.25
642.733	205.25
642.939	198.25
643.144	196.25
643.349	191.25
643.554	200.25
643.759	195.25
643.964	195.25
644.169	220.25
644.374	193.25
644.579	204.25
644.784	201.25
644.989	202.25
645.194	209.25
645.399	197.25
645.604	203.25
645.809	214.25
646.014	207.25
646.219	202.25
646.423	194.25
646.628	200.25
646.833	198.25
647.038	199.25
647.243	203.25
647.447	204.25
647.652	203.25
647.857	201.25
648.062	201.25
648.266	208.25
648.471	205.25
648.676	210.25
648.88	201.25
649.085	196.25
649.289	210.25
649.494	201.25
649.698	222.25
649.903	209.25
650.107	192.25
650.312	207.25
650.516	195.25
650.721	172.25
650.925	171.25
651.13	196.25
651.334	181.25
651.539	180.25
651.743	200.25
651.947	181.25
652.152	174.25
652.356	165.25
652.56	174.25
652.764	166.25
652.969	164.25
653.173	160.25
653.377	159.25
653.581	157.25
653.785	151.25
653.99	163.25
654.194	155.25
654.398	152.25
654.602	157.25
654.806	141.25
655.01	157.25
655.214	160.25
655.418	168.25
655.622	158.25
655.826	160.25
656.03	144.25
656.234	166.25
656.438	157.25
656.642	158.25
656.846	150.25
657.049	152.25
657.253	153.25
657.457	148.25
657.661	139.25
657.865	133.25
658.068	119.25
658.272	120.25
658.476	126.25
658.68	119.25
658.883	120.25
659.087	123.25
659.291	125.25
659.494	100.25
659.698	112.25
659.901	103.25
660.105	102.25
660.309	123.25
660.512	100.25
660.716	88.25
660.919	103.25
661.123	108.25
661.326	101.25
661.53	103.25
661.733	84.25
661.936	85.25
662.14	81.25
662.343	89.25
662.546	99.25
662.75	94.25
662.953	95.25
663.156	82.25
663.36	98.25
663.563	92.25
663.766	80.25
663.969	95.25
664.173	97.25
664.376	78.25
664.579	87.25
664.782	88.25
664.985	80.25
665.188	75.25
665.391	83.25
665.594	87.25
665.797	85.25
666	81.25
666.203	77.25
666.406	96.25
666.609	85.25
666.812	85.25
667.015	92.25
667.218	95.25
667.421	85.25
667.624	79.25
667.827	80.25
668.03	88.25
668.232	91.25
668.435	103.25
668.638	79.25
668.841	75.25
669.043	84.25
669.246	95.25
669.449	91.25
669.651	89.25
669.854	101.25
670.057	87.25
670.259	92.25
670.462	90.25
670.665	85.25
670.867	93.25
671.07	84.25
671.272	78.25
671.475	87.25
671.677	85.25
671.88	80.25
672.082	91.25
672.284	69.25
672.487	87.25
672.689	84.25
672.892	94.25
