Data from 1963.PennyLincolnUp.Lamp.En5.5.200Scan.071719.P1._HRD10591_13-57-14-063.txt Node
Date: Thu Jul 18 13:57:14 EDT 2019
User: cochatt
Spectrometer: HR+D1059
Trigger mode: 1
Integration Time (sec): 1.000000E-1
Scans to average: 1
Electric dark correction enabled: true
Nonlinearity correction enabled: false
Boxcar width: 0
XAxis mode: Wavelengths
Number of Pixels in Spectrum: 2048
>>>>>Begin Spectral Data<<<<<
223.165	-11.31
223.4	-11.31
223.635	-11.31
223.869	-10.31
224.104	1.69
224.338	-18.31
224.573	-15.31
224.808	-4.31
225.042	-9.31
225.277	1.69
225.511	-14.31
225.746	0.69
225.98	2.69
226.215	8.69
226.449	20.69
226.683	10.69
226.918	7.69
227.152	28.69
227.387	21.69
227.621	33.69
227.856	40.69
228.09	36.69
228.324	38.69
228.559	50.69
228.793	67.69
229.027	91.69
229.262	104.69
229.496	100.69
229.73	115.69
229.964	116.69
230.199	109.69
230.433	98.69
230.667	104.69
230.901	94.69
231.136	109.69
231.37	118.69
231.604	122.69
231.838	124.69
232.072	111.69
232.306	98.69
232.541	111.69
232.775	99.69
233.009	99.69
233.243	125.69
233.477	114.69
233.711	103.69
233.945	126.69
234.179	101.69
234.413	122.69
234.647	126.69
234.881	120.69
235.115	120.69
235.349	106.69
235.583	115.69
235.817	126.69
236.051	130.69
236.285	129.69
236.519	116.69
236.753	130.69
236.987	135.69
237.221	160.69
237.455	171.69
237.689	152.69
237.922	153.69
238.156	151.69
238.39	131.69
238.624	129.69
238.858	124.69
239.091	135.69
239.325	129.69
239.559	137.69
239.793	120.69
240.027	138.69
240.26	140.69
240.494	138.69
240.728	149.69
240.961	151.69
241.195	149.69
241.429	127.69
241.662	152.69
241.896	149.69
242.13	139.69
242.363	142.69
242.597	154.69
242.83	137.69
243.064	131.69
243.298	152.69
243.531	163.69
243.765	140.69
243.998	144.69
244.232	142.69
244.465	149.69
244.699	155.69
244.932	162.69
245.166	156.69
245.399	156.69
245.633	160.69
245.866	141.69
246.099	161.69
246.333	146.69
246.566	148.69
246.8	167.69
247.033	163.69
247.266	161.69
247.5	163.69
247.733	166.69
247.966	161.69
248.2	184.69
248.433	190.69
248.666	171.69
248.899	182.69
249.133	186.69
249.366	191.69
249.599	183.69
249.832	181.69
250.066	196.69
250.299	186.69
250.532	178.69
250.765	199.69
250.998	177.69
251.231	202.69
251.465	197.69
251.698	204.69
251.931	191.69
252.164	208.69
252.397	202.69
252.63	195.69
252.863	199.69
253.096	211.69
253.329	200.69
253.562	219.69
253.795	220.69
254.028	224.69
254.261	217.69
254.494	208.69
254.727	242.69
254.96	233.69
255.193	240.69
255.426	217.69
255.659	226.69
255.892	218.69
256.124	223.69
256.357	215.69
256.59	220.69
256.823	220.69
257.056	210.69
257.289	226.69
257.521	225.69
257.754	199.69
257.987	204.69
258.22	218.69
258.452	205.69
258.685	226.69
258.918	217.69
259.151	229.69
259.383	227.69
259.616	226.69
259.849	227.69
260.081	243.69
260.314	245.69
260.547	224.69
260.779	245.69
261.012	241.69
261.244	238.69
261.477	233.69
261.71	227.69
261.942	225.69
262.175	242.69
262.407	227.69
262.64	241.69
262.872	219.69
263.105	225.69
263.337	224.69
263.57	237.69
263.802	222.69
264.035	238.69
264.267	224.69
264.499	235.69
264.732	225.69
264.964	239.69
265.197	231.69
265.429	239.69
265.661	236.69
265.894	244.69
266.126	231.69
266.358	247.69
266.591	243.69
266.823	237.69
267.055	241.69
267.287	252.69
267.52	256.69
267.752	238.69
267.984	252.69
268.216	254.69
268.448	259.69
268.681	257.69
268.913	256.69
269.145	272.69
269.377	279.69
269.609	284.69
269.841	260.69
270.073	257.69
270.306	282.69
270.538	278.69
270.77	292.69
271.002	283.69
271.234	290.69
271.466	280.69
271.698	306.69
271.93	306.69
272.162	295.69
272.394	288.69
272.626	293.69
272.858	289.69
273.09	271.69
273.322	293.69
273.553	282.69
273.785	268.69
274.017	271.69
274.249	282.69
274.481	264.69
274.713	282.69
274.945	282.69
275.176	295.69
275.408	307.69
275.64	288.69
275.872	288.69
276.104	275.69
276.335	270.69
276.567	278.69
276.799	283.69
277.031	312.69
277.262	316.69
277.494	314.69
277.726	299.69
277.957	306.69
278.189	298.69
278.421	299.69
278.652	312.69
278.884	296.69
279.115	304.69
279.347	307.69
279.579	302.69
279.81	303.69
280.042	307.69
280.273	314.69
280.505	325.69
280.736	314.69
280.968	304.69
281.199	317.69
281.431	313.69
281.662	293.69
281.894	292.69
282.125	307.69
282.356	304.69
282.588	319.69
282.819	323.69
283.051	316.69
283.282	312.69
283.513	323.69
283.745	310.69
283.976	320.69
284.207	338.69
284.439	310.69
284.67	312.69
284.901	332.69
285.132	314.69
285.364	307.69
285.595	323.69
285.826	324.69
286.057	327.69
286.288	331.69
286.52	328.69
286.751	324.69
286.982	331.69
287.213	331.69
287.444	303.69
287.675	330.69
287.906	343.69
288.138	327.69
288.369	341.69
288.6	350.69
288.831	352.69
289.062	341.69
289.293	338.69
289.524	327.69
289.755	326.69
289.986	335.69
290.217	348.69
290.448	346.69
290.679	337.69
290.91	346.69
291.141	341.69
291.371	341.69
291.602	330.69
291.833	361.69
292.064	337.69
292.295	335.69
292.526	356.69
292.757	352.69
292.987	348.69
293.218	340.69
293.449	339.69
293.68	361.69
293.91	356.69
294.141	339.69
294.372	356.69
294.603	350.69
294.833	342.69
295.064	355.69
295.295	339.69
295.525	349.69
295.756	346.69
295.987	346.69
296.217	371.69
296.448	366.69
296.679	331.69
296.909	341.69
297.14	355.69
297.37	373.69
297.601	352.69
297.831	359.69
298.062	362.69
298.292	366.69
298.523	366.69
298.753	374.69
298.984	362.69
299.214	349.69
299.445	357.69
299.675	351.69
299.905	388.69
300.136	379.69
300.366	377.69
300.597	366.69
300.827	387.69
301.057	377.69
301.288	400.69
301.518	384.69
301.748	402.69
301.979	386.69
302.209	370.69
302.439	387.69
302.669	384.69
302.9	376.69
303.13	388.69
303.36	395.69
303.59	393.69
303.82	410.69
304.051	404.69
304.281	393.69
304.511	410.69
304.741	376.69
304.971	393.69
305.201	402.69
305.431	382.69
305.661	382.69
305.891	375.69
306.121	382.69
306.352	389.69
306.582	405.69
306.812	384.69
307.042	401.69
307.272	395.69
307.502	392.69
307.731	395.69
307.961	386.69
308.191	376.69
308.421	397.69
308.651	397.69
308.881	368.69
309.111	391.69
309.341	388.69
309.571	406.69
309.8	404.69
310.03	404.69
310.26	408.69
310.49	406.69
310.72	414.69
310.949	419.69
311.179	400.69
311.409	405.69
311.639	407.69
311.868	414.69
312.098	402.69
312.328	410.69
312.557	428.69
312.787	442.69
313.017	422.69
313.246	424.69
313.476	411.69
313.706	423.69
313.935	412.69
314.165	415.69
314.394	438.69
314.624	451.69
314.853	433.69
315.083	426.69
315.312	447.69
315.542	434.69
315.771	435.69
316.001	433.69
316.23	419.69
316.46	424.69
316.689	430.69
316.919	418.69
317.148	441.69
317.377	443.69
317.607	441.69
317.836	422.69
318.065	411.69
318.295	412.69
318.524	427.69
318.753	429.69
318.983	407.69
319.212	426.69
319.441	429.69
319.67	440.69
319.9	413.69
320.129	406.69
320.358	419.69
320.587	433.69
320.816	450.69
321.046	436.69
321.275	428.69
321.504	434.69
321.733	454.69
321.962	423.69
322.191	433.69
322.42	444.69
322.649	443.69
322.878	425.69
323.108	456.69
323.337	452.69
323.566	452.69
323.795	465.69
324.024	490.69
324.253	545.69
324.482	646.69
324.71	872.69
324.939	1218.69
325.168	1065.69
325.397	634.69
325.626	537.69
325.855	502.69
326.084	498.69
326.313	511.69
326.542	488.69
326.77	532.69
326.999	523.69
327.228	643.69
327.457	848.69
327.686	969.69
327.914	721.69
328.143	567.69
328.372	540.69
328.6	512.69
328.829	502.69
329.058	531.69
329.287	529.69
329.515	506.69
329.744	490.69
329.972	497.69
330.201	506.69
330.43	511.69
330.658	519.69
330.887	552.69
331.115	531.69
331.344	532.69
331.572	524.69
331.801	523.69
332.03	492.69
332.258	513.69
332.486	534.69
332.715	518.69
332.943	551.69
333.172	527.69
333.4	568.69
333.629	571.69
333.857	583.69
334.085	569.69
334.314	602.69
334.542	579.69
334.771	606.69
334.999	569.69
335.227	574.69
335.455	550.69
335.684	562.69
335.912	534.69
336.14	538.69
336.369	538.69
336.597	553.69
336.825	519.69
337.053	526.69
337.281	533.69
337.51	538.69
337.738	523.69
337.966	515.69
338.194	516.69
338.422	492.69
338.65	521.69
338.878	514.69
339.106	519.69
339.334	490.69
339.562	494.69
339.79	474.69
340.018	494.69
340.246	486.69
340.474	467.69
340.702	512.69
340.93	496.69
341.158	495.69
341.386	502.69
341.614	487.69
341.842	482.69
342.07	489.69
342.298	475.69
342.526	494.69
342.754	496.69
342.981	494.69
343.209	480.69
343.437	530.69
343.665	524.69
343.893	572.69
344.12	583.69
344.348	567.69
344.576	538.69
344.804	516.69
345.031	512.69
345.259	514.69
345.487	499.69
345.714	491.69
345.942	478.69
346.17	452.69
346.397	451.69
346.625	465.69
346.853	471.69
347.08	485.69
347.308	466.69
347.535	465.69
347.763	485.69
347.99	467.69
348.218	469.69
348.445	488.69
348.673	467.69
348.9	454.69
349.128	484.69
349.355	480.69
349.583	477.69
349.81	477.69
350.037	473.69
350.265	470.69
350.492	458.69
350.72	463.69
350.947	452.69
351.174	453.69
351.402	451.69
351.629	461.69
351.856	464.69
352.083	467.69
352.311	456.69
352.538	471.69
352.765	460.69
352.992	437.69
353.22	472.69
353.447	468.69
353.674	455.69
353.901	458.69
354.128	439.69
354.355	462.69
354.583	466.69
354.81	464.69
355.037	494.69
355.264	463.69
355.491	461.69
355.718	448.69
355.945	453.69
356.172	469.69
356.399	463.69
356.626	459.69
356.853	450.69
357.08	482.69
357.307	444.69
357.534	464.69
357.761	463.69
357.988	474.69
358.215	458.69
358.441	465.69
358.668	468.69
358.895	458.69
359.122	454.69
359.349	479.69
359.576	491.69
359.802	458.69
360.029	475.69
360.256	507.69
360.483	469.69
360.709	452.69
360.936	491.69
361.163	456.69
361.39	455.69
361.616	475.69
361.843	448.69
362.07	477.69
362.296	475.69
362.523	448.69
362.749	471.69
362.976	457.69
363.203	466.69
363.429	458.69
363.656	450.69
363.882	482.69
364.109	479.69
364.335	454.69
364.562	436.69
364.788	452.69
365.015	442.69
365.241	471.69
365.468	457.69
365.694	458.69
365.92	473.69
366.147	452.69
366.373	456.69
366.599	443.69
366.826	474.69
367.052	458.69
367.278	468.69
367.505	463.69
367.731	463.69
367.957	468.69
368.184	467.69
368.41	466.69
368.636	466.69
368.862	479.69
369.089	444.69
369.315	466.69
369.541	478.69
369.767	470.69
369.993	462.69
370.219	488.69
370.445	501.69
370.672	478.69
370.898	489.69
371.124	472.69
371.35	499.69
371.576	497.69
371.802	490.69
372.028	480.69
372.254	498.69
372.48	475.69
372.706	508.69
372.932	503.69
373.158	487.69
373.384	512.69
373.61	488.69
373.835	502.69
374.061	499.69
374.287	502.69
374.513	497.69
374.739	521.69
374.965	509.69
375.191	535.69
375.416	522.69
375.642	502.69
375.868	520.69
376.094	494.69
376.319	499.69
376.545	490.69
376.771	473.69
376.997	492.69
377.222	491.69
377.448	486.69
377.674	475.69
377.899	478.69
378.125	470.69
378.35	499.69
378.576	503.69
378.802	482.69
379.027	481.69
379.253	476.69
379.478	490.69
379.704	499.69
379.929	491.69
380.155	490.69
380.38	473.69
380.606	490.69
380.831	491.69
381.057	492.69
381.282	481.69
381.507	482.69
381.733	510.69
381.958	502.69
382.184	475.69
382.409	510.69
382.634	529.69
382.86	544.69
383.085	544.69
383.31	539.69
383.535	551.69
383.761	533.69
383.986	538.69
384.211	547.69
384.436	555.69
384.662	537.69
384.887	560.69
385.112	588.69
385.337	552.69
385.562	604.69
385.787	560.69
386.013	582.69
386.238	590.69
386.463	579.69
386.688	573.69
386.913	593.69
387.138	568.69
387.363	586.69
387.588	548.69
387.813	563.69
388.038	555.69
388.263	563.69
388.488	604.69
388.713	586.69
388.938	557.69
389.163	556.69
389.387	570.69
389.612	545.69
389.837	555.69
390.062	567.69
390.287	552.69
390.512	551.69
390.736	569.69
390.961	556.69
391.186	584.69
391.411	578.69
391.636	610.69
391.86	616.69
392.085	596.69
392.31	589.69
392.534	606.69
392.759	588.69
392.984	603.69
393.208	612.69
393.433	669.69
393.658	714.69
393.882	611.69
394.107	567.69
394.331	600.69
394.556	598.69
394.78	598.69
395.005	596.69
395.229	593.69
395.454	622.69
395.678	623.69
395.903	630.69
396.127	617.69
396.352	620.69
396.576	596.69
396.801	657.69
397.025	654.69
397.249	631.69
397.474	595.69
397.698	629.69
397.922	624.69
398.147	645.69
398.371	662.69
398.595	631.69
398.82	675.69
399.044	708.69
399.268	751.69
399.492	802.69
399.717	868.69
399.941	935.69
400.165	861.69
400.389	803.69
400.613	745.69
400.837	704.69
401.062	716.69
401.286	679.69
401.51	656.69
401.734	663.69
401.958	665.69
402.182	686.69
402.406	699.69
402.63	708.69
402.854	725.69
403.078	708.69
403.302	721.69
403.526	700.69
403.75	729.69
403.974	722.69
404.198	739.69
404.422	750.69
404.645	741.69
404.869	738.69
405.093	734.69
405.317	768.69
405.541	784.69
405.765	756.69
405.988	708.69
406.212	736.69
406.436	743.69
406.66	778.69
406.883	753.69
407.107	794.69
407.331	794.69
407.555	889.69
407.778	894.69
408.002	809.69
408.226	795.69
408.449	776.69
408.673	772.69
408.896	774.69
409.12	786.69
409.344	801.69
409.567	755.69
409.791	719.69
410.014	682.69
410.238	730.69
410.461	734.69
410.685	705.69
410.908	722.69
411.132	737.69
411.355	728.69
411.578	700.69
411.802	683.69
412.025	688.69
412.249	695.69
412.472	717.69
412.695	731.69
412.919	700.69
413.142	700.69
413.365	710.69
413.589	686.69
413.812	667.69
414.035	670.69
414.258	665.69
414.482	648.69
414.705	680.69
414.928	674.69
415.151	656.69
415.374	664.69
415.597	668.69
415.821	680.69
416.044	633.69
416.267	675.69
416.49	651.69
416.713	662.69
416.936	678.69
417.159	650.69
417.382	657.69
417.605	665.69
417.828	652.69
418.051	675.69
418.274	690.69
418.497	681.69
418.72	666.69
418.943	659.69
419.166	703.69
419.389	748.69
419.611	726.69
419.834	732.69
420.057	698.69
420.28	710.69
420.503	659.69
420.726	652.69
420.948	693.69
421.171	694.69
421.394	735.69
421.617	697.69
421.839	686.69
422.062	676.69
422.285	673.69
422.507	718.69
422.73	778.69
422.953	769.69
423.175	712.69
423.398	702.69
423.621	698.69
423.843	714.69
424.066	733.69
424.288	678.69
424.511	707.69
424.733	753.69
424.956	799.69
425.178	765.69
425.401	765.69
425.623	774.69
425.846	699.69
426.068	672.69
426.291	654.69
426.513	676.69
426.735	694.69
426.958	690.69
427.18	720.69
427.402	833.69
427.625	894.69
427.847	776.69
428.069	713.69
428.292	686.69
428.514	640.69
428.736	627.69
428.958	608.69
429.181	626.69
429.403	627.69
429.625	641.69
429.847	650.69
430.069	692.69
430.292	681.69
430.514	627.69
430.736	629.69
430.958	626.69
431.18	600.69
431.402	616.69
431.624	606.69
431.846	631.69
432.068	602.69
432.29	630.69
432.512	624.69
432.734	618.69
432.956	607.69
433.178	624.69
433.4	610.69
433.622	623.69
433.844	617.69
434.066	612.69
434.287	608.69
434.509	645.69
434.731	660.69
434.953	694.69
435.175	666.69
435.397	687.69
435.618	669.69
435.84	688.69
436.062	726.69
436.284	776.69
436.505	691.69
436.727	656.69
436.949	663.69
437.17	645.69
437.392	598.69
437.614	613.69
437.835	617.69
438.057	682.69
438.278	747.69
438.5	764.69
438.721	807.69
438.943	759.69
439.165	662.69
439.386	621.69
439.608	622.69
439.829	633.69
440.05	681.69
440.272	673.69
440.493	654.69
440.715	643.69
440.936	649.69
441.158	652.69
441.379	652.69
441.6	657.69
441.822	680.69
442.043	701.69
442.264	738.69
442.486	787.69
442.707	697.69
442.928	680.69
443.149	666.69
443.371	706.69
443.592	718.69
443.813	799.69
444.034	848.69
444.255	754.69
444.476	728.69
444.698	743.69
444.919	765.69
445.14	872.69
445.361	764.69
445.582	728.69
445.803	736.69
446.024	784.69
446.245	781.69
446.466	745.69
446.687	668.69
446.908	636.69
447.129	614.69
447.35	612.69
447.571	601.69
447.792	607.69
448.013	619.69
448.234	593.69
448.455	630.69
448.675	676.69
448.896	794.69
449.117	686.69
449.338	647.69
449.559	737.69
449.779	806.69
450	670.69
450.221	619.69
450.442	595.69
450.662	586.69
450.883	567.69
451.104	593.69
451.324	593.69
451.545	607.69
451.766	575.69
451.986	560.69
452.207	556.69
452.428	555.69
452.648	560.69
452.869	545.69
453.089	547.69
453.31	548.69
453.53	561.69
453.751	558.69
453.971	564.69
454.192	567.69
454.412	531.69
454.633	554.69
454.853	542.69
455.073	529.69
455.294	577.69
455.514	579.69
455.734	575.69
455.955	553.69
456.175	534.69
456.395	524.69
456.616	515.69
456.836	539.69
457.056	528.69
457.276	507.69
457.497	539.69
457.717	531.69
457.937	533.69
458.157	549.69
458.377	563.69
458.598	553.69
458.818	599.69
459.038	652.69
459.258	686.69
459.478	619.69
459.698	618.69
459.918	648.69
460.138	668.69
460.358	672.69
460.578	677.69
460.798	698.69
461.018	737.69
461.238	682.69
461.458	683.69
461.678	696.69
461.898	683.69
462.118	696.69
462.338	737.69
462.558	762.69
462.777	739.69
462.997	780.69
463.217	807.69
463.437	821.69
463.657	817.69
463.876	758.69
464.096	782.69
464.316	755.69
464.536	742.69
464.755	736.69
464.975	762.69
465.195	729.69
465.414	740.69
465.634	678.69
465.854	651.69
466.073	625.69
466.293	603.69
466.512	615.69
466.732	610.69
466.951	591.69
467.171	583.69
467.391	597.69
467.61	625.69
467.829	578.69
468.049	586.69
468.268	563.69
468.488	568.69
468.707	576.69
468.927	572.69
469.146	574.69
469.365	609.69
469.585	583.69
469.804	603.69
470.023	587.69
470.243	602.69
470.462	627.69
470.681	645.69
470.901	628.69
471.12	605.69
471.339	574.69
471.558	599.69
471.777	613.69
471.997	580.69
472.216	575.69
472.435	600.69
472.654	588.69
472.873	586.69
473.092	565.69
473.311	589.69
473.53	590.69
473.749	580.69
473.968	611.69
474.187	658.69
474.406	651.69
474.625	582.69
474.844	610.69
475.063	606.69
475.282	579.69
475.501	592.69
475.72	587.69
475.939	588.69
476.158	598.69
476.377	600.69
476.596	613.69
476.814	619.69
477.033	627.69
477.252	635.69
477.471	654.69
477.69	649.69
477.908	651.69
478.127	668.69
478.346	686.69
478.564	684.69
478.783	677.69
479.002	721.69
479.22	753.69
479.439	739.69
479.658	716.69
479.876	710.69
480.095	727.69
480.313	777.69
480.532	771.69
480.751	781.69
480.969	760.69
481.188	754.69
481.406	767.69
481.624	711.69
481.843	697.69
482.061	698.69
482.28	690.69
482.498	711.69
482.717	679.69
482.935	686.69
483.153	688.69
483.372	689.69
483.59	681.69
483.808	691.69
484.027	660.69
484.245	709.69
484.463	718.69
484.681	715.69
484.9	718.69
485.118	729.69
485.336	699.69
485.554	712.69
485.772	729.69
485.99	728.69
486.209	745.69
486.427	728.69
486.645	729.69
486.863	739.69
487.081	730.69
487.299	690.69
487.517	743.69
487.735	745.69
487.953	745.69
488.171	727.69
488.389	723.69
488.607	721.69
488.825	733.69
489.043	745.69
489.261	742.69
489.479	714.69
489.696	723.69
489.914	769.69
490.132	755.69
490.35	765.69
490.568	752.69
490.786	756.69
491.003	751.69
491.221	773.69
491.439	775.69
491.657	770.69
491.874	795.69
492.092	778.69
492.31	804.69
492.527	777.69
492.745	806.69
492.963	799.69
493.18	816.69
493.398	826.69
493.615	807.69
493.833	800.69
494.05	834.69
494.268	814.69
494.485	816.69
494.703	838.69
494.92	851.69
495.138	828.69
495.355	844.69
495.573	840.69
495.79	851.69
496.008	850.69
496.225	856.69
496.442	860.69
496.66	849.69
496.877	852.69
497.094	882.69
497.312	894.69
497.529	889.69
497.746	935.69
497.963	946.69
498.181	960.69
498.398	965.69
498.615	1047.69
498.832	1047.69
499.049	1130.69
499.267	1190.69
499.484	1260.69
499.701	1330.69
499.918	1425.69
500.135	1574.69
500.352	1705.69
500.569	1786.69
500.786	1810.69
501.003	1682.69
501.22	1549.69
501.437	1463.69
501.654	1346.69
501.871	1292.69
502.088	1181.69
502.305	1127.69
502.522	1091.69
502.739	1020.69
502.956	1004.69
503.172	950.69
503.389	966.69
503.606	917.69
503.823	905.69
504.04	884.69
504.256	937.69
504.473	904.69
504.69	931.69
504.907	940.69
505.123	892.69
505.34	847.69
505.557	806.69
505.773	818.69
505.99	786.69
506.207	797.69
506.423	802.69
506.64	795.69
506.856	752.69
507.073	778.69
507.289	774.69
507.506	741.69
507.722	732.69
507.939	753.69
508.155	743.69
508.372	743.69
508.588	725.69
508.805	721.69
509.021	721.69
509.238	710.69
509.454	753.69
509.67	724.69
509.887	697.69
510.103	717.69
510.319	727.69
510.536	739.69
510.752	962.69
510.968	836.69
511.184	709.69
511.401	695.69
511.617	699.69
511.833	705.69
512.049	693.69
512.265	684.69
512.481	699.69
512.698	697.69
512.914	687.69
513.13	659.69
513.346	704.69
513.562	697.69
513.778	711.69
513.994	695.69
514.21	706.69
514.426	704.69
514.642	706.69
514.858	717.69
515.074	728.69
515.29	779.69
515.506	950.69
515.721	852.69
515.937	775.69
516.153	754.69
516.369	743.69
516.585	750.69
516.801	805.69
517.016	780.69
517.232	830.69
517.448	844.69
517.664	827.69
517.879	859.69
518.095	871.69
518.311	854.69
518.527	857.69
518.742	779.69
518.958	790.69
519.173	779.69
519.389	755.69
519.605	718.69
519.82	730.69
520.036	722.69
520.251	697.69
520.467	704.69
520.682	715.69
520.898	714.69
521.113	701.69
521.329	715.69
521.544	721.69
521.76	781.69
521.975	1000.69
522.19	1023.69
522.406	760.69
522.621	707.69
522.836	656.69
523.052	640.69
523.267	636.69
523.482	642.69
523.698	634.69
523.913	633.69
524.128	631.69
524.343	624.69
524.559	616.69
524.774	635.69
524.989	604.69
525.204	611.69
525.419	632.69
525.634	590.69
525.849	591.69
526.064	599.69
526.28	610.69
526.495	601.69
526.71	609.69
526.925	609.69
527.14	591.69
527.355	611.69
527.57	598.69
527.785	600.69
527.999	585.69
528.214	598.69
528.429	592.69
528.644	604.69
528.859	586.69
529.074	606.69
529.289	610.69
529.503	635.69
529.718	628.69
529.933	602.69
530.148	602.69
530.363	612.69
530.577	602.69
530.792	568.69
531.007	618.69
531.221	609.69
531.436	588.69
531.651	611.69
531.865	592.69
532.08	587.69
532.295	576.69
532.509	575.69
532.724	602.69
532.938	588.69
533.153	612.69
533.367	601.69
533.582	593.69
533.796	595.69
534.011	611.69
534.225	592.69
534.44	580.69
534.654	570.69
534.868	572.69
535.083	583.69
535.297	575.69
535.511	596.69
535.726	595.69
535.94	576.69
536.154	560.69
536.369	554.69
536.583	568.69
536.797	570.69
537.011	569.69
537.225	553.69
537.44	574.69
537.654	543.69
537.868	572.69
538.082	591.69
538.296	579.69
538.51	544.69
538.724	544.69
538.938	577.69
539.153	539.69
539.367	564.69
539.581	548.69
539.795	548.69
540.009	553.69
540.222	572.69
540.436	558.69
540.65	537.69
540.864	562.69
541.078	563.69
541.292	530.69
541.506	567.69
541.72	540.69
541.934	547.69
542.147	540.69
542.361	551.69
542.575	530.69
542.789	523.69
543.002	564.69
543.216	536.69
543.43	582.69
543.644	546.69
543.857	543.69
544.071	559.69
544.285	559.69
544.498	554.69
544.712	556.69
544.925	569.69
545.139	544.69
545.352	558.69
545.566	554.69
545.779	561.69
545.993	575.69
546.206	563.69
546.42	579.69
546.633	571.69
546.847	551.69
547.06	540.69
547.274	554.69
547.487	541.69
547.7	556.69
547.914	566.69
548.127	561.69
548.34	573.69
548.554	579.69
548.767	572.69
548.98	570.69
549.193	540.69
549.407	565.69
549.62	571.69
549.833	563.69
550.046	567.69
550.259	575.69
550.473	551.69
550.686	544.69
550.899	552.69
551.112	560.69
551.325	548.69
551.538	539.69
551.751	540.69
551.964	570.69
552.177	575.69
552.39	573.69
552.603	576.69
552.816	584.69
553.029	596.69
553.242	597.69
553.455	590.69
553.667	609.69
553.88	602.69
554.093	605.69
554.306	573.69
554.519	556.69
554.732	577.69
554.944	564.69
555.157	541.69
555.37	552.69
555.583	548.69
555.795	559.69
556.008	536.69
556.221	527.69
556.433	528.69
556.646	502.69
556.859	514.69
557.071	514.69
557.284	494.69
557.496	488.69
557.709	488.69
557.921	488.69
558.134	490.69
558.346	487.69
558.559	489.69
558.771	502.69
558.984	488.69
559.196	482.69
559.409	501.69
559.621	489.69
559.833	467.69
560.046	483.69
560.258	473.69
560.47	481.69
560.683	489.69
560.895	481.69
561.107	472.69
561.32	474.69
561.532	477.69
561.744	476.69
561.956	488.69
562.168	486.69
562.381	495.69
562.593	483.69
562.805	504.69
563.017	491.69
563.229	490.69
563.441	488.69
563.653	513.69
563.865	510.69
564.077	500.69
564.289	507.69
564.501	528.69
564.713	539.69
564.925	550.69
565.137	545.69
565.349	575.69
565.561	574.69
565.773	586.69
565.985	591.69
566.197	634.69
566.408	652.69
566.62	701.69
566.832	714.69
567.044	765.69
567.255	769.69
567.467	765.69
567.679	777.69
567.891	837.69
568.102	866.69
568.314	825.69
568.526	747.69
568.737	711.69
568.949	640.69
569.161	613.69
569.372	586.69
569.584	575.69
569.795	588.69
570.007	574.69
570.218	543.69
570.43	523.69
570.641	522.69
570.853	537.69
571.064	529.69
571.276	534.69
571.487	532.69
571.698	504.69
571.91	490.69
572.121	465.69
572.333	473.69
572.544	454.69
572.755	450.69
572.966	455.69
573.178	459.69
573.389	450.69
573.6	434.69
573.811	449.69
574.023	438.69
574.234	446.69
574.445	432.69
574.656	433.69
574.867	442.69
575.078	412.69
575.289	440.69
575.501	444.69
575.712	422.69
575.923	411.69
576.134	411.69
576.345	433.69
576.556	403.69
576.767	432.69
576.978	417.69
577.188	418.69
577.399	431.69
577.61	420.69
577.821	415.69
578.032	411.69
578.243	405.69
578.454	484.69
578.665	416.69
578.875	410.69
579.086	397.69
579.297	406.69
579.508	408.69
579.718	406.69
579.929	397.69
580.14	390.69
580.35	391.69
580.561	378.69
580.772	374.69
580.982	378.69
581.193	370.69
581.403	390.69
581.614	382.69
581.825	389.69
582.035	387.69
582.246	388.69
582.456	390.69
582.667	386.69
582.877	367.69
583.087	366.69
583.298	370.69
583.508	380.69
583.719	383.69
583.929	383.69
584.139	385.69
584.35	367.69
584.56	384.69
584.77	369.69
584.981	383.69
585.191	389.69
585.401	378.69
585.611	392.69
585.821	370.69
586.032	380.69
586.242	376.69
586.452	389.69
586.662	390.69
586.872	357.69
587.082	364.69
587.292	363.69
587.502	383.69
587.713	350.69
587.923	380.69
588.133	365.69
588.343	370.69
588.553	376.69
588.762	371.69
588.972	366.69
589.182	386.69
589.392	387.69
589.602	375.69
589.812	380.69
590.022	387.69
590.232	395.69
590.441	380.69
590.651	370.69
590.861	398.69
591.071	371.69
591.281	406.69
591.49	398.69
591.7	387.69
591.91	419.69
592.119	393.69
592.329	425.69
592.539	424.69
592.748	446.69
592.958	450.69
593.167	442.69
593.377	442.69
593.587	436.69
593.796	450.69
594.006	448.69
594.215	462.69
594.424	479.69
594.634	471.69
594.843	427.69
595.053	436.69
595.262	410.69
595.472	398.69
595.681	387.69
595.89	384.69
596.1	403.69
596.309	376.69
596.518	375.69
596.727	370.69
596.937	361.69
597.146	361.69
597.355	356.69
597.564	353.69
597.774	353.69
597.983	364.69
598.192	347.69
598.401	327.69
598.61	356.69
598.819	338.69
599.028	359.69
599.237	333.69
599.446	352.69
599.655	347.69
599.864	344.69
600.073	322.69
600.282	327.69
600.491	346.69
600.7	328.69
600.909	327.69
601.118	316.69
601.327	317.69
601.536	335.69
601.745	326.69
601.953	312.69
602.162	332.69
602.371	311.69
602.58	318.69
602.789	330.69
602.997	309.69
603.206	315.69
603.415	328.69
603.623	321.69
603.832	295.69
604.041	299.69
604.249	312.69
604.458	312.69
604.666	309.69
604.875	290.69
605.084	308.69
605.292	300.69
605.501	319.69
605.709	325.69
605.918	295.69
606.126	301.69
606.334	300.69
606.543	300.69
606.751	312.69
606.96	303.69
607.168	302.69
607.376	288.69
607.585	303.69
607.793	299.69
608.001	289.69
608.21	306.69
608.418	307.69
608.626	306.69
608.834	306.69
609.043	308.69
609.251	299.69
609.459	293.69
609.667	284.69
609.875	304.69
610.083	298.69
610.291	281.69
610.499	299.69
610.707	287.69
610.916	284.69
611.124	297.69
611.332	298.69
611.54	306.69
611.748	320.69
611.955	292.69
612.163	290.69
612.371	323.69
612.579	298.69
612.787	302.69
612.995	298.69
613.203	282.69
613.411	272.69
613.618	310.69
613.826	282.69
614.034	285.69
614.242	306.69
614.449	286.69
614.657	293.69
614.865	288.69
615.072	283.69
615.28	286.69
615.488	306.69
615.695	277.69
615.903	308.69
616.111	297.69
616.318	302.69
616.526	305.69
616.733	306.69
616.941	296.69
617.148	308.69
617.356	280.69
617.563	295.69
617.771	291.69
617.978	292.69
618.185	273.69
618.393	286.69
618.6	283.69
618.807	300.69
619.015	280.69
619.222	299.69
619.429	286.69
619.637	302.69
619.844	276.69
620.051	284.69
620.258	276.69
620.466	264.69
620.673	271.69
620.88	263.69
621.087	270.69
621.294	286.69
621.501	283.69
621.708	295.69
621.915	277.69
622.122	272.69
622.329	270.69
622.536	290.69
622.743	263.69
622.95	266.69
623.157	267.69
623.364	288.69
623.571	282.69
623.778	256.69
623.985	293.69
624.192	283.69
624.399	276.69
624.606	260.69
624.812	241.69
625.019	254.69
625.226	257.69
625.433	261.69
625.639	241.69
625.846	258.69
626.053	242.69
626.259	266.69
626.466	260.69
626.673	273.69
626.879	244.69
627.086	241.69
627.293	248.69
627.499	247.69
627.706	259.69
627.912	240.69
628.119	250.69
628.325	261.69
628.532	267.69
628.738	255.69
628.945	235.69
629.151	238.69
629.357	239.69
629.564	234.69
629.77	252.69
629.976	219.69
630.183	240.69
630.389	242.69
630.595	240.69
630.802	227.69
631.008	239.69
631.214	235.69
631.42	235.69
631.627	226.69
631.833	227.69
632.039	226.69
632.245	208.69
632.451	212.69
632.657	242.69
632.863	244.69
633.069	224.69
633.275	226.69
633.481	212.69
633.688	234.69
633.893	234.69
634.099	234.69
634.305	231.69
634.511	219.69
634.717	219.69
634.923	235.69
635.129	230.69
635.335	222.69
635.541	220.69
635.747	216.69
635.952	225.69
636.158	224.69
636.364	216.69
636.57	204.69
636.775	218.69
636.981	221.69
637.187	216.69
637.392	206.69
637.598	207.69
637.804	221.69
638.009	222.69
638.215	205.69
638.421	208.69
638.626	215.69
638.832	214.69
639.037	219.69
639.243	196.69
639.448	219.69
639.654	210.69
639.859	210.69
640.065	213.69
640.27	220.69
640.475	228.69
640.681	210.69
640.886	202.69
641.091	192.69
641.297	199.69
641.502	199.69
641.707	198.69
641.913	204.69
642.118	204.69
642.323	196.69
642.528	213.69
642.733	212.69
642.939	185.69
643.144	198.69
643.349	183.69
643.554	192.69
643.759	204.69
643.964	183.69
644.169	207.69
644.374	190.69
644.579	202.69
644.784	186.69
644.989	204.69
645.194	192.69
645.399	200.69
645.604	198.69
645.809	207.69
646.014	191.69
646.219	202.69
646.423	199.69
646.628	197.69
646.833	193.69
647.038	200.69
647.243	216.69
647.447	217.69
647.652	186.69
647.857	218.69
648.062	208.69
648.266	198.69
648.471	206.69
648.676	211.69
648.88	202.69
649.085	204.69
649.289	211.69
649.494	219.69
649.698	224.69
649.903	192.69
650.107	203.69
650.312	202.69
650.516	178.69
650.721	188.69
650.925	184.69
651.13	184.69
651.334	158.69
651.539	158.69
651.743	170.69
651.947	176.69
652.152	195.69
652.356	172.69
652.56	184.69
652.764	164.69
652.969	177.69
653.173	171.69
653.377	174.69
653.581	168.69
653.785	176.69
653.99	165.69
654.194	148.69
654.398	162.69
654.602	159.69
654.806	158.69
655.01	143.69
655.214	169.69
655.418	187.69
655.622	165.69
655.826	162.69
656.03	174.69
656.234	176.69
656.438	181.69
656.642	182.69
656.846	180.69
657.049	160.69
657.253	151.69
657.457	146.69
657.661	150.69
657.865	137.69
658.068	114.69
658.272	118.69
658.476	115.69
658.68	119.69
658.883	108.69
659.087	123.69
659.291	112.69
659.494	123.69
659.698	115.69
659.901	97.69
660.105	116.69
660.309	98.69
660.512	92.69
660.716	86.69
660.919	99.69
661.123	99.69
661.326	94.69
661.53	86.69
661.733	85.69
661.936	88.69
662.14	98.69
662.343	88.69
662.546	94.69
662.75	85.69
662.953	74.69
663.156	83.69
663.36	82.69
663.563	87.69
663.766	73.69
663.969	87.69
664.173	78.69
664.376	85.69
664.579	84.69
664.782	80.69
664.985	85.69
665.188	84.69
665.391	90.69
665.594	76.69
665.797	76.69
666	86.69
666.203	64.69
666.406	73.69
666.609	77.69
666.812	86.69
667.015	87.69
667.218	85.69
667.421	74.69
667.624	83.69
667.827	86.69
668.03	86.69
668.232	74.69
668.435	73.69
668.638	68.69
668.841	83.69
669.043	77.69
669.246	80.69
669.449	80.69
669.651	66.69
669.854	75.69
670.057	85.69
670.259	83.69
670.462	80.69
670.665	72.69
670.867	77.69
671.07	78.69
671.272	86.69
671.475	74.69
671.677	76.69
671.88	86.69
672.082	71.69
672.284	82.69
672.487	88.69
672.689	81.69
672.892	89.69
