Data from 1963.PennyLincolnUp.Lamp.En5.5.200Scan.071719.P1._HRD10591_13-58-50-063.txt Node
Date: Thu Jul 18 13:58:50 EDT 2019
User: cochatt
Spectrometer: HR+D1059
Trigger mode: 1
Integration Time (sec): 1.000000E-1
Scans to average: 1
Electric dark correction enabled: true
Nonlinearity correction enabled: false
Boxcar width: 0
XAxis mode: Wavelengths
Number of Pixels in Spectrum: 2048
>>>>>Begin Spectral Data<<<<<
223.165	-26.19
223.4	-26.19
223.635	-26.19
223.869	-22.19
224.104	-4.19
224.338	-23.19
224.573	-14.19
224.808	-6.19
225.042	-11.19
225.277	-5.19
225.511	5.81
225.746	-1.19
225.98	3.81
226.215	7.81
226.449	15.81
226.683	18.81
226.918	25.81
227.152	35.81
227.387	37.81
227.621	29.81
227.856	48.81
228.09	45.81
228.324	63.81
228.559	50.81
228.793	67.81
229.027	100.81
229.262	88.81
229.496	116.81
229.73	113.81
229.964	141.81
230.199	131.81
230.433	126.81
230.667	117.81
230.901	125.81
231.136	119.81
231.37	110.81
231.604	120.81
231.838	106.81
232.072	109.81
232.306	124.81
232.541	127.81
232.775	128.81
233.009	125.81
233.243	121.81
233.477	127.81
233.711	131.81
233.945	115.81
234.179	123.81
234.413	119.81
234.647	123.81
234.881	129.81
235.115	130.81
235.349	125.81
235.583	129.81
235.817	129.81
236.051	120.81
236.285	127.81
236.519	123.81
236.753	135.81
236.987	159.81
237.221	174.81
237.455	193.81
237.689	183.81
237.922	154.81
238.156	141.81
238.39	150.81
238.624	127.81
238.858	134.81
239.091	129.81
239.325	134.81
239.559	125.81
239.793	141.81
240.027	147.81
240.26	150.81
240.494	158.81
240.728	163.81
240.961	141.81
241.195	152.81
241.429	145.81
241.662	147.81
241.896	151.81
242.13	138.81
242.363	147.81
242.597	154.81
242.83	150.81
243.064	165.81
243.298	154.81
243.531	152.81
243.765	152.81
243.998	159.81
244.232	152.81
244.465	172.81
244.699	158.81
244.932	170.81
245.166	169.81
245.399	165.81
245.633	177.81
245.866	146.81
246.099	161.81
246.333	166.81
246.566	159.81
246.8	167.81
247.033	169.81
247.266	174.81
247.5	165.81
247.733	171.81
247.966	178.81
248.2	189.81
248.433	181.81
248.666	195.81
248.899	201.81
249.133	209.81
249.366	210.81
249.599	208.81
249.832	180.81
250.066	191.81
250.299	197.81
250.532	208.81
250.765	225.81
250.998	232.81
251.231	242.81
251.465	229.81
251.698	233.81
251.931	236.81
252.164	213.81
252.397	228.81
252.63	218.81
252.863	232.81
253.096	233.81
253.329	251.81
253.562	225.81
253.795	238.81
254.028	246.81
254.261	239.81
254.494	214.81
254.727	242.81
254.96	281.81
255.193	275.81
255.426	264.81
255.659	261.81
255.892	255.81
256.124	243.81
256.357	246.81
256.59	225.81
256.823	225.81
257.056	226.81
257.289	228.81
257.521	228.81
257.754	231.81
257.987	229.81
258.22	237.81
258.452	246.81
258.685	246.81
258.918	229.81
259.151	247.81
259.383	242.81
259.616	235.81
259.849	255.81
260.081	263.81
260.314	278.81
260.547	275.81
260.779	256.81
261.012	272.81
261.244	244.81
261.477	243.81
261.71	237.81
261.942	258.81
262.175	246.81
262.407	259.81
262.64	254.81
262.872	252.81
263.105	229.81
263.337	258.81
263.57	253.81
263.802	259.81
264.035	240.81
264.267	216.81
264.499	247.81
264.732	241.81
264.964	242.81
265.197	232.81
265.429	259.81
265.661	241.81
265.894	270.81
266.126	227.81
266.358	254.81
266.591	243.81
266.823	263.81
267.055	265.81
267.287	271.81
267.52	264.81
267.752	262.81
267.984	252.81
268.216	248.81
268.448	250.81
268.681	277.81
268.913	281.81
269.145	280.81
269.377	308.81
269.609	301.81
269.841	290.81
270.073	293.81
270.306	311.81
270.538	325.81
270.77	324.81
271.002	318.81
271.234	318.81
271.466	322.81
271.698	315.81
271.93	334.81
272.162	347.81
272.394	328.81
272.626	320.81
272.858	316.81
273.09	317.81
273.322	303.81
273.553	291.81
273.785	290.81
274.017	308.81
274.249	299.81
274.481	306.81
274.713	302.81
274.945	297.81
275.176	286.81
275.408	294.81
275.64	295.81
275.872	305.81
276.104	310.81
276.335	315.81
276.567	322.81
276.799	311.81
277.031	347.81
277.262	345.81
277.494	316.81
277.726	351.81
277.957	331.81
278.189	330.81
278.421	307.81
278.652	302.81
278.884	315.81
279.115	311.81
279.347	303.81
279.579	305.81
279.81	335.81
280.042	314.81
280.273	324.81
280.505	309.81
280.736	308.81
280.968	342.81
281.199	313.81
281.431	324.81
281.662	322.81
281.894	346.81
282.125	327.81
282.356	301.81
282.588	342.81
282.819	353.81
283.051	343.81
283.282	331.81
283.513	328.81
283.745	323.81
283.976	339.81
284.207	358.81
284.439	370.81
284.67	343.81
284.901	359.81
285.132	334.81
285.364	351.81
285.595	357.81
285.826	340.81
286.057	351.81
286.288	338.81
286.52	337.81
286.751	351.81
286.982	344.81
287.213	355.81
287.444	362.81
287.675	350.81
287.906	358.81
288.138	342.81
288.369	364.81
288.6	363.81
288.831	372.81
289.062	377.81
289.293	372.81
289.524	345.81
289.755	344.81
289.986	352.81
290.217	348.81
290.448	361.81
290.679	361.81
290.91	355.81
291.141	333.81
291.371	363.81
291.602	364.81
291.833	358.81
292.064	358.81
292.295	365.81
292.526	378.81
292.757	350.81
292.987	348.81
293.218	355.81
293.449	369.81
293.68	365.81
293.91	369.81
294.141	347.81
294.372	365.81
294.603	361.81
294.833	370.81
295.064	387.81
295.295	364.81
295.525	373.81
295.756	377.81
295.987	384.81
296.217	401.81
296.448	407.81
296.679	372.81
296.909	380.81
297.14	375.81
297.37	381.81
297.601	385.81
297.831	377.81
298.062	360.81
298.292	379.81
298.523	395.81
298.753	397.81
298.984	385.81
299.214	358.81
299.445	388.81
299.675	377.81
299.905	405.81
300.136	376.81
300.366	385.81
300.597	429.81
300.827	390.81
301.057	414.81
301.288	413.81
301.518	409.81
301.748	419.81
301.979	417.81
302.209	426.81
302.439	417.81
302.669	396.81
302.9	418.81
303.13	405.81
303.36	393.81
303.59	397.81
303.82	439.81
304.051	426.81
304.281	405.81
304.511	412.81
304.741	404.81
304.971	410.81
305.201	398.81
305.431	422.81
305.661	400.81
305.891	407.81
306.121	405.81
306.352	412.81
306.582	404.81
306.812	391.81
307.042	395.81
307.272	405.81
307.502	417.81
307.731	410.81
307.961	418.81
308.191	415.81
308.421	426.81
308.651	400.81
308.881	407.81
309.111	398.81
309.341	405.81
309.571	421.81
309.8	435.81
310.03	412.81
310.26	442.81
310.49	438.81
310.72	444.81
310.949	434.81
311.179	475.81
311.409	436.81
311.639	458.81
311.868	443.81
312.098	438.81
312.328	436.81
312.557	466.81
312.787	460.81
313.017	455.81
313.246	442.81
313.476	461.81
313.706	459.81
313.935	437.81
314.165	468.81
314.394	467.81
314.624	469.81
314.853	460.81
315.083	443.81
315.312	454.81
315.542	455.81
315.771	442.81
316.001	463.81
316.23	447.81
316.46	433.81
316.689	471.81
316.919	445.81
317.148	484.81
317.377	467.81
317.607	453.81
317.836	439.81
318.065	447.81
318.295	464.81
318.524	463.81
318.753	438.81
318.983	438.81
319.212	459.81
319.441	478.81
319.67	466.81
319.9	434.81
320.129	436.81
320.358	445.81
320.587	467.81
320.816	468.81
321.046	466.81
321.275	471.81
321.504	467.81
321.733	483.81
321.962	485.81
322.191	472.81
322.42	472.81
322.649	465.81
322.878	511.81
323.108	502.81
323.337	508.81
323.566	526.81
323.795	570.81
324.024	568.81
324.253	636.81
324.482	792.81
324.71	1191.81
324.939	1710.81
325.168	1466.81
325.397	827.81
325.626	611.81
325.855	554.81
326.084	541.81
326.313	548.81
326.542	550.81
326.77	594.81
326.999	633.81
327.228	762.81
327.457	1093.81
327.686	1301.81
327.914	893.81
328.143	680.81
328.372	629.81
328.6	594.81
328.829	554.81
329.058	592.81
329.287	587.81
329.515	590.81
329.744	558.81
329.972	563.81
330.201	568.81
330.43	604.81
330.658	630.81
330.887	636.81
331.115	622.81
331.344	598.81
331.572	561.81
331.801	548.81
332.03	591.81
332.258	550.81
332.486	564.81
332.715	576.81
332.943	595.81
333.172	610.81
333.4	624.81
333.629	632.81
333.857	625.81
334.085	622.81
334.314	645.81
334.542	643.81
334.771	658.81
334.999	633.81
335.227	584.81
335.455	583.81
335.684	576.81
335.912	583.81
336.14	577.81
336.369	577.81
336.597	587.81
336.825	589.81
337.053	572.81
337.281	564.81
337.51	565.81
337.738	549.81
337.966	539.81
338.194	563.81
338.422	555.81
338.65	553.81
338.878	514.81
339.106	531.81
339.334	536.81
339.562	528.81
339.79	510.81
340.018	525.81
340.246	494.81
340.474	530.81
340.702	555.81
340.93	523.81
341.158	520.81
341.386	516.81
341.614	525.81
341.842	519.81
342.07	511.81
342.298	526.81
342.526	537.81
342.754	507.81
342.981	528.81
343.209	541.81
343.437	559.81
343.665	568.81
343.893	577.81
344.12	587.81
344.348	610.81
344.576	567.81
344.804	576.81
345.031	549.81
345.259	555.81
345.487	527.81
345.714	500.81
345.942	501.81
346.17	518.81
346.397	511.81
346.625	517.81
346.853	501.81
347.08	506.81
347.308	493.81
347.535	492.81
347.763	503.81
347.99	502.81
348.218	534.81
348.445	519.81
348.673	507.81
348.9	508.81
349.128	504.81
349.355	493.81
349.583	502.81
349.81	491.81
350.037	485.81
350.265	502.81
350.492	483.81
350.72	476.81
350.947	491.81
351.174	523.81
351.402	515.81
351.629	514.81
351.856	521.81
352.083	509.81
352.311	488.81
352.538	502.81
352.765	501.81
352.992	525.81
353.22	516.81
353.447	498.81
353.674	489.81
353.901	483.81
354.128	469.81
354.355	488.81
354.583	492.81
354.81	487.81
355.037	482.81
355.264	501.81
355.491	493.81
355.718	512.81
355.945	483.81
356.172	490.81
356.399	488.81
356.626	492.81
356.853	479.81
357.08	506.81
357.307	491.81
357.534	482.81
357.761	478.81
357.988	489.81
358.215	489.81
358.441	469.81
358.668	497.81
358.895	486.81
359.122	476.81
359.349	493.81
359.576	489.81
359.802	514.81
360.029	527.81
360.256	533.81
360.483	523.81
360.709	504.81
360.936	496.81
361.163	490.81
361.39	495.81
361.616	523.81
361.843	501.81
362.07	501.81
362.296	509.81
362.523	505.81
362.749	493.81
362.976	511.81
363.203	508.81
363.429	513.81
363.656	501.81
363.882	482.81
364.109	494.81
364.335	483.81
364.562	486.81
364.788	494.81
365.015	496.81
365.241	482.81
365.468	507.81
365.694	504.81
365.92	487.81
366.147	486.81
366.373	507.81
366.599	523.81
366.826	501.81
367.052	509.81
367.278	500.81
367.505	503.81
367.731	495.81
367.957	474.81
368.184	513.81
368.41	519.81
368.636	501.81
368.862	525.81
369.089	513.81
369.315	517.81
369.541	485.81
369.767	501.81
369.993	497.81
370.219	507.81
370.445	503.81
370.672	502.81
370.898	527.81
371.124	503.81
371.35	517.81
371.576	514.81
371.802	532.81
372.028	534.81
372.254	508.81
372.48	518.81
372.706	521.81
372.932	545.81
373.158	538.81
373.384	527.81
373.61	524.81
373.835	540.81
374.061	525.81
374.287	540.81
374.513	540.81
374.739	556.81
374.965	529.81
375.191	556.81
375.416	558.81
375.642	527.81
375.868	536.81
376.094	531.81
376.319	532.81
376.545	532.81
376.771	519.81
376.997	508.81
377.222	499.81
377.448	549.81
377.674	518.81
377.899	517.81
378.125	524.81
378.35	524.81
378.576	520.81
378.802	518.81
379.027	527.81
379.253	515.81
379.478	506.81
379.704	494.81
379.929	504.81
380.155	501.81
380.38	495.81
380.606	533.81
380.831	506.81
381.057	518.81
381.282	486.81
381.507	530.81
381.733	513.81
381.958	539.81
382.184	522.81
382.409	551.81
382.634	541.81
382.86	558.81
383.085	533.81
383.31	549.81
383.535	536.81
383.761	540.81
383.986	546.81
384.211	554.81
384.436	573.81
384.662	585.81
384.887	601.81
385.112	615.81
385.337	574.81
385.562	589.81
385.787	590.81
386.013	602.81
386.238	596.81
386.463	621.81
386.688	609.81
386.913	590.81
387.138	594.81
387.363	597.81
387.588	614.81
387.813	595.81
388.038	588.81
388.263	584.81
388.488	585.81
388.713	578.81
388.938	588.81
389.163	609.81
389.387	596.81
389.612	603.81
389.837	599.81
390.062	589.81
390.287	595.81
390.512	592.81
390.736	581.81
390.961	608.81
391.186	610.81
391.411	612.81
391.636	620.81
391.86	655.81
392.085	655.81
392.31	653.81
392.534	647.81
392.759	627.81
392.984	637.81
393.208	622.81
393.433	632.81
393.658	603.81
393.882	605.81
394.107	627.81
394.331	625.81
394.556	612.81
394.78	609.81
395.005	635.81
395.229	618.81
395.454	647.81
395.678	639.81
395.903	662.81
396.127	648.81
396.352	669.81
396.576	610.81
396.801	630.81
397.025	652.81
397.249	631.81
397.474	659.81
397.698	655.81
397.922	641.81
398.147	659.81
398.371	668.81
398.595	693.81
398.82	704.81
399.044	731.81
399.268	791.81
399.492	862.81
399.717	955.81
399.941	966.81
400.165	942.81
400.389	871.81
400.613	797.81
400.837	751.81
401.062	740.81
401.286	704.81
401.51	703.81
401.734	696.81
401.958	705.81
402.182	732.81
402.406	718.81
402.63	732.81
402.854	736.81
403.078	745.81
403.302	769.81
403.526	782.81
403.75	760.81
403.974	797.81
404.198	785.81
404.422	792.81
404.645	777.81
404.869	789.81
405.093	795.81
405.317	846.81
405.541	855.81
405.765	822.81
405.988	785.81
406.212	773.81
406.436	801.81
406.66	820.81
406.883	814.81
407.107	832.81
407.331	907.81
407.555	941.81
407.778	945.81
408.002	890.81
408.226	851.81
408.449	861.81
408.673	827.81
408.896	835.81
409.12	853.81
409.344	819.81
409.567	797.81
409.791	787.81
410.014	760.81
410.238	759.81
410.461	778.81
410.685	759.81
410.908	758.81
411.132	757.81
411.355	818.81
411.578	778.81
411.802	748.81
412.025	725.81
412.249	767.81
412.472	784.81
412.695	771.81
412.919	760.81
413.142	741.81
413.365	716.81
413.589	712.81
413.812	702.81
414.035	709.81
414.258	710.81
414.482	718.81
414.705	735.81
414.928	712.81
415.151	705.81
415.374	722.81
415.597	712.81
415.821	691.81
416.044	688.81
416.267	698.81
416.49	702.81
416.713	694.81
416.936	689.81
417.159	691.81
417.382	699.81
417.605	704.81
417.828	716.81
418.051	712.81
418.274	713.81
418.497	702.81
418.72	714.81
418.943	722.81
419.166	735.81
419.389	787.81
419.611	756.81
419.834	727.81
420.057	777.81
420.28	730.81
420.503	724.81
420.726	725.81
420.948	739.81
421.171	762.81
421.394	783.81
421.617	740.81
421.839	707.81
422.062	738.81
422.285	739.81
422.507	770.81
422.73	839.81
422.953	799.81
423.175	782.81
423.398	748.81
423.621	746.81
423.843	780.81
424.066	797.81
424.288	789.81
424.511	780.81
424.733	813.81
424.956	892.81
425.178	851.81
425.401	822.81
425.623	822.81
425.846	771.81
426.068	730.81
426.291	721.81
426.513	718.81
426.735	724.81
426.958	738.81
427.18	839.81
427.402	916.81
427.625	971.81
427.847	846.81
428.069	792.81
428.292	720.81
428.514	687.81
428.736	673.81
428.958	658.81
429.181	656.81
429.403	659.81
429.625	671.81
429.847	713.81
430.069	735.81
430.292	740.81
430.514	690.81
430.736	670.81
430.958	661.81
431.18	645.81
431.402	663.81
431.624	642.81
431.846	630.81
432.068	651.81
432.29	664.81
432.512	659.81
432.734	662.81
432.956	631.81
433.178	629.81
433.4	672.81
433.622	655.81
433.844	661.81
434.066	681.81
434.287	670.81
434.509	681.81
434.731	694.81
434.953	712.81
435.175	715.81
435.397	732.81
435.618	727.81
435.84	743.81
436.062	808.81
436.284	849.81
436.505	757.81
436.727	709.81
436.949	674.81
437.17	701.81
437.392	655.81
437.614	676.81
437.835	685.81
438.057	744.81
438.278	829.81
438.5	823.81
438.721	893.81
438.943	862.81
439.165	737.81
439.386	709.81
439.608	714.81
439.829	687.81
440.05	723.81
440.272	730.81
440.493	754.81
440.715	697.81
440.936	706.81
441.158	687.81
441.379	706.81
441.6	708.81
441.822	760.81
442.043	767.81
442.264	842.81
442.486	854.81
442.707	757.81
442.928	734.81
443.149	748.81
443.371	782.81
443.592	775.81
443.813	889.81
444.034	945.81
444.255	807.81
444.476	798.81
444.698	789.81
444.919	813.81
445.14	922.81
445.361	836.81
445.582	769.81
445.803	789.81
446.024	856.81
446.245	882.81
446.466	823.81
446.687	747.81
446.908	691.81
447.129	669.81
447.35	651.81
447.571	654.81
447.792	643.81
448.013	662.81
448.234	646.81
448.455	692.81
448.675	781.81
448.896	874.81
449.117	787.81
449.338	737.81
449.559	822.81
449.779	895.81
450	777.81
450.221	693.81
450.442	614.81
450.662	627.81
450.883	640.81
451.104	649.81
451.324	616.81
451.545	625.81
451.766	616.81
451.986	600.81
452.207	593.81
452.428	572.81
452.648	617.81
452.869	600.81
453.089	611.81
453.31	609.81
453.53	587.81
453.751	602.81
453.971	600.81
454.192	638.81
454.412	575.81
454.633	587.81
454.853	596.81
455.073	577.81
455.294	599.81
455.514	669.81
455.734	613.81
455.955	595.81
456.175	561.81
456.395	557.81
456.616	557.81
456.836	538.81
457.056	549.81
457.276	559.81
457.497	553.81
457.717	558.81
457.937	558.81
458.157	581.81
458.377	592.81
458.598	604.81
458.818	651.81
459.038	721.81
459.258	716.81
459.478	662.81
459.698	675.81
459.918	665.81
460.138	705.81
460.358	707.81
460.578	720.81
460.798	702.81
461.018	719.81
461.238	707.81
461.458	742.81
461.678	693.81
461.898	730.81
462.118	705.81
462.338	724.81
462.558	754.81
462.777	775.81
462.997	833.81
463.217	853.81
463.437	890.81
463.657	815.81
463.876	782.81
464.096	795.81
464.316	810.81
464.536	826.81
464.755	774.81
464.975	759.81
465.195	790.81
465.414	801.81
465.634	717.81
465.854	711.81
466.073	676.81
466.293	629.81
466.512	643.81
466.732	632.81
466.951	615.81
467.171	639.81
467.391	635.81
467.61	639.81
467.829	648.81
468.049	641.81
468.268	642.81
468.488	619.81
468.707	611.81
468.927	602.81
469.146	601.81
469.365	627.81
469.585	620.81
469.804	649.81
470.023	649.81
470.243	644.81
470.462	645.81
470.681	677.81
470.901	664.81
471.12	654.81
471.339	615.81
471.558	625.81
471.777	641.81
471.997	619.81
472.216	609.81
472.435	643.81
472.654	623.81
472.873	612.81
473.092	622.81
473.311	604.81
473.53	600.81
473.749	613.81
473.968	627.81
474.187	743.81
474.406	732.81
474.625	644.81
474.844	625.81
475.063	598.81
475.282	611.81
475.501	645.81
475.72	629.81
475.939	633.81
476.158	632.81
476.377	642.81
476.596	639.81
476.814	661.81
477.033	654.81
477.252	655.81
477.471	684.81
477.69	681.81
477.908	684.81
478.127	675.81
478.346	703.81
478.564	709.81
478.783	712.81
479.002	751.81
479.22	767.81
479.439	786.81
479.658	754.81
479.876	785.81
480.095	771.81
480.313	806.81
480.532	819.81
480.751	794.81
480.969	817.81
481.188	801.81
481.406	847.81
481.624	788.81
481.843	762.81
482.061	736.81
482.28	699.81
482.498	741.81
482.717	717.81
482.935	707.81
483.153	723.81
483.372	742.81
483.59	737.81
483.808	723.81
484.027	730.81
484.245	739.81
484.463	740.81
484.681	741.81
484.9	756.81
485.118	755.81
485.336	735.81
485.554	748.81
485.772	749.81
485.99	757.81
486.209	772.81
486.427	776.81
486.645	754.81
486.863	780.81
487.081	792.81
487.299	750.81
487.517	763.81
487.735	750.81
487.953	777.81
488.171	781.81
488.389	778.81
488.607	782.81
488.825	776.81
489.043	762.81
489.261	757.81
489.479	758.81
489.696	794.81
489.914	779.81
490.132	778.81
490.35	804.81
490.568	819.81
490.786	805.81
491.003	834.81
491.221	845.81
491.439	824.81
491.657	826.81
491.874	841.81
492.092	836.81
492.31	875.81
492.527	865.81
492.745	871.81
492.963	884.81
493.18	891.81
493.398	886.81
493.615	876.81
493.833	903.81
494.05	870.81
494.268	883.81
494.485	862.81
494.703	879.81
494.92	887.81
495.138	878.81
495.355	876.81
495.573	868.81
495.79	895.81
496.008	899.81
496.225	888.81
496.442	882.81
496.66	917.81
496.877	907.81
497.094	913.81
497.312	934.81
497.529	961.81
497.746	980.81
497.963	983.81
498.181	1015.81
498.398	1054.81
498.615	1078.81
498.832	1122.81
499.049	1175.81
499.267	1233.81
499.484	1298.81
499.701	1407.81
499.918	1506.81
500.135	1650.81
500.352	1791.81
500.569	1903.81
500.786	1843.81
501.003	1715.81
501.22	1603.81
501.437	1539.81
501.654	1419.81
501.871	1353.81
502.088	1283.81
502.305	1194.81
502.522	1149.81
502.739	1145.81
502.956	1059.81
503.172	1032.81
503.389	983.81
503.606	977.81
503.823	988.81
504.04	949.81
504.256	958.81
504.473	957.81
504.69	997.81
504.907	966.81
505.123	946.81
505.34	895.81
505.557	870.81
505.773	893.81
505.99	859.81
506.207	867.81
506.423	831.81
506.64	860.81
506.856	828.81
507.073	839.81
507.289	820.81
507.506	810.81
507.722	811.81
507.939	838.81
508.155	806.81
508.372	805.81
508.588	795.81
508.805	810.81
509.021	780.81
509.238	809.81
509.454	775.81
509.67	792.81
509.887	767.81
510.103	762.81
510.319	774.81
510.536	834.81
510.752	1172.81
510.968	1037.81
511.184	750.81
511.401	741.81
511.617	753.81
511.833	738.81
512.049	732.81
512.265	761.81
512.481	742.81
512.698	729.81
512.914	732.81
513.13	727.81
513.346	735.81
513.562	738.81
513.778	722.81
513.994	750.81
514.21	739.81
514.426	745.81
514.642	770.81
514.858	787.81
515.074	825.81
515.29	888.81
515.506	1201.81
515.721	1082.81
515.937	845.81
516.153	817.81
516.369	806.81
516.585	806.81
516.801	795.81
517.016	828.81
517.232	868.81
517.448	873.81
517.664	920.81
517.879	895.81
518.095	897.81
518.311	872.81
518.527	870.81
518.742	813.81
518.958	814.81
519.173	799.81
519.389	754.81
519.605	747.81
519.82	769.81
520.036	779.81
520.251	761.81
520.467	785.81
520.682	763.81
520.898	769.81
521.113	753.81
521.329	802.81
521.544	801.81
521.76	919.81
521.975	1425.81
522.19	1468.81
522.406	911.81
522.621	753.81
522.836	725.81
523.052	721.81
523.267	679.81
523.482	670.81
523.698	670.81
523.913	685.81
524.128	657.81
524.343	655.81
524.559	651.81
524.774	638.81
524.989	641.81
525.204	648.81
525.419	647.81
525.634	644.81
525.849	620.81
526.064	635.81
526.28	633.81
526.495	644.81
526.71	625.81
526.925	627.81
527.14	627.81
527.355	617.81
527.57	609.81
527.785	614.81
527.999	658.81
528.214	636.81
528.429	654.81
528.644	611.81
528.859	612.81
529.074	634.81
529.289	629.81
529.503	691.81
529.718	665.81
529.933	632.81
530.148	634.81
530.363	635.81
530.577	637.81
530.792	612.81
531.007	605.81
531.221	598.81
531.436	611.81
531.651	642.81
531.865	614.81
532.08	614.81
532.295	633.81
532.509	643.81
532.724	612.81
532.938	649.81
533.153	600.81
533.367	594.81
533.582	630.81
533.796	603.81
534.011	598.81
534.225	607.81
534.44	646.81
534.654	603.81
534.868	600.81
535.083	604.81
535.297	595.81
535.511	606.81
535.726	599.81
535.94	615.81
536.154	571.81
536.369	593.81
536.583	598.81
536.797	605.81
537.011	589.81
537.225	577.81
537.44	589.81
537.654	591.81
537.868	577.81
538.082	562.81
538.296	589.81
538.51	593.81
538.724	587.81
538.938	554.81
539.153	569.81
539.367	578.81
539.581	589.81
539.795	583.81
540.009	583.81
540.222	568.81
540.436	579.81
540.65	563.81
540.864	569.81
541.078	581.81
541.292	587.81
541.506	569.81
541.72	591.81
541.934	575.81
542.147	577.81
542.361	567.81
542.575	549.81
542.789	574.81
543.002	556.81
543.216	573.81
543.43	573.81
543.644	573.81
543.857	577.81
544.071	577.81
544.285	572.81
544.498	593.81
544.712	582.81
544.925	599.81
545.139	569.81
545.352	563.81
545.566	575.81
545.779	561.81
545.993	555.81
546.206	577.81
546.42	585.81
546.633	572.81
546.847	580.81
547.06	581.81
547.274	547.81
547.487	583.81
547.7	576.81
547.914	561.81
548.127	590.81
548.34	557.81
548.554	569.81
548.767	569.81
548.98	583.81
549.193	595.81
549.407	585.81
549.62	579.81
549.833	577.81
550.046	588.81
550.259	552.81
550.473	586.81
550.686	572.81
550.899	579.81
551.112	574.81
551.325	547.81
551.538	565.81
551.751	565.81
551.964	562.81
552.177	580.81
552.39	584.81
552.603	581.81
552.816	593.81
553.029	599.81
553.242	618.81
553.455	634.81
553.667	649.81
553.88	621.81
554.093	620.81
554.306	596.81
554.519	595.81
554.732	585.81
554.944	574.81
555.157	589.81
555.37	557.81
555.583	544.81
555.795	540.81
556.008	540.81
556.221	516.81
556.433	526.81
556.646	527.81
556.859	516.81
557.071	499.81
557.284	528.81
557.496	523.81
557.709	503.81
557.921	527.81
558.134	503.81
558.346	506.81
558.559	511.81
558.771	499.81
558.984	477.81
559.196	487.81
559.409	486.81
559.621	511.81
559.833	511.81
560.046	484.81
560.258	511.81
560.47	498.81
560.683	505.81
560.895	486.81
561.107	484.81
561.32	475.81
561.532	486.81
561.744	473.81
561.956	511.81
562.168	516.81
562.381	494.81
562.593	519.81
562.805	513.81
563.017	519.81
563.229	499.81
563.441	503.81
563.653	526.81
563.865	493.81
564.077	519.81
564.289	511.81
564.501	539.81
564.713	541.81
564.925	528.81
565.137	557.81
565.349	562.81
565.561	563.81
565.773	583.81
565.985	618.81
566.197	640.81
566.408	666.81
566.62	702.81
566.832	721.81
567.044	744.81
567.255	715.81
567.467	775.81
567.679	785.81
567.891	817.81
568.102	847.81
568.314	808.81
568.526	761.81
568.737	730.81
568.949	655.81
569.161	613.81
569.372	595.81
569.584	574.81
569.795	538.81
570.007	560.81
570.218	573.81
570.43	564.81
570.641	521.81
570.853	518.81
571.064	504.81
571.276	503.81
571.487	513.81
571.698	474.81
571.91	479.81
572.121	480.81
572.333	469.81
572.544	462.81
572.755	465.81
572.966	462.81
573.178	447.81
573.389	448.81
573.6	454.81
573.811	455.81
574.023	429.81
574.234	427.81
574.445	425.81
574.656	446.81
574.867	449.81
575.078	412.81
575.289	434.81
575.501	433.81
575.712	407.81
575.923	443.81
576.134	449.81
576.345	423.81
576.556	405.81
576.767	444.81
576.978	406.81
577.188	409.81
577.399	408.81
577.61	411.81
577.821	398.81
578.032	414.81
578.243	443.81
578.454	595.81
578.665	483.81
578.875	388.81
579.086	405.81
579.297	396.81
579.508	399.81
579.718	401.81
579.929	411.81
580.14	380.81
580.35	359.81
580.561	407.81
580.772	394.81
580.982	389.81
581.193	388.81
581.403	377.81
581.614	373.81
581.825	391.81
582.035	386.81
582.246	384.81
582.456	372.81
582.667	382.81
582.877	364.81
583.087	385.81
583.298	379.81
583.508	377.81
583.719	381.81
583.929	392.81
584.139	382.81
584.35	375.81
584.56	373.81
584.77	371.81
584.981	380.81
585.191	355.81
585.401	357.81
585.611	361.81
585.821	367.81
586.032	368.81
586.242	383.81
586.452	360.81
586.662	369.81
586.872	377.81
587.082	377.81
587.292	360.81
587.502	348.81
587.713	362.81
587.923	366.81
588.133	363.81
588.343	358.81
588.553	364.81
588.762	373.81
588.972	378.81
589.182	392.81
589.392	400.81
589.602	375.81
589.812	352.81
590.022	383.81
590.232	363.81
590.441	373.81
590.651	389.81
590.861	388.81
591.071	377.81
591.281	387.81
591.49	379.81
591.7	397.81
591.91	390.81
592.119	384.81
592.329	399.81
592.539	418.81
592.748	436.81
592.958	427.81
593.167	439.81
593.377	431.81
593.587	458.81
593.796	442.81
594.006	442.81
594.215	474.81
594.424	447.81
594.634	453.81
594.843	462.81
595.053	410.81
595.262	410.81
595.472	397.81
595.681	390.81
595.89	373.81
596.1	377.81
596.309	360.81
596.518	345.81
596.727	361.81
596.937	370.81
597.146	350.81
597.355	356.81
597.564	351.81
597.774	358.81
597.983	328.81
598.192	344.81
598.401	326.81
598.61	316.81
598.819	328.81
599.028	338.81
599.237	332.81
599.446	329.81
599.655	319.81
599.864	311.81
600.073	338.81
600.282	334.81
600.491	313.81
600.7	334.81
600.909	316.81
601.118	326.81
601.327	313.81
601.536	323.81
601.745	309.81
601.953	322.81
602.162	314.81
602.371	300.81
602.58	301.81
602.789	308.81
602.997	309.81
603.206	308.81
603.415	316.81
603.623	302.81
603.832	310.81
604.041	300.81
604.249	324.81
604.458	298.81
604.666	294.81
604.875	319.81
605.084	305.81
605.292	297.81
605.501	293.81
605.709	283.81
605.918	306.81
606.126	285.81
606.334	315.81
606.543	302.81
606.751	286.81
606.96	293.81
607.168	302.81
607.376	277.81
607.585	318.81
607.793	297.81
608.001	292.81
608.21	279.81
608.418	299.81
608.626	295.81
608.834	298.81
609.043	286.81
609.251	296.81
609.459	312.81
609.667	288.81
609.875	290.81
610.083	276.81
610.291	305.81
610.499	289.81
610.707	294.81
610.916	297.81
611.124	289.81
611.332	285.81
611.54	320.81
611.748	294.81
611.955	305.81
612.163	301.81
612.371	279.81
612.579	297.81
612.787	286.81
612.995	273.81
613.203	296.81
613.411	303.81
613.618	270.81
613.826	281.81
614.034	285.81
614.242	288.81
614.449	275.81
614.657	269.81
614.865	258.81
615.072	286.81
615.28	273.81
615.488	273.81
615.695	280.81
615.903	280.81
616.111	298.81
616.318	302.81
616.526	293.81
616.733	289.81
616.941	290.81
617.148	285.81
617.356	284.81
617.563	293.81
617.771	283.81
617.978	282.81
618.185	295.81
618.393	285.81
618.6	299.81
618.807	298.81
619.015	282.81
619.222	281.81
619.429	289.81
619.637	288.81
619.844	263.81
620.051	277.81
620.258	296.81
620.466	275.81
620.673	266.81
620.88	281.81
621.087	264.81
621.294	267.81
621.501	267.81
621.708	270.81
621.915	268.81
622.122	266.81
622.329	274.81
622.536	275.81
622.743	275.81
622.95	258.81
623.157	269.81
623.364	253.81
623.571	276.81
623.778	261.81
623.985	242.81
624.192	269.81
624.399	267.81
624.606	254.81
624.812	266.81
625.019	263.81
625.226	244.81
625.433	245.81
625.639	248.81
625.846	261.81
626.053	249.81
626.259	250.81
626.466	246.81
626.673	241.81
626.879	255.81
627.086	246.81
627.293	278.81
627.499	254.81
627.706	250.81
627.912	235.81
628.119	239.81
628.325	245.81
628.532	227.81
628.738	248.81
628.945	231.81
629.151	236.81
629.357	234.81
629.564	246.81
629.77	228.81
629.976	232.81
630.183	244.81
630.389	234.81
630.595	225.81
630.802	232.81
631.008	231.81
631.214	245.81
631.42	246.81
631.627	249.81
631.833	234.81
632.039	224.81
632.245	227.81
632.451	237.81
632.657	220.81
632.863	220.81
633.069	236.81
633.275	215.81
633.481	226.81
633.688	209.81
633.893	234.81
634.099	213.81
634.305	217.81
634.511	229.81
634.717	205.81
634.923	206.81
635.129	210.81
635.335	211.81
635.541	217.81
635.747	220.81
635.952	221.81
636.158	202.81
636.364	227.81
636.57	207.81
636.775	198.81
636.981	211.81
637.187	221.81
637.392	212.81
637.598	214.81
637.804	218.81
638.009	222.81
638.215	209.81
638.421	214.81
638.626	203.81
638.832	215.81
639.037	204.81
639.243	209.81
639.448	215.81
639.654	212.81
639.859	192.81
640.065	202.81
640.27	203.81
640.475	201.81
640.681	207.81
640.886	200.81
641.091	218.81
641.297	183.81
641.502	196.81
641.707	200.81
641.913	194.81
642.118	198.81
642.323	188.81
642.528	195.81
642.733	203.81
642.939	200.81
643.144	199.81
643.349	181.81
643.554	212.81
643.759	193.81
643.964	178.81
644.169	198.81
644.374	188.81
644.579	187.81
644.784	192.81
644.989	203.81
645.194	195.81
645.399	187.81
645.604	181.81
645.809	194.81
646.014	197.81
646.219	200.81
646.423	185.81
646.628	184.81
646.833	192.81
647.038	195.81
647.243	206.81
647.447	210.81
647.652	212.81
647.857	200.81
648.062	195.81
648.266	214.81
648.471	207.81
648.676	211.81
648.88	204.81
649.085	210.81
649.289	217.81
649.494	212.81
649.698	195.81
649.903	202.81
650.107	196.81
650.312	195.81
650.516	194.81
650.721	197.81
650.925	181.81
651.13	181.81
651.334	163.81
651.539	175.81
651.743	173.81
651.947	171.81
652.152	161.81
652.356	179.81
652.56	161.81
652.764	174.81
652.969	156.81
653.173	164.81
653.377	167.81
653.581	158.81
653.785	156.81
653.99	157.81
654.194	170.81
654.398	163.81
654.602	174.81
654.806	150.81
655.01	157.81
655.214	159.81
655.418	162.81
655.622	140.81
655.826	142.81
656.03	159.81
656.234	160.81
656.438	166.81
656.642	160.81
656.846	146.81
657.049	144.81
657.253	139.81
657.457	131.81
657.661	107.81
657.865	121.81
658.068	135.81
658.272	116.81
658.476	125.81
658.68	130.81
658.883	129.81
659.087	114.81
659.291	105.81
659.494	113.81
659.698	86.81
659.901	84.81
660.105	100.81
660.309	113.81
660.512	83.81
660.716	92.81
660.919	100.81
661.123	84.81
661.326	95.81
661.53	98.81
661.733	105.81
661.936	96.81
662.14	81.81
662.343	91.81
662.546	91.81
662.75	81.81
662.953	83.81
663.156	75.81
663.36	86.81
663.563	92.81
663.766	77.81
663.969	78.81
664.173	82.81
664.376	90.81
664.579	74.81
664.782	74.81
664.985	105.81
665.188	68.81
665.391	72.81
665.594	84.81
665.797	83.81
666	76.81
666.203	90.81
666.406	76.81
666.609	92.81
666.812	83.81
667.015	97.81
667.218	81.81
667.421	87.81
667.624	80.81
667.827	89.81
668.03	85.81
668.232	74.81
668.435	79.81
668.638	78.81
668.841	91.81
669.043	81.81
669.246	80.81
669.449	73.81
669.651	87.81
669.854	85.81
670.057	94.81
670.259	79.81
670.462	91.81
670.665	83.81
670.867	89.81
671.07	83.81
671.272	83.81
671.475	82.81
671.677	67.81
671.88	68.81
672.082	89.81
672.284	92.81
672.487	82.81
672.689	77.81
672.892	89.81
