Data from 1963.PennyLincolnUp.Lamp.En5.5.200Scan.071719.P1._HRD10591_13-59-33-063.txt Node
Date: Thu Jul 18 13:59:33 EDT 2019
User: cochatt
Spectrometer: HR+D1059
Trigger mode: 1
Integration Time (sec): 1.000000E-1
Scans to average: 1
Electric dark correction enabled: true
Nonlinearity correction enabled: false
Boxcar width: 0
XAxis mode: Wavelengths
Number of Pixels in Spectrum: 2048
>>>>>Begin Spectral Data<<<<<
223.165	-5.94
223.4	-5.94
223.635	-5.94
223.869	-11.94
224.104	-2.94
224.338	-7.94
224.573	-13.94
224.808	-7.94
225.042	3.06
225.277	-5.94
225.511	-0.94
225.746	-1.94
225.98	-17.94
226.215	0.06
226.449	7.06
226.683	20.06
226.918	16.06
227.152	31.06
227.387	35.06
227.621	50.06
227.856	49.06
228.09	48.06
228.324	51.06
228.559	52.06
228.793	61.06
229.027	83.06
229.262	117.06
229.496	118.06
229.73	130.06
229.964	142.06
230.199	126.06
230.433	123.06
230.667	118.06
230.901	126.06
231.136	124.06
231.37	110.06
231.604	124.06
231.838	121.06
232.072	132.06
232.306	142.06
232.541	116.06
232.775	121.06
233.009	126.06
233.243	117.06
233.477	106.06
233.711	134.06
233.945	123.06
234.179	126.06
234.413	107.06
234.647	132.06
234.881	124.06
235.115	135.06
235.349	118.06
235.583	126.06
235.817	129.06
236.051	136.06
236.285	132.06
236.519	124.06
236.753	134.06
236.987	142.06
237.221	170.06
237.455	193.06
237.689	169.06
237.922	153.06
238.156	152.06
238.39	153.06
238.624	144.06
238.858	130.06
239.091	136.06
239.325	138.06
239.559	120.06
239.793	122.06
240.027	143.06
240.26	152.06
240.494	148.06
240.728	162.06
240.961	149.06
241.195	159.06
241.429	161.06
241.662	145.06
241.896	155.06
242.13	143.06
242.363	146.06
242.597	151.06
242.83	159.06
243.064	159.06
243.298	148.06
243.531	161.06
243.765	162.06
243.998	142.06
244.232	142.06
244.465	170.06
244.699	171.06
244.932	168.06
245.166	169.06
245.399	166.06
245.633	175.06
245.866	157.06
246.099	187.06
246.333	188.06
246.566	157.06
246.8	163.06
247.033	169.06
247.266	173.06
247.5	183.06
247.733	186.06
247.966	177.06
248.2	180.06
248.433	188.06
248.666	205.06
248.899	200.06
249.133	230.06
249.366	220.06
249.599	209.06
249.832	196.06
250.066	198.06
250.299	202.06
250.532	223.06
250.765	218.06
250.998	220.06
251.231	240.06
251.465	232.06
251.698	206.06
251.931	203.06
252.164	226.06
252.397	212.06
252.63	221.06
252.863	211.06
253.096	219.06
253.329	244.06
253.562	246.06
253.795	232.06
254.028	224.06
254.261	232.06
254.494	247.06
254.727	260.06
254.96	273.06
255.193	276.06
255.426	251.06
255.659	255.06
255.892	261.06
256.124	247.06
256.357	260.06
256.59	248.06
256.823	231.06
257.056	225.06
257.289	230.06
257.521	239.06
257.754	229.06
257.987	227.06
258.22	239.06
258.452	218.06
258.685	236.06
258.918	225.06
259.151	243.06
259.383	256.06
259.616	233.06
259.849	244.06
260.081	263.06
260.314	277.06
260.547	271.06
260.779	253.06
261.012	247.06
261.244	272.06
261.477	271.06
261.71	248.06
261.942	245.06
262.175	265.06
262.407	259.06
262.64	250.06
262.872	244.06
263.105	246.06
263.337	235.06
263.57	248.06
263.802	235.06
264.035	244.06
264.267	242.06
264.499	253.06
264.732	268.06
264.964	241.06
265.197	251.06
265.429	248.06
265.661	255.06
265.894	245.06
266.126	261.06
266.358	259.06
266.591	259.06
266.823	265.06
267.055	263.06
267.287	267.06
267.52	252.06
267.752	279.06
267.984	267.06
268.216	264.06
268.448	265.06
268.681	277.06
268.913	276.06
269.145	295.06
269.377	315.06
269.609	312.06
269.841	311.06
270.073	295.06
270.306	309.06
270.538	346.06
270.77	347.06
271.002	339.06
271.234	322.06
271.466	319.06
271.698	334.06
271.93	317.06
272.162	343.06
272.394	343.06
272.626	335.06
272.858	327.06
273.09	334.06
273.322	321.06
273.553	305.06
273.785	300.06
274.017	297.06
274.249	291.06
274.481	290.06
274.713	293.06
274.945	310.06
275.176	330.06
275.408	293.06
275.64	314.06
275.872	290.06
276.104	334.06
276.335	314.06
276.567	330.06
276.799	315.06
277.031	331.06
277.262	349.06
277.494	374.06
277.726	343.06
277.957	326.06
278.189	334.06
278.421	330.06
278.652	325.06
278.884	330.06
279.115	328.06
279.347	312.06
279.579	312.06
279.81	326.06
280.042	326.06
280.273	325.06
280.505	326.06
280.736	327.06
280.968	319.06
281.199	327.06
281.431	329.06
281.662	319.06
281.894	339.06
282.125	324.06
282.356	344.06
282.588	354.06
282.819	342.06
283.051	301.06
283.282	320.06
283.513	335.06
283.745	332.06
283.976	333.06
284.207	350.06
284.439	345.06
284.67	341.06
284.901	340.06
285.132	354.06
285.364	359.06
285.595	351.06
285.826	352.06
286.057	345.06
286.288	354.06
286.52	334.06
286.751	347.06
286.982	334.06
287.213	344.06
287.444	358.06
287.675	371.06
287.906	358.06
288.138	362.06
288.369	381.06
288.6	374.06
288.831	365.06
289.062	359.06
289.293	364.06
289.524	367.06
289.755	358.06
289.986	365.06
290.217	350.06
290.448	359.06
290.679	355.06
290.91	372.06
291.141	356.06
291.371	344.06
291.602	367.06
291.833	369.06
292.064	372.06
292.295	382.06
292.526	370.06
292.757	362.06
292.987	354.06
293.218	369.06
293.449	360.06
293.68	374.06
293.91	364.06
294.141	382.06
294.372	359.06
294.603	372.06
294.833	367.06
295.064	372.06
295.295	376.06
295.525	383.06
295.756	389.06
295.987	383.06
296.217	411.06
296.448	405.06
296.679	387.06
296.909	389.06
297.14	378.06
297.37	378.06
297.601	411.06
297.831	394.06
298.062	378.06
298.292	384.06
298.523	417.06
298.753	403.06
298.984	411.06
299.214	407.06
299.445	380.06
299.675	395.06
299.905	404.06
300.136	390.06
300.366	395.06
300.597	408.06
300.827	416.06
301.057	413.06
301.288	426.06
301.518	425.06
301.748	394.06
301.979	425.06
302.209	417.06
302.439	420.06
302.669	416.06
302.9	432.06
303.13	426.06
303.36	409.06
303.59	413.06
303.82	432.06
304.051	415.06
304.281	450.06
304.511	438.06
304.741	432.06
304.971	439.06
305.201	402.06
305.431	406.06
305.661	413.06
305.891	409.06
306.121	405.06
306.352	410.06
306.582	431.06
306.812	411.06
307.042	420.06
307.272	424.06
307.502	427.06
307.731	447.06
307.961	412.06
308.191	399.06
308.421	429.06
308.651	411.06
308.881	426.06
309.111	433.06
309.341	434.06
309.571	419.06
309.8	441.06
310.03	436.06
310.26	448.06
310.49	457.06
310.72	429.06
310.949	444.06
311.179	439.06
311.409	461.06
311.639	454.06
311.868	446.06
312.098	452.06
312.328	456.06
312.557	462.06
312.787	482.06
313.017	458.06
313.246	467.06
313.476	454.06
313.706	455.06
313.935	478.06
314.165	482.06
314.394	472.06
314.624	490.06
314.853	489.06
315.083	471.06
315.312	460.06
315.542	460.06
315.771	452.06
316.001	459.06
316.23	437.06
316.46	463.06
316.689	464.06
316.919	463.06
317.148	467.06
317.377	462.06
317.607	484.06
317.836	456.06
318.065	448.06
318.295	461.06
318.524	460.06
318.753	479.06
318.983	480.06
319.212	483.06
319.441	467.06
319.67	481.06
319.9	480.06
320.129	464.06
320.358	460.06
320.587	456.06
320.816	482.06
321.046	466.06
321.275	479.06
321.504	479.06
321.733	484.06
321.962	460.06
322.191	509.06
322.42	490.06
322.649	504.06
322.878	511.06
323.108	528.06
323.337	529.06
323.566	538.06
323.795	556.06
324.024	588.06
324.253	664.06
324.482	815.06
324.71	1202.06
324.939	1761.06
325.168	1546.06
325.397	858.06
325.626	649.06
325.855	553.06
326.084	562.06
326.313	564.06
326.542	554.06
326.77	564.06
326.999	638.06
327.228	815.06
327.457	1127.06
327.686	1357.06
327.914	950.06
328.143	662.06
328.372	639.06
328.6	630.06
328.829	588.06
329.058	611.06
329.287	615.06
329.515	608.06
329.744	534.06
329.972	568.06
330.201	597.06
330.43	601.06
330.658	631.06
330.887	634.06
331.115	642.06
331.344	590.06
331.572	564.06
331.801	589.06
332.03	597.06
332.258	577.06
332.486	572.06
332.715	603.06
332.943	586.06
333.172	613.06
333.4	612.06
333.629	661.06
333.857	630.06
334.085	663.06
334.314	657.06
334.542	683.06
334.771	673.06
334.999	642.06
335.227	627.06
335.455	603.06
335.684	597.06
335.912	597.06
336.14	602.06
336.369	584.06
336.597	588.06
336.825	575.06
337.053	583.06
337.281	575.06
337.51	588.06
337.738	590.06
337.966	556.06
338.194	556.06
338.422	551.06
338.65	564.06
338.878	552.06
339.106	554.06
339.334	542.06
339.562	540.06
339.79	539.06
340.018	534.06
340.246	540.06
340.474	550.06
340.702	553.06
340.93	516.06
341.158	538.06
341.386	548.06
341.614	554.06
341.842	544.06
342.07	516.06
342.298	522.06
342.526	532.06
342.754	532.06
342.981	518.06
343.209	544.06
343.437	539.06
343.665	583.06
343.893	585.06
344.12	604.06
344.348	586.06
344.576	577.06
344.804	557.06
345.031	561.06
345.259	558.06
345.487	561.06
345.714	546.06
345.942	533.06
346.17	543.06
346.397	538.06
346.625	526.06
346.853	505.06
347.08	499.06
347.308	534.06
347.535	549.06
347.763	524.06
347.99	502.06
348.218	519.06
348.445	505.06
348.673	528.06
348.9	529.06
349.128	525.06
349.355	499.06
349.583	524.06
349.81	522.06
350.037	516.06
350.265	509.06
350.492	506.06
350.72	505.06
350.947	519.06
351.174	515.06
351.402	509.06
351.629	500.06
351.856	518.06
352.083	517.06
352.311	494.06
352.538	524.06
352.765	522.06
352.992	502.06
353.22	506.06
353.447	504.06
353.674	491.06
353.901	500.06
354.128	484.06
354.355	491.06
354.583	476.06
354.81	499.06
355.037	486.06
355.264	493.06
355.491	491.06
355.718	512.06
355.945	485.06
356.172	499.06
356.399	482.06
356.626	491.06
356.853	486.06
357.08	488.06
357.307	522.06
357.534	495.06
357.761	495.06
357.988	517.06
358.215	518.06
358.441	485.06
358.668	512.06
358.895	506.06
359.122	503.06
359.349	514.06
359.576	504.06
359.802	522.06
360.029	532.06
360.256	557.06
360.483	551.06
360.709	522.06
360.936	495.06
361.163	496.06
361.39	515.06
361.616	516.06
361.843	518.06
362.07	491.06
362.296	516.06
362.523	510.06
362.749	506.06
362.976	507.06
363.203	496.06
363.429	505.06
363.656	510.06
363.882	518.06
364.109	499.06
364.335	509.06
364.562	488.06
364.788	490.06
365.015	503.06
365.241	498.06
365.468	515.06
365.694	516.06
365.92	497.06
366.147	504.06
366.373	498.06
366.599	509.06
366.826	485.06
367.052	500.06
367.278	479.06
367.505	501.06
367.731	510.06
367.957	503.06
368.184	521.06
368.41	507.06
368.636	526.06
368.862	514.06
369.089	532.06
369.315	504.06
369.541	486.06
369.767	516.06
369.993	518.06
370.219	489.06
370.445	518.06
370.672	514.06
370.898	524.06
371.124	529.06
371.35	518.06
371.576	496.06
371.802	509.06
372.028	535.06
372.254	527.06
372.48	514.06
372.706	543.06
372.932	559.06
373.158	536.06
373.384	555.06
373.61	536.06
373.835	521.06
374.061	534.06
374.287	522.06
374.513	556.06
374.739	543.06
374.965	572.06
375.191	557.06
375.416	531.06
375.642	541.06
375.868	527.06
376.094	536.06
376.319	556.06
376.545	551.06
376.771	528.06
376.997	536.06
377.222	542.06
377.448	532.06
377.674	524.06
377.899	523.06
378.125	518.06
378.35	537.06
378.576	520.06
378.802	518.06
379.027	518.06
379.253	522.06
379.478	522.06
379.704	535.06
379.929	492.06
380.155	516.06
380.38	506.06
380.606	515.06
380.831	531.06
381.057	523.06
381.282	517.06
381.507	532.06
381.733	541.06
381.958	549.06
382.184	533.06
382.409	549.06
382.634	533.06
382.86	550.06
383.085	559.06
383.31	546.06
383.535	553.06
383.761	567.06
383.986	577.06
384.211	584.06
384.436	590.06
384.662	565.06
384.887	602.06
385.112	570.06
385.337	607.06
385.562	616.06
385.787	598.06
386.013	621.06
386.238	613.06
386.463	600.06
386.688	604.06
386.913	613.06
387.138	585.06
387.363	585.06
387.588	594.06
387.813	605.06
388.038	588.06
388.263	618.06
388.488	607.06
388.713	593.06
388.938	608.06
389.163	614.06
389.387	611.06
389.612	587.06
389.837	592.06
390.062	601.06
390.287	571.06
390.512	595.06
390.736	622.06
390.961	616.06
391.186	631.06
391.411	624.06
391.636	635.06
391.86	659.06
392.085	675.06
392.31	660.06
392.534	644.06
392.759	638.06
392.984	619.06
393.208	611.06
393.433	636.06
393.658	623.06
393.882	627.06
394.107	594.06
394.331	632.06
394.556	626.06
394.78	633.06
395.005	623.06
395.229	623.06
395.454	629.06
395.678	666.06
395.903	685.06
396.127	670.06
396.352	663.06
396.576	618.06
396.801	616.06
397.025	654.06
397.249	651.06
397.474	670.06
397.698	683.06
397.922	674.06
398.147	672.06
398.371	710.06
398.595	704.06
398.82	715.06
399.044	758.06
399.268	800.06
399.492	882.06
399.717	942.06
399.941	984.06
400.165	931.06
400.389	915.06
400.613	821.06
400.837	772.06
401.062	748.06
401.286	739.06
401.51	735.06
401.734	713.06
401.958	737.06
402.182	724.06
402.406	764.06
402.63	746.06
402.854	754.06
403.078	799.06
403.302	772.06
403.526	789.06
403.75	802.06
403.974	801.06
404.198	788.06
404.422	806.06
404.645	805.06
404.869	786.06
405.093	806.06
405.317	845.06
405.541	871.06
405.765	823.06
405.988	798.06
406.212	790.06
406.436	816.06
406.66	840.06
406.883	806.06
407.107	857.06
407.331	908.06
407.555	982.06
407.778	976.06
408.002	886.06
408.226	862.06
408.449	837.06
408.673	828.06
408.896	817.06
409.12	874.06
409.344	835.06
409.567	803.06
409.791	798.06
410.014	771.06
410.238	765.06
410.461	778.06
410.685	765.06
410.908	776.06
411.132	800.06
411.355	804.06
411.578	807.06
411.802	762.06
412.025	762.06
412.249	771.06
412.472	788.06
412.695	822.06
412.919	805.06
413.142	747.06
413.365	728.06
413.589	757.06
413.812	732.06
414.035	740.06
414.258	719.06
414.482	696.06
414.705	711.06
414.928	700.06
415.151	720.06
415.374	715.06
415.597	706.06
415.821	694.06
416.044	694.06
416.267	708.06
416.49	697.06
416.713	699.06
416.936	723.06
417.159	691.06
417.382	730.06
417.605	740.06
417.828	727.06
418.051	749.06
418.274	710.06
418.497	731.06
418.72	735.06
418.943	728.06
419.166	744.06
419.389	794.06
419.611	776.06
419.834	720.06
420.057	760.06
420.28	744.06
420.503	746.06
420.726	741.06
420.948	749.06
421.171	765.06
421.394	797.06
421.617	729.06
421.839	724.06
422.062	726.06
422.285	707.06
422.507	790.06
422.73	843.06
422.953	834.06
423.175	787.06
423.398	805.06
423.621	756.06
423.843	788.06
424.066	802.06
424.288	768.06
424.511	779.06
424.733	814.06
424.956	899.06
425.178	840.06
425.401	877.06
425.623	850.06
425.846	772.06
426.068	756.06
426.291	717.06
426.513	714.06
426.735	740.06
426.958	783.06
427.18	824.06
427.402	918.06
427.625	981.06
427.847	892.06
428.069	806.06
428.292	747.06
428.514	720.06
428.736	720.06
428.958	679.06
429.181	710.06
429.403	663.06
429.625	700.06
429.847	707.06
430.069	772.06
430.292	774.06
430.514	679.06
430.736	651.06
430.958	680.06
431.18	680.06
431.402	675.06
431.624	660.06
431.846	647.06
432.068	674.06
432.29	681.06
432.512	650.06
432.734	667.06
432.956	683.06
433.178	671.06
433.4	676.06
433.622	684.06
433.844	694.06
434.066	644.06
434.287	669.06
434.509	680.06
434.731	696.06
434.953	728.06
435.175	705.06
435.397	728.06
435.618	719.06
435.84	743.06
436.062	818.06
436.284	861.06
436.505	778.06
436.727	695.06
436.949	685.06
437.17	678.06
437.392	679.06
437.614	679.06
437.835	686.06
438.057	759.06
438.278	864.06
438.5	872.06
438.721	922.06
438.943	894.06
439.165	760.06
439.386	709.06
439.608	705.06
439.829	732.06
440.05	697.06
440.272	763.06
440.493	718.06
440.715	708.06
440.936	694.06
441.158	690.06
441.379	699.06
441.6	721.06
441.822	738.06
442.043	779.06
442.264	858.06
442.486	875.06
442.707	807.06
442.928	751.06
443.149	755.06
443.371	780.06
443.592	799.06
443.813	894.06
444.034	960.06
444.255	831.06
444.476	796.06
444.698	799.06
444.919	820.06
445.14	925.06
445.361	862.06
445.582	814.06
445.803	835.06
446.024	902.06
446.245	867.06
446.466	813.06
446.687	746.06
446.908	723.06
447.129	684.06
447.35	649.06
447.571	664.06
447.792	671.06
448.013	656.06
448.234	678.06
448.455	708.06
448.675	788.06
448.896	882.06
449.117	781.06
449.338	726.06
449.559	839.06
449.779	906.06
450	780.06
450.221	686.06
450.442	649.06
450.662	640.06
450.883	637.06
451.104	653.06
451.324	636.06
451.545	635.06
451.766	642.06
451.986	629.06
452.207	600.06
452.428	613.06
452.648	608.06
452.869	603.06
453.089	621.06
453.31	640.06
453.53	596.06
453.751	587.06
453.971	605.06
454.192	601.06
454.412	604.06
454.633	596.06
454.853	601.06
455.073	587.06
455.294	602.06
455.514	644.06
455.734	646.06
455.955	601.06
456.175	582.06
456.395	584.06
456.616	572.06
456.836	586.06
457.056	579.06
457.276	566.06
457.497	582.06
457.717	567.06
457.937	580.06
458.157	596.06
458.377	591.06
458.598	620.06
458.818	665.06
459.038	745.06
459.258	751.06
459.478	687.06
459.698	663.06
459.918	674.06
460.138	723.06
460.358	709.06
460.578	717.06
460.798	736.06
461.018	737.06
461.238	712.06
461.458	741.06
461.678	700.06
461.898	736.06
462.118	739.06
462.338	742.06
462.558	749.06
462.777	788.06
462.997	826.06
463.217	869.06
463.437	890.06
463.657	836.06
463.876	790.06
464.096	815.06
464.316	808.06
464.536	828.06
464.755	793.06
464.975	780.06
465.195	772.06
465.414	804.06
465.634	730.06
465.854	720.06
466.073	666.06
466.293	644.06
466.512	644.06
466.732	618.06
466.951	642.06
467.171	628.06
467.391	635.06
467.61	627.06
467.829	629.06
468.049	631.06
468.268	615.06
468.488	614.06
468.707	600.06
468.927	590.06
469.146	629.06
469.365	621.06
469.585	628.06
469.804	645.06
470.023	656.06
470.243	640.06
470.462	657.06
470.681	657.06
470.901	691.06
471.12	677.06
471.339	642.06
471.558	671.06
471.777	623.06
471.997	614.06
472.216	653.06
472.435	650.06
472.654	630.06
472.873	638.06
473.092	612.06
473.311	599.06
473.53	641.06
473.749	642.06
473.968	657.06
474.187	748.06
474.406	759.06
474.625	674.06
474.844	663.06
475.063	636.06
475.282	619.06
475.501	602.06
475.72	642.06
475.939	637.06
476.158	668.06
476.377	620.06
476.596	640.06
476.814	667.06
477.033	654.06
477.252	674.06
477.471	690.06
477.69	696.06
477.908	696.06
478.127	720.06
478.346	716.06
478.564	735.06
478.783	734.06
479.002	748.06
479.22	757.06
479.439	742.06
479.658	776.06
479.876	758.06
480.095	792.06
480.313	841.06
480.532	841.06
480.751	815.06
480.969	813.06
481.188	832.06
481.406	871.06
481.624	798.06
481.843	762.06
482.061	762.06
482.28	757.06
482.498	740.06
482.717	728.06
482.935	726.06
483.153	719.06
483.372	723.06
483.59	728.06
483.808	725.06
484.027	731.06
484.245	725.06
484.463	737.06
484.681	757.06
484.9	745.06
485.118	733.06
485.336	757.06
485.554	752.06
485.772	781.06
485.99	786.06
486.209	770.06
486.427	764.06
486.645	747.06
486.863	786.06
487.081	794.06
487.299	778.06
487.517	803.06
487.735	784.06
487.953	772.06
488.171	756.06
488.389	763.06
488.607	791.06
488.825	784.06
489.043	771.06
489.261	766.06
489.479	768.06
489.696	807.06
489.914	793.06
490.132	814.06
490.35	788.06
490.568	808.06
490.786	808.06
491.003	834.06
491.221	820.06
491.439	837.06
491.657	852.06
491.874	847.06
492.092	876.06
492.31	893.06
492.527	892.06
492.745	891.06
492.963	870.06
493.18	882.06
493.398	900.06
493.615	892.06
493.833	882.06
494.05	899.06
494.268	890.06
494.485	910.06
494.703	915.06
494.92	887.06
495.138	913.06
495.355	896.06
495.573	906.06
495.79	920.06
496.008	907.06
496.225	920.06
496.442	924.06
496.66	950.06
496.877	938.06
497.094	920.06
497.312	955.06
497.529	990.06
497.746	976.06
497.963	993.06
498.181	1034.06
498.398	1054.06
498.615	1086.06
498.832	1148.06
499.049	1168.06
499.267	1240.06
499.484	1343.06
499.701	1419.06
499.918	1496.06
500.135	1676.06
500.352	1775.06
500.569	1876.06
500.786	1833.06
501.003	1767.06
501.22	1619.06
501.437	1516.06
501.654	1435.06
501.871	1367.06
502.088	1306.06
502.305	1210.06
502.522	1169.06
502.739	1099.06
502.956	1082.06
503.172	1060.06
503.389	1021.06
503.606	1006.06
503.823	990.06
504.04	988.06
504.256	1002.06
504.473	980.06
504.69	991.06
504.907	990.06
505.123	949.06
505.34	894.06
505.557	878.06
505.773	880.06
505.99	859.06
506.207	873.06
506.423	880.06
506.64	843.06
506.856	840.06
507.073	828.06
507.289	838.06
507.506	822.06
507.722	852.06
507.939	824.06
508.155	843.06
508.372	820.06
508.588	829.06
508.805	774.06
509.021	769.06
509.238	798.06
509.454	790.06
509.67	790.06
509.887	755.06
510.103	746.06
510.319	783.06
510.536	854.06
510.752	1230.06
510.968	1043.06
511.184	794.06
511.401	751.06
511.617	749.06
511.833	746.06
512.049	754.06
512.265	746.06
512.481	748.06
512.698	730.06
512.914	760.06
513.13	741.06
513.346	726.06
513.562	754.06
513.778	758.06
513.994	765.06
514.21	749.06
514.426	773.06
514.642	768.06
514.858	804.06
515.074	838.06
515.29	926.06
515.506	1232.06
515.721	1066.06
515.937	850.06
516.153	848.06
516.369	848.06
516.585	838.06
516.801	850.06
517.016	870.06
517.232	839.06
517.448	904.06
517.664	898.06
517.879	919.06
518.095	902.06
518.311	913.06
518.527	870.06
518.742	870.06
518.958	826.06
519.173	809.06
519.389	791.06
519.605	781.06
519.82	765.06
520.036	764.06
520.251	777.06
520.467	799.06
520.682	788.06
520.898	789.06
521.113	790.06
521.329	796.06
521.544	847.06
521.76	955.06
521.975	1410.06
522.19	1468.06
522.406	920.06
522.621	779.06
522.836	720.06
523.052	707.06
523.267	700.06
523.482	680.06
523.698	674.06
523.913	669.06
524.128	705.06
524.343	676.06
524.559	637.06
524.774	648.06
524.989	663.06
525.204	637.06
525.419	680.06
525.634	651.06
525.849	630.06
526.064	631.06
526.28	642.06
526.495	618.06
526.71	638.06
526.925	633.06
527.14	648.06
527.355	642.06
527.57	654.06
527.785	640.06
527.999	620.06
528.214	640.06
528.429	635.06
528.644	624.06
528.859	654.06
529.074	639.06
529.289	669.06
529.503	699.06
529.718	691.06
529.933	657.06
530.148	656.06
530.363	646.06
530.577	648.06
530.792	636.06
531.007	636.06
531.221	644.06
531.436	639.06
531.651	636.06
531.865	636.06
532.08	638.06
532.295	634.06
532.509	632.06
532.724	638.06
532.938	623.06
533.153	603.06
533.367	618.06
533.582	632.06
533.796	611.06
534.011	621.06
534.225	621.06
534.44	605.06
534.654	636.06
534.868	615.06
535.083	594.06
535.297	656.06
535.511	612.06
535.726	617.06
535.94	613.06
536.154	627.06
536.369	594.06
536.583	602.06
536.797	619.06
537.011	587.06
537.225	561.06
537.44	567.06
537.654	605.06
537.868	605.06
538.082	592.06
538.296	592.06
538.51	594.06
538.724	601.06
538.938	590.06
539.153	566.06
539.367	580.06
539.581	591.06
539.795	562.06
540.009	584.06
540.222	579.06
540.436	593.06
540.65	615.06
540.864	591.06
541.078	582.06
541.292	605.06
541.506	588.06
541.72	574.06
541.934	555.06
542.147	601.06
542.361	582.06
542.575	555.06
542.789	559.06
543.002	578.06
543.216	576.06
543.43	573.06
543.644	581.06
543.857	580.06
544.071	578.06
544.285	575.06
544.498	565.06
544.712	568.06
544.925	579.06
545.139	588.06
545.352	584.06
545.566	590.06
545.779	589.06
545.993	581.06
546.206	603.06
546.42	594.06
546.633	580.06
546.847	575.06
547.06	554.06
547.274	578.06
547.487	583.06
547.7	584.06
547.914	570.06
548.127	611.06
548.34	609.06
548.554	587.06
548.767	583.06
548.98	602.06
549.193	596.06
549.407	583.06
549.62	586.06
549.833	580.06
550.046	581.06
550.259	579.06
550.473	572.06
550.686	573.06
550.899	584.06
551.112	582.06
551.325	563.06
551.538	565.06
551.751	583.06
551.964	600.06
552.177	583.06
552.39	575.06
552.603	595.06
552.816	628.06
553.029	593.06
553.242	618.06
553.455	624.06
553.667	653.06
553.88	662.06
554.093	612.06
554.306	626.06
554.519	618.06
554.732	596.06
554.944	577.06
555.157	580.06
555.37	562.06
555.583	550.06
555.795	565.06
556.008	540.06
556.221	544.06
556.433	523.06
556.646	542.06
556.859	535.06
557.071	540.06
557.284	534.06
557.496	504.06
557.709	509.06
557.921	515.06
558.134	510.06
558.346	498.06
558.559	505.06
558.771	502.06
558.984	503.06
559.196	509.06
559.409	510.06
559.621	483.06
559.833	489.06
560.046	491.06
560.258	503.06
560.47	480.06
560.683	494.06
560.895	494.06
561.107	493.06
561.32	516.06
561.532	486.06
561.744	520.06
561.956	490.06
562.168	507.06
562.381	494.06
562.593	524.06
562.805	494.06
563.017	517.06
563.229	510.06
563.441	539.06
563.653	523.06
563.865	526.06
564.077	515.06
564.289	511.06
564.501	533.06
564.713	542.06
564.925	555.06
565.137	567.06
565.349	545.06
565.561	568.06
565.773	579.06
565.985	631.06
566.197	615.06
566.408	672.06
566.62	679.06
566.832	732.06
567.044	762.06
567.255	772.06
567.467	782.06
567.679	794.06
567.891	836.06
568.102	848.06
568.314	816.06
568.526	770.06
568.737	723.06
568.949	688.06
569.161	633.06
569.372	606.06
569.584	573.06
569.795	544.06
570.007	541.06
570.218	574.06
570.43	581.06
570.641	525.06
570.853	524.06
571.064	558.06
571.276	524.06
571.487	506.06
571.698	510.06
571.91	491.06
572.121	492.06
572.333	467.06
572.544	469.06
572.755	452.06
572.966	467.06
573.178	463.06
573.389	463.06
573.6	459.06
573.811	442.06
574.023	432.06
574.234	462.06
574.445	467.06
574.656	462.06
574.867	451.06
575.078	439.06
575.289	455.06
575.501	420.06
575.712	430.06
575.923	418.06
576.134	424.06
576.345	430.06
576.556	419.06
576.767	428.06
576.978	439.06
577.188	406.06
577.399	412.06
577.61	441.06
577.821	402.06
578.032	405.06
578.243	437.06
578.454	580.06
578.665	514.06
578.875	400.06
579.086	407.06
579.297	393.06
579.508	389.06
579.718	391.06
579.929	401.06
580.14	394.06
580.35	387.06
580.561	409.06
580.772	399.06
580.982	391.06
581.193	385.06
581.403	390.06
581.614	398.06
581.825	388.06
582.035	409.06
582.246	394.06
582.456	399.06
582.667	386.06
582.877	388.06
583.087	378.06
583.298	376.06
583.508	380.06
583.719	401.06
583.929	380.06
584.139	367.06
584.35	390.06
584.56	382.06
584.77	379.06
584.981	391.06
585.191	374.06
585.401	366.06
585.611	376.06
585.821	372.06
586.032	392.06
586.242	397.06
586.452	380.06
586.662	374.06
586.872	362.06
587.082	365.06
587.292	379.06
587.502	392.06
587.713	356.06
587.923	359.06
588.133	378.06
588.343	370.06
588.553	375.06
588.762	371.06
588.972	370.06
589.182	360.06
589.392	344.06
589.602	376.06
589.812	392.06
590.022	379.06
590.232	381.06
590.441	384.06
590.651	356.06
590.861	381.06
591.071	384.06
591.281	363.06
591.49	384.06
591.7	396.06
591.91	414.06
592.119	394.06
592.329	419.06
592.539	413.06
592.748	441.06
592.958	458.06
593.167	438.06
593.377	466.06
593.587	445.06
593.796	454.06
594.006	465.06
594.215	464.06
594.424	472.06
594.634	454.06
594.843	431.06
595.053	430.06
595.262	405.06
595.472	407.06
595.681	390.06
595.89	382.06
596.1	383.06
596.309	378.06
596.518	388.06
596.727	383.06
596.937	346.06
597.146	382.06
597.355	354.06
597.564	346.06
597.774	358.06
597.983	338.06
598.192	339.06
598.401	346.06
598.61	331.06
598.819	342.06
599.028	322.06
599.237	336.06
599.446	348.06
599.655	339.06
599.864	322.06
600.073	340.06
600.282	320.06
600.491	326.06
600.7	311.06
600.909	330.06
601.118	318.06
601.327	315.06
601.536	323.06
601.745	319.06
601.953	308.06
602.162	316.06
602.371	316.06
602.58	311.06
602.789	320.06
602.997	303.06
603.206	326.06
603.415	313.06
603.623	304.06
603.832	316.06
604.041	297.06
604.249	323.06
604.458	315.06
604.666	325.06
604.875	317.06
605.084	306.06
605.292	316.06
605.501	287.06
605.709	299.06
605.918	310.06
606.126	298.06
606.334	310.06
606.543	289.06
606.751	306.06
606.96	286.06
607.168	307.06
607.376	302.06
607.585	306.06
607.793	312.06
608.001	296.06
608.21	307.06
608.418	299.06
608.626	320.06
608.834	300.06
609.043	321.06
609.251	316.06
609.459	306.06
609.667	304.06
609.875	283.06
610.083	290.06
610.291	309.06
610.499	295.06
610.707	296.06
610.916	320.06
611.124	297.06
611.332	292.06
611.54	301.06
611.748	290.06
611.955	299.06
612.163	280.06
612.371	289.06
612.579	292.06
612.787	310.06
612.995	276.06
613.203	319.06
613.411	314.06
613.618	300.06
613.826	299.06
614.034	291.06
614.242	286.06
614.449	299.06
614.657	311.06
614.865	297.06
615.072	302.06
615.28	310.06
615.488	282.06
615.695	292.06
615.903	298.06
616.111	295.06
616.318	307.06
616.526	294.06
616.733	309.06
616.941	296.06
617.148	280.06
617.356	283.06
617.563	288.06
617.771	282.06
617.978	288.06
618.185	297.06
618.393	279.06
618.6	279.06
618.807	283.06
619.015	292.06
619.222	282.06
619.429	288.06
619.637	309.06
619.844	267.06
620.051	303.06
620.258	287.06
620.466	279.06
620.673	270.06
620.88	252.06
621.087	262.06
621.294	270.06
621.501	291.06
621.708	287.06
621.915	273.06
622.122	262.06
622.329	260.06
622.536	279.06
622.743	285.06
622.95	278.06
623.157	261.06
623.364	265.06
623.571	268.06
623.778	263.06
623.985	269.06
624.192	272.06
624.399	270.06
624.606	258.06
624.812	261.06
625.019	266.06
625.226	259.06
625.433	254.06
625.639	248.06
625.846	274.06
626.053	245.06
626.259	239.06
626.466	256.06
626.673	264.06
626.879	247.06
627.086	232.06
627.293	242.06
627.499	239.06
627.706	263.06
627.912	249.06
628.119	258.06
628.325	251.06
628.532	240.06
628.738	270.06
628.945	246.06
629.151	244.06
629.357	246.06
629.564	247.06
629.77	252.06
629.976	235.06
630.183	243.06
630.389	260.06
630.595	238.06
630.802	233.06
631.008	225.06
631.214	238.06
631.42	232.06
631.627	243.06
631.833	232.06
632.039	222.06
632.245	238.06
632.451	229.06
632.657	193.06
632.863	224.06
633.069	233.06
633.275	229.06
633.481	219.06
633.688	219.06
633.893	234.06
634.099	217.06
634.305	232.06
634.511	218.06
634.717	238.06
634.923	216.06
635.129	231.06
635.335	215.06
635.541	215.06
635.747	216.06
635.952	231.06
636.158	211.06
636.364	229.06
636.57	223.06
636.775	198.06
636.981	223.06
637.187	204.06
637.392	234.06
637.598	229.06
637.804	205.06
638.009	220.06
638.215	219.06
638.421	208.06
638.626	214.06
638.832	204.06
639.037	203.06
639.243	218.06
639.448	190.06
639.654	195.06
639.859	201.06
640.065	203.06
640.27	211.06
640.475	206.06
640.681	205.06
640.886	190.06
641.091	206.06
641.297	191.06
641.502	205.06
641.707	205.06
641.913	217.06
642.118	195.06
642.323	199.06
642.528	199.06
642.733	199.06
642.939	191.06
643.144	196.06
643.349	205.06
643.554	210.06
643.759	194.06
643.964	191.06
644.169	214.06
644.374	211.06
644.579	212.06
644.784	207.06
644.989	208.06
645.194	191.06
645.399	200.06
645.604	195.06
645.809	189.06
646.014	200.06
646.219	189.06
646.423	194.06
646.628	199.06
646.833	196.06
647.038	196.06
647.243	191.06
647.447	199.06
647.652	199.06
647.857	204.06
648.062	208.06
648.266	200.06
648.471	200.06
648.676	207.06
648.88	207.06
649.085	206.06
649.289	209.06
649.494	189.06
649.698	214.06
649.903	226.06
650.107	203.06
650.312	203.06
650.516	179.06
650.721	197.06
650.925	158.06
651.13	179.06
651.334	188.06
651.539	179.06
651.743	160.06
651.947	171.06
652.152	169.06
652.356	165.06
652.56	186.06
652.764	168.06
652.969	174.06
653.173	178.06
653.377	158.06
653.581	157.06
653.785	143.06
653.99	147.06
654.194	152.06
654.398	159.06
654.602	147.06
654.806	159.06
655.01	148.06
655.214	159.06
655.418	165.06
655.622	160.06
655.826	151.06
656.03	150.06
656.234	157.06
656.438	167.06
656.642	161.06
656.846	150.06
657.049	138.06
657.253	143.06
657.457	145.06
657.661	140.06
657.865	138.06
658.068	119.06
658.272	126.06
658.476	115.06
658.68	108.06
658.883	109.06
659.087	104.06
659.291	125.06
659.494	106.06
659.698	113.06
659.901	106.06
660.105	103.06
660.309	93.06
660.512	100.06
660.716	105.06
660.919	87.06
661.123	102.06
661.326	106.06
661.53	98.06
661.733	99.06
661.936	99.06
662.14	84.06
662.343	100.06
662.546	92.06
662.75	93.06
662.953	94.06
663.156	84.06
663.36	94.06
663.563	90.06
663.766	78.06
663.969	93.06
664.173	85.06
664.376	96.06
664.579	73.06
664.782	73.06
664.985	72.06
665.188	98.06
665.391	91.06
665.594	94.06
665.797	90.06
666	89.06
666.203	85.06
666.406	79.06
666.609	89.06
666.812	73.06
667.015	70.06
667.218	85.06
667.421	84.06
667.624	93.06
667.827	75.06
668.03	78.06
668.232	87.06
668.435	70.06
668.638	99.06
668.841	98.06
669.043	77.06
669.246	78.06
669.449	86.06
669.651	78.06
669.854	70.06
670.057	87.06
670.259	91.06
670.462	92.06
670.665	89.06
670.867	74.06
671.07	99.06
671.272	82.06
671.475	92.06
671.677	87.06
671.88	94.06
672.082	77.06
672.284	69.06
672.487	83.06
672.689	86.06
672.892	80.06
