Data from 1963.PennyLincolnUp.Lamp.En5.5.200Scan.071719.P1._HRD10591_13-59-02-063.txt Node
Date: Thu Jul 18 13:59:02 EDT 2019
User: cochatt
Spectrometer: HR+D1059
Trigger mode: 1
Integration Time (sec): 1.000000E-1
Scans to average: 1
Electric dark correction enabled: true
Nonlinearity correction enabled: false
Boxcar width: 0
XAxis mode: Wavelengths
Number of Pixels in Spectrum: 2048
>>>>>Begin Spectral Data<<<<<
223.165	-19.94
223.4	-19.94
223.635	-19.94
223.869	-21.94
224.104	-16.94
224.338	0.06
224.573	-26.94
224.808	-11.94
225.042	-5.94
225.277	-1.94
225.511	9.06
225.746	16.06
225.98	1.06
226.215	4.06
226.449	12.06
226.683	15.06
226.918	16.06
227.152	32.06
227.387	37.06
227.621	33.06
227.856	53.06
228.09	55.06
228.324	50.06
228.559	69.06
228.793	64.06
229.027	89.06
229.262	90.06
229.496	107.06
229.73	126.06
229.964	135.06
230.199	132.06
230.433	124.06
230.667	126.06
230.901	116.06
231.136	124.06
231.37	115.06
231.604	121.06
231.838	103.06
232.072	123.06
232.306	129.06
232.541	126.06
232.775	124.06
233.009	125.06
233.243	139.06
233.477	122.06
233.711	143.06
233.945	125.06
234.179	130.06
234.413	117.06
234.647	117.06
234.881	125.06
235.115	134.06
235.349	128.06
235.583	145.06
235.817	124.06
236.051	127.06
236.285	134.06
236.519	128.06
236.753	124.06
236.987	139.06
237.221	180.06
237.455	213.06
237.689	166.06
237.922	154.06
238.156	144.06
238.39	133.06
238.624	143.06
238.858	135.06
239.091	128.06
239.325	120.06
239.559	120.06
239.793	147.06
240.027	134.06
240.26	160.06
240.494	139.06
240.728	148.06
240.961	149.06
241.195	159.06
241.429	155.06
241.662	142.06
241.896	136.06
242.13	153.06
242.363	134.06
242.597	166.06
242.83	151.06
243.064	163.06
243.298	142.06
243.531	138.06
243.765	147.06
243.998	137.06
244.232	145.06
244.465	158.06
244.699	164.06
244.932	159.06
245.166	153.06
245.399	165.06
245.633	170.06
245.866	171.06
246.099	161.06
246.333	163.06
246.566	176.06
246.8	157.06
247.033	183.06
247.266	185.06
247.5	170.06
247.733	192.06
247.966	181.06
248.2	195.06
248.433	186.06
248.666	196.06
248.899	188.06
249.133	218.06
249.366	229.06
249.599	209.06
249.832	198.06
250.066	181.06
250.299	205.06
250.532	202.06
250.765	221.06
250.998	255.06
251.231	232.06
251.465	215.06
251.698	201.06
251.931	208.06
252.164	211.06
252.397	210.06
252.63	220.06
252.863	216.06
253.096	224.06
253.329	247.06
253.562	257.06
253.795	229.06
254.028	214.06
254.261	225.06
254.494	226.06
254.727	263.06
254.96	268.06
255.193	263.06
255.426	261.06
255.659	248.06
255.892	251.06
256.124	249.06
256.357	259.06
256.59	251.06
256.823	247.06
257.056	245.06
257.289	226.06
257.521	228.06
257.754	238.06
257.987	222.06
258.22	249.06
258.452	255.06
258.685	222.06
258.918	232.06
259.151	240.06
259.383	247.06
259.616	250.06
259.849	234.06
260.081	257.06
260.314	262.06
260.547	276.06
260.779	261.06
261.012	232.06
261.244	251.06
261.477	250.06
261.71	251.06
261.942	242.06
262.175	247.06
262.407	264.06
262.64	222.06
262.872	235.06
263.105	226.06
263.337	236.06
263.57	244.06
263.802	237.06
264.035	244.06
264.267	233.06
264.499	254.06
264.732	255.06
264.964	250.06
265.197	232.06
265.429	253.06
265.661	252.06
265.894	238.06
266.126	250.06
266.358	237.06
266.591	253.06
266.823	245.06
267.055	260.06
267.287	270.06
267.52	261.06
267.752	271.06
267.984	261.06
268.216	254.06
268.448	269.06
268.681	273.06
268.913	271.06
269.145	289.06
269.377	279.06
269.609	281.06
269.841	300.06
270.073	284.06
270.306	299.06
270.538	325.06
270.77	318.06
271.002	318.06
271.234	312.06
271.466	322.06
271.698	323.06
271.93	332.06
272.162	340.06
272.394	322.06
272.626	315.06
272.858	308.06
273.09	310.06
273.322	312.06
273.553	299.06
273.785	285.06
274.017	316.06
274.249	287.06
274.481	312.06
274.713	297.06
274.945	306.06
275.176	306.06
275.408	310.06
275.64	315.06
275.872	312.06
276.104	313.06
276.335	308.06
276.567	316.06
276.799	296.06
277.031	331.06
277.262	343.06
277.494	342.06
277.726	334.06
277.957	335.06
278.189	316.06
278.421	324.06
278.652	315.06
278.884	321.06
279.115	304.06
279.347	303.06
279.579	308.06
279.81	319.06
280.042	321.06
280.273	318.06
280.505	324.06
280.736	322.06
280.968	310.06
281.199	326.06
281.431	314.06
281.662	320.06
281.894	328.06
282.125	300.06
282.356	335.06
282.588	344.06
282.819	340.06
283.051	328.06
283.282	344.06
283.513	328.06
283.745	336.06
283.976	318.06
284.207	326.06
284.439	342.06
284.67	343.06
284.901	339.06
285.132	325.06
285.364	328.06
285.595	332.06
285.826	339.06
286.057	339.06
286.288	340.06
286.52	356.06
286.751	325.06
286.982	347.06
287.213	337.06
287.444	331.06
287.675	344.06
287.906	337.06
288.138	373.06
288.369	375.06
288.6	364.06
288.831	367.06
289.062	365.06
289.293	342.06
289.524	373.06
289.755	347.06
289.986	353.06
290.217	339.06
290.448	352.06
290.679	359.06
290.91	360.06
291.141	355.06
291.371	366.06
291.602	363.06
291.833	363.06
292.064	357.06
292.295	367.06
292.526	362.06
292.757	359.06
292.987	352.06
293.218	354.06
293.449	362.06
293.68	349.06
293.91	363.06
294.141	347.06
294.372	377.06
294.603	364.06
294.833	380.06
295.064	366.06
295.295	378.06
295.525	370.06
295.756	366.06
295.987	361.06
296.217	385.06
296.448	390.06
296.679	378.06
296.909	362.06
297.14	380.06
297.37	382.06
297.601	386.06
297.831	396.06
298.062	379.06
298.292	372.06
298.523	399.06
298.753	401.06
298.984	397.06
299.214	400.06
299.445	403.06
299.675	385.06
299.905	388.06
300.136	393.06
300.366	384.06
300.597	391.06
300.827	410.06
301.057	418.06
301.288	436.06
301.518	410.06
301.748	432.06
301.979	427.06
302.209	412.06
302.439	416.06
302.669	422.06
302.9	411.06
303.13	429.06
303.36	421.06
303.59	419.06
303.82	404.06
304.051	421.06
304.281	400.06
304.511	400.06
304.741	408.06
304.971	410.06
305.201	391.06
305.431	410.06
305.661	402.06
305.891	409.06
306.121	404.06
306.352	413.06
306.582	405.06
306.812	414.06
307.042	395.06
307.272	394.06
307.502	409.06
307.731	420.06
307.961	412.06
308.191	429.06
308.421	415.06
308.651	415.06
308.881	404.06
309.111	418.06
309.341	404.06
309.571	415.06
309.8	427.06
310.03	427.06
310.26	436.06
310.49	428.06
310.72	460.06
310.949	459.06
311.179	446.06
311.409	455.06
311.639	450.06
311.868	468.06
312.098	454.06
312.328	469.06
312.557	453.06
312.787	436.06
313.017	466.06
313.246	468.06
313.476	440.06
313.706	454.06
313.935	455.06
314.165	460.06
314.394	488.06
314.624	470.06
314.853	463.06
315.083	464.06
315.312	459.06
315.542	459.06
315.771	443.06
316.001	442.06
316.23	444.06
316.46	471.06
316.689	456.06
316.919	454.06
317.148	458.06
317.377	470.06
317.607	459.06
317.836	447.06
318.065	444.06
318.295	443.06
318.524	443.06
318.753	456.06
318.983	441.06
319.212	452.06
319.441	452.06
319.67	468.06
319.9	447.06
320.129	474.06
320.358	465.06
320.587	466.06
320.816	443.06
321.046	453.06
321.275	456.06
321.504	465.06
321.733	474.06
321.962	471.06
322.191	455.06
322.42	481.06
322.649	493.06
322.878	499.06
323.108	486.06
323.337	522.06
323.566	529.06
323.795	517.06
324.024	572.06
324.253	638.06
324.482	812.06
324.71	1154.06
324.939	1687.06
325.168	1448.06
325.397	826.06
325.626	629.06
325.855	558.06
326.084	549.06
326.313	555.06
326.542	540.06
326.77	564.06
326.999	635.06
327.228	786.06
327.457	1108.06
327.686	1325.06
327.914	922.06
328.143	658.06
328.372	622.06
328.6	592.06
328.829	582.06
329.058	578.06
329.287	594.06
329.515	578.06
329.744	547.06
329.972	549.06
330.201	576.06
330.43	599.06
330.658	611.06
330.887	600.06
331.115	636.06
331.344	597.06
331.572	562.06
331.801	560.06
332.03	542.06
332.258	562.06
332.486	587.06
332.715	556.06
332.943	598.06
333.172	590.06
333.4	596.06
333.629	614.06
333.857	635.06
334.085	621.06
334.314	640.06
334.542	672.06
334.771	656.06
334.999	639.06
335.227	597.06
335.455	588.06
335.684	596.06
335.912	570.06
336.14	564.06
336.369	593.06
336.597	582.06
336.825	580.06
337.053	593.06
337.281	567.06
337.51	555.06
337.738	540.06
337.966	548.06
338.194	516.06
338.422	543.06
338.65	552.06
338.878	540.06
339.106	514.06
339.334	536.06
339.562	548.06
339.79	542.06
340.018	539.06
340.246	532.06
340.474	506.06
340.702	534.06
340.93	542.06
341.158	527.06
341.386	563.06
341.614	530.06
341.842	540.06
342.07	533.06
342.298	536.06
342.526	519.06
342.754	506.06
342.981	508.06
343.209	514.06
343.437	550.06
343.665	545.06
343.893	566.06
344.12	588.06
344.348	575.06
344.576	553.06
344.804	558.06
345.031	554.06
345.259	555.06
345.487	511.06
345.714	526.06
345.942	522.06
346.17	514.06
346.397	506.06
346.625	521.06
346.853	513.06
347.08	488.06
347.308	533.06
347.535	512.06
347.763	506.06
347.99	505.06
348.218	520.06
348.445	504.06
348.673	513.06
348.9	504.06
349.128	524.06
349.355	494.06
349.583	491.06
349.81	490.06
350.037	506.06
350.265	495.06
350.492	490.06
350.72	501.06
350.947	495.06
351.174	519.06
351.402	512.06
351.629	489.06
351.856	494.06
352.083	480.06
352.311	501.06
352.538	519.06
352.765	514.06
352.992	523.06
353.22	476.06
353.447	499.06
353.674	498.06
353.901	487.06
354.128	488.06
354.355	476.06
354.583	488.06
354.81	494.06
355.037	483.06
355.264	492.06
355.491	477.06
355.718	475.06
355.945	490.06
356.172	464.06
356.399	487.06
356.626	478.06
356.853	477.06
357.08	477.06
357.307	484.06
357.534	481.06
357.761	477.06
357.988	487.06
358.215	487.06
358.441	483.06
358.668	483.06
358.895	494.06
359.122	486.06
359.349	499.06
359.576	488.06
359.802	499.06
360.029	523.06
360.256	539.06
360.483	538.06
360.709	519.06
360.936	524.06
361.163	492.06
361.39	506.06
361.616	493.06
361.843	519.06
362.07	507.06
362.296	512.06
362.523	498.06
362.749	477.06
362.976	514.06
363.203	483.06
363.429	486.06
363.656	499.06
363.882	466.06
364.109	492.06
364.335	488.06
364.562	480.06
364.788	490.06
365.015	494.06
365.241	481.06
365.468	515.06
365.694	489.06
365.92	502.06
366.147	495.06
366.373	494.06
366.599	505.06
366.826	499.06
367.052	493.06
367.278	470.06
367.505	530.06
367.731	489.06
367.957	482.06
368.184	484.06
368.41	484.06
368.636	501.06
368.862	512.06
369.089	523.06
369.315	529.06
369.541	500.06
369.767	485.06
369.993	490.06
370.219	486.06
370.445	501.06
370.672	514.06
370.898	516.06
371.124	523.06
371.35	519.06
371.576	506.06
371.802	516.06
372.028	510.06
372.254	516.06
372.48	509.06
372.706	543.06
372.932	516.06
373.158	540.06
373.384	554.06
373.61	520.06
373.835	509.06
374.061	501.06
374.287	522.06
374.513	506.06
374.739	543.06
374.965	544.06
375.191	557.06
375.416	550.06
375.642	512.06
375.868	562.06
376.094	543.06
376.319	512.06
376.545	528.06
376.771	510.06
376.997	535.06
377.222	503.06
377.448	508.06
377.674	521.06
377.899	487.06
378.125	485.06
378.35	518.06
378.576	498.06
378.802	487.06
379.027	508.06
379.253	514.06
379.478	504.06
379.704	492.06
379.929	507.06
380.155	493.06
380.38	529.06
380.606	542.06
380.831	526.06
381.057	516.06
381.282	503.06
381.507	524.06
381.733	524.06
381.958	532.06
382.184	514.06
382.409	504.06
382.634	535.06
382.86	524.06
383.085	524.06
383.31	537.06
383.535	542.06
383.761	561.06
383.986	555.06
384.211	550.06
384.436	573.06
384.662	570.06
384.887	574.06
385.112	586.06
385.337	603.06
385.562	593.06
385.787	586.06
386.013	601.06
386.238	602.06
386.463	597.06
386.688	602.06
386.913	602.06
387.138	576.06
387.363	576.06
387.588	588.06
387.813	592.06
388.038	600.06
388.263	592.06
388.488	613.06
388.713	596.06
388.938	588.06
389.163	566.06
389.387	585.06
389.612	580.06
389.837	576.06
390.062	576.06
390.287	591.06
390.512	614.06
390.736	602.06
390.961	590.06
391.186	605.06
391.411	600.06
391.636	637.06
391.86	634.06
392.085	644.06
392.31	664.06
392.534	636.06
392.759	615.06
392.984	605.06
393.208	621.06
393.433	596.06
393.658	624.06
393.882	613.06
394.107	608.06
394.331	588.06
394.556	620.06
394.78	627.06
395.005	624.06
395.229	640.06
395.454	621.06
395.678	633.06
395.903	658.06
396.127	631.06
396.352	669.06
396.576	632.06
396.801	617.06
397.025	644.06
397.249	627.06
397.474	646.06
397.698	644.06
397.922	667.06
398.147	682.06
398.371	662.06
398.595	686.06
398.82	703.06
399.044	746.06
399.268	763.06
399.492	866.06
399.717	933.06
399.941	951.06
400.165	937.06
400.389	851.06
400.613	813.06
400.837	754.06
401.062	718.06
401.286	726.06
401.51	718.06
401.734	716.06
401.958	731.06
402.182	727.06
402.406	729.06
402.63	747.06
402.854	739.06
403.078	742.06
403.302	775.06
403.526	755.06
403.75	777.06
403.974	774.06
404.198	774.06
404.422	771.06
404.645	792.06
404.869	800.06
405.093	814.06
405.317	853.06
405.541	863.06
405.765	819.06
405.988	784.06
406.212	793.06
406.436	822.06
406.66	834.06
406.883	803.06
407.107	830.06
407.331	890.06
407.555	943.06
407.778	939.06
408.002	910.06
408.226	826.06
408.449	815.06
408.673	790.06
408.896	822.06
409.12	854.06
409.344	837.06
409.567	756.06
409.791	772.06
410.014	761.06
410.238	737.06
410.461	744.06
410.685	723.06
410.908	792.06
411.132	775.06
411.355	772.06
411.578	774.06
411.802	758.06
412.025	737.06
412.249	739.06
412.472	740.06
412.695	798.06
412.919	776.06
413.142	734.06
413.365	727.06
413.589	730.06
413.812	708.06
414.035	700.06
414.258	701.06
414.482	710.06
414.705	700.06
414.928	693.06
415.151	720.06
415.374	712.06
415.597	689.06
415.821	675.06
416.044	682.06
416.267	700.06
416.49	675.06
416.713	682.06
416.936	693.06
417.159	687.06
417.382	712.06
417.605	698.06
417.828	694.06
418.051	727.06
418.274	719.06
418.497	706.06
418.72	707.06
418.943	699.06
419.166	728.06
419.389	793.06
419.611	772.06
419.834	758.06
420.057	752.06
420.28	735.06
420.503	694.06
420.726	718.06
420.948	732.06
421.171	759.06
421.394	800.06
421.617	709.06
421.839	690.06
422.062	725.06
422.285	713.06
422.507	772.06
422.73	824.06
422.953	826.06
423.175	757.06
423.398	749.06
423.621	747.06
423.843	760.06
424.066	765.06
424.288	770.06
424.511	772.06
424.733	821.06
424.956	866.06
425.178	818.06
425.401	832.06
425.623	821.06
425.846	757.06
426.068	718.06
426.291	710.06
426.513	723.06
426.735	711.06
426.958	762.06
427.18	821.06
427.402	946.06
427.625	965.06
427.847	858.06
428.069	780.06
428.292	730.06
428.514	709.06
428.736	660.06
428.958	684.06
429.181	663.06
429.403	632.06
429.625	658.06
429.847	682.06
430.069	728.06
430.292	738.06
430.514	686.06
430.736	651.06
430.958	651.06
431.18	668.06
431.402	645.06
431.624	644.06
431.846	648.06
432.068	676.06
432.29	652.06
432.512	648.06
432.734	648.06
432.956	664.06
433.178	652.06
433.4	648.06
433.622	668.06
433.844	668.06
434.066	654.06
434.287	657.06
434.509	679.06
434.731	666.06
434.953	702.06
435.175	718.06
435.397	750.06
435.618	727.06
435.84	749.06
436.062	814.06
436.284	850.06
436.505	748.06
436.727	700.06
436.949	682.06
437.17	652.06
437.392	660.06
437.614	686.06
437.835	662.06
438.057	752.06
438.278	833.06
438.5	814.06
438.721	892.06
438.943	856.06
439.165	734.06
439.386	699.06
439.608	711.06
439.829	700.06
440.05	716.06
440.272	743.06
440.493	708.06
440.715	713.06
440.936	669.06
441.158	696.06
441.379	700.06
441.6	717.06
441.822	737.06
442.043	784.06
442.264	812.06
442.486	840.06
442.707	755.06
442.928	717.06
443.149	762.06
443.371	762.06
443.592	795.06
443.813	863.06
444.034	926.06
444.255	826.06
444.476	767.06
444.698	795.06
444.919	817.06
445.14	931.06
445.361	839.06
445.582	779.06
445.803	809.06
446.024	874.06
446.245	892.06
446.466	805.06
446.687	732.06
446.908	719.06
447.129	662.06
447.35	652.06
447.571	647.06
447.792	632.06
448.013	649.06
448.234	667.06
448.455	683.06
448.675	771.06
448.896	863.06
449.117	787.06
449.338	741.06
449.559	836.06
449.779	877.06
450	753.06
450.221	670.06
450.442	649.06
450.662	627.06
450.883	654.06
451.104	630.06
451.324	628.06
451.545	625.06
451.766	612.06
451.986	591.06
452.207	596.06
452.428	613.06
452.648	598.06
452.869	607.06
453.089	604.06
453.31	622.06
453.53	598.06
453.751	608.06
453.971	586.06
454.192	602.06
454.412	569.06
454.633	571.06
454.853	580.06
455.073	571.06
455.294	616.06
455.514	656.06
455.734	634.06
455.955	573.06
456.175	576.06
456.395	579.06
456.616	566.06
456.836	548.06
457.056	570.06
457.276	554.06
457.497	570.06
457.717	574.06
457.937	582.06
458.157	575.06
458.377	571.06
458.598	605.06
458.818	657.06
459.038	712.06
459.258	735.06
459.478	672.06
459.698	668.06
459.918	672.06
460.138	715.06
460.358	696.06
460.578	716.06
460.798	714.06
461.018	718.06
461.238	711.06
461.458	708.06
461.678	712.06
461.898	725.06
462.118	734.06
462.338	746.06
462.558	786.06
462.777	785.06
462.997	828.06
463.217	873.06
463.437	862.06
463.657	852.06
463.876	804.06
464.096	809.06
464.316	795.06
464.536	795.06
464.755	781.06
464.975	750.06
465.195	767.06
465.414	813.06
465.634	746.06
465.854	683.06
466.073	642.06
466.293	649.06
466.512	673.06
466.732	626.06
466.951	622.06
467.171	639.06
467.391	631.06
467.61	627.06
467.829	634.06
468.049	650.06
468.268	613.06
468.488	613.06
468.707	598.06
468.927	611.06
469.146	598.06
469.365	605.06
469.585	616.06
469.804	615.06
470.023	635.06
470.243	641.06
470.462	652.06
470.681	672.06
470.901	650.06
471.12	621.06
471.339	638.06
471.558	603.06
471.777	624.06
471.997	619.06
472.216	619.06
472.435	653.06
472.654	634.06
472.873	624.06
473.092	628.06
473.311	605.06
473.53	611.06
473.749	609.06
473.968	621.06
474.187	730.06
474.406	700.06
474.625	640.06
474.844	612.06
475.063	606.06
475.282	618.06
475.501	620.06
475.72	615.06
475.939	634.06
476.158	638.06
476.377	629.06
476.596	632.06
476.814	647.06
477.033	650.06
477.252	642.06
477.471	653.06
477.69	674.06
477.908	694.06
478.127	702.06
478.346	714.06
478.564	684.06
478.783	736.06
479.002	746.06
479.22	758.06
479.439	747.06
479.658	743.06
479.876	750.06
480.095	756.06
480.313	786.06
480.532	798.06
480.751	807.06
480.969	805.06
481.188	848.06
481.406	854.06
481.624	760.06
481.843	733.06
482.061	739.06
482.28	732.06
482.498	715.06
482.717	710.06
482.935	738.06
483.153	720.06
483.372	711.06
483.59	726.06
483.808	734.06
484.027	740.06
484.245	740.06
484.463	735.06
484.681	726.06
484.9	727.06
485.118	727.06
485.336	743.06
485.554	764.06
485.772	736.06
485.99	733.06
486.209	769.06
486.427	762.06
486.645	755.06
486.863	780.06
487.081	786.06
487.299	749.06
487.517	763.06
487.735	758.06
487.953	782.06
488.171	768.06
488.389	779.06
488.607	743.06
488.825	769.06
489.043	750.06
489.261	752.06
489.479	779.06
489.696	774.06
489.914	791.06
490.132	790.06
490.35	786.06
490.568	796.06
490.786	796.06
491.003	817.06
491.221	844.06
491.439	854.06
491.657	859.06
491.874	839.06
492.092	856.06
492.31	852.06
492.527	854.06
492.745	869.06
492.963	868.06
493.18	863.06
493.398	882.06
493.615	872.06
493.833	884.06
494.05	886.06
494.268	907.06
494.485	900.06
494.703	894.06
494.92	859.06
495.138	854.06
495.355	885.06
495.573	919.06
495.79	898.06
496.008	890.06
496.225	876.06
496.442	884.06
496.66	906.06
496.877	921.06
497.094	918.06
497.312	920.06
497.529	972.06
497.746	949.06
497.963	964.06
498.181	997.06
498.398	1003.06
498.615	1088.06
498.832	1129.06
499.049	1149.06
499.267	1212.06
499.484	1334.06
499.701	1382.06
499.918	1509.06
500.135	1637.06
500.352	1748.06
500.569	1853.06
500.786	1832.06
501.003	1760.06
501.22	1656.06
501.437	1546.06
501.654	1408.06
501.871	1285.06
502.088	1232.06
502.305	1172.06
502.522	1146.06
502.739	1141.06
502.956	1043.06
503.172	1039.06
503.389	1013.06
503.606	972.06
503.823	963.06
504.04	954.06
504.256	965.06
504.473	960.06
504.69	968.06
504.907	978.06
505.123	927.06
505.34	918.06
505.557	871.06
505.773	847.06
505.99	845.06
506.207	846.06
506.423	847.06
506.64	838.06
506.856	847.06
507.073	812.06
507.289	813.06
507.506	819.06
507.722	810.06
507.939	811.06
508.155	781.06
508.372	791.06
508.588	774.06
508.805	774.06
509.021	773.06
509.238	795.06
509.454	790.06
509.67	778.06
509.887	752.06
510.103	758.06
510.319	774.06
510.536	832.06
510.752	1190.06
510.968	1028.06
511.184	790.06
511.401	743.06
511.617	760.06
511.833	737.06
512.049	727.06
512.265	747.06
512.481	730.06
512.698	714.06
512.914	731.06
513.13	717.06
513.346	732.06
513.562	746.06
513.778	731.06
513.994	734.06
514.21	754.06
514.426	756.06
514.642	768.06
514.858	810.06
515.074	794.06
515.29	898.06
515.506	1198.06
515.721	1068.06
515.937	826.06
516.153	770.06
516.369	781.06
516.585	801.06
516.801	810.06
517.016	834.06
517.232	842.06
517.448	882.06
517.664	919.06
517.879	894.06
518.095	878.06
518.311	910.06
518.527	871.06
518.742	851.06
518.958	798.06
519.173	823.06
519.389	790.06
519.605	778.06
519.82	790.06
520.036	772.06
520.251	764.06
520.467	776.06
520.682	762.06
520.898	794.06
521.113	777.06
521.329	801.06
521.544	839.06
521.76	922.06
521.975	1418.06
522.19	1457.06
522.406	895.06
522.621	768.06
522.836	702.06
523.052	687.06
523.267	701.06
523.482	667.06
523.698	668.06
523.913	653.06
524.128	657.06
524.343	667.06
524.559	627.06
524.774	651.06
524.989	617.06
525.204	654.06
525.419	672.06
525.634	644.06
525.849	642.06
526.064	601.06
526.28	635.06
526.495	636.06
526.71	639.06
526.925	619.06
527.14	601.06
527.355	618.06
527.57	605.06
527.785	629.06
527.999	612.06
528.214	628.06
528.429	628.06
528.644	638.06
528.859	621.06
529.074	620.06
529.289	641.06
529.503	686.06
529.718	665.06
529.933	635.06
530.148	639.06
530.363	653.06
530.577	632.06
530.792	616.06
531.007	615.06
531.221	593.06
531.436	611.06
531.651	598.06
531.865	614.06
532.08	623.06
532.295	640.06
532.509	600.06
532.724	612.06
532.938	614.06
533.153	615.06
533.367	604.06
533.582	606.06
533.796	627.06
534.011	608.06
534.225	587.06
534.44	605.06
534.654	609.06
534.868	572.06
535.083	619.06
535.297	618.06
535.511	615.06
535.726	606.06
535.94	598.06
536.154	587.06
536.369	597.06
536.583	602.06
536.797	594.06
537.011	590.06
537.225	574.06
537.44	588.06
537.654	562.06
537.868	577.06
538.082	571.06
538.296	588.06
538.51	597.06
538.724	596.06
538.938	566.06
539.153	571.06
539.367	571.06
539.581	607.06
539.795	551.06
540.009	584.06
540.222	564.06
540.436	582.06
540.65	588.06
540.864	575.06
541.078	557.06
541.292	573.06
541.506	568.06
541.72	564.06
541.934	563.06
542.147	566.06
542.361	577.06
542.575	567.06
542.789	553.06
543.002	549.06
543.216	574.06
543.43	559.06
543.644	559.06
543.857	555.06
544.071	553.06
544.285	579.06
544.498	560.06
544.712	568.06
544.925	557.06
545.139	566.06
545.352	583.06
545.566	588.06
545.779	590.06
545.993	567.06
546.206	578.06
546.42	585.06
546.633	563.06
546.847	591.06
547.06	573.06
547.274	571.06
547.487	552.06
547.7	572.06
547.914	578.06
548.127	575.06
548.34	560.06
548.554	564.06
548.767	566.06
548.98	587.06
549.193	584.06
549.407	580.06
549.62	587.06
549.833	575.06
550.046	593.06
550.259	582.06
550.473	559.06
550.686	561.06
550.899	580.06
551.112	574.06
551.325	566.06
551.538	581.06
551.751	565.06
551.964	587.06
552.177	585.06
552.39	579.06
552.603	584.06
552.816	597.06
553.029	612.06
553.242	616.06
553.455	619.06
553.667	630.06
553.88	622.06
554.093	602.06
554.306	630.06
554.519	593.06
554.732	592.06
554.944	580.06
555.157	560.06
555.37	562.06
555.583	562.06
555.795	545.06
556.008	537.06
556.221	517.06
556.433	518.06
556.646	517.06
556.859	529.06
557.071	518.06
557.284	510.06
557.496	504.06
557.709	501.06
557.921	508.06
558.134	520.06
558.346	480.06
558.559	494.06
558.771	491.06
558.984	499.06
559.196	500.06
559.409	508.06
559.621	488.06
559.833	477.06
560.046	524.06
560.258	484.06
560.47	486.06
560.683	494.06
560.895	488.06
561.107	472.06
561.32	489.06
561.532	491.06
561.744	481.06
561.956	488.06
562.168	493.06
562.381	499.06
562.593	506.06
562.805	505.06
563.017	475.06
563.229	501.06
563.441	499.06
563.653	495.06
563.865	498.06
564.077	498.06
564.289	529.06
564.501	526.06
564.713	509.06
564.925	534.06
565.137	562.06
565.349	558.06
565.561	587.06
565.773	597.06
565.985	611.06
566.197	611.06
566.408	639.06
566.62	678.06
566.832	719.06
567.044	745.06
567.255	742.06
567.467	752.06
567.679	774.06
567.891	802.06
568.102	819.06
568.314	790.06
568.526	745.06
568.737	696.06
568.949	673.06
569.161	629.06
569.372	596.06
569.584	589.06
569.795	553.06
570.007	554.06
570.218	555.06
570.43	544.06
570.641	529.06
570.853	524.06
571.064	522.06
571.276	537.06
571.487	510.06
571.698	483.06
571.91	484.06
572.121	467.06
572.333	453.06
572.544	451.06
572.755	428.06
572.966	464.06
573.178	459.06
573.389	437.06
573.6	451.06
573.811	455.06
574.023	422.06
574.234	450.06
574.445	437.06
574.656	439.06
574.867	419.06
575.078	448.06
575.289	414.06
575.501	442.06
575.712	409.06
575.923	413.06
576.134	416.06
576.345	429.06
576.556	389.06
576.767	407.06
576.978	412.06
577.188	413.06
577.399	423.06
577.61	386.06
577.821	403.06
578.032	428.06
578.243	439.06
578.454	578.06
578.665	483.06
578.875	418.06
579.086	415.06
579.297	393.06
579.508	395.06
579.718	391.06
579.929	400.06
580.14	393.06
580.35	393.06
580.561	390.06
580.772	384.06
580.982	380.06
581.193	387.06
581.403	396.06
581.614	368.06
581.825	377.06
582.035	362.06
582.246	390.06
582.456	384.06
582.667	387.06
582.877	382.06
583.087	386.06
583.298	377.06
583.508	382.06
583.719	396.06
583.929	409.06
584.139	371.06
584.35	364.06
584.56	370.06
584.77	374.06
584.981	362.06
585.191	364.06
585.401	370.06
585.611	378.06
585.821	378.06
586.032	380.06
586.242	371.06
586.452	363.06
586.662	360.06
586.872	379.06
587.082	359.06
587.292	363.06
587.502	360.06
587.713	381.06
587.923	378.06
588.133	372.06
588.343	353.06
588.553	355.06
588.762	362.06
588.972	386.06
589.182	396.06
589.392	374.06
589.602	376.06
589.812	383.06
590.022	379.06
590.232	383.06
590.441	375.06
590.651	362.06
590.861	383.06
591.071	387.06
591.281	399.06
591.49	376.06
591.7	382.06
591.91	407.06
592.119	376.06
592.329	388.06
592.539	425.06
592.748	400.06
592.958	426.06
593.167	423.06
593.377	445.06
593.587	465.06
593.796	454.06
594.006	458.06
594.215	455.06
594.424	428.06
594.634	450.06
594.843	428.06
595.053	431.06
595.262	419.06
595.472	394.06
595.681	397.06
595.89	379.06
596.1	389.06
596.309	384.06
596.518	363.06
596.727	346.06
596.937	353.06
597.146	352.06
597.355	374.06
597.564	346.06
597.774	332.06
597.983	326.06
598.192	337.06
598.401	343.06
598.61	331.06
598.819	333.06
599.028	340.06
599.237	328.06
599.446	336.06
599.655	321.06
599.864	318.06
600.073	329.06
600.282	314.06
600.491	316.06
600.7	321.06
600.909	308.06
601.118	317.06
601.327	299.06
601.536	310.06
601.745	318.06
601.953	310.06
602.162	310.06
602.371	293.06
602.58	301.06
602.789	302.06
602.997	312.06
603.206	323.06
603.415	320.06
603.623	319.06
603.832	296.06
604.041	297.06
604.249	296.06
604.458	282.06
604.666	310.06
604.875	301.06
605.084	291.06
605.292	290.06
605.501	324.06
605.709	312.06
605.918	295.06
606.126	289.06
606.334	299.06
606.543	293.06
606.751	304.06
606.96	290.06
607.168	304.06
607.376	301.06
607.585	308.06
607.793	291.06
608.001	301.06
608.21	296.06
608.418	308.06
608.626	308.06
608.834	304.06
609.043	293.06
609.251	291.06
609.459	288.06
609.667	299.06
609.875	303.06
610.083	292.06
610.291	287.06
610.499	283.06
610.707	279.06
610.916	291.06
611.124	296.06
611.332	299.06
611.54	293.06
611.748	310.06
611.955	281.06
612.163	300.06
612.371	305.06
612.579	288.06
612.787	293.06
612.995	295.06
613.203	308.06
613.411	303.06
613.618	274.06
613.826	284.06
614.034	282.06
614.242	306.06
614.449	302.06
614.657	284.06
614.865	269.06
615.072	307.06
615.28	279.06
615.488	294.06
615.695	301.06
615.903	302.06
616.111	281.06
616.318	295.06
616.526	290.06
616.733	302.06
616.941	287.06
617.148	305.06
617.356	290.06
617.563	306.06
617.771	284.06
617.978	298.06
618.185	269.06
618.393	265.06
618.6	287.06
618.807	271.06
619.015	298.06
619.222	280.06
619.429	283.06
619.637	280.06
619.844	279.06
620.051	284.06
620.258	283.06
620.466	267.06
620.673	256.06
620.88	272.06
621.087	263.06
621.294	244.06
621.501	271.06
621.708	283.06
621.915	259.06
622.122	259.06
622.329	270.06
622.536	276.06
622.743	266.06
622.95	272.06
623.157	272.06
623.364	270.06
623.571	260.06
623.778	280.06
623.985	257.06
624.192	260.06
624.399	256.06
624.606	253.06
624.812	261.06
625.019	253.06
625.226	245.06
625.433	263.06
625.639	254.06
625.846	251.06
626.053	239.06
626.259	246.06
626.466	244.06
626.673	251.06
626.879	232.06
627.086	250.06
627.293	255.06
627.499	246.06
627.706	244.06
627.912	239.06
628.119	240.06
628.325	240.06
628.532	235.06
628.738	238.06
628.945	247.06
629.151	236.06
629.357	241.06
629.564	242.06
629.77	233.06
629.976	231.06
630.183	248.06
630.389	225.06
630.595	230.06
630.802	231.06
631.008	213.06
631.214	206.06
631.42	240.06
631.627	243.06
631.833	229.06
632.039	245.06
632.245	230.06
632.451	243.06
632.657	230.06
632.863	212.06
633.069	218.06
633.275	195.06
633.481	216.06
633.688	228.06
633.893	207.06
634.099	224.06
634.305	238.06
634.511	229.06
634.717	227.06
634.923	228.06
635.129	215.06
635.335	214.06
635.541	194.06
635.747	229.06
635.952	219.06
636.158	229.06
636.364	222.06
636.57	216.06
636.775	208.06
636.981	216.06
637.187	212.06
637.392	223.06
637.598	200.06
637.804	220.06
638.009	225.06
638.215	186.06
638.421	206.06
638.626	204.06
638.832	206.06
639.037	225.06
639.243	205.06
639.448	205.06
639.654	209.06
639.859	191.06
640.065	198.06
640.27	200.06
640.475	200.06
640.681	207.06
640.886	192.06
641.091	197.06
641.297	200.06
641.502	198.06
641.707	200.06
641.913	212.06
642.118	196.06
642.323	196.06
642.528	202.06
642.733	199.06
642.939	201.06
643.144	195.06
643.349	190.06
643.554	206.06
643.759	182.06
643.964	173.06
644.169	182.06
644.374	190.06
644.579	216.06
644.784	199.06
644.989	205.06
645.194	187.06
645.399	197.06
645.604	184.06
645.809	196.06
646.014	185.06
646.219	199.06
646.423	193.06
646.628	203.06
646.833	201.06
647.038	179.06
647.243	200.06
647.447	196.06
647.652	198.06
647.857	204.06
648.062	202.06
648.266	202.06
648.471	188.06
648.676	190.06
648.88	204.06
649.085	218.06
649.289	205.06
649.494	202.06
649.698	208.06
649.903	202.06
650.107	202.06
650.312	178.06
650.516	191.06
650.721	178.06
650.925	182.06
651.13	175.06
651.334	178.06
651.539	162.06
651.743	178.06
651.947	175.06
652.152	175.06
652.356	158.06
652.56	164.06
652.764	180.06
652.969	162.06
653.173	156.06
653.377	152.06
653.581	161.06
653.785	154.06
653.99	164.06
654.194	164.06
654.398	175.06
654.602	150.06
654.806	151.06
655.01	145.06
655.214	147.06
655.418	140.06
655.622	154.06
655.826	169.06
656.03	152.06
656.234	157.06
656.438	163.06
656.642	164.06
656.846	161.06
657.049	147.06
657.253	152.06
657.457	122.06
657.661	137.06
657.865	128.06
658.068	123.06
658.272	111.06
658.476	116.06
658.68	114.06
658.883	95.06
659.087	98.06
659.291	105.06
659.494	91.06
659.698	98.06
659.901	95.06
660.105	102.06
660.309	92.06
660.512	117.06
660.716	93.06
660.919	94.06
661.123	105.06
661.326	97.06
661.53	96.06
661.733	98.06
661.936	81.06
662.14	94.06
662.343	86.06
662.546	87.06
662.75	88.06
662.953	106.06
663.156	93.06
663.36	81.06
663.563	87.06
663.766	84.06
663.969	83.06
664.173	83.06
664.376	92.06
664.579	89.06
664.782	73.06
664.985	78.06
665.188	84.06
665.391	90.06
665.594	86.06
665.797	90.06
666	78.06
666.203	86.06
666.406	94.06
666.609	74.06
666.812	84.06
667.015	79.06
667.218	88.06
667.421	79.06
667.624	74.06
667.827	67.06
668.03	73.06
668.232	92.06
668.435	75.06
668.638	86.06
668.841	101.06
669.043	79.06
669.246	81.06
669.449	84.06
669.651	88.06
669.854	80.06
670.057	92.06
670.259	97.06
670.462	85.06
670.665	87.06
670.867	79.06
671.07	68.06
671.272	87.06
671.475	81.06
671.677	90.06
671.88	97.06
672.082	82.06
672.284	78.06
672.487	102.06
672.689	70.06
672.892	81.06
