Data from 1963.PennyLincolnUp.Lamp.En5.5.200Scan.071719.P1._HRD10591_13-58-24-064.txt Node
Date: Thu Jul 18 13:58:24 EDT 2019
User: cochatt
Spectrometer: HR+D1059
Trigger mode: 1
Integration Time (sec): 1.000000E-1
Scans to average: 1
Electric dark correction enabled: true
Nonlinearity correction enabled: false
Boxcar width: 0
XAxis mode: Wavelengths
Number of Pixels in Spectrum: 2048
>>>>>Begin Spectral Data<<<<<
223.165	-22.12
223.4	-22.12
223.635	-22.12
223.869	-22.12
224.104	-16.12
224.338	-16.12
224.573	-15.12
224.808	-7.12
225.042	-8.12
225.277	0.88
225.511	2.88
225.746	10.88
225.98	-3.12
226.215	4.88
226.449	31.88
226.683	17.88
226.918	10.88
227.152	29.88
227.387	30.88
227.621	34.88
227.856	42.88
228.09	46.88
228.324	49.88
228.559	54.88
228.793	66.88
229.027	73.88
229.262	117.88
229.496	99.88
229.73	112.88
229.964	128.88
230.199	136.88
230.433	121.88
230.667	111.88
230.901	119.88
231.136	111.88
231.37	104.88
231.604	111.88
231.838	108.88
232.072	115.88
232.306	119.88
232.541	110.88
232.775	120.88
233.009	117.88
233.243	123.88
233.477	123.88
233.711	103.88
233.945	110.88
234.179	118.88
234.413	135.88
234.647	121.88
234.881	122.88
235.115	125.88
235.349	134.88
235.583	123.88
235.817	128.88
236.051	138.88
236.285	119.88
236.519	115.88
236.753	124.88
236.987	144.88
237.221	152.88
237.455	179.88
237.689	152.88
237.922	122.88
238.156	130.88
238.39	133.88
238.624	134.88
238.858	122.88
239.091	128.88
239.325	128.88
239.559	135.88
239.793	130.88
240.027	127.88
240.26	138.88
240.494	146.88
240.728	145.88
240.961	147.88
241.195	152.88
241.429	151.88
241.662	150.88
241.896	137.88
242.13	150.88
242.363	154.88
242.597	142.88
242.83	132.88
243.064	145.88
243.298	134.88
243.531	151.88
243.765	153.88
243.998	156.88
244.232	139.88
244.465	165.88
244.699	151.88
244.932	153.88
245.166	178.88
245.399	144.88
245.633	141.88
245.866	157.88
246.099	175.88
246.333	162.88
246.566	163.88
246.8	170.88
247.033	171.88
247.266	166.88
247.5	155.88
247.733	171.88
247.966	178.88
248.2	172.88
248.433	167.88
248.666	191.88
248.899	192.88
249.133	185.88
249.366	194.88
249.599	192.88
249.832	183.88
250.066	203.88
250.299	191.88
250.532	199.88
250.765	215.88
250.998	209.88
251.231	219.88
251.465	222.88
251.698	218.88
251.931	218.88
252.164	187.88
252.397	222.88
252.63	197.88
252.863	213.88
253.096	215.88
253.329	217.88
253.562	226.88
253.795	217.88
254.028	227.88
254.261	209.88
254.494	228.88
254.727	237.88
254.96	275.88
255.193	250.88
255.426	245.88
255.659	242.88
255.892	223.88
256.124	231.88
256.357	235.88
256.59	209.88
256.823	230.88
257.056	229.88
257.289	221.88
257.521	215.88
257.754	225.88
257.987	229.88
258.22	223.88
258.452	215.88
258.685	225.88
258.918	225.88
259.151	233.88
259.383	227.88
259.616	227.88
259.849	236.88
260.081	245.88
260.314	271.88
260.547	255.88
260.779	259.88
261.012	224.88
261.244	245.88
261.477	233.88
261.71	222.88
261.942	247.88
262.175	245.88
262.407	250.88
262.64	255.88
262.872	235.88
263.105	234.88
263.337	256.88
263.57	232.88
263.802	231.88
264.035	227.88
264.267	235.88
264.499	238.88
264.732	242.88
264.964	245.88
265.197	242.88
265.429	252.88
265.661	249.88
265.894	238.88
266.126	241.88
266.358	235.88
266.591	240.88
266.823	239.88
267.055	236.88
267.287	264.88
267.52	255.88
267.752	264.88
267.984	243.88
268.216	258.88
268.448	260.88
268.681	260.88
268.913	258.88
269.145	271.88
269.377	274.88
269.609	284.88
269.841	277.88
270.073	285.88
270.306	290.88
270.538	310.88
270.77	301.88
271.002	310.88
271.234	290.88
271.466	307.88
271.698	302.88
271.93	322.88
272.162	316.88
272.394	322.88
272.626	319.88
272.858	310.88
273.09	302.88
273.322	289.88
273.553	289.88
273.785	266.88
274.017	297.88
274.249	297.88
274.481	288.88
274.713	288.88
274.945	281.88
275.176	283.88
275.408	290.88
275.64	292.88
275.872	279.88
276.104	306.88
276.335	290.88
276.567	287.88
276.799	312.88
277.031	338.88
277.262	329.88
277.494	331.88
277.726	298.88
277.957	309.88
278.189	305.88
278.421	273.88
278.652	309.88
278.884	294.88
279.115	302.88
279.347	317.88
279.579	285.88
279.81	298.88
280.042	302.88
280.273	291.88
280.505	328.88
280.736	288.88
280.968	318.88
281.199	321.88
281.431	302.88
281.662	307.88
281.894	308.88
282.125	319.88
282.356	316.88
282.588	356.88
282.819	338.88
283.051	331.88
283.282	322.88
283.513	322.88
283.745	302.88
283.976	314.88
284.207	321.88
284.439	331.88
284.67	318.88
284.901	320.88
285.132	342.88
285.364	335.88
285.595	332.88
285.826	321.88
286.057	336.88
286.288	328.88
286.52	335.88
286.751	335.88
286.982	342.88
287.213	342.88
287.444	331.88
287.675	347.88
287.906	347.88
288.138	360.88
288.369	361.88
288.6	343.88
288.831	354.88
289.062	369.88
289.293	336.88
289.524	352.88
289.755	343.88
289.986	346.88
290.217	355.88
290.448	338.88
290.679	355.88
290.91	351.88
291.141	359.88
291.371	338.88
291.602	336.88
291.833	335.88
292.064	357.88
292.295	362.88
292.526	361.88
292.757	346.88
292.987	350.88
293.218	363.88
293.449	363.88
293.68	353.88
293.91	332.88
294.141	348.88
294.372	357.88
294.603	347.88
294.833	357.88
295.064	351.88
295.295	361.88
295.525	350.88
295.756	350.88
295.987	360.88
296.217	358.88
296.448	388.88
296.679	364.88
296.909	370.88
297.14	379.88
297.37	388.88
297.601	366.88
297.831	393.88
298.062	386.88
298.292	370.88
298.523	375.88
298.753	371.88
298.984	386.88
299.214	376.88
299.445	375.88
299.675	382.88
299.905	393.88
300.136	375.88
300.366	378.88
300.597	388.88
300.827	387.88
301.057	393.88
301.288	392.88
301.518	405.88
301.748	388.88
301.979	403.88
302.209	399.88
302.439	368.88
302.669	404.88
302.9	404.88
303.13	407.88
303.36	394.88
303.59	377.88
303.82	416.88
304.051	418.88
304.281	380.88
304.511	391.88
304.741	406.88
304.971	377.88
305.201	386.88
305.431	408.88
305.661	391.88
305.891	388.88
306.121	402.88
306.352	418.88
306.582	381.88
306.812	384.88
307.042	391.88
307.272	408.88
307.502	396.88
307.731	398.88
307.961	415.88
308.191	394.88
308.421	424.88
308.651	384.88
308.881	401.88
309.111	402.88
309.341	404.88
309.571	405.88
309.8	388.88
310.03	388.88
310.26	412.88
310.49	412.88
310.72	433.88
310.949	409.88
311.179	436.88
311.409	433.88
311.639	439.88
311.868	432.88
312.098	437.88
312.328	453.88
312.557	450.88
312.787	449.88
313.017	458.88
313.246	439.88
313.476	423.88
313.706	424.88
313.935	435.88
314.165	443.88
314.394	449.88
314.624	456.88
314.853	453.88
315.083	428.88
315.312	452.88
315.542	429.88
315.771	440.88
316.001	432.88
316.23	445.88
316.46	437.88
316.689	432.88
316.919	437.88
317.148	451.88
317.377	449.88
317.607	439.88
317.836	453.88
318.065	449.88
318.295	444.88
318.524	427.88
318.753	454.88
318.983	427.88
319.212	440.88
319.441	458.88
319.67	433.88
319.9	460.88
320.129	441.88
320.358	428.88
320.587	439.88
320.816	452.88
321.046	432.88
321.275	441.88
321.504	435.88
321.733	450.88
321.962	439.88
322.191	478.88
322.42	478.88
322.649	468.88
322.878	474.88
323.108	458.88
323.337	479.88
323.566	495.88
323.795	486.88
324.024	539.88
324.253	577.88
324.482	739.88
324.71	1058.88
324.939	1457.88
325.168	1325.88
325.397	758.88
325.626	571.88
325.855	528.88
326.084	492.88
326.313	508.88
326.542	534.88
326.77	542.88
326.999	599.88
327.228	709.88
327.457	993.88
327.686	1179.88
327.914	842.88
328.143	636.88
328.372	563.88
328.6	568.88
328.829	530.88
329.058	552.88
329.287	560.88
329.515	547.88
329.744	515.88
329.972	529.88
330.201	539.88
330.43	563.88
330.658	592.88
330.887	587.88
331.115	581.88
331.344	551.88
331.572	525.88
331.801	532.88
332.03	529.88
332.258	546.88
332.486	553.88
332.715	534.88
332.943	571.88
333.172	568.88
333.4	584.88
333.629	608.88
333.857	631.88
334.085	611.88
334.314	630.88
334.542	641.88
334.771	649.88
334.999	581.88
335.227	582.88
335.455	587.88
335.684	580.88
335.912	559.88
336.14	551.88
336.369	560.88
336.597	585.88
336.825	552.88
337.053	512.88
337.281	567.88
337.51	546.88
337.738	555.88
337.966	548.88
338.194	565.88
338.422	522.88
338.65	514.88
338.878	536.88
339.106	526.88
339.334	515.88
339.562	497.88
339.79	514.88
340.018	516.88
340.246	510.88
340.474	511.88
340.702	513.88
340.93	496.88
341.158	509.88
341.386	508.88
341.614	524.88
341.842	515.88
342.07	512.88
342.298	502.88
342.526	504.88
342.754	502.88
342.981	496.88
343.209	494.88
343.437	528.88
343.665	513.88
343.893	548.88
344.12	563.88
344.348	578.88
344.576	537.88
344.804	564.88
345.031	523.88
345.259	553.88
345.487	493.88
345.714	504.88
345.942	506.88
346.17	482.88
346.397	475.88
346.625	507.88
346.853	482.88
347.08	482.88
347.308	483.88
347.535	487.88
347.763	487.88
347.99	503.88
348.218	487.88
348.445	477.88
348.673	497.88
348.9	492.88
349.128	510.88
349.355	480.88
349.583	480.88
349.81	480.88
350.037	457.88
350.265	488.88
350.492	487.88
350.72	454.88
350.947	484.88
351.174	484.88
351.402	477.88
351.629	485.88
351.856	502.88
352.083	497.88
352.311	485.88
352.538	469.88
352.765	481.88
352.992	484.88
353.22	479.88
353.447	470.88
353.674	499.88
353.901	473.88
354.128	476.88
354.355	471.88
354.583	470.88
354.81	472.88
355.037	467.88
355.264	473.88
355.491	464.88
355.718	460.88
355.945	469.88
356.172	457.88
356.399	479.88
356.626	455.88
356.853	468.88
357.08	457.88
357.307	476.88
357.534	478.88
357.761	457.88
357.988	470.88
358.215	473.88
358.441	479.88
358.668	477.88
358.895	475.88
359.122	485.88
359.349	505.88
359.576	475.88
359.802	487.88
360.029	498.88
360.256	518.88
360.483	497.88
360.709	491.88
360.936	504.88
361.163	490.88
361.39	476.88
361.616	495.88
361.843	473.88
362.07	512.88
362.296	499.88
362.523	488.88
362.749	474.88
362.976	480.88
363.203	496.88
363.429	496.88
363.656	493.88
363.882	487.88
364.109	466.88
364.335	481.88
364.562	464.88
364.788	476.88
365.015	483.88
365.241	479.88
365.468	466.88
365.694	498.88
365.92	469.88
366.147	476.88
366.373	464.88
366.599	480.88
366.826	465.88
367.052	459.88
367.278	472.88
367.505	498.88
367.731	466.88
367.957	464.88
368.184	462.88
368.41	485.88
368.636	506.88
368.862	480.88
369.089	474.88
369.315	491.88
369.541	489.88
369.767	472.88
369.993	484.88
370.219	491.88
370.445	493.88
370.672	480.88
370.898	488.88
371.124	498.88
371.35	494.88
371.576	497.88
371.802	498.88
372.028	517.88
372.254	521.88
372.48	500.88
372.706	501.88
372.932	512.88
373.158	525.88
373.384	516.88
373.61	498.88
373.835	527.88
374.061	486.88
374.287	487.88
374.513	496.88
374.739	518.88
374.965	514.88
375.191	530.88
375.416	519.88
375.642	519.88
375.868	508.88
376.094	499.88
376.319	504.88
376.545	525.88
376.771	518.88
376.997	495.88
377.222	523.88
377.448	496.88
377.674	507.88
377.899	509.88
378.125	522.88
378.35	503.88
378.576	492.88
378.802	499.88
379.027	500.88
379.253	482.88
379.478	487.88
379.704	486.88
379.929	506.88
380.155	498.88
380.38	497.88
380.606	511.88
380.831	516.88
381.057	528.88
381.282	500.88
381.507	494.88
381.733	521.88
381.958	515.88
382.184	483.88
382.409	521.88
382.634	514.88
382.86	527.88
383.085	499.88
383.31	524.88
383.535	530.88
383.761	542.88
383.986	556.88
384.211	552.88
384.436	547.88
384.662	558.88
384.887	543.88
385.112	583.88
385.337	582.88
385.562	580.88
385.787	569.88
386.013	595.88
386.238	586.88
386.463	574.88
386.688	581.88
386.913	566.88
387.138	576.88
387.363	574.88
387.588	552.88
387.813	564.88
388.038	571.88
388.263	549.88
388.488	576.88
388.713	550.88
388.938	586.88
389.163	559.88
389.387	557.88
389.612	591.88
389.837	563.88
390.062	582.88
390.287	571.88
390.512	564.88
390.736	551.88
390.961	567.88
391.186	578.88
391.411	600.88
391.636	599.88
391.86	628.88
392.085	630.88
392.31	601.88
392.534	613.88
392.759	610.88
392.984	593.88
393.208	608.88
393.433	579.88
393.658	589.88
393.882	589.88
394.107	598.88
394.331	609.88
394.556	597.88
394.78	629.88
395.005	626.88
395.229	598.88
395.454	623.88
395.678	626.88
395.903	640.88
396.127	650.88
396.352	637.88
396.576	598.88
396.801	597.88
397.025	625.88
397.249	634.88
397.474	626.88
397.698	643.88
397.922	674.88
398.147	640.88
398.371	667.88
398.595	669.88
398.82	680.88
399.044	710.88
399.268	753.88
399.492	847.88
399.717	926.88
399.941	943.88
400.165	912.88
400.389	853.88
400.613	791.88
400.837	744.88
401.062	714.88
401.286	702.88
401.51	675.88
401.734	692.88
401.958	680.88
402.182	712.88
402.406	701.88
402.63	726.88
402.854	721.88
403.078	731.88
403.302	739.88
403.526	730.88
403.75	753.88
403.974	766.88
404.198	718.88
404.422	741.88
404.645	763.88
404.869	747.88
405.093	777.88
405.317	784.88
405.541	835.88
405.765	771.88
405.988	747.88
406.212	760.88
406.436	782.88
406.66	791.88
406.883	786.88
407.107	820.88
407.331	853.88
407.555	921.88
407.778	924.88
408.002	862.88
408.226	830.88
408.449	801.88
408.673	773.88
408.896	787.88
409.12	821.88
409.344	814.88
409.567	746.88
409.791	737.88
410.014	762.88
410.238	732.88
410.461	709.88
410.685	742.88
410.908	722.88
411.132	759.88
411.355	746.88
411.578	737.88
411.802	707.88
412.025	723.88
412.249	730.88
412.472	750.88
412.695	767.88
412.919	728.88
413.142	726.88
413.365	705.88
413.589	706.88
413.812	696.88
414.035	688.88
414.258	693.88
414.482	707.88
414.705	708.88
414.928	682.88
415.151	688.88
415.374	681.88
415.597	666.88
415.821	652.88
416.044	673.88
416.267	680.88
416.49	671.88
416.713	668.88
416.936	666.88
417.159	691.88
417.382	657.88
417.605	670.88
417.828	670.88
418.051	700.88
418.274	675.88
418.497	668.88
418.72	668.88
418.943	660.88
419.166	700.88
419.389	748.88
419.611	754.88
419.834	740.88
420.057	690.88
420.28	690.88
420.503	667.88
420.726	684.88
420.948	708.88
421.171	714.88
421.394	752.88
421.617	704.88
421.839	690.88
422.062	710.88
422.285	688.88
422.507	736.88
422.73	800.88
422.953	790.88
423.175	746.88
423.398	720.88
423.621	730.88
423.843	765.88
424.066	745.88
424.288	739.88
424.511	729.88
424.733	762.88
424.956	834.88
425.178	810.88
425.401	772.88
425.623	834.88
425.846	739.88
426.068	731.88
426.291	696.88
426.513	693.88
426.735	680.88
426.958	724.88
427.18	760.88
427.402	890.88
427.625	922.88
427.847	828.88
428.069	764.88
428.292	700.88
428.514	672.88
428.736	645.88
428.958	646.88
429.181	649.88
429.403	644.88
429.625	655.88
429.847	650.88
430.069	683.88
430.292	713.88
430.514	644.88
430.736	626.88
430.958	646.88
431.18	618.88
431.402	615.88
431.624	629.88
431.846	646.88
432.068	629.88
432.29	641.88
432.512	607.88
432.734	664.88
432.956	648.88
433.178	625.88
433.4	636.88
433.622	658.88
433.844	634.88
434.066	652.88
434.287	623.88
434.509	648.88
434.731	667.88
434.953	676.88
435.175	712.88
435.397	693.88
435.618	700.88
435.84	712.88
436.062	793.88
436.284	824.88
436.505	700.88
436.727	688.88
436.949	664.88
437.17	653.88
437.392	634.88
437.614	616.88
437.835	650.88
438.057	707.88
438.278	804.88
438.5	771.88
438.721	858.88
438.943	823.88
439.165	720.88
439.386	656.88
439.608	680.88
439.829	672.88
440.05	711.88
440.272	696.88
440.493	691.88
440.715	670.88
440.936	660.88
441.158	675.88
441.379	674.88
441.6	708.88
441.822	712.88
442.043	742.88
442.264	792.88
442.486	813.88
442.707	767.88
442.928	711.88
443.149	721.88
443.371	725.88
443.592	760.88
443.813	806.88
444.034	900.88
444.255	776.88
444.476	764.88
444.698	768.88
444.919	790.88
445.14	893.88
445.361	791.88
445.582	766.88
445.803	778.88
446.024	810.88
446.245	822.88
446.466	753.88
446.687	693.88
446.908	662.88
447.129	640.88
447.35	608.88
447.571	625.88
447.792	625.88
448.013	623.88
448.234	644.88
448.455	654.88
448.675	746.88
448.896	831.88
449.117	726.88
449.338	705.88
449.559	775.88
449.779	856.88
450	717.88
450.221	635.88
450.442	597.88
450.662	612.88
450.883	606.88
451.104	604.88
451.324	606.88
451.545	601.88
451.766	587.88
451.986	577.88
452.207	560.88
452.428	580.88
452.648	566.88
452.869	574.88
453.089	591.88
453.31	574.88
453.53	581.88
453.751	556.88
453.971	578.88
454.192	570.88
454.412	564.88
454.633	553.88
454.853	572.88
455.073	567.88
455.294	572.88
455.514	602.88
455.734	616.88
455.955	564.88
456.175	555.88
456.395	543.88
456.616	549.88
456.836	518.88
457.056	538.88
457.276	529.88
457.497	554.88
457.717	562.88
457.937	542.88
458.157	574.88
458.377	564.88
458.598	591.88
458.818	623.88
459.038	666.88
459.258	711.88
459.478	659.88
459.698	656.88
459.918	619.88
460.138	688.88
460.358	688.88
460.578	721.88
460.798	661.88
461.018	694.88
461.238	690.88
461.458	686.88
461.678	690.88
461.898	665.88
462.118	678.88
462.338	713.88
462.558	734.88
462.777	773.88
462.997	786.88
463.217	833.88
463.437	860.88
463.657	780.88
463.876	781.88
464.096	794.88
464.316	789.88
464.536	783.88
464.755	757.88
464.975	730.88
465.195	743.88
465.414	767.88
465.634	717.88
465.854	668.88
466.073	647.88
466.293	628.88
466.512	610.88
466.732	613.88
466.951	614.88
467.171	584.88
467.391	614.88
467.61	589.88
467.829	622.88
468.049	609.88
468.268	618.88
468.488	621.88
468.707	590.88
468.927	585.88
469.146	587.88
469.365	603.88
469.585	587.88
469.804	595.88
470.023	626.88
470.243	618.88
470.462	622.88
470.681	624.88
470.901	634.88
471.12	630.88
471.339	615.88
471.558	596.88
471.777	614.88
471.997	592.88
472.216	606.88
472.435	640.88
472.654	618.88
472.873	598.88
473.092	595.88
473.311	619.88
473.53	608.88
473.749	602.88
473.968	646.88
474.187	681.88
474.406	682.88
474.625	633.88
474.844	586.88
475.063	595.88
475.282	597.88
475.501	597.88
475.72	619.88
475.939	600.88
476.158	606.88
476.377	588.88
476.596	629.88
476.814	644.88
477.033	629.88
477.252	634.88
477.471	664.88
477.69	647.88
477.908	658.88
478.127	677.88
478.346	704.88
478.564	707.88
478.783	726.88
479.002	709.88
479.22	747.88
479.439	715.88
479.658	738.88
479.876	727.88
480.095	738.88
480.313	776.88
480.532	770.88
480.751	778.88
480.969	790.88
481.188	806.88
481.406	810.88
481.624	744.88
481.843	759.88
482.061	710.88
482.28	705.88
482.498	690.88
482.717	692.88
482.935	695.88
483.153	688.88
483.372	675.88
483.59	696.88
483.808	690.88
484.027	692.88
484.245	714.88
484.463	690.88
484.681	719.88
484.9	727.88
485.118	727.88
485.336	712.88
485.554	734.88
485.772	715.88
485.99	715.88
486.209	722.88
486.427	728.88
486.645	745.88
486.863	746.88
487.081	743.88
487.299	740.88
487.517	742.88
487.735	718.88
487.953	731.88
488.171	743.88
488.389	722.88
488.607	747.88
488.825	741.88
489.043	736.88
489.261	728.88
489.479	734.88
489.696	743.88
489.914	771.88
490.132	737.88
490.35	760.88
490.568	789.88
490.786	766.88
491.003	784.88
491.221	762.88
491.439	809.88
491.657	789.88
491.874	816.88
492.092	826.88
492.31	799.88
492.527	824.88
492.745	811.88
492.963	833.88
493.18	834.88
493.398	861.88
493.615	838.88
493.833	848.88
494.05	880.88
494.268	867.88
494.485	852.88
494.703	860.88
494.92	835.88
495.138	878.88
495.355	858.88
495.573	850.88
495.79	857.88
496.008	871.88
496.225	868.88
496.442	880.88
496.66	891.88
496.877	873.88
497.094	905.88
497.312	908.88
497.529	938.88
497.746	925.88
497.963	945.88
498.181	958.88
498.398	995.88
498.615	1057.88
498.832	1097.88
499.049	1156.88
499.267	1190.88
499.484	1265.88
499.701	1378.88
499.918	1464.88
500.135	1594.88
500.352	1690.88
500.569	1771.88
500.786	1745.88
501.003	1682.88
501.22	1569.88
501.437	1449.88
501.654	1398.88
501.871	1310.88
502.088	1160.88
502.305	1143.88
502.522	1097.88
502.739	1090.88
502.956	1012.88
503.172	996.88
503.389	948.88
503.606	944.88
503.823	948.88
504.04	936.88
504.256	907.88
504.473	938.88
504.69	953.88
504.907	930.88
505.123	872.88
505.34	882.88
505.557	866.88
505.773	802.88
505.99	820.88
506.207	802.88
506.423	806.88
506.64	799.88
506.856	799.88
507.073	797.88
507.289	792.88
507.506	768.88
507.722	779.88
507.939	767.88
508.155	737.88
508.372	752.88
508.588	741.88
508.805	759.88
509.021	734.88
509.238	763.88
509.454	752.88
509.67	754.88
509.887	745.88
510.103	737.88
510.319	752.88
510.536	802.88
510.752	1070.88
510.968	962.88
511.184	754.88
511.401	743.88
511.617	734.88
511.833	694.88
512.049	699.88
512.265	689.88
512.481	688.88
512.698	708.88
512.914	698.88
513.13	695.88
513.346	695.88
513.562	689.88
513.778	699.88
513.994	723.88
514.21	710.88
514.426	732.88
514.642	746.88
514.858	743.88
515.074	768.88
515.29	840.88
515.506	1116.88
515.721	999.88
515.937	784.88
516.153	785.88
516.369	773.88
516.585	794.88
516.801	771.88
517.016	795.88
517.232	793.88
517.448	849.88
517.664	857.88
517.879	870.88
518.095	879.88
518.311	862.88
518.527	834.88
518.742	833.88
518.958	779.88
519.173	778.88
519.389	764.88
519.605	751.88
519.82	756.88
520.036	752.88
520.251	726.88
520.467	753.88
520.682	728.88
520.898	720.88
521.113	736.88
521.329	758.88
521.544	774.88
521.76	875.88
521.975	1234.88
522.19	1306.88
522.406	822.88
522.621	735.88
522.836	672.88
523.052	667.88
523.267	658.88
523.482	645.88
523.698	654.88
523.913	652.88
524.128	640.88
524.343	628.88
524.559	647.88
524.774	625.88
524.989	625.88
525.204	629.88
525.419	617.88
525.634	616.88
525.849	613.88
526.064	594.88
526.28	623.88
526.495	618.88
526.71	611.88
526.925	610.88
527.14	638.88
527.355	616.88
527.57	591.88
527.785	607.88
527.999	599.88
528.214	598.88
528.429	607.88
528.644	616.88
528.859	614.88
529.074	610.88
529.289	609.88
529.503	664.88
529.718	635.88
529.933	632.88
530.148	593.88
530.363	615.88
530.577	591.88
530.792	602.88
531.007	616.88
531.221	606.88
531.436	605.88
531.651	601.88
531.865	602.88
532.08	603.88
532.295	603.88
532.509	599.88
532.724	588.88
532.938	595.88
533.153	592.88
533.367	583.88
533.582	596.88
533.796	578.88
534.011	619.88
534.225	560.88
534.44	592.88
534.654	579.88
534.868	588.88
535.083	603.88
535.297	577.88
535.511	582.88
535.726	598.88
535.94	583.88
536.154	593.88
536.369	578.88
536.583	564.88
536.797	546.88
537.011	576.88
537.225	554.88
537.44	567.88
537.654	566.88
537.868	568.88
538.082	561.88
538.296	570.88
538.51	562.88
538.724	565.88
538.938	552.88
539.153	549.88
539.367	567.88
539.581	563.88
539.795	549.88
540.009	575.88
540.222	580.88
540.436	556.88
540.65	550.88
540.864	555.88
541.078	559.88
541.292	586.88
541.506	545.88
541.72	533.88
541.934	544.88
542.147	566.88
542.361	549.88
542.575	536.88
542.789	542.88
543.002	551.88
543.216	556.88
543.43	546.88
543.644	536.88
543.857	555.88
544.071	547.88
544.285	566.88
544.498	540.88
544.712	543.88
544.925	577.88
545.139	548.88
545.352	570.88
545.566	562.88
545.779	565.88
545.993	550.88
546.206	566.88
546.42	574.88
546.633	550.88
546.847	549.88
547.06	556.88
547.274	542.88
547.487	549.88
547.7	524.88
547.914	552.88
548.127	564.88
548.34	572.88
548.554	554.88
548.767	551.88
548.98	572.88
549.193	551.88
549.407	570.88
549.62	555.88
549.833	576.88
550.046	538.88
550.259	543.88
550.473	558.88
550.686	522.88
550.899	534.88
551.112	536.88
551.325	542.88
551.538	552.88
551.751	558.88
551.964	570.88
552.177	558.88
552.39	564.88
552.603	580.88
552.816	592.88
553.029	596.88
553.242	605.88
553.455	608.88
553.667	605.88
553.88	616.88
554.093	595.88
554.306	580.88
554.519	589.88
554.732	564.88
554.944	540.88
555.157	549.88
555.37	539.88
555.583	530.88
555.795	512.88
556.008	516.88
556.221	510.88
556.433	516.88
556.646	500.88
556.859	492.88
557.071	497.88
557.284	494.88
557.496	480.88
557.709	476.88
557.921	506.88
558.134	475.88
558.346	481.88
558.559	488.88
558.771	488.88
558.984	455.88
559.196	492.88
559.409	492.88
559.621	491.88
559.833	471.88
560.046	463.88
560.258	478.88
560.47	481.88
560.683	483.88
560.895	482.88
561.107	496.88
561.32	473.88
561.532	485.88
561.744	473.88
561.956	482.88
562.168	481.88
562.381	473.88
562.593	478.88
562.805	511.88
563.017	489.88
563.229	512.88
563.441	506.88
563.653	489.88
563.865	496.88
564.077	499.88
564.289	521.88
564.501	530.88
564.713	498.88
564.925	519.88
565.137	533.88
565.349	528.88
565.561	568.88
565.773	564.88
565.985	571.88
566.197	595.88
566.408	642.88
566.62	680.88
566.832	712.88
567.044	750.88
567.255	732.88
567.467	745.88
567.679	773.88
567.891	793.88
568.102	817.88
568.314	791.88
568.526	724.88
568.737	691.88
568.949	637.88
569.161	597.88
569.372	577.88
569.584	560.88
569.795	535.88
570.007	551.88
570.218	547.88
570.43	537.88
570.641	499.88
570.853	512.88
571.064	515.88
571.276	506.88
571.487	506.88
571.698	485.88
571.91	467.88
572.121	479.88
572.333	471.88
572.544	458.88
572.755	446.88
572.966	423.88
573.178	436.88
573.389	438.88
573.6	424.88
573.811	425.88
574.023	410.88
574.234	417.88
574.445	423.88
574.656	404.88
574.867	417.88
575.078	409.88
575.289	422.88
575.501	411.88
575.712	412.88
575.923	405.88
576.134	403.88
576.345	394.88
576.556	396.88
576.767	404.88
576.978	394.88
577.188	390.88
577.399	396.88
577.61	394.88
577.821	401.88
578.032	402.88
578.243	400.88
578.454	556.88
578.665	464.88
578.875	386.88
579.086	380.88
579.297	387.88
579.508	402.88
579.718	388.88
579.929	394.88
580.14	376.88
580.35	384.88
580.561	367.88
580.772	370.88
580.982	370.88
581.193	380.88
581.403	381.88
581.614	363.88
581.825	382.88
582.035	362.88
582.246	382.88
582.456	352.88
582.667	362.88
582.877	362.88
583.087	360.88
583.298	358.88
583.508	369.88
583.719	391.88
583.929	342.88
584.139	359.88
584.35	339.88
584.56	380.88
584.77	380.88
584.981	372.88
585.191	368.88
585.401	361.88
585.611	343.88
585.821	358.88
586.032	382.88
586.242	350.88
586.452	366.88
586.662	354.88
586.872	377.88
587.082	376.88
587.292	373.88
587.502	368.88
587.713	340.88
587.923	358.88
588.133	375.88
588.343	362.88
588.553	359.88
588.762	350.88
588.972	368.88
589.182	352.88
589.392	380.88
589.602	357.88
589.812	375.88
590.022	355.88
590.232	368.88
590.441	371.88
590.651	379.88
590.861	356.88
591.071	372.88
591.281	371.88
591.49	395.88
591.7	396.88
591.91	384.88
592.119	385.88
592.329	384.88
592.539	406.88
592.748	417.88
592.958	407.88
593.167	431.88
593.377	438.88
593.587	424.88
593.796	416.88
594.006	450.88
594.215	442.88
594.424	448.88
594.634	428.88
594.843	419.88
595.053	382.88
595.262	398.88
595.472	392.88
595.681	391.88
595.89	388.88
596.1	361.88
596.309	362.88
596.518	373.88
596.727	360.88
596.937	354.88
597.146	335.88
597.355	332.88
597.564	346.88
597.774	337.88
597.983	318.88
598.192	312.88
598.401	314.88
598.61	324.88
598.819	327.88
599.028	323.88
599.237	314.88
599.446	321.88
599.655	331.88
599.864	336.88
600.073	319.88
600.282	323.88
600.491	325.88
600.7	325.88
600.909	306.88
601.118	298.88
601.327	302.88
601.536	308.88
601.745	319.88
601.953	310.88
602.162	301.88
602.371	273.88
602.58	315.88
602.789	312.88
602.997	306.88
603.206	324.88
603.415	280.88
603.623	290.88
603.832	315.88
604.041	299.88
604.249	318.88
604.458	288.88
604.666	284.88
604.875	299.88
605.084	296.88
605.292	295.88
605.501	308.88
605.709	290.88
605.918	300.88
606.126	290.88
606.334	282.88
606.543	283.88
606.751	295.88
606.96	311.88
607.168	293.88
607.376	292.88
607.585	290.88
607.793	282.88
608.001	275.88
608.21	298.88
608.418	285.88
608.626	307.88
608.834	286.88
609.043	259.88
609.251	282.88
609.459	266.88
609.667	306.88
609.875	285.88
610.083	288.88
610.291	291.88
610.499	289.88
610.707	268.88
610.916	283.88
611.124	302.88
611.332	283.88
611.54	296.88
611.748	294.88
611.955	290.88
612.163	292.88
612.371	289.88
612.579	281.88
612.787	274.88
612.995	276.88
613.203	280.88
613.411	268.88
613.618	273.88
613.826	256.88
614.034	272.88
614.242	283.88
614.449	263.88
614.657	260.88
614.865	254.88
615.072	287.88
615.28	296.88
615.488	279.88
615.695	272.88
615.903	278.88
616.111	272.88
616.318	296.88
616.526	274.88
616.733	289.88
616.941	287.88
617.148	304.88
617.356	300.88
617.563	294.88
617.771	271.88
617.978	269.88
618.185	280.88
618.393	269.88
618.6	278.88
618.807	275.88
619.015	271.88
619.222	293.88
619.429	286.88
619.637	290.88
619.844	284.88
620.051	274.88
620.258	271.88
620.466	269.88
620.673	272.88
620.88	267.88
621.087	275.88
621.294	268.88
621.501	250.88
621.708	279.88
621.915	266.88
622.122	264.88
622.329	270.88
622.536	264.88
622.743	252.88
622.95	252.88
623.157	263.88
623.364	246.88
623.571	255.88
623.778	250.88
623.985	242.88
624.192	264.88
624.399	256.88
624.606	244.88
624.812	248.88
625.019	246.88
625.226	251.88
625.433	247.88
625.639	243.88
625.846	254.88
626.053	239.88
626.259	239.88
626.466	261.88
626.673	243.88
626.879	243.88
627.086	238.88
627.293	232.88
627.499	231.88
627.706	223.88
627.912	241.88
628.119	245.88
628.325	232.88
628.532	219.88
628.738	245.88
628.945	226.88
629.151	228.88
629.357	251.88
629.564	234.88
629.77	214.88
629.976	219.88
630.183	244.88
630.389	231.88
630.595	219.88
630.802	223.88
631.008	228.88
631.214	223.88
631.42	238.88
631.627	234.88
631.833	226.88
632.039	216.88
632.245	230.88
632.451	220.88
632.657	222.88
632.863	221.88
633.069	223.88
633.275	205.88
633.481	203.88
633.688	213.88
633.893	223.88
634.099	216.88
634.305	203.88
634.511	194.88
634.717	227.88
634.923	230.88
635.129	203.88
635.335	209.88
635.541	208.88
635.747	199.88
635.952	220.88
636.158	204.88
636.364	218.88
636.57	225.88
636.775	222.88
636.981	236.88
637.187	212.88
637.392	201.88
637.598	217.88
637.804	208.88
638.009	210.88
638.215	191.88
638.421	210.88
638.626	215.88
638.832	217.88
639.037	183.88
639.243	183.88
639.448	198.88
639.654	197.88
639.859	188.88
640.065	182.88
640.27	196.88
640.475	193.88
640.681	181.88
640.886	200.88
641.091	200.88
641.297	203.88
641.502	198.88
641.707	191.88
641.913	194.88
642.118	186.88
642.323	206.88
642.528	194.88
642.733	191.88
642.939	210.88
643.144	198.88
643.349	196.88
643.554	194.88
643.759	187.88
643.964	188.88
644.169	195.88
644.374	194.88
644.579	187.88
644.784	185.88
644.989	213.88
645.194	204.88
645.399	202.88
645.604	188.88
645.809	171.88
646.014	198.88
646.219	188.88
646.423	202.88
646.628	198.88
646.833	201.88
647.038	192.88
647.243	175.88
647.447	184.88
647.652	202.88
647.857	221.88
648.062	188.88
648.266	194.88
648.471	207.88
648.676	201.88
648.88	194.88
649.085	191.88
649.289	206.88
649.494	175.88
649.698	204.88
649.903	187.88
650.107	185.88
650.312	195.88
650.516	186.88
650.721	177.88
650.925	185.88
651.13	183.88
651.334	170.88
651.539	166.88
651.743	169.88
651.947	164.88
652.152	171.88
652.356	153.88
652.56	150.88
652.764	157.88
652.969	177.88
653.173	142.88
653.377	148.88
653.581	148.88
653.785	141.88
653.99	158.88
654.194	152.88
654.398	154.88
654.602	156.88
654.806	147.88
655.01	154.88
655.214	158.88
655.418	146.88
655.622	150.88
655.826	148.88
656.03	158.88
656.234	159.88
656.438	160.88
656.642	162.88
656.846	146.88
657.049	146.88
657.253	139.88
657.457	130.88
657.661	129.88
657.865	138.88
658.068	118.88
658.272	115.88
658.476	114.88
658.68	97.88
658.883	104.88
659.087	109.88
659.291	100.88
659.494	99.88
659.698	105.88
659.901	100.88
660.105	104.88
660.309	95.88
660.512	97.88
660.716	103.88
660.919	95.88
661.123	96.88
661.326	66.88
661.53	82.88
661.733	95.88
661.936	103.88
662.14	81.88
662.343	83.88
662.546	95.88
662.75	94.88
662.953	85.88
663.156	90.88
663.36	82.88
663.563	91.88
663.766	67.88
663.969	94.88
664.173	88.88
664.376	84.88
664.579	88.88
664.782	78.88
664.985	84.88
665.188	72.88
665.391	90.88
665.594	76.88
665.797	87.88
666	77.88
666.203	75.88
666.406	74.88
666.609	81.88
666.812	80.88
667.015	69.88
667.218	76.88
667.421	76.88
667.624	86.88
667.827	81.88
668.03	79.88
668.232	76.88
668.435	80.88
668.638	99.88
668.841	83.88
669.043	86.88
669.246	82.88
669.449	74.88
669.651	80.88
669.854	91.88
670.057	89.88
670.259	64.88
670.462	88.88
670.665	70.88
670.867	73.88
671.07	89.88
671.272	78.88
671.475	75.88
671.677	80.88
671.88	90.88
672.082	94.88
672.284	84.88
672.487	84.88
672.689	87.88
672.892	88.88
