Data from 1963.PennyLincolnUp.Lamp.En5.5.200Scan.071719.P1._HRD10591_13-59-39-064.txt Node
Date: Thu Jul 18 13:59:39 EDT 2019
User: cochatt
Spectrometer: HR+D1059
Trigger mode: 1
Integration Time (sec): 1.000000E-1
Scans to average: 1
Electric dark correction enabled: true
Nonlinearity correction enabled: false
Boxcar width: 0
XAxis mode: Wavelengths
Number of Pixels in Spectrum: 2048
>>>>>Begin Spectral Data<<<<<
223.165	-17.94
223.4	-17.94
223.635	-17.94
223.869	-22.94
224.104	-23.94
224.338	-22.94
224.573	-7.94
224.808	5.06
225.042	11.06
225.277	-10.94
225.511	1.06
225.746	0.06
225.98	11.06
226.215	11.06
226.449	6.06
226.683	14.06
226.918	22.06
227.152	25.06
227.387	33.06
227.621	36.06
227.856	28.06
228.09	47.06
228.324	37.06
228.559	49.06
228.793	69.06
229.027	85.06
229.262	105.06
229.496	105.06
229.73	133.06
229.964	159.06
230.199	136.06
230.433	133.06
230.667	120.06
230.901	122.06
231.136	133.06
231.37	108.06
231.604	115.06
231.838	115.06
232.072	123.06
232.306	128.06
232.541	111.06
232.775	121.06
233.009	124.06
233.243	114.06
233.477	129.06
233.711	129.06
233.945	136.06
234.179	141.06
234.413	122.06
234.647	129.06
234.881	133.06
235.115	115.06
235.349	122.06
235.583	123.06
235.817	142.06
236.051	127.06
236.285	129.06
236.519	141.06
236.753	128.06
236.987	139.06
237.221	181.06
237.455	210.06
237.689	170.06
237.922	155.06
238.156	138.06
238.39	157.06
238.624	145.06
238.858	125.06
239.091	137.06
239.325	139.06
239.559	126.06
239.793	148.06
240.027	146.06
240.26	158.06
240.494	158.06
240.728	162.06
240.961	149.06
241.195	150.06
241.429	154.06
241.662	158.06
241.896	161.06
242.13	142.06
242.363	157.06
242.597	153.06
242.83	158.06
243.064	142.06
243.298	180.06
243.531	153.06
243.765	160.06
243.998	153.06
244.232	143.06
244.465	158.06
244.699	173.06
244.932	164.06
245.166	165.06
245.399	163.06
245.633	164.06
245.866	159.06
246.099	166.06
246.333	174.06
246.566	172.06
246.8	162.06
247.033	181.06
247.266	175.06
247.5	173.06
247.733	187.06
247.966	194.06
248.2	198.06
248.433	195.06
248.666	186.06
248.899	190.06
249.133	188.06
249.366	222.06
249.599	207.06
249.832	200.06
250.066	196.06
250.299	200.06
250.532	204.06
250.765	185.06
250.998	234.06
251.231	241.06
251.465	234.06
251.698	213.06
251.931	212.06
252.164	228.06
252.397	215.06
252.63	227.06
252.863	207.06
253.096	221.06
253.329	230.06
253.562	226.06
253.795	244.06
254.028	221.06
254.261	229.06
254.494	246.06
254.727	253.06
254.96	293.06
255.193	293.06
255.426	256.06
255.659	263.06
255.892	259.06
256.124	241.06
256.357	251.06
256.59	243.06
256.823	226.06
257.056	217.06
257.289	228.06
257.521	231.06
257.754	231.06
257.987	224.06
258.22	236.06
258.452	241.06
258.685	237.06
258.918	236.06
259.151	238.06
259.383	243.06
259.616	239.06
259.849	245.06
260.081	278.06
260.314	266.06
260.547	270.06
260.779	266.06
261.012	243.06
261.244	257.06
261.477	235.06
261.71	248.06
261.942	261.06
262.175	241.06
262.407	256.06
262.64	249.06
262.872	234.06
263.105	246.06
263.337	258.06
263.57	253.06
263.802	235.06
264.035	241.06
264.267	234.06
264.499	267.06
264.732	249.06
264.964	244.06
265.197	255.06
265.429	250.06
265.661	234.06
265.894	246.06
266.126	241.06
266.358	251.06
266.591	250.06
266.823	248.06
267.055	245.06
267.287	266.06
267.52	273.06
267.752	268.06
267.984	262.06
268.216	282.06
268.448	261.06
268.681	275.06
268.913	282.06
269.145	309.06
269.377	309.06
269.609	295.06
269.841	287.06
270.073	277.06
270.306	309.06
270.538	334.06
270.77	353.06
271.002	340.06
271.234	331.06
271.466	344.06
271.698	332.06
271.93	323.06
272.162	345.06
272.394	339.06
272.626	326.06
272.858	295.06
273.09	311.06
273.322	296.06
273.553	322.06
273.785	317.06
274.017	293.06
274.249	292.06
274.481	311.06
274.713	311.06
274.945	304.06
275.176	330.06
275.408	321.06
275.64	308.06
275.872	307.06
276.104	306.06
276.335	319.06
276.567	305.06
276.799	327.06
277.031	342.06
277.262	339.06
277.494	341.06
277.726	350.06
277.957	326.06
278.189	309.06
278.421	324.06
278.652	315.06
278.884	323.06
279.115	331.06
279.347	319.06
279.579	314.06
279.81	324.06
280.042	330.06
280.273	325.06
280.505	338.06
280.736	327.06
280.968	324.06
281.199	335.06
281.431	330.06
281.662	305.06
281.894	307.06
282.125	324.06
282.356	338.06
282.588	351.06
282.819	331.06
283.051	328.06
283.282	323.06
283.513	331.06
283.745	335.06
283.976	345.06
284.207	343.06
284.439	342.06
284.67	330.06
284.901	324.06
285.132	351.06
285.364	341.06
285.595	349.06
285.826	343.06
286.057	356.06
286.288	337.06
286.52	351.06
286.751	347.06
286.982	348.06
287.213	354.06
287.444	342.06
287.675	372.06
287.906	375.06
288.138	379.06
288.369	356.06
288.6	349.06
288.831	369.06
289.062	365.06
289.293	369.06
289.524	361.06
289.755	369.06
289.986	364.06
290.217	357.06
290.448	352.06
290.679	342.06
290.91	358.06
291.141	359.06
291.371	350.06
291.602	361.06
291.833	361.06
292.064	347.06
292.295	366.06
292.526	369.06
292.757	343.06
292.987	375.06
293.218	358.06
293.449	377.06
293.68	365.06
293.91	343.06
294.141	355.06
294.372	367.06
294.603	367.06
294.833	357.06
295.064	373.06
295.295	380.06
295.525	352.06
295.756	367.06
295.987	394.06
296.217	407.06
296.448	402.06
296.679	377.06
296.909	377.06
297.14	373.06
297.37	380.06
297.601	383.06
297.831	413.06
298.062	365.06
298.292	375.06
298.523	377.06
298.753	402.06
298.984	381.06
299.214	404.06
299.445	385.06
299.675	390.06
299.905	414.06
300.136	388.06
300.366	397.06
300.597	404.06
300.827	395.06
301.057	425.06
301.288	406.06
301.518	409.06
301.748	431.06
301.979	419.06
302.209	409.06
302.439	436.06
302.669	427.06
302.9	420.06
303.13	422.06
303.36	416.06
303.59	429.06
303.82	429.06
304.051	426.06
304.281	414.06
304.511	407.06
304.741	411.06
304.971	411.06
305.201	417.06
305.431	399.06
305.661	417.06
305.891	399.06
306.121	430.06
306.352	420.06
306.582	412.06
306.812	411.06
307.042	410.06
307.272	422.06
307.502	435.06
307.731	431.06
307.961	431.06
308.191	423.06
308.421	417.06
308.651	399.06
308.881	411.06
309.111	416.06
309.341	421.06
309.571	417.06
309.8	439.06
310.03	423.06
310.26	425.06
310.49	449.06
310.72	462.06
310.949	468.06
311.179	444.06
311.409	443.06
311.639	447.06
311.868	453.06
312.098	446.06
312.328	454.06
312.557	466.06
312.787	495.06
313.017	472.06
313.246	471.06
313.476	435.06
313.706	443.06
313.935	477.06
314.165	465.06
314.394	453.06
314.624	465.06
314.853	478.06
315.083	468.06
315.312	475.06
315.542	467.06
315.771	462.06
316.001	469.06
316.23	471.06
316.46	443.06
316.689	444.06
316.919	469.06
317.148	458.06
317.377	460.06
317.607	452.06
317.836	465.06
318.065	462.06
318.295	469.06
318.524	471.06
318.753	449.06
318.983	444.06
319.212	447.06
319.441	438.06
319.67	474.06
319.9	466.06
320.129	477.06
320.358	481.06
320.587	469.06
320.816	473.06
321.046	459.06
321.275	499.06
321.504	484.06
321.733	496.06
321.962	487.06
322.191	470.06
322.42	504.06
322.649	467.06
322.878	523.06
323.108	501.06
323.337	521.06
323.566	537.06
323.795	542.06
324.024	567.06
324.253	649.06
324.482	819.06
324.71	1211.06
324.939	1710.06
325.168	1569.06
325.397	860.06
325.626	658.06
325.855	557.06
326.084	567.06
326.313	563.06
326.542	569.06
326.77	585.06
326.999	652.06
327.228	776.06
327.457	1132.06
327.686	1388.06
327.914	978.06
328.143	673.06
328.372	646.06
328.6	611.06
328.829	580.06
329.058	595.06
329.287	612.06
329.515	591.06
329.744	572.06
329.972	585.06
330.201	554.06
330.43	623.06
330.658	596.06
330.887	645.06
331.115	635.06
331.344	595.06
331.572	581.06
331.801	594.06
332.03	579.06
332.258	550.06
332.486	583.06
332.715	565.06
332.943	584.06
333.172	612.06
333.4	614.06
333.629	633.06
333.857	655.06
334.085	632.06
334.314	642.06
334.542	673.06
334.771	687.06
334.999	625.06
335.227	607.06
335.455	609.06
335.684	612.06
335.912	599.06
336.14	587.06
336.369	571.06
336.597	598.06
336.825	590.06
337.053	586.06
337.281	579.06
337.51	545.06
337.738	564.06
337.966	566.06
338.194	568.06
338.422	550.06
338.65	543.06
338.878	551.06
339.106	522.06
339.334	540.06
339.562	532.06
339.79	555.06
340.018	542.06
340.246	550.06
340.474	530.06
340.702	533.06
340.93	543.06
341.158	540.06
341.386	542.06
341.614	542.06
341.842	543.06
342.07	538.06
342.298	535.06
342.526	500.06
342.754	519.06
342.981	515.06
343.209	528.06
343.437	531.06
343.665	562.06
343.893	580.06
344.12	585.06
344.348	597.06
344.576	573.06
344.804	568.06
345.031	552.06
345.259	555.06
345.487	531.06
345.714	529.06
345.942	514.06
346.17	489.06
346.397	501.06
346.625	503.06
346.853	501.06
347.08	510.06
347.308	533.06
347.535	518.06
347.763	519.06
347.99	518.06
348.218	522.06
348.445	526.06
348.673	519.06
348.9	531.06
349.128	514.06
349.355	536.06
349.583	494.06
349.81	500.06
350.037	513.06
350.265	483.06
350.492	483.06
350.72	486.06
350.947	516.06
351.174	490.06
351.402	483.06
351.629	531.06
351.856	515.06
352.083	509.06
352.311	529.06
352.538	518.06
352.765	493.06
352.992	501.06
353.22	492.06
353.447	504.06
353.674	504.06
353.901	488.06
354.128	495.06
354.355	485.06
354.583	480.06
354.81	471.06
355.037	497.06
355.264	477.06
355.491	476.06
355.718	484.06
355.945	508.06
356.172	496.06
356.399	489.06
356.626	495.06
356.853	471.06
357.08	474.06
357.307	485.06
357.534	486.06
357.761	454.06
357.988	509.06
358.215	489.06
358.441	489.06
358.668	487.06
358.895	468.06
359.122	517.06
359.349	478.06
359.576	497.06
359.802	517.06
360.029	561.06
360.256	539.06
360.483	513.06
360.709	513.06
360.936	504.06
361.163	520.06
361.39	518.06
361.616	495.06
361.843	486.06
362.07	497.06
362.296	526.06
362.523	501.06
362.749	517.06
362.976	494.06
363.203	515.06
363.429	505.06
363.656	486.06
363.882	507.06
364.109	491.06
364.335	501.06
364.562	493.06
364.788	500.06
365.015	479.06
365.241	504.06
365.468	492.06
365.694	507.06
365.92	500.06
366.147	475.06
366.373	478.06
366.599	481.06
366.826	485.06
367.052	492.06
367.278	490.06
367.505	506.06
367.731	503.06
367.957	502.06
368.184	531.06
368.41	533.06
368.636	503.06
368.862	518.06
369.089	501.06
369.315	511.06
369.541	516.06
369.767	502.06
369.993	489.06
370.219	507.06
370.445	520.06
370.672	531.06
370.898	493.06
371.124	531.06
371.35	531.06
371.576	525.06
371.802	521.06
372.028	513.06
372.254	525.06
372.48	513.06
372.706	537.06
372.932	513.06
373.158	543.06
373.384	526.06
373.61	525.06
373.835	534.06
374.061	527.06
374.287	539.06
374.513	530.06
374.739	520.06
374.965	539.06
375.191	559.06
375.416	551.06
375.642	549.06
375.868	538.06
376.094	525.06
376.319	525.06
376.545	528.06
376.771	536.06
376.997	519.06
377.222	517.06
377.448	509.06
377.674	527.06
377.899	520.06
378.125	519.06
378.35	509.06
378.576	520.06
378.802	508.06
379.027	515.06
379.253	497.06
379.478	515.06
379.704	522.06
379.929	540.06
380.155	513.06
380.38	521.06
380.606	509.06
380.831	537.06
381.057	518.06
381.282	508.06
381.507	535.06
381.733	543.06
381.958	521.06
382.184	511.06
382.409	541.06
382.634	564.06
382.86	517.06
383.085	563.06
383.31	541.06
383.535	542.06
383.761	556.06
383.986	553.06
384.211	555.06
384.436	578.06
384.662	577.06
384.887	575.06
385.112	577.06
385.337	591.06
385.562	591.06
385.787	589.06
386.013	602.06
386.238	619.06
386.463	625.06
386.688	584.06
386.913	582.06
387.138	583.06
387.363	610.06
387.588	586.06
387.813	616.06
388.038	584.06
388.263	579.06
388.488	605.06
388.713	605.06
388.938	616.06
389.163	595.06
389.387	603.06
389.612	582.06
389.837	587.06
390.062	566.06
390.287	602.06
390.512	586.06
390.736	599.06
390.961	606.06
391.186	592.06
391.411	599.06
391.636	646.06
391.86	623.06
392.085	649.06
392.31	636.06
392.534	649.06
392.759	623.06
392.984	627.06
393.208	639.06
393.433	633.06
393.658	614.06
393.882	622.06
394.107	604.06
394.331	616.06
394.556	609.06
394.78	633.06
395.005	635.06
395.229	628.06
395.454	635.06
395.678	651.06
395.903	675.06
396.127	693.06
396.352	666.06
396.576	637.06
396.801	633.06
397.025	634.06
397.249	630.06
397.474	641.06
397.698	652.06
397.922	670.06
398.147	677.06
398.371	681.06
398.595	696.06
398.82	686.06
399.044	752.06
399.268	792.06
399.492	862.06
399.717	958.06
399.941	965.06
400.165	951.06
400.389	884.06
400.613	831.06
400.837	775.06
401.062	748.06
401.286	720.06
401.51	738.06
401.734	712.06
401.958	710.06
402.182	728.06
402.406	717.06
402.63	740.06
402.854	766.06
403.078	757.06
403.302	750.06
403.526	757.06
403.75	757.06
403.974	781.06
404.198	772.06
404.422	786.06
404.645	795.06
404.869	776.06
405.093	815.06
405.317	810.06
405.541	868.06
405.765	808.06
405.988	795.06
406.212	796.06
406.436	819.06
406.66	806.06
406.883	805.06
407.107	853.06
407.331	890.06
407.555	969.06
407.778	942.06
408.002	910.06
408.226	852.06
408.449	799.06
408.673	817.06
408.896	865.06
409.12	868.06
409.344	826.06
409.567	812.06
409.791	785.06
410.014	762.06
410.238	785.06
410.461	777.06
410.685	775.06
410.908	764.06
411.132	804.06
411.355	809.06
411.578	788.06
411.802	744.06
412.025	719.06
412.249	781.06
412.472	808.06
412.695	794.06
412.919	779.06
413.142	720.06
413.365	734.06
413.589	751.06
413.812	734.06
414.035	722.06
414.258	708.06
414.482	720.06
414.705	691.06
414.928	715.06
415.151	706.06
415.374	707.06
415.597	713.06
415.821	677.06
416.044	697.06
416.267	697.06
416.49	699.06
416.713	693.06
416.936	689.06
417.159	707.06
417.382	728.06
417.605	693.06
417.828	702.06
418.051	759.06
418.274	730.06
418.497	697.06
418.72	725.06
418.943	696.06
419.166	753.06
419.389	800.06
419.611	775.06
419.834	741.06
420.057	748.06
420.28	718.06
420.503	726.06
420.726	710.06
420.948	728.06
421.171	762.06
421.394	775.06
421.617	733.06
421.839	713.06
422.062	719.06
422.285	705.06
422.507	766.06
422.73	865.06
422.953	827.06
423.175	760.06
423.398	773.06
423.621	741.06
423.843	776.06
424.066	773.06
424.288	777.06
424.511	798.06
424.733	845.06
424.956	891.06
425.178	862.06
425.401	836.06
425.623	856.06
425.846	763.06
426.068	745.06
426.291	741.06
426.513	720.06
426.735	743.06
426.958	769.06
427.18	826.06
427.402	963.06
427.625	1005.06
427.847	888.06
428.069	788.06
428.292	724.06
428.514	711.06
428.736	679.06
428.958	689.06
429.181	673.06
429.403	692.06
429.625	691.06
429.847	698.06
430.069	728.06
430.292	737.06
430.514	669.06
430.736	665.06
430.958	665.06
431.18	644.06
431.402	635.06
431.624	639.06
431.846	662.06
432.068	669.06
432.29	665.06
432.512	653.06
432.734	667.06
432.956	678.06
433.178	674.06
433.4	666.06
433.622	664.06
433.844	671.06
434.066	677.06
434.287	667.06
434.509	698.06
434.731	697.06
434.953	703.06
435.175	734.06
435.397	759.06
435.618	722.06
435.84	743.06
436.062	839.06
436.284	869.06
436.505	763.06
436.727	730.06
436.949	685.06
437.17	672.06
437.392	672.06
437.614	678.06
437.835	705.06
438.057	767.06
438.278	854.06
438.5	829.06
438.721	919.06
438.943	890.06
439.165	760.06
439.386	702.06
439.608	700.06
439.829	685.06
440.05	711.06
440.272	746.06
440.493	729.06
440.715	707.06
440.936	707.06
441.158	693.06
441.379	698.06
441.6	737.06
441.822	756.06
442.043	768.06
442.264	845.06
442.486	871.06
442.707	785.06
442.928	756.06
443.149	760.06
443.371	786.06
443.592	805.06
443.813	876.06
444.034	926.06
444.255	837.06
444.476	811.06
444.698	808.06
444.919	829.06
445.14	919.06
445.361	847.06
445.582	821.06
445.803	798.06
446.024	875.06
446.245	893.06
446.466	838.06
446.687	733.06
446.908	711.06
447.129	684.06
447.35	663.06
447.571	669.06
447.792	643.06
448.013	667.06
448.234	659.06
448.455	693.06
448.675	783.06
448.896	883.06
449.117	788.06
449.338	716.06
449.559	823.06
449.779	925.06
450	787.06
450.221	693.06
450.442	638.06
450.662	641.06
450.883	645.06
451.104	646.06
451.324	629.06
451.545	614.06
451.766	621.06
451.986	592.06
452.207	607.06
452.428	590.06
452.648	593.06
452.869	600.06
453.089	603.06
453.31	614.06
453.53	583.06
453.751	585.06
453.971	567.06
454.192	583.06
454.412	576.06
454.633	590.06
454.853	613.06
455.073	585.06
455.294	619.06
455.514	652.06
455.734	665.06
455.955	575.06
456.175	547.06
456.395	577.06
456.616	535.06
456.836	567.06
457.056	557.06
457.276	552.06
457.497	581.06
457.717	543.06
457.937	585.06
458.157	602.06
458.377	599.06
458.598	612.06
458.818	654.06
459.038	707.06
459.258	747.06
459.478	679.06
459.698	665.06
459.918	682.06
460.138	659.06
460.358	717.06
460.578	714.06
460.798	717.06
461.018	718.06
461.238	714.06
461.458	726.06
461.678	719.06
461.898	730.06
462.118	745.06
462.338	755.06
462.558	770.06
462.777	789.06
462.997	843.06
463.217	870.06
463.437	871.06
463.657	819.06
463.876	827.06
464.096	799.06
464.316	837.06
464.536	810.06
464.755	799.06
464.975	779.06
465.195	755.06
465.414	806.06
465.634	743.06
465.854	711.06
466.073	655.06
466.293	664.06
466.512	643.06
466.732	643.06
466.951	664.06
467.171	636.06
467.391	656.06
467.61	641.06
467.829	646.06
468.049	640.06
468.268	648.06
468.488	623.06
468.707	614.06
468.927	603.06
469.146	619.06
469.365	618.06
469.585	619.06
469.804	638.06
470.023	637.06
470.243	639.06
470.462	665.06
470.681	676.06
470.901	652.06
471.12	635.06
471.339	656.06
471.558	651.06
471.777	654.06
471.997	635.06
472.216	630.06
472.435	655.06
472.654	625.06
472.873	620.06
473.092	629.06
473.311	609.06
473.53	622.06
473.749	608.06
473.968	647.06
474.187	721.06
474.406	750.06
474.625	669.06
474.844	601.06
475.063	614.06
475.282	640.06
475.501	635.06
475.72	618.06
475.939	665.06
476.158	627.06
476.377	639.06
476.596	626.06
476.814	653.06
477.033	673.06
477.252	663.06
477.471	689.06
477.69	684.06
477.908	709.06
478.127	700.06
478.346	684.06
478.564	730.06
478.783	713.06
479.002	739.06
479.22	714.06
479.439	735.06
479.658	775.06
479.876	762.06
480.095	772.06
480.313	828.06
480.532	819.06
480.751	795.06
480.969	792.06
481.188	857.06
481.406	856.06
481.624	802.06
481.843	744.06
482.061	779.06
482.28	739.06
482.498	735.06
482.717	743.06
482.935	716.06
483.153	716.06
483.372	727.06
483.59	735.06
483.808	726.06
484.027	707.06
484.245	717.06
484.463	725.06
484.681	754.06
484.9	747.06
485.118	730.06
485.336	738.06
485.554	731.06
485.772	751.06
485.99	756.06
486.209	753.06
486.427	779.06
486.645	784.06
486.863	765.06
487.081	751.06
487.299	799.06
487.517	788.06
487.735	772.06
487.953	775.06
488.171	803.06
488.389	785.06
488.607	753.06
488.825	773.06
489.043	775.06
489.261	779.06
489.479	774.06
489.696	814.06
489.914	787.06
490.132	801.06
490.35	806.06
490.568	810.06
490.786	794.06
491.003	839.06
491.221	821.06
491.439	818.06
491.657	841.06
491.874	871.06
492.092	867.06
492.31	865.06
492.527	882.06
492.745	869.06
492.963	891.06
493.18	901.06
493.398	897.06
493.615	898.06
493.833	887.06
494.05	894.06
494.268	904.06
494.485	896.06
494.703	900.06
494.92	898.06
495.138	919.06
495.355	852.06
495.573	905.06
495.79	919.06
496.008	901.06
496.225	920.06
496.442	907.06
496.66	925.06
496.877	955.06
497.094	950.06
497.312	977.06
497.529	976.06
497.746	948.06
497.963	974.06
498.181	1027.06
498.398	1039.06
498.615	1105.06
498.832	1125.06
499.049	1196.06
499.267	1250.06
499.484	1341.06
499.701	1431.06
499.918	1513.06
500.135	1598.06
500.352	1760.06
500.569	1845.06
500.786	1830.06
501.003	1767.06
501.22	1651.06
501.437	1530.06
501.654	1426.06
501.871	1365.06
502.088	1271.06
502.305	1204.06
502.522	1132.06
502.739	1123.06
502.956	1081.06
503.172	1035.06
503.389	998.06
503.606	991.06
503.823	990.06
504.04	953.06
504.256	982.06
504.473	977.06
504.69	988.06
504.907	995.06
505.123	937.06
505.34	901.06
505.557	879.06
505.773	873.06
505.99	871.06
506.207	877.06
506.423	860.06
506.64	840.06
506.856	829.06
507.073	795.06
507.289	806.06
507.506	819.06
507.722	841.06
507.939	814.06
508.155	819.06
508.372	796.06
508.588	770.06
508.805	787.06
509.021	784.06
509.238	790.06
509.454	778.06
509.67	796.06
509.887	780.06
510.103	759.06
510.319	815.06
510.536	817.06
510.752	1215.06
510.968	1054.06
511.184	764.06
511.401	778.06
511.617	773.06
511.833	733.06
512.049	739.06
512.265	749.06
512.481	735.06
512.698	746.06
512.914	739.06
513.13	744.06
513.346	739.06
513.562	747.06
513.778	737.06
513.994	747.06
514.21	762.06
514.426	774.06
514.642	789.06
514.858	792.06
515.074	831.06
515.29	925.06
515.506	1213.06
515.721	1073.06
515.937	823.06
516.153	782.06
516.369	806.06
516.585	807.06
516.801	848.06
517.016	857.06
517.232	868.06
517.448	862.06
517.664	900.06
517.879	905.06
518.095	906.06
518.311	879.06
518.527	865.06
518.742	826.06
518.958	839.06
519.173	811.06
519.389	784.06
519.605	778.06
519.82	741.06
520.036	775.06
520.251	756.06
520.467	764.06
520.682	800.06
520.898	823.06
521.113	802.06
521.329	809.06
521.544	831.06
521.76	953.06
521.975	1442.06
522.19	1463.06
522.406	905.06
522.621	775.06
522.836	718.06
523.052	725.06
523.267	673.06
523.482	678.06
523.698	661.06
523.913	670.06
524.128	668.06
524.343	669.06
524.559	664.06
524.774	662.06
524.989	676.06
525.204	682.06
525.419	638.06
525.634	649.06
525.849	650.06
526.064	654.06
526.28	656.06
526.495	649.06
526.71	672.06
526.925	610.06
527.14	637.06
527.355	625.06
527.57	636.06
527.785	637.06
527.999	641.06
528.214	623.06
528.429	637.06
528.644	638.06
528.859	625.06
529.074	623.06
529.289	629.06
529.503	686.06
529.718	689.06
529.933	658.06
530.148	644.06
530.363	649.06
530.577	647.06
530.792	627.06
531.007	643.06
531.221	626.06
531.436	630.06
531.651	609.06
531.865	633.06
532.08	637.06
532.295	628.06
532.509	627.06
532.724	621.06
532.938	633.06
533.153	629.06
533.367	613.06
533.582	633.06
533.796	619.06
534.011	634.06
534.225	597.06
534.44	605.06
534.654	611.06
534.868	601.06
535.083	607.06
535.297	637.06
535.511	647.06
535.726	602.06
535.94	609.06
536.154	600.06
536.369	603.06
536.583	592.06
536.797	596.06
537.011	592.06
537.225	604.06
537.44	580.06
537.654	584.06
537.868	578.06
538.082	610.06
538.296	585.06
538.51	583.06
538.724	581.06
538.938	560.06
539.153	594.06
539.367	574.06
539.581	598.06
539.795	594.06
540.009	583.06
540.222	591.06
540.436	582.06
540.65	565.06
540.864	572.06
541.078	594.06
541.292	577.06
541.506	583.06
541.72	568.06
541.934	567.06
542.147	572.06
542.361	571.06
542.575	560.06
542.789	545.06
543.002	582.06
543.216	584.06
543.43	587.06
543.644	564.06
543.857	586.06
544.071	575.06
544.285	568.06
544.498	577.06
544.712	571.06
544.925	598.06
545.139	585.06
545.352	577.06
545.566	586.06
545.779	563.06
545.993	589.06
546.206	595.06
546.42	587.06
546.633	581.06
546.847	577.06
547.06	585.06
547.274	587.06
547.487	581.06
547.7	571.06
547.914	570.06
548.127	583.06
548.34	574.06
548.554	571.06
548.767	564.06
548.98	573.06
549.193	569.06
549.407	588.06
549.62	584.06
549.833	591.06
550.046	588.06
550.259	565.06
550.473	571.06
550.686	576.06
550.899	561.06
551.112	570.06
551.325	562.06
551.538	565.06
551.751	567.06
551.964	572.06
552.177	577.06
552.39	585.06
552.603	597.06
552.816	615.06
553.029	614.06
553.242	613.06
553.455	626.06
553.667	627.06
553.88	628.06
554.093	617.06
554.306	589.06
554.519	597.06
554.732	595.06
554.944	558.06
555.157	566.06
555.37	542.06
555.583	555.06
555.795	551.06
556.008	527.06
556.221	533.06
556.433	510.06
556.646	524.06
556.859	525.06
557.071	535.06
557.284	523.06
557.496	503.06
557.709	532.06
557.921	492.06
558.134	501.06
558.346	517.06
558.559	491.06
558.771	492.06
558.984	510.06
559.196	481.06
559.409	491.06
559.621	515.06
559.833	484.06
560.046	531.06
560.258	502.06
560.47	478.06
560.683	508.06
560.895	515.06
561.107	519.06
561.32	486.06
561.532	475.06
561.744	494.06
561.956	494.06
562.168	519.06
562.381	527.06
562.593	510.06
562.805	521.06
563.017	519.06
563.229	517.06
563.441	509.06
563.653	508.06
563.865	508.06
564.077	511.06
564.289	527.06
564.501	536.06
564.713	531.06
564.925	557.06
565.137	554.06
565.349	560.06
565.561	585.06
565.773	587.06
565.985	595.06
566.197	647.06
566.408	655.06
566.62	685.06
566.832	749.06
567.044	773.06
567.255	759.06
567.467	791.06
567.679	813.06
567.891	833.06
568.102	841.06
568.314	794.06
568.526	733.06
568.737	721.06
568.949	699.06
569.161	612.06
569.372	587.06
569.584	577.06
569.795	586.06
570.007	548.06
570.218	567.06
570.43	553.06
570.641	533.06
570.853	531.06
571.064	531.06
571.276	524.06
571.487	495.06
571.698	511.06
571.91	498.06
572.121	484.06
572.333	486.06
572.544	451.06
572.755	464.06
572.966	444.06
573.178	475.06
573.389	455.06
573.6	439.06
573.811	438.06
574.023	453.06
574.234	434.06
574.445	442.06
574.656	448.06
574.867	417.06
575.078	447.06
575.289	440.06
575.501	431.06
575.712	421.06
575.923	418.06
576.134	409.06
576.345	406.06
576.556	397.06
576.767	413.06
576.978	422.06
577.188	393.06
577.399	419.06
577.61	388.06
577.821	409.06
578.032	391.06
578.243	430.06
578.454	570.06
578.665	484.06
578.875	427.06
579.086	410.06
579.297	397.06
579.508	400.06
579.718	383.06
579.929	396.06
580.14	383.06
580.35	387.06
580.561	411.06
580.772	413.06
580.982	387.06
581.193	382.06
581.403	387.06
581.614	390.06
581.825	383.06
582.035	375.06
582.246	380.06
582.456	387.06
582.667	374.06
582.877	387.06
583.087	395.06
583.298	385.06
583.508	387.06
583.719	356.06
583.929	379.06
584.139	384.06
584.35	357.06
584.56	379.06
584.77	368.06
584.981	381.06
585.191	399.06
585.401	386.06
585.611	366.06
585.821	373.06
586.032	369.06
586.242	370.06
586.452	394.06
586.662	371.06
586.872	379.06
587.082	377.06
587.292	362.06
587.502	381.06
587.713	382.06
587.923	356.06
588.133	378.06
588.343	383.06
588.553	364.06
588.762	375.06
588.972	383.06
589.182	367.06
589.392	389.06
589.602	386.06
589.812	364.06
590.022	383.06
590.232	378.06
590.441	381.06
590.651	383.06
590.861	377.06
591.071	381.06
591.281	378.06
591.49	376.06
591.7	387.06
591.91	414.06
592.119	414.06
592.329	406.06
592.539	414.06
592.748	399.06
592.958	426.06
593.167	452.06
593.377	446.06
593.587	453.06
593.796	439.06
594.006	458.06
594.215	441.06
594.424	445.06
594.634	456.06
594.843	425.06
595.053	427.06
595.262	434.06
595.472	397.06
595.681	385.06
595.89	398.06
596.1	382.06
596.309	383.06
596.518	382.06
596.727	352.06
596.937	373.06
597.146	358.06
597.355	364.06
597.564	349.06
597.774	361.06
597.983	351.06
598.192	335.06
598.401	337.06
598.61	353.06
598.819	348.06
599.028	335.06
599.237	341.06
599.446	338.06
599.655	336.06
599.864	329.06
600.073	321.06
600.282	308.06
600.491	321.06
600.7	331.06
600.909	320.06
601.118	324.06
601.327	325.06
601.536	304.06
601.745	312.06
601.953	331.06
602.162	321.06
602.371	300.06
602.58	315.06
602.789	307.06
602.997	308.06
603.206	333.06
603.415	315.06
603.623	313.06
603.832	321.06
604.041	295.06
604.249	290.06
604.458	319.06
604.666	309.06
604.875	303.06
605.084	306.06
605.292	311.06
605.501	289.06
605.709	322.06
605.918	300.06
606.126	298.06
606.334	309.06
606.543	297.06
606.751	289.06
606.96	316.06
607.168	298.06
607.376	291.06
607.585	307.06
607.793	281.06
608.001	296.06
608.21	285.06
608.418	287.06
608.626	309.06
608.834	325.06
609.043	307.06
609.251	284.06
609.459	296.06
609.667	293.06
609.875	302.06
610.083	286.06
610.291	284.06
610.499	296.06
610.707	302.06
610.916	288.06
611.124	303.06
611.332	277.06
611.54	307.06
611.748	284.06
611.955	321.06
612.163	291.06
612.371	292.06
612.579	284.06
612.787	301.06
612.995	282.06
613.203	297.06
613.411	295.06
613.618	301.06
613.826	294.06
614.034	310.06
614.242	296.06
614.449	294.06
614.657	285.06
614.865	274.06
615.072	295.06
615.28	284.06
615.488	293.06
615.695	276.06
615.903	287.06
616.111	305.06
616.318	282.06
616.526	304.06
616.733	284.06
616.941	272.06
617.148	290.06
617.356	311.06
617.563	286.06
617.771	289.06
617.978	289.06
618.185	270.06
618.393	285.06
618.6	283.06
618.807	292.06
619.015	266.06
619.222	286.06
619.429	287.06
619.637	279.06
619.844	278.06
620.051	273.06
620.258	277.06
620.466	279.06
620.673	292.06
620.88	266.06
621.087	259.06
621.294	269.06
621.501	267.06
621.708	277.06
621.915	260.06
622.122	290.06
622.329	271.06
622.536	260.06
622.743	267.06
622.95	267.06
623.157	238.06
623.364	253.06
623.571	263.06
623.778	270.06
623.985	262.06
624.192	267.06
624.399	269.06
624.606	251.06
624.812	262.06
625.019	244.06
625.226	243.06
625.433	260.06
625.639	259.06
625.846	257.06
626.053	251.06
626.259	266.06
626.466	267.06
626.673	268.06
626.879	260.06
627.086	261.06
627.293	254.06
627.499	259.06
627.706	231.06
627.912	221.06
628.119	246.06
628.325	243.06
628.532	246.06
628.738	247.06
628.945	240.06
629.151	242.06
629.357	246.06
629.564	237.06
629.77	238.06
629.976	237.06
630.183	247.06
630.389	258.06
630.595	234.06
630.802	230.06
631.008	206.06
631.214	215.06
631.42	221.06
631.627	249.06
631.833	241.06
632.039	225.06
632.245	225.06
632.451	236.06
632.657	239.06
632.863	235.06
633.069	226.06
633.275	220.06
633.481	218.06
633.688	228.06
633.893	230.06
634.099	221.06
634.305	217.06
634.511	215.06
634.717	220.06
634.923	197.06
635.129	221.06
635.335	207.06
635.541	214.06
635.747	207.06
635.952	230.06
636.158	214.06
636.364	222.06
636.57	216.06
636.775	220.06
636.981	214.06
637.187	218.06
637.392	205.06
637.598	206.06
637.804	219.06
638.009	226.06
638.215	206.06
638.421	209.06
638.626	198.06
638.832	200.06
639.037	202.06
639.243	197.06
639.448	209.06
639.654	192.06
639.859	205.06
640.065	196.06
640.27	209.06
640.475	200.06
640.681	202.06
640.886	211.06
641.091	207.06
641.297	209.06
641.502	194.06
641.707	193.06
641.913	194.06
642.118	193.06
642.323	213.06
642.528	189.06
642.733	187.06
642.939	189.06
643.144	183.06
643.349	194.06
643.554	195.06
643.759	199.06
643.964	194.06
644.169	216.06
644.374	194.06
644.579	184.06
644.784	181.06
644.989	198.06
645.194	201.06
645.399	176.06
645.604	197.06
645.809	211.06
646.014	203.06
646.219	211.06
646.423	193.06
646.628	195.06
646.833	179.06
647.038	191.06
647.243	194.06
647.447	192.06
647.652	205.06
647.857	210.06
648.062	201.06
648.266	208.06
648.471	194.06
648.676	196.06
648.88	209.06
649.085	204.06
649.289	195.06
649.494	207.06
649.698	203.06
649.903	217.06
650.107	196.06
650.312	169.06
650.516	198.06
650.721	193.06
650.925	197.06
651.13	190.06
651.334	171.06
651.539	174.06
651.743	165.06
651.947	192.06
652.152	154.06
652.356	167.06
652.56	169.06
652.764	161.06
652.969	155.06
653.173	159.06
653.377	143.06
653.581	162.06
653.785	143.06
653.99	162.06
654.194	169.06
654.398	172.06
654.602	149.06
654.806	144.06
655.01	157.06
655.214	158.06
655.418	165.06
655.622	142.06
655.826	153.06
656.03	143.06
656.234	141.06
656.438	157.06
656.642	155.06
656.846	158.06
657.049	164.06
657.253	142.06
657.457	120.06
657.661	134.06
657.865	133.06
658.068	104.06
658.272	131.06
658.476	104.06
658.68	116.06
658.883	117.06
659.087	113.06
659.291	120.06
659.494	115.06
659.698	101.06
659.901	108.06
660.105	98.06
660.309	99.06
660.512	104.06
660.716	102.06
660.919	94.06
661.123	98.06
661.326	103.06
661.53	91.06
661.733	103.06
661.936	94.06
662.14	81.06
662.343	84.06
662.546	82.06
662.75	85.06
662.953	92.06
663.156	85.06
663.36	90.06
663.563	93.06
663.766	89.06
663.969	93.06
664.173	89.06
664.376	75.06
664.579	93.06
664.782	82.06
664.985	77.06
665.188	85.06
665.391	77.06
665.594	91.06
665.797	81.06
666	89.06
666.203	93.06
666.406	93.06
666.609	75.06
666.812	69.06
667.015	74.06
667.218	73.06
667.421	86.06
667.624	86.06
667.827	80.06
668.03	93.06
668.232	94.06
668.435	78.06
668.638	91.06
668.841	94.06
669.043	82.06
669.246	88.06
669.449	75.06
669.651	89.06
669.854	84.06
670.057	83.06
670.259	84.06
670.462	78.06
670.665	60.06
670.867	85.06
671.07	77.06
671.272	87.06
671.475	72.06
671.677	87.06
671.88	81.06
672.082	92.06
672.284	82.06
672.487	77.06
672.689	75.06
672.892	69.06
