Data from 1963.PennyLincolnUp.Lamp.En5.5.200Scan.071719.P1._HRD10591_14-00-20-064.txt Node
Date: Thu Jul 18 14:00:20 EDT 2019
User: cochatt
Spectrometer: HR+D1059
Trigger mode: 1
Integration Time (sec): 1.000000E-1
Scans to average: 1
Electric dark correction enabled: true
Nonlinearity correction enabled: false
Boxcar width: 0
XAxis mode: Wavelengths
Number of Pixels in Spectrum: 2048
>>>>>Begin Spectral Data<<<<<
223.165	-11.12
223.4	-11.12
223.635	-11.12
223.869	-21.12
224.104	-26.12
224.338	-14.12
224.573	-14.12
224.808	-8.12
225.042	-20.12
225.277	-3.12
225.511	15.88
225.746	3.88
225.98	15.88
226.215	11.88
226.449	14.88
226.683	22.88
226.918	18.88
227.152	13.88
227.387	24.88
227.621	33.88
227.856	38.88
228.09	40.88
228.324	43.88
228.559	46.88
228.793	69.88
229.027	86.88
229.262	93.88
229.496	109.88
229.73	141.88
229.964	148.88
230.199	119.88
230.433	124.88
230.667	116.88
230.901	108.88
231.136	99.88
231.37	128.88
231.604	104.88
231.838	117.88
232.072	111.88
232.306	117.88
232.541	120.88
232.775	124.88
233.009	116.88
233.243	124.88
233.477	136.88
233.711	121.88
233.945	127.88
234.179	131.88
234.413	120.88
234.647	127.88
234.881	126.88
235.115	135.88
235.349	132.88
235.583	135.88
235.817	126.88
236.051	142.88
236.285	138.88
236.519	124.88
236.753	140.88
236.987	133.88
237.221	170.88
237.455	218.88
237.689	186.88
237.922	131.88
238.156	129.88
238.39	130.88
238.624	125.88
238.858	124.88
239.091	144.88
239.325	137.88
239.559	147.88
239.793	118.88
240.027	151.88
240.26	152.88
240.494	158.88
240.728	156.88
240.961	137.88
241.195	149.88
241.429	149.88
241.662	150.88
241.896	145.88
242.13	149.88
242.363	140.88
242.597	141.88
242.83	141.88
243.064	152.88
243.298	146.88
243.531	159.88
243.765	151.88
243.998	167.88
244.232	148.88
244.465	152.88
244.699	153.88
244.932	171.88
245.166	170.88
245.399	159.88
245.633	165.88
245.866	163.88
246.099	163.88
246.333	176.88
246.566	171.88
246.8	169.88
247.033	175.88
247.266	166.88
247.5	183.88
247.733	189.88
247.966	180.88
248.2	200.88
248.433	185.88
248.666	185.88
248.899	208.88
249.133	192.88
249.366	213.88
249.599	215.88
249.832	190.88
250.066	211.88
250.299	203.88
250.532	216.88
250.765	223.88
250.998	232.88
251.231	250.88
251.465	218.88
251.698	228.88
251.931	199.88
252.164	211.88
252.397	209.88
252.63	217.88
252.863	229.88
253.096	249.88
253.329	251.88
253.562	247.88
253.795	231.88
254.028	245.88
254.261	239.88
254.494	233.88
254.727	261.88
254.96	288.88
255.193	273.88
255.426	259.88
255.659	240.88
255.892	240.88
256.124	261.88
256.357	259.88
256.59	248.88
256.823	245.88
257.056	241.88
257.289	214.88
257.521	229.88
257.754	225.88
257.987	229.88
258.22	240.88
258.452	241.88
258.685	231.88
258.918	217.88
259.151	223.88
259.383	221.88
259.616	233.88
259.849	246.88
260.081	273.88
260.314	294.88
260.547	278.88
260.779	275.88
261.012	267.88
261.244	243.88
261.477	246.88
261.71	250.88
261.942	256.88
262.175	258.88
262.407	263.88
262.64	241.88
262.872	259.88
263.105	236.88
263.337	258.88
263.57	234.88
263.802	252.88
264.035	244.88
264.267	239.88
264.499	242.88
264.732	245.88
264.964	248.88
265.197	252.88
265.429	233.88
265.661	241.88
265.894	252.88
266.126	272.88
266.358	251.88
266.591	239.88
266.823	265.88
267.055	241.88
267.287	264.88
267.52	271.88
267.752	289.88
267.984	244.88
268.216	271.88
268.448	266.88
268.681	274.88
268.913	293.88
269.145	290.88
269.377	306.88
269.609	289.88
269.841	311.88
270.073	325.88
270.306	317.88
270.538	349.88
270.77	350.88
271.002	323.88
271.234	312.88
271.466	315.88
271.698	328.88
271.93	356.88
272.162	344.88
272.394	362.88
272.626	346.88
272.858	327.88
273.09	317.88
273.322	306.88
273.553	317.88
273.785	307.88
274.017	297.88
274.249	314.88
274.481	294.88
274.713	300.88
274.945	325.88
275.176	323.88
275.408	292.88
275.64	305.88
275.872	294.88
276.104	320.88
276.335	319.88
276.567	316.88
276.799	331.88
277.031	353.88
277.262	351.88
277.494	339.88
277.726	340.88
277.957	337.88
278.189	328.88
278.421	320.88
278.652	308.88
278.884	304.88
279.115	324.88
279.347	317.88
279.579	352.88
279.81	335.88
280.042	326.88
280.273	313.88
280.505	321.88
280.736	303.88
280.968	316.88
281.199	316.88
281.431	325.88
281.662	326.88
281.894	322.88
282.125	316.88
282.356	352.88
282.588	356.88
282.819	365.88
283.051	339.88
283.282	323.88
283.513	344.88
283.745	335.88
283.976	340.88
284.207	342.88
284.439	354.88
284.67	339.88
284.901	354.88
285.132	349.88
285.364	327.88
285.595	347.88
285.826	341.88
286.057	341.88
286.288	355.88
286.52	338.88
286.751	329.88
286.982	353.88
287.213	358.88
287.444	355.88
287.675	375.88
287.906	370.88
288.138	362.88
288.369	390.88
288.6	374.88
288.831	364.88
289.062	376.88
289.293	367.88
289.524	367.88
289.755	355.88
289.986	366.88
290.217	360.88
290.448	363.88
290.679	351.88
290.91	375.88
291.141	367.88
291.371	347.88
291.602	343.88
291.833	358.88
292.064	387.88
292.295	376.88
292.526	364.88
292.757	374.88
292.987	354.88
293.218	361.88
293.449	387.88
293.68	371.88
293.91	354.88
294.141	377.88
294.372	377.88
294.603	376.88
294.833	388.88
295.064	384.88
295.295	384.88
295.525	384.88
295.756	375.88
295.987	368.88
296.217	391.88
296.448	398.88
296.679	391.88
296.909	405.88
297.14	377.88
297.37	379.88
297.601	407.88
297.831	409.88
298.062	380.88
298.292	381.88
298.523	379.88
298.753	392.88
298.984	371.88
299.214	396.88
299.445	378.88
299.675	387.88
299.905	398.88
300.136	397.88
300.366	401.88
300.597	399.88
300.827	389.88
301.057	420.88
301.288	418.88
301.518	434.88
301.748	433.88
301.979	412.88
302.209	417.88
302.439	421.88
302.669	418.88
302.9	424.88
303.13	413.88
303.36	419.88
303.59	399.88
303.82	421.88
304.051	437.88
304.281	420.88
304.511	407.88
304.741	387.88
304.971	417.88
305.201	423.88
305.431	418.88
305.661	408.88
305.891	419.88
306.121	428.88
306.352	428.88
306.582	417.88
306.812	433.88
307.042	431.88
307.272	411.88
307.502	422.88
307.731	407.88
307.961	421.88
308.191	407.88
308.421	407.88
308.651	436.88
308.881	443.88
309.111	424.88
309.341	437.88
309.571	446.88
309.8	433.88
310.03	435.88
310.26	456.88
310.49	445.88
310.72	451.88
310.949	447.88
311.179	486.88
311.409	462.88
311.639	437.88
311.868	452.88
312.098	433.88
312.328	442.88
312.557	474.88
312.787	484.88
313.017	475.88
313.246	471.88
313.476	459.88
313.706	477.88
313.935	476.88
314.165	509.88
314.394	475.88
314.624	457.88
314.853	469.88
315.083	468.88
315.312	441.88
315.542	461.88
315.771	471.88
316.001	476.88
316.23	452.88
316.46	477.88
316.689	477.88
316.919	467.88
317.148	467.88
317.377	489.88
317.607	466.88
317.836	476.88
318.065	480.88
318.295	452.88
318.524	466.88
318.753	449.88
318.983	457.88
319.212	463.88
319.441	485.88
319.67	467.88
319.9	470.88
320.129	474.88
320.358	459.88
320.587	453.88
320.816	471.88
321.046	482.88
321.275	464.88
321.504	481.88
321.733	497.88
321.962	488.88
322.191	491.88
322.42	476.88
322.649	509.88
322.878	515.88
323.108	532.88
323.337	548.88
323.566	562.88
323.795	569.88
324.024	589.88
324.253	691.88
324.482	862.88
324.71	1279.88
324.939	1850.88
325.168	1609.88
325.397	890.88
325.626	658.88
325.855	597.88
326.084	586.88
326.313	577.88
326.542	556.88
326.77	634.88
326.999	676.88
327.228	842.88
327.457	1194.88
327.686	1488.88
327.914	1028.88
328.143	704.88
328.372	683.88
328.6	641.88
328.829	603.88
329.058	630.88
329.287	650.88
329.515	622.88
329.744	592.88
329.972	586.88
330.201	597.88
330.43	639.88
330.658	657.88
330.887	668.88
331.115	673.88
331.344	607.88
331.572	597.88
331.801	585.88
332.03	609.88
332.258	604.88
332.486	575.88
332.715	571.88
332.943	590.88
333.172	617.88
333.4	617.88
333.629	645.88
333.857	682.88
334.085	663.88
334.314	658.88
334.542	689.88
334.771	697.88
334.999	655.88
335.227	612.88
335.455	611.88
335.684	625.88
335.912	591.88
336.14	593.88
336.369	586.88
336.597	605.88
336.825	588.88
337.053	600.88
337.281	581.88
337.51	561.88
337.738	570.88
337.966	576.88
338.194	585.88
338.422	572.88
338.65	567.88
338.878	569.88
339.106	541.88
339.334	554.88
339.562	539.88
339.79	530.88
340.018	539.88
340.246	550.88
340.474	548.88
340.702	559.88
340.93	535.88
341.158	552.88
341.386	543.88
341.614	546.88
341.842	551.88
342.07	531.88
342.298	511.88
342.526	523.88
342.754	525.88
342.981	532.88
343.209	524.88
343.437	555.88
343.665	587.88
343.893	591.88
344.12	616.88
344.348	620.88
344.576	593.88
344.804	579.88
345.031	583.88
345.259	568.88
345.487	560.88
345.714	537.88
345.942	519.88
346.17	539.88
346.397	507.88
346.625	543.88
346.853	523.88
347.08	527.88
347.308	529.88
347.535	519.88
347.763	522.88
347.99	522.88
348.218	548.88
348.445	542.88
348.673	506.88
348.9	517.88
349.128	515.88
349.355	514.88
349.583	492.88
349.81	501.88
350.037	497.88
350.265	517.88
350.492	490.88
350.72	513.88
350.947	520.88
351.174	521.88
351.402	518.88
351.629	513.88
351.856	499.88
352.083	523.88
352.311	516.88
352.538	502.88
352.765	525.88
352.992	537.88
353.22	506.88
353.447	497.88
353.674	515.88
353.901	510.88
354.128	510.88
354.355	487.88
354.583	487.88
354.81	481.88
355.037	494.88
355.264	494.88
355.491	508.88
355.718	490.88
355.945	503.88
356.172	501.88
356.399	485.88
356.626	491.88
356.853	485.88
357.08	473.88
357.307	501.88
357.534	470.88
357.761	472.88
357.988	495.88
358.215	500.88
358.441	497.88
358.668	511.88
358.895	513.88
359.122	512.88
359.349	518.88
359.576	504.88
359.802	536.88
360.029	550.88
360.256	561.88
360.483	543.88
360.709	517.88
360.936	530.88
361.163	545.88
361.39	527.88
361.616	500.88
361.843	510.88
362.07	497.88
362.296	516.88
362.523	516.88
362.749	505.88
362.976	516.88
363.203	527.88
363.429	501.88
363.656	492.88
363.882	494.88
364.109	509.88
364.335	499.88
364.562	523.88
364.788	499.88
365.015	500.88
365.241	516.88
365.468	519.88
365.694	507.88
365.92	507.88
366.147	500.88
366.373	517.88
366.599	508.88
366.826	509.88
367.052	497.88
367.278	489.88
367.505	521.88
367.731	504.88
367.957	504.88
368.184	498.88
368.41	513.88
368.636	505.88
368.862	524.88
369.089	517.88
369.315	511.88
369.541	514.88
369.767	519.88
369.993	517.88
370.219	508.88
370.445	527.88
370.672	512.88
370.898	521.88
371.124	535.88
371.35	514.88
371.576	523.88
371.802	528.88
372.028	541.88
372.254	534.88
372.48	515.88
372.706	537.88
372.932	551.88
373.158	549.88
373.384	515.88
373.61	544.88
373.835	549.88
374.061	523.88
374.287	544.88
374.513	529.88
374.739	543.88
374.965	552.88
375.191	568.88
375.416	551.88
375.642	545.88
375.868	548.88
376.094	538.88
376.319	538.88
376.545	532.88
376.771	534.88
376.997	523.88
377.222	500.88
377.448	529.88
377.674	521.88
377.899	526.88
378.125	525.88
378.35	533.88
378.576	505.88
378.802	525.88
379.027	538.88
379.253	532.88
379.478	516.88
379.704	542.88
379.929	515.88
380.155	524.88
380.38	546.88
380.606	530.88
380.831	525.88
381.057	548.88
381.282	535.88
381.507	547.88
381.733	533.88
381.958	537.88
382.184	532.88
382.409	536.88
382.634	558.88
382.86	536.88
383.085	552.88
383.31	552.88
383.535	550.88
383.761	563.88
383.986	550.88
384.211	574.88
384.436	578.88
384.662	612.88
384.887	603.88
385.112	574.88
385.337	597.88
385.562	611.88
385.787	609.88
386.013	629.88
386.238	606.88
386.463	608.88
386.688	608.88
386.913	599.88
387.138	616.88
387.363	596.88
387.588	595.88
387.813	589.88
388.038	614.88
388.263	605.88
388.488	610.88
388.713	605.88
388.938	598.88
389.163	579.88
389.387	607.88
389.612	569.88
389.837	607.88
390.062	599.88
390.287	610.88
390.512	608.88
390.736	631.88
390.961	619.88
391.186	610.88
391.411	629.88
391.636	661.88
391.86	653.88
392.085	647.88
392.31	634.88
392.534	653.88
392.759	671.88
392.984	662.88
393.208	636.88
393.433	635.88
393.658	641.88
393.882	615.88
394.107	604.88
394.331	649.88
394.556	625.88
394.78	625.88
395.005	634.88
395.229	634.88
395.454	645.88
395.678	672.88
395.903	653.88
396.127	672.88
396.352	659.88
396.576	612.88
396.801	633.88
397.025	635.88
397.249	651.88
397.474	665.88
397.698	667.88
397.922	671.88
398.147	660.88
398.371	693.88
398.595	694.88
398.82	721.88
399.044	757.88
399.268	804.88
399.492	869.88
399.717	939.88
399.941	973.88
400.165	928.88
400.389	911.88
400.613	823.88
400.837	775.88
401.062	743.88
401.286	735.88
401.51	747.88
401.734	722.88
401.958	739.88
402.182	732.88
402.406	735.88
402.63	773.88
402.854	774.88
403.078	791.88
403.302	786.88
403.526	780.88
403.75	767.88
403.974	825.88
404.198	792.88
404.422	791.88
404.645	823.88
404.869	780.88
405.093	809.88
405.317	859.88
405.541	888.88
405.765	835.88
405.988	789.88
406.212	811.88
406.436	821.88
406.66	827.88
406.883	821.88
407.107	854.88
407.331	917.88
407.555	975.88
407.778	957.88
408.002	895.88
408.226	891.88
408.449	843.88
408.673	828.88
408.896	842.88
409.12	903.88
409.344	833.88
409.567	776.88
409.791	747.88
410.014	786.88
410.238	779.88
410.461	771.88
410.685	754.88
410.908	759.88
411.132	805.88
411.355	831.88
411.578	783.88
411.802	771.88
412.025	732.88
412.249	773.88
412.472	791.88
412.695	787.88
412.919	788.88
413.142	751.88
413.365	732.88
413.589	731.88
413.812	706.88
414.035	705.88
414.258	724.88
414.482	722.88
414.705	728.88
414.928	716.88
415.151	697.88
415.374	742.88
415.597	707.88
415.821	714.88
416.044	733.88
416.267	720.88
416.49	707.88
416.713	706.88
416.936	699.88
417.159	703.88
417.382	721.88
417.605	708.88
417.828	736.88
418.051	729.88
418.274	751.88
418.497	735.88
418.72	726.88
418.943	741.88
419.166	757.88
419.389	786.88
419.611	781.88
419.834	771.88
420.057	760.88
420.28	767.88
420.503	715.88
420.726	727.88
420.948	747.88
421.171	767.88
421.394	791.88
421.617	722.88
421.839	740.88
422.062	721.88
422.285	744.88
422.507	791.88
422.73	864.88
422.953	805.88
423.175	772.88
423.398	746.88
423.621	708.88
423.843	796.88
424.066	791.88
424.288	776.88
424.511	783.88
424.733	855.88
424.956	890.88
425.178	833.88
425.401	866.88
425.623	901.88
425.846	775.88
426.068	761.88
426.291	730.88
426.513	729.88
426.735	766.88
426.958	777.88
427.18	865.88
427.402	959.88
427.625	1053.88
427.847	901.88
428.069	833.88
428.292	730.88
428.514	721.88
428.736	700.88
428.958	706.88
429.181	685.88
429.403	680.88
429.625	674.88
429.847	716.88
430.069	781.88
430.292	746.88
430.514	700.88
430.736	696.88
430.958	665.88
431.18	661.88
431.402	671.88
431.624	636.88
431.846	661.88
432.068	665.88
432.29	672.88
432.512	646.88
432.734	671.88
432.956	689.88
433.178	663.88
433.4	652.88
433.622	652.88
433.844	675.88
434.066	675.88
434.287	691.88
434.509	698.88
434.731	709.88
434.953	719.88
435.175	723.88
435.397	740.88
435.618	730.88
435.84	775.88
436.062	823.88
436.284	874.88
436.505	780.88
436.727	725.88
436.949	704.88
437.17	691.88
437.392	643.88
437.614	670.88
437.835	692.88
438.057	771.88
438.278	858.88
438.5	862.88
438.721	921.88
438.943	913.88
439.165	750.88
439.386	737.88
439.608	708.88
439.829	725.88
440.05	736.88
440.272	797.88
440.493	739.88
440.715	725.88
440.936	717.88
441.158	719.88
441.379	714.88
441.6	727.88
441.822	756.88
442.043	815.88
442.264	879.88
442.486	905.88
442.707	791.88
442.928	752.88
443.149	746.88
443.371	784.88
443.592	828.88
443.813	900.88
444.034	955.88
444.255	838.88
444.476	805.88
444.698	822.88
444.919	848.88
445.14	917.88
445.361	809.88
445.582	799.88
445.803	854.88
446.024	904.88
446.245	892.88
446.466	845.88
446.687	729.88
446.908	728.88
447.129	689.88
447.35	673.88
447.571	651.88
447.792	665.88
448.013	649.88
448.234	670.88
448.455	705.88
448.675	811.88
448.896	893.88
449.117	773.88
449.338	744.88
449.559	857.88
449.779	955.88
450	794.88
450.221	665.88
450.442	671.88
450.662	660.88
450.883	656.88
451.104	662.88
451.324	662.88
451.545	625.88
451.766	641.88
451.986	605.88
452.207	593.88
452.428	618.88
452.648	617.88
452.869	589.88
453.089	622.88
453.31	640.88
453.53	625.88
453.751	602.88
453.971	591.88
454.192	605.88
454.412	604.88
454.633	600.88
454.853	586.88
455.073	612.88
455.294	615.88
455.514	666.88
455.734	659.88
455.955	588.88
456.175	577.88
456.395	579.88
456.616	552.88
456.836	593.88
457.056	556.88
457.276	539.88
457.497	563.88
457.717	567.88
457.937	584.88
458.157	601.88
458.377	610.88
458.598	617.88
458.818	676.88
459.038	737.88
459.258	776.88
459.478	720.88
459.698	684.88
459.918	695.88
460.138	693.88
460.358	727.88
460.578	716.88
460.798	750.88
461.018	743.88
461.238	728.88
461.458	723.88
461.678	714.88
461.898	740.88
462.118	729.88
462.338	755.88
462.558	757.88
462.777	798.88
462.997	844.88
463.217	883.88
463.437	877.88
463.657	829.88
463.876	845.88
464.096	807.88
464.316	811.88
464.536	811.88
464.755	794.88
464.975	788.88
465.195	804.88
465.414	844.88
465.634	763.88
465.854	707.88
466.073	671.88
466.293	672.88
466.512	659.88
466.732	648.88
466.951	637.88
467.171	627.88
467.391	636.88
467.61	633.88
467.829	636.88
468.049	642.88
468.268	624.88
468.488	627.88
468.707	617.88
468.927	618.88
469.146	589.88
469.365	619.88
469.585	629.88
469.804	637.88
470.023	665.88
470.243	679.88
470.462	674.88
470.681	677.88
470.901	698.88
471.12	657.88
471.339	658.88
471.558	652.88
471.777	644.88
471.997	631.88
472.216	639.88
472.435	684.88
472.654	657.88
472.873	638.88
473.092	622.88
473.311	628.88
473.53	625.88
473.749	638.88
473.968	644.88
474.187	717.88
474.406	757.88
474.625	675.88
474.844	655.88
475.063	654.88
475.282	672.88
475.501	651.88
475.72	638.88
475.939	633.88
476.158	628.88
476.377	668.88
476.596	652.88
476.814	655.88
477.033	659.88
477.252	687.88
477.471	675.88
477.69	677.88
477.908	721.88
478.127	730.88
478.346	723.88
478.564	738.88
478.783	743.88
479.002	757.88
479.22	773.88
479.439	764.88
479.658	761.88
479.876	779.88
480.095	791.88
480.313	813.88
480.532	818.88
480.751	821.88
480.969	844.88
481.188	851.88
481.406	871.88
481.624	800.88
481.843	745.88
482.061	751.88
482.28	737.88
482.498	732.88
482.717	729.88
482.935	744.88
483.153	739.88
483.372	735.88
483.59	755.88
483.808	742.88
484.027	723.88
484.245	740.88
484.463	723.88
484.681	742.88
484.9	742.88
485.118	750.88
485.336	746.88
485.554	726.88
485.772	771.88
485.99	795.88
486.209	756.88
486.427	782.88
486.645	775.88
486.863	809.88
487.081	792.88
487.299	781.88
487.517	815.88
487.735	775.88
487.953	762.88
488.171	794.88
488.389	809.88
488.607	789.88
488.825	798.88
489.043	777.88
489.261	774.88
489.479	775.88
489.696	777.88
489.914	799.88
490.132	839.88
490.35	827.88
490.568	827.88
490.786	822.88
491.003	843.88
491.221	838.88
491.439	855.88
491.657	866.88
491.874	867.88
492.092	886.88
492.31	885.88
492.527	887.88
492.745	907.88
492.963	890.88
493.18	881.88
493.398	893.88
493.615	916.88
493.833	919.88
494.05	907.88
494.268	901.88
494.485	947.88
494.703	905.88
494.92	927.88
495.138	907.88
495.355	922.88
495.573	899.88
495.79	906.88
496.008	914.88
496.225	930.88
496.442	939.88
496.66	925.88
496.877	910.88
497.094	955.88
497.312	929.88
497.529	979.88
497.746	954.88
497.963	1009.88
498.181	1053.88
498.398	1071.88
498.615	1124.88
498.832	1154.88
499.049	1174.88
499.267	1256.88
499.484	1327.88
499.701	1419.88
499.918	1500.88
500.135	1649.88
500.352	1783.88
500.569	1829.88
500.786	1834.88
501.003	1764.88
501.22	1667.88
501.437	1567.88
501.654	1457.88
501.871	1395.88
502.088	1294.88
502.305	1196.88
502.522	1173.88
502.739	1120.88
502.956	1107.88
503.172	1056.88
503.389	1025.88
503.606	984.88
503.823	1027.88
504.04	986.88
504.256	983.88
504.473	998.88
504.69	987.88
504.907	988.88
505.123	954.88
505.34	909.88
505.557	900.88
505.773	901.88
505.99	883.88
506.207	879.88
506.423	886.88
506.64	863.88
506.856	868.88
507.073	829.88
507.289	856.88
507.506	844.88
507.722	834.88
507.939	826.88
508.155	817.88
508.372	810.88
508.588	791.88
508.805	803.88
509.021	821.88
509.238	804.88
509.454	796.88
509.67	807.88
509.887	798.88
510.103	781.88
510.319	796.88
510.536	868.88
510.752	1293.88
510.968	1086.88
511.184	793.88
511.401	808.88
511.617	753.88
511.833	763.88
512.049	771.88
512.265	756.88
512.481	769.88
512.698	752.88
512.914	747.88
513.13	736.88
513.346	751.88
513.562	745.88
513.778	740.88
513.994	756.88
514.21	757.88
514.426	773.88
514.642	841.88
514.858	825.88
515.074	849.88
515.29	955.88
515.506	1305.88
515.721	1131.88
515.937	876.88
516.153	820.88
516.369	812.88
516.585	815.88
516.801	846.88
517.016	847.88
517.232	874.88
517.448	902.88
517.664	931.88
517.879	896.88
518.095	942.88
518.311	935.88
518.527	889.88
518.742	852.88
518.958	855.88
519.173	844.88
519.389	817.88
519.605	788.88
519.82	787.88
520.036	784.88
520.251	818.88
520.467	788.88
520.682	795.88
520.898	825.88
521.113	795.88
521.329	826.88
521.544	883.88
521.76	1041.88
521.975	1578.88
522.19	1626.88
522.406	976.88
522.621	823.88
522.836	748.88
523.052	717.88
523.267	668.88
523.482	691.88
523.698	675.88
523.913	679.88
524.128	679.88
524.343	682.88
524.559	672.88
524.774	685.88
524.989	671.88
525.204	683.88
525.419	684.88
525.634	670.88
525.849	648.88
526.064	654.88
526.28	665.88
526.495	652.88
526.71	629.88
526.925	640.88
527.14	647.88
527.355	634.88
527.57	641.88
527.785	637.88
527.999	630.88
528.214	644.88
528.429	648.88
528.644	637.88
528.859	636.88
529.074	637.88
529.289	653.88
529.503	701.88
529.718	688.88
529.933	663.88
530.148	641.88
530.363	670.88
530.577	634.88
530.792	641.88
531.007	653.88
531.221	645.88
531.436	638.88
531.651	637.88
531.865	609.88
532.08	625.88
532.295	651.88
532.509	643.88
532.724	637.88
532.938	613.88
533.153	637.88
533.367	619.88
533.582	620.88
533.796	610.88
534.011	607.88
534.225	616.88
534.44	600.88
534.654	608.88
534.868	617.88
535.083	630.88
535.297	600.88
535.511	627.88
535.726	613.88
535.94	619.88
536.154	608.88
536.369	605.88
536.583	599.88
536.797	594.88
537.011	601.88
537.225	579.88
537.44	606.88
537.654	591.88
537.868	601.88
538.082	588.88
538.296	588.88
538.51	580.88
538.724	588.88
538.938	579.88
539.153	597.88
539.367	578.88
539.581	583.88
539.795	592.88
540.009	575.88
540.222	582.88
540.436	571.88
540.65	584.88
540.864	583.88
541.078	612.88
541.292	593.88
541.506	571.88
541.72	571.88
541.934	588.88
542.147	584.88
542.361	594.88
542.575	565.88
542.789	592.88
543.002	587.88
543.216	580.88
543.43	581.88
543.644	563.88
543.857	582.88
544.071	588.88
544.285	599.88
544.498	552.88
544.712	549.88
544.925	599.88
545.139	589.88
545.352	617.88
545.566	584.88
545.779	588.88
545.993	591.88
546.206	586.88
546.42	553.88
546.633	587.88
546.847	569.88
547.06	564.88
547.274	567.88
547.487	565.88
547.7	577.88
547.914	575.88
548.127	603.88
548.34	573.88
548.554	572.88
548.767	588.88
548.98	601.88
549.193	589.88
549.407	579.88
549.62	605.88
549.833	610.88
550.046	594.88
550.259	584.88
550.473	569.88
550.686	569.88
550.899	581.88
551.112	578.88
551.325	556.88
551.538	594.88
551.751	567.88
551.964	599.88
552.177	590.88
552.39	584.88
552.603	606.88
552.816	607.88
553.029	636.88
553.242	627.88
553.455	625.88
553.667	634.88
553.88	643.88
554.093	617.88
554.306	593.88
554.519	582.88
554.732	585.88
554.944	545.88
555.157	562.88
555.37	559.88
555.583	552.88
555.795	557.88
556.008	537.88
556.221	545.88
556.433	517.88
556.646	544.88
556.859	516.88
557.071	524.88
557.284	512.88
557.496	513.88
557.709	512.88
557.921	522.88
558.134	520.88
558.346	518.88
558.559	483.88
558.771	500.88
558.984	503.88
559.196	501.88
559.409	521.88
559.621	514.88
559.833	494.88
560.046	505.88
560.258	480.88
560.47	516.88
560.683	504.88
560.895	499.88
561.107	486.88
561.32	482.88
561.532	478.88
561.744	478.88
561.956	486.88
562.168	505.88
562.381	536.88
562.593	498.88
562.805	517.88
563.017	523.88
563.229	506.88
563.441	507.88
563.653	498.88
563.865	503.88
564.077	516.88
564.289	518.88
564.501	525.88
564.713	525.88
564.925	533.88
565.137	568.88
565.349	532.88
565.561	562.88
565.773	576.88
565.985	615.88
566.197	625.88
566.408	661.88
566.62	693.88
566.832	752.88
567.044	760.88
567.255	755.88
567.467	787.88
567.679	802.88
567.891	845.88
568.102	827.88
568.314	812.88
568.526	747.88
568.737	703.88
568.949	660.88
569.161	643.88
569.372	592.88
569.584	568.88
569.795	560.88
570.007	556.88
570.218	575.88
570.43	569.88
570.641	536.88
570.853	537.88
571.064	525.88
571.276	514.88
571.487	495.88
571.698	496.88
571.91	485.88
572.121	471.88
572.333	487.88
572.544	468.88
572.755	453.88
572.966	470.88
573.178	458.88
573.389	470.88
573.6	434.88
573.811	437.88
574.023	464.88
574.234	438.88
574.445	439.88
574.656	443.88
574.867	425.88
575.078	435.88
575.289	449.88
575.501	433.88
575.712	416.88
575.923	426.88
576.134	394.88
576.345	429.88
576.556	427.88
576.767	402.88
576.978	437.88
577.188	432.88
577.399	409.88
577.61	422.88
577.821	418.88
578.032	408.88
578.243	453.88
578.454	616.88
578.665	481.88
578.875	411.88
579.086	411.88
579.297	402.88
579.508	421.88
579.718	388.88
579.929	396.88
580.14	406.88
580.35	392.88
580.561	401.88
580.772	388.88
580.982	401.88
581.193	396.88
581.403	382.88
581.614	394.88
581.825	402.88
582.035	381.88
582.246	394.88
582.456	387.88
582.667	385.88
582.877	376.88
583.087	377.88
583.298	385.88
583.508	383.88
583.719	397.88
583.929	365.88
584.139	383.88
584.35	391.88
584.56	361.88
584.77	392.88
584.981	377.88
585.191	378.88
585.401	386.88
585.611	379.88
585.821	381.88
586.032	379.88
586.242	387.88
586.452	378.88
586.662	393.88
586.872	371.88
587.082	379.88
587.292	379.88
587.502	367.88
587.713	370.88
587.923	362.88
588.133	360.88
588.343	377.88
588.553	376.88
588.762	378.88
588.972	373.88
589.182	369.88
589.392	375.88
589.602	389.88
589.812	361.88
590.022	386.88
590.232	367.88
590.441	380.88
590.651	367.88
590.861	377.88
591.071	408.88
591.281	394.88
591.49	404.88
591.7	388.88
591.91	403.88
592.119	409.88
592.329	404.88
592.539	417.88
592.748	419.88
592.958	431.88
593.167	438.88
593.377	459.88
593.587	456.88
593.796	448.88
594.006	450.88
594.215	459.88
594.424	445.88
594.634	448.88
594.843	434.88
595.053	433.88
595.262	411.88
595.472	423.88
595.681	404.88
595.89	398.88
596.1	377.88
596.309	373.88
596.518	384.88
596.727	360.88
596.937	378.88
597.146	361.88
597.355	344.88
597.564	352.88
597.774	373.88
597.983	364.88
598.192	327.88
598.401	339.88
598.61	337.88
598.819	355.88
599.028	313.88
599.237	323.88
599.446	322.88
599.655	352.88
599.864	332.88
600.073	346.88
600.282	307.88
600.491	311.88
600.7	325.88
600.909	316.88
601.118	315.88
601.327	303.88
601.536	321.88
601.745	309.88
601.953	332.88
602.162	325.88
602.371	320.88
602.58	315.88
602.789	311.88
602.997	306.88
603.206	311.88
603.415	314.88
603.623	304.88
603.832	300.88
604.041	312.88
604.249	323.88
604.458	308.88
604.666	316.88
604.875	324.88
605.084	307.88
605.292	311.88
605.501	301.88
605.709	289.88
605.918	306.88
606.126	310.88
606.334	312.88
606.543	294.88
606.751	311.88
606.96	307.88
607.168	289.88
607.376	295.88
607.585	298.88
607.793	296.88
608.001	294.88
608.21	310.88
608.418	297.88
608.626	288.88
608.834	293.88
609.043	295.88
609.251	287.88
609.459	289.88
609.667	279.88
609.875	286.88
610.083	306.88
610.291	281.88
610.499	309.88
610.707	291.88
610.916	293.88
611.124	293.88
611.332	320.88
611.54	287.88
611.748	314.88
611.955	308.88
612.163	298.88
612.371	290.88
612.579	306.88
612.787	299.88
612.995	291.88
613.203	304.88
613.411	297.88
613.618	294.88
613.826	297.88
614.034	290.88
614.242	287.88
614.449	288.88
614.657	312.88
614.865	284.88
615.072	278.88
615.28	310.88
615.488	288.88
615.695	285.88
615.903	282.88
616.111	293.88
616.318	312.88
616.526	301.88
616.733	300.88
616.941	304.88
617.148	283.88
617.356	289.88
617.563	285.88
617.771	285.88
617.978	288.88
618.185	287.88
618.393	282.88
618.6	292.88
618.807	288.88
619.015	309.88
619.222	288.88
619.429	266.88
619.637	282.88
619.844	285.88
620.051	287.88
620.258	262.88
620.466	276.88
620.673	260.88
620.88	266.88
621.087	252.88
621.294	267.88
621.501	287.88
621.708	279.88
621.915	264.88
622.122	280.88
622.329	269.88
622.536	273.88
622.743	269.88
622.95	270.88
623.157	262.88
623.364	266.88
623.571	256.88
623.778	269.88
623.985	265.88
624.192	258.88
624.399	259.88
624.606	260.88
624.812	284.88
625.019	287.88
625.226	255.88
625.433	252.88
625.639	251.88
625.846	234.88
626.053	251.88
626.259	250.88
626.466	266.88
626.673	266.88
626.879	243.88
627.086	246.88
627.293	255.88
627.499	260.88
627.706	235.88
627.912	246.88
628.119	252.88
628.325	260.88
628.532	260.88
628.738	262.88
628.945	256.88
629.151	248.88
629.357	237.88
629.564	220.88
629.77	239.88
629.976	231.88
630.183	245.88
630.389	258.88
630.595	241.88
630.802	243.88
631.008	225.88
631.214	245.88
631.42	235.88
631.627	237.88
631.833	225.88
632.039	241.88
632.245	233.88
632.451	229.88
632.657	226.88
632.863	220.88
633.069	228.88
633.275	227.88
633.481	228.88
633.688	211.88
633.893	218.88
634.099	229.88
634.305	240.88
634.511	211.88
634.717	225.88
634.923	212.88
635.129	205.88
635.335	220.88
635.541	226.88
635.747	233.88
635.952	212.88
636.158	218.88
636.364	226.88
636.57	224.88
636.775	234.88
636.981	213.88
637.187	220.88
637.392	210.88
637.598	225.88
637.804	196.88
638.009	215.88
638.215	235.88
638.421	223.88
638.626	205.88
638.832	214.88
639.037	202.88
639.243	213.88
639.448	210.88
639.654	211.88
639.859	209.88
640.065	205.88
640.27	212.88
640.475	214.88
640.681	204.88
640.886	214.88
641.091	214.88
641.297	216.88
641.502	195.88
641.707	208.88
641.913	225.88
642.118	199.88
642.323	205.88
642.528	211.88
642.733	198.88
642.939	210.88
643.144	220.88
643.349	187.88
643.554	204.88
643.759	194.88
643.964	179.88
644.169	198.88
644.374	215.88
644.579	198.88
644.784	211.88
644.989	197.88
645.194	196.88
645.399	196.88
645.604	187.88
645.809	188.88
646.014	195.88
646.219	210.88
646.423	204.88
646.628	191.88
646.833	195.88
647.038	188.88
647.243	208.88
647.447	205.88
647.652	222.88
647.857	200.88
648.062	183.88
648.266	202.88
648.471	202.88
648.676	212.88
648.88	192.88
649.085	199.88
649.289	203.88
649.494	201.88
649.698	215.88
649.903	216.88
650.107	204.88
650.312	193.88
650.516	200.88
650.721	187.88
650.925	168.88
651.13	179.88
651.334	168.88
651.539	176.88
651.743	169.88
651.947	170.88
652.152	164.88
652.356	185.88
652.56	153.88
652.764	138.88
652.969	160.88
653.173	167.88
653.377	159.88
653.581	153.88
653.785	164.88
653.99	171.88
654.194	156.88
654.398	153.88
654.602	152.88
654.806	157.88
655.01	150.88
655.214	150.88
655.418	144.88
655.622	157.88
655.826	146.88
656.03	152.88
656.234	151.88
656.438	151.88
656.642	174.88
656.846	158.88
657.049	137.88
657.253	134.88
657.457	119.88
657.661	119.88
657.865	130.88
658.068	122.88
658.272	128.88
658.476	124.88
658.68	124.88
658.883	99.88
659.087	103.88
659.291	102.88
659.494	113.88
659.698	97.88
659.901	118.88
660.105	103.88
660.309	107.88
660.512	90.88
660.716	92.88
660.919	104.88
661.123	107.88
661.326	97.88
661.53	92.88
661.733	99.88
661.936	96.88
662.14	94.88
662.343	88.88
662.546	87.88
662.75	96.88
662.953	99.88
663.156	93.88
663.36	94.88
663.563	81.88
663.766	88.88
663.969	87.88
664.173	77.88
664.376	81.88
664.579	77.88
664.782	79.88
664.985	72.88
665.188	88.88
665.391	82.88
665.594	90.88
665.797	90.88
666	87.88
666.203	81.88
666.406	88.88
666.609	79.88
666.812	84.88
667.015	82.88
667.218	83.88
667.421	83.88
667.624	77.88
667.827	83.88
668.03	78.88
668.232	78.88
668.435	80.88
668.638	75.88
668.841	75.88
669.043	86.88
669.246	81.88
669.449	88.88
669.651	83.88
669.854	73.88
670.057	77.88
670.259	82.88
670.462	76.88
670.665	97.88
670.867	96.88
671.07	80.88
671.272	80.88
671.475	88.88
671.677	76.88
671.88	84.88
672.082	69.88
672.284	91.88
672.487	81.88
672.689	81.88
672.892	83.88
