Data from 1963.PennyLincolnUp.Lamp.En5.5.200Scan.071719.P1._HRD10591_13-59-17-063.txt Node
Date: Thu Jul 18 13:59:17 EDT 2019
User: cochatt
Spectrometer: HR+D1059
Trigger mode: 1
Integration Time (sec): 1.000000E-1
Scans to average: 1
Electric dark correction enabled: true
Nonlinearity correction enabled: false
Boxcar width: 0
XAxis mode: Wavelengths
Number of Pixels in Spectrum: 2048
>>>>>Begin Spectral Data<<<<<
223.165	-29.25
223.4	-29.25
223.635	-29.25
223.869	-11.25
224.104	-13.25
224.338	-4.25
224.573	-7.25
224.808	-2.25
225.042	-0.25
225.277	-17.25
225.511	-11.25
225.746	-5.25
225.98	5.75
226.215	23.75
226.449	6.75
226.683	15.75
226.918	21.75
227.152	27.75
227.387	31.75
227.621	46.75
227.856	59.75
228.09	35.75
228.324	41.75
228.559	65.75
228.793	80.75
229.027	82.75
229.262	102.75
229.496	105.75
229.73	127.75
229.964	150.75
230.199	128.75
230.433	135.75
230.667	117.75
230.901	118.75
231.136	118.75
231.37	133.75
231.604	132.75
231.838	129.75
232.072	117.75
232.306	126.75
232.541	109.75
232.775	119.75
233.009	120.75
233.243	131.75
233.477	120.75
233.711	125.75
233.945	126.75
234.179	131.75
234.413	132.75
234.647	122.75
234.881	131.75
235.115	122.75
235.349	124.75
235.583	123.75
235.817	127.75
236.051	131.75
236.285	132.75
236.519	130.75
236.753	144.75
236.987	148.75
237.221	175.75
237.455	219.75
237.689	168.75
237.922	152.75
238.156	133.75
238.39	136.75
238.624	124.75
238.858	139.75
239.091	138.75
239.325	133.75
239.559	144.75
239.793	139.75
240.027	139.75
240.26	155.75
240.494	159.75
240.728	163.75
240.961	175.75
241.195	150.75
241.429	137.75
241.662	150.75
241.896	145.75
242.13	148.75
242.363	141.75
242.597	157.75
242.83	163.75
243.064	152.75
243.298	155.75
243.531	159.75
243.765	164.75
243.998	171.75
244.232	173.75
244.465	188.75
244.699	151.75
244.932	161.75
245.166	170.75
245.399	159.75
245.633	172.75
245.866	163.75
246.099	158.75
246.333	173.75
246.566	172.75
246.8	167.75
247.033	162.75
247.266	188.75
247.5	197.75
247.733	200.75
247.966	192.75
248.2	180.75
248.433	206.75
248.666	196.75
248.899	205.75
249.133	206.75
249.366	224.75
249.599	210.75
249.832	199.75
250.066	214.75
250.299	206.75
250.532	204.75
250.765	223.75
250.998	246.75
251.231	255.75
251.465	231.75
251.698	220.75
251.931	202.75
252.164	226.75
252.397	208.75
252.63	242.75
252.863	208.75
253.096	217.75
253.329	249.75
253.562	236.75
253.795	242.75
254.028	223.75
254.261	258.75
254.494	245.75
254.727	260.75
254.96	282.75
255.193	284.75
255.426	259.75
255.659	261.75
255.892	259.75
256.124	255.75
256.357	260.75
256.59	262.75
256.823	235.75
257.056	230.75
257.289	245.75
257.521	235.75
257.754	247.75
257.987	242.75
258.22	232.75
258.452	232.75
258.685	229.75
258.918	233.75
259.151	260.75
259.383	244.75
259.616	251.75
259.849	266.75
260.081	256.75
260.314	287.75
260.547	284.75
260.779	268.75
261.012	255.75
261.244	254.75
261.477	250.75
261.71	231.75
261.942	244.75
262.175	264.75
262.407	260.75
262.64	262.75
262.872	246.75
263.105	258.75
263.337	246.75
263.57	255.75
263.802	228.75
264.035	244.75
264.267	255.75
264.499	244.75
264.732	265.75
264.964	271.75
265.197	256.75
265.429	249.75
265.661	249.75
265.894	265.75
266.126	267.75
266.358	239.75
266.591	273.75
266.823	246.75
267.055	247.75
267.287	272.75
267.52	272.75
267.752	276.75
267.984	270.75
268.216	258.75
268.448	291.75
268.681	280.75
268.913	276.75
269.145	302.75
269.377	322.75
269.609	301.75
269.841	302.75
270.073	309.75
270.306	327.75
270.538	339.75
270.77	340.75
271.002	323.75
271.234	320.75
271.466	339.75
271.698	349.75
271.93	335.75
272.162	352.75
272.394	350.75
272.626	329.75
272.858	322.75
273.09	310.75
273.322	306.75
273.553	307.75
273.785	307.75
274.017	320.75
274.249	302.75
274.481	296.75
274.713	287.75
274.945	311.75
275.176	302.75
275.408	314.75
275.64	317.75
275.872	314.75
276.104	308.75
276.335	308.75
276.567	309.75
276.799	323.75
277.031	320.75
277.262	330.75
277.494	350.75
277.726	350.75
277.957	339.75
278.189	319.75
278.421	323.75
278.652	315.75
278.884	323.75
279.115	327.75
279.347	327.75
279.579	332.75
279.81	314.75
280.042	315.75
280.273	320.75
280.505	317.75
280.736	324.75
280.968	313.75
281.199	341.75
281.431	336.75
281.662	326.75
281.894	333.75
282.125	339.75
282.356	340.75
282.588	336.75
282.819	359.75
283.051	351.75
283.282	339.75
283.513	337.75
283.745	321.75
283.976	342.75
284.207	345.75
284.439	358.75
284.67	350.75
284.901	345.75
285.132	342.75
285.364	346.75
285.595	343.75
285.826	340.75
286.057	342.75
286.288	339.75
286.52	346.75
286.751	333.75
286.982	368.75
287.213	338.75
287.444	359.75
287.675	360.75
287.906	364.75
288.138	365.75
288.369	367.75
288.6	366.75
288.831	380.75
289.062	370.75
289.293	359.75
289.524	346.75
289.755	367.75
289.986	348.75
290.217	362.75
290.448	367.75
290.679	347.75
290.91	374.75
291.141	382.75
291.371	358.75
291.602	373.75
291.833	357.75
292.064	352.75
292.295	361.75
292.526	365.75
292.757	381.75
292.987	376.75
293.218	381.75
293.449	365.75
293.68	368.75
293.91	384.75
294.141	383.75
294.372	379.75
294.603	374.75
294.833	380.75
295.064	365.75
295.295	377.75
295.525	362.75
295.756	382.75
295.987	386.75
296.217	406.75
296.448	416.75
296.679	394.75
296.909	382.75
297.14	361.75
297.37	380.75
297.601	386.75
297.831	381.75
298.062	389.75
298.292	397.75
298.523	395.75
298.753	405.75
298.984	401.75
299.214	400.75
299.445	416.75
299.675	392.75
299.905	394.75
300.136	406.75
300.366	393.75
300.597	398.75
300.827	415.75
301.057	419.75
301.288	424.75
301.518	399.75
301.748	422.75
301.979	418.75
302.209	406.75
302.439	411.75
302.669	419.75
302.9	430.75
303.13	408.75
303.36	436.75
303.59	408.75
303.82	423.75
304.051	439.75
304.281	429.75
304.511	423.75
304.741	426.75
304.971	423.75
305.201	425.75
305.431	410.75
305.661	434.75
305.891	416.75
306.121	413.75
306.352	435.75
306.582	421.75
306.812	414.75
307.042	426.75
307.272	424.75
307.502	426.75
307.731	416.75
307.961	438.75
308.191	403.75
308.421	438.75
308.651	433.75
308.881	422.75
309.111	426.75
309.341	421.75
309.571	433.75
309.8	450.75
310.03	452.75
310.26	432.75
310.49	420.75
310.72	467.75
310.949	449.75
311.179	480.75
311.409	450.75
311.639	458.75
311.868	442.75
312.098	456.75
312.328	459.75
312.557	466.75
312.787	485.75
313.017	460.75
313.246	455.75
313.476	471.75
313.706	487.75
313.935	453.75
314.165	482.75
314.394	482.75
314.624	489.75
314.853	468.75
315.083	452.75
315.312	465.75
315.542	465.75
315.771	453.75
316.001	484.75
316.23	474.75
316.46	480.75
316.689	473.75
316.919	464.75
317.148	478.75
317.377	472.75
317.607	448.75
317.836	457.75
318.065	457.75
318.295	466.75
318.524	468.75
318.753	461.75
318.983	458.75
319.212	459.75
319.441	468.75
319.67	485.75
319.9	475.75
320.129	468.75
320.358	473.75
320.587	459.75
320.816	486.75
321.046	461.75
321.275	475.75
321.504	480.75
321.733	490.75
321.962	464.75
322.191	508.75
322.42	511.75
322.649	518.75
322.878	492.75
323.108	500.75
323.337	539.75
323.566	563.75
323.795	567.75
324.024	569.75
324.253	648.75
324.482	835.75
324.71	1233.75
324.939	1737.75
325.168	1558.75
325.397	844.75
325.626	653.75
325.855	596.75
326.084	551.75
326.313	552.75
326.542	552.75
326.77	571.75
326.999	659.75
327.228	803.75
327.457	1152.75
327.686	1408.75
327.914	979.75
328.143	690.75
328.372	631.75
328.6	640.75
328.829	601.75
329.058	614.75
329.287	598.75
329.515	592.75
329.744	575.75
329.972	587.75
330.201	600.75
330.43	616.75
330.658	648.75
330.887	644.75
331.115	638.75
331.344	598.75
331.572	584.75
331.801	589.75
332.03	623.75
332.258	591.75
332.486	591.75
332.715	592.75
332.943	605.75
333.172	599.75
333.4	624.75
333.629	648.75
333.857	651.75
334.085	644.75
334.314	669.75
334.542	657.75
334.771	691.75
334.999	635.75
335.227	623.75
335.455	602.75
335.684	609.75
335.912	597.75
336.14	592.75
336.369	588.75
336.597	596.75
336.825	590.75
337.053	564.75
337.281	547.75
337.51	572.75
337.738	586.75
337.966	572.75
338.194	560.75
338.422	574.75
338.65	540.75
338.878	585.75
339.106	564.75
339.334	563.75
339.562	527.75
339.79	551.75
340.018	547.75
340.246	531.75
340.474	537.75
340.702	537.75
340.93	535.75
341.158	553.75
341.386	528.75
341.614	559.75
341.842	519.75
342.07	524.75
342.298	536.75
342.526	522.75
342.754	519.75
342.981	519.75
343.209	536.75
343.437	572.75
343.665	579.75
343.893	600.75
344.12	592.75
344.348	594.75
344.576	574.75
344.804	584.75
345.031	577.75
345.259	560.75
345.487	553.75
345.714	536.75
345.942	537.75
346.17	534.75
346.397	501.75
346.625	535.75
346.853	525.75
347.08	516.75
347.308	521.75
347.535	535.75
347.763	555.75
347.99	549.75
348.218	521.75
348.445	516.75
348.673	515.75
348.9	548.75
349.128	519.75
349.355	511.75
349.583	541.75
349.81	499.75
350.037	494.75
350.265	484.75
350.492	516.75
350.72	521.75
350.947	504.75
351.174	505.75
351.402	540.75
351.629	511.75
351.856	523.75
352.083	517.75
352.311	535.75
352.538	506.75
352.765	526.75
352.992	495.75
353.22	501.75
353.447	518.75
353.674	526.75
353.901	507.75
354.128	488.75
354.355	487.75
354.583	490.75
354.81	503.75
355.037	522.75
355.264	512.75
355.491	486.75
355.718	493.75
355.945	493.75
356.172	494.75
356.399	525.75
356.626	470.75
356.853	479.75
357.08	503.75
357.307	511.75
357.534	499.75
357.761	499.75
357.988	508.75
358.215	499.75
358.441	511.75
358.668	488.75
358.895	513.75
359.122	478.75
359.349	481.75
359.576	519.75
359.802	521.75
360.029	538.75
360.256	557.75
360.483	542.75
360.709	522.75
360.936	546.75
361.163	520.75
361.39	520.75
361.616	508.75
361.843	489.75
362.07	508.75
362.296	532.75
362.523	540.75
362.749	525.75
362.976	514.75
363.203	519.75
363.429	493.75
363.656	492.75
363.882	503.75
364.109	499.75
364.335	495.75
364.562	510.75
364.788	483.75
365.015	519.75
365.241	510.75
365.468	514.75
365.694	498.75
365.92	492.75
366.147	494.75
366.373	480.75
366.599	521.75
366.826	494.75
367.052	499.75
367.278	512.75
367.505	481.75
367.731	495.75
367.957	503.75
368.184	502.75
368.41	511.75
368.636	495.75
368.862	504.75
369.089	516.75
369.315	522.75
369.541	514.75
369.767	526.75
369.993	516.75
370.219	521.75
370.445	514.75
370.672	519.75
370.898	540.75
371.124	522.75
371.35	526.75
371.576	538.75
371.802	523.75
372.028	546.75
372.254	501.75
372.48	527.75
372.706	528.75
372.932	527.75
373.158	524.75
373.384	527.75
373.61	510.75
373.835	528.75
374.061	529.75
374.287	552.75
374.513	550.75
374.739	518.75
374.965	544.75
375.191	570.75
375.416	547.75
375.642	555.75
375.868	566.75
376.094	538.75
376.319	525.75
376.545	520.75
376.771	526.75
376.997	535.75
377.222	540.75
377.448	508.75
377.674	527.75
377.899	535.75
378.125	525.75
378.35	534.75
378.576	504.75
378.802	525.75
379.027	514.75
379.253	523.75
379.478	525.75
379.704	535.75
379.929	519.75
380.155	520.75
380.38	512.75
380.606	535.75
380.831	502.75
381.057	539.75
381.282	534.75
381.507	554.75
381.733	521.75
381.958	530.75
382.184	514.75
382.409	547.75
382.634	537.75
382.86	536.75
383.085	546.75
383.31	548.75
383.535	580.75
383.761	566.75
383.986	584.75
384.211	574.75
384.436	588.75
384.662	578.75
384.887	569.75
385.112	595.75
385.337	587.75
385.562	612.75
385.787	617.75
386.013	633.75
386.238	606.75
386.463	621.75
386.688	622.75
386.913	595.75
387.138	600.75
387.363	610.75
387.588	593.75
387.813	596.75
388.038	595.75
388.263	604.75
388.488	604.75
388.713	587.75
388.938	588.75
389.163	608.75
389.387	601.75
389.612	600.75
389.837	587.75
390.062	566.75
390.287	602.75
390.512	584.75
390.736	607.75
390.961	617.75
391.186	619.75
391.411	620.75
391.636	643.75
391.86	644.75
392.085	670.75
392.31	654.75
392.534	657.75
392.759	629.75
392.984	596.75
393.208	600.75
393.433	633.75
393.658	607.75
393.882	632.75
394.107	623.75
394.331	623.75
394.556	643.75
394.78	638.75
395.005	633.75
395.229	652.75
395.454	624.75
395.678	674.75
395.903	684.75
396.127	678.75
396.352	668.75
396.576	623.75
396.801	623.75
397.025	628.75
397.249	658.75
397.474	672.75
397.698	683.75
397.922	668.75
398.147	664.75
398.371	683.75
398.595	703.75
398.82	729.75
399.044	742.75
399.268	820.75
399.492	884.75
399.717	966.75
399.941	968.75
400.165	940.75
400.389	884.75
400.613	811.75
400.837	796.75
401.062	770.75
401.286	746.75
401.51	714.75
401.734	731.75
401.958	734.75
402.182	730.75
402.406	754.75
402.63	776.75
402.854	746.75
403.078	762.75
403.302	780.75
403.526	800.75
403.75	794.75
403.974	786.75
404.198	773.75
404.422	785.75
404.645	800.75
404.869	792.75
405.093	821.75
405.317	812.75
405.541	853.75
405.765	825.75
405.988	790.75
406.212	797.75
406.436	805.75
406.66	860.75
406.883	816.75
407.107	872.75
407.331	918.75
407.555	952.75
407.778	965.75
408.002	912.75
408.226	878.75
408.449	840.75
408.673	808.75
408.896	861.75
409.12	841.75
409.344	848.75
409.567	774.75
409.791	774.75
410.014	759.75
410.238	785.75
410.461	796.75
410.685	744.75
410.908	731.75
411.132	762.75
411.355	818.75
411.578	797.75
411.802	751.75
412.025	775.75
412.249	746.75
412.472	788.75
412.695	824.75
412.919	815.75
413.142	747.75
413.365	746.75
413.589	732.75
413.812	719.75
414.035	706.75
414.258	732.75
414.482	716.75
414.705	720.75
414.928	725.75
415.151	715.75
415.374	728.75
415.597	733.75
415.821	719.75
416.044	736.75
416.267	724.75
416.49	704.75
416.713	713.75
416.936	720.75
417.159	676.75
417.382	683.75
417.605	714.75
417.828	698.75
418.051	732.75
418.274	731.75
418.497	709.75
418.72	716.75
418.943	692.75
419.166	767.75
419.389	832.75
419.611	777.75
419.834	776.75
420.057	774.75
420.28	735.75
420.503	745.75
420.726	704.75
420.948	744.75
421.171	780.75
421.394	788.75
421.617	732.75
421.839	720.75
422.062	750.75
422.285	747.75
422.507	793.75
422.73	846.75
422.953	842.75
423.175	764.75
423.398	776.75
423.621	765.75
423.843	799.75
424.066	790.75
424.288	782.75
424.511	795.75
424.733	828.75
424.956	885.75
425.178	836.75
425.401	840.75
425.623	886.75
425.846	799.75
426.068	750.75
426.291	739.75
426.513	719.75
426.735	724.75
426.958	746.75
427.18	809.75
427.402	939.75
427.625	1015.75
427.847	913.75
428.069	821.75
428.292	750.75
428.514	706.75
428.736	689.75
428.958	701.75
429.181	669.75
429.403	700.75
429.625	674.75
429.847	695.75
430.069	756.75
430.292	747.75
430.514	663.75
430.736	677.75
430.958	686.75
431.18	660.75
431.402	656.75
431.624	669.75
431.846	669.75
432.068	664.75
432.29	688.75
432.512	675.75
432.734	682.75
432.956	668.75
433.178	657.75
433.4	681.75
433.622	660.75
433.844	692.75
434.066	656.75
434.287	679.75
434.509	720.75
434.731	724.75
434.953	719.75
435.175	715.75
435.397	744.75
435.618	755.75
435.84	748.75
436.062	832.75
436.284	868.75
436.505	764.75
436.727	730.75
436.949	715.75
437.17	698.75
437.392	679.75
437.614	670.75
437.835	689.75
438.057	778.75
438.278	861.75
438.5	863.75
438.721	936.75
438.943	909.75
439.165	760.75
439.386	703.75
439.608	685.75
439.829	692.75
440.05	714.75
440.272	773.75
440.493	743.75
440.715	718.75
440.936	718.75
441.158	709.75
441.379	711.75
441.6	749.75
441.822	762.75
442.043	766.75
442.264	844.75
442.486	866.75
442.707	793.75
442.928	731.75
443.149	763.75
443.371	761.75
443.592	809.75
443.813	901.75
444.034	964.75
444.255	845.75
444.476	820.75
444.698	845.75
444.919	844.75
445.14	944.75
445.361	831.75
445.582	796.75
445.803	822.75
446.024	888.75
446.245	892.75
446.466	828.75
446.687	761.75
446.908	747.75
447.129	672.75
447.35	679.75
447.571	692.75
447.792	650.75
448.013	646.75
448.234	657.75
448.455	699.75
448.675	803.75
448.896	887.75
449.117	770.75
449.338	741.75
449.559	854.75
449.779	935.75
450	782.75
450.221	674.75
450.442	649.75
450.662	656.75
450.883	642.75
451.104	650.75
451.324	642.75
451.545	623.75
451.766	597.75
451.986	600.75
452.207	605.75
452.428	610.75
452.648	609.75
452.869	587.75
453.089	621.75
453.31	626.75
453.53	623.75
453.751	590.75
453.971	595.75
454.192	626.75
454.412	620.75
454.633	605.75
454.853	582.75
455.073	604.75
455.294	613.75
455.514	664.75
455.734	656.75
455.955	612.75
456.175	612.75
456.395	573.75
456.616	562.75
456.836	584.75
457.056	569.75
457.276	567.75
457.497	566.75
457.717	572.75
457.937	585.75
458.157	573.75
458.377	588.75
458.598	622.75
458.818	659.75
459.038	721.75
459.258	733.75
459.478	696.75
459.698	674.75
459.918	682.75
460.138	697.75
460.358	724.75
460.578	721.75
460.798	729.75
461.018	738.75
461.238	730.75
461.458	728.75
461.678	706.75
461.898	746.75
462.118	739.75
462.338	751.75
462.558	790.75
462.777	792.75
462.997	827.75
463.217	877.75
463.437	870.75
463.657	842.75
463.876	822.75
464.096	818.75
464.316	794.75
464.536	809.75
464.755	820.75
464.975	772.75
465.195	805.75
465.414	798.75
465.634	724.75
465.854	695.75
466.073	695.75
466.293	650.75
466.512	643.75
466.732	656.75
466.951	634.75
467.171	655.75
467.391	635.75
467.61	648.75
467.829	652.75
468.049	641.75
468.268	646.75
468.488	630.75
468.707	631.75
468.927	627.75
469.146	600.75
469.365	623.75
469.585	637.75
469.804	636.75
470.023	629.75
470.243	654.75
470.462	678.75
470.681	657.75
470.901	672.75
471.12	647.75
471.339	681.75
471.558	663.75
471.777	641.75
471.997	637.75
472.216	634.75
472.435	672.75
472.654	634.75
472.873	601.75
473.092	610.75
473.311	621.75
473.53	618.75
473.749	652.75
473.968	656.75
474.187	720.75
474.406	756.75
474.625	657.75
474.844	624.75
475.063	635.75
475.282	629.75
475.501	645.75
475.72	623.75
475.939	616.75
476.158	648.75
476.377	640.75
476.596	663.75
476.814	655.75
477.033	672.75
477.252	691.75
477.471	708.75
477.69	701.75
477.908	702.75
478.127	716.75
478.346	709.75
478.564	766.75
478.783	724.75
479.002	759.75
479.22	755.75
479.439	765.75
479.658	766.75
479.876	770.75
480.095	788.75
480.313	840.75
480.532	852.75
480.751	815.75
480.969	832.75
481.188	853.75
481.406	869.75
481.624	808.75
481.843	763.75
482.061	774.75
482.28	767.75
482.498	760.75
482.717	738.75
482.935	746.75
483.153	731.75
483.372	722.75
483.59	722.75
483.808	747.75
484.027	718.75
484.245	745.75
484.463	737.75
484.681	770.75
484.9	754.75
485.118	772.75
485.336	758.75
485.554	732.75
485.772	756.75
485.99	778.75
486.209	772.75
486.427	778.75
486.645	790.75
486.863	787.75
487.081	773.75
487.299	792.75
487.517	792.75
487.735	760.75
487.953	785.75
488.171	784.75
488.389	805.75
488.607	774.75
488.825	788.75
489.043	767.75
489.261	773.75
489.479	765.75
489.696	823.75
489.914	797.75
490.132	774.75
490.35	811.75
490.568	802.75
490.786	848.75
491.003	833.75
491.221	864.75
491.439	829.75
491.657	847.75
491.874	857.75
492.092	861.75
492.31	848.75
492.527	902.75
492.745	882.75
492.963	898.75
493.18	907.75
493.398	900.75
493.615	912.75
493.833	897.75
494.05	898.75
494.268	909.75
494.485	911.75
494.703	903.75
494.92	924.75
495.138	904.75
495.355	916.75
495.573	912.75
495.79	926.75
496.008	922.75
496.225	906.75
496.442	925.75
496.66	896.75
496.877	932.75
497.094	952.75
497.312	940.75
497.529	1000.75
497.746	1003.75
497.963	1001.75
498.181	1051.75
498.398	1067.75
498.615	1117.75
498.832	1146.75
499.049	1169.75
499.267	1276.75
499.484	1347.75
499.701	1420.75
499.918	1504.75
500.135	1647.75
500.352	1826.75
500.569	1873.75
500.786	1884.75
501.003	1806.75
501.22	1663.75
501.437	1529.75
501.654	1439.75
501.871	1375.75
502.088	1302.75
502.305	1199.75
502.522	1154.75
502.739	1144.75
502.956	1076.75
503.172	1046.75
503.389	1005.75
503.606	983.75
503.823	974.75
504.04	950.75
504.256	971.75
504.473	971.75
504.69	976.75
504.907	981.75
505.123	953.75
505.34	921.75
505.557	909.75
505.773	884.75
505.99	884.75
506.207	876.75
506.423	874.75
506.64	846.75
506.856	857.75
507.073	839.75
507.289	850.75
507.506	819.75
507.722	814.75
507.939	831.75
508.155	791.75
508.372	813.75
508.588	825.75
508.805	788.75
509.021	785.75
509.238	787.75
509.454	801.75
509.67	792.75
509.887	787.75
510.103	791.75
510.319	793.75
510.536	883.75
510.752	1229.75
510.968	1050.75
511.184	797.75
511.401	792.75
511.617	763.75
511.833	765.75
512.049	759.75
512.265	746.75
512.481	755.75
512.698	764.75
512.914	762.75
513.13	739.75
513.346	731.75
513.562	747.75
513.778	740.75
513.994	748.75
514.21	737.75
514.426	775.75
514.642	806.75
514.858	826.75
515.074	811.75
515.29	930.75
515.506	1235.75
515.721	1094.75
515.937	852.75
516.153	858.75
516.369	834.75
516.585	847.75
516.801	828.75
517.016	838.75
517.232	859.75
517.448	906.75
517.664	889.75
517.879	922.75
518.095	916.75
518.311	921.75
518.527	879.75
518.742	860.75
518.958	813.75
519.173	827.75
519.389	798.75
519.605	792.75
519.82	782.75
520.036	792.75
520.251	779.75
520.467	803.75
520.682	770.75
520.898	790.75
521.113	785.75
521.329	800.75
521.544	842.75
521.76	960.75
521.975	1412.75
522.19	1486.75
522.406	918.75
522.621	779.75
522.836	725.75
523.052	720.75
523.267	698.75
523.482	682.75
523.698	687.75
523.913	686.75
524.128	682.75
524.343	680.75
524.559	626.75
524.774	661.75
524.989	675.75
525.204	664.75
525.419	654.75
525.634	650.75
525.849	647.75
526.064	652.75
526.28	647.75
526.495	626.75
526.71	622.75
526.925	648.75
527.14	645.75
527.355	626.75
527.57	629.75
527.785	623.75
527.999	631.75
528.214	618.75
528.429	642.75
528.644	628.75
528.859	664.75
529.074	636.75
529.289	635.75
529.503	713.75
529.718	686.75
529.933	649.75
530.148	653.75
530.363	642.75
530.577	613.75
530.792	638.75
531.007	634.75
531.221	626.75
531.436	639.75
531.651	609.75
531.865	639.75
532.08	606.75
532.295	619.75
532.509	627.75
532.724	621.75
532.938	622.75
533.153	620.75
533.367	627.75
533.582	622.75
533.796	609.75
534.011	627.75
534.225	616.75
534.44	598.75
534.654	653.75
534.868	612.75
535.083	607.75
535.297	612.75
535.511	605.75
535.726	646.75
535.94	626.75
536.154	609.75
536.369	630.75
536.583	585.75
536.797	586.75
537.011	607.75
537.225	598.75
537.44	603.75
537.654	594.75
537.868	586.75
538.082	585.75
538.296	595.75
538.51	582.75
538.724	600.75
538.938	589.75
539.153	566.75
539.367	591.75
539.581	601.75
539.795	576.75
540.009	589.75
540.222	581.75
540.436	580.75
540.65	588.75
540.864	592.75
541.078	587.75
541.292	597.75
541.506	582.75
541.72	571.75
541.934	580.75
542.147	607.75
542.361	581.75
542.575	580.75
542.789	561.75
543.002	570.75
543.216	567.75
543.43	570.75
543.644	596.75
543.857	582.75
544.071	583.75
544.285	578.75
544.498	589.75
544.712	582.75
544.925	587.75
545.139	587.75
545.352	585.75
545.566	583.75
545.779	565.75
545.993	591.75
546.206	588.75
546.42	595.75
546.633	575.75
546.847	588.75
547.06	571.75
547.274	583.75
547.487	581.75
547.7	586.75
547.914	587.75
548.127	578.75
548.34	582.75
548.554	594.75
548.767	585.75
548.98	573.75
549.193	590.75
549.407	583.75
549.62	612.75
549.833	610.75
550.046	591.75
550.259	573.75
550.473	566.75
550.686	595.75
550.899	569.75
551.112	569.75
551.325	581.75
551.538	572.75
551.751	575.75
551.964	589.75
552.177	570.75
552.39	579.75
552.603	594.75
552.816	613.75
553.029	620.75
553.242	624.75
553.455	636.75
553.667	623.75
553.88	622.75
554.093	618.75
554.306	607.75
554.519	587.75
554.732	594.75
554.944	569.75
555.157	560.75
555.37	548.75
555.583	550.75
555.795	551.75
556.008	573.75
556.221	543.75
556.433	499.75
556.646	540.75
556.859	507.75
557.071	540.75
557.284	499.75
557.496	514.75
557.709	526.75
557.921	501.75
558.134	506.75
558.346	527.75
558.559	510.75
558.771	500.75
558.984	508.75
559.196	504.75
559.409	518.75
559.621	534.75
559.833	502.75
560.046	487.75
560.258	485.75
560.47	503.75
560.683	491.75
560.895	500.75
561.107	514.75
561.32	519.75
561.532	500.75
561.744	484.75
561.956	489.75
562.168	501.75
562.381	511.75
562.593	512.75
562.805	522.75
563.017	520.75
563.229	510.75
563.441	508.75
563.653	520.75
563.865	542.75
564.077	518.75
564.289	520.75
564.501	526.75
564.713	518.75
564.925	540.75
565.137	563.75
565.349	582.75
565.561	574.75
565.773	595.75
565.985	610.75
566.197	647.75
566.408	664.75
566.62	720.75
566.832	730.75
567.044	776.75
567.255	741.75
567.467	774.75
567.679	790.75
567.891	827.75
568.102	848.75
568.314	832.75
568.526	762.75
568.737	720.75
568.949	674.75
569.161	640.75
569.372	610.75
569.584	580.75
569.795	566.75
570.007	537.75
570.218	578.75
570.43	559.75
570.641	534.75
570.853	526.75
571.064	526.75
571.276	545.75
571.487	526.75
571.698	509.75
571.91	488.75
572.121	474.75
572.333	503.75
572.544	482.75
572.755	465.75
572.966	465.75
573.178	463.75
573.389	456.75
573.6	442.75
573.811	458.75
574.023	430.75
574.234	436.75
574.445	439.75
574.656	440.75
574.867	451.75
575.078	467.75
575.289	436.75
575.501	441.75
575.712	430.75
575.923	423.75
576.134	429.75
576.345	434.75
576.556	443.75
576.767	402.75
576.978	448.75
577.188	422.75
577.399	424.75
577.61	419.75
577.821	409.75
578.032	415.75
578.243	436.75
578.454	575.75
578.665	466.75
578.875	428.75
579.086	388.75
579.297	401.75
579.508	409.75
579.718	418.75
579.929	415.75
580.14	397.75
580.35	414.75
580.561	401.75
580.772	395.75
580.982	362.75
581.193	401.75
581.403	383.75
581.614	408.75
581.825	381.75
582.035	375.75
582.246	375.75
582.456	390.75
582.667	382.75
582.877	390.75
583.087	395.75
583.298	382.75
583.508	391.75
583.719	394.75
583.929	389.75
584.139	378.75
584.35	377.75
584.56	378.75
584.77	385.75
584.981	375.75
585.191	386.75
585.401	380.75
585.611	385.75
585.821	382.75
586.032	382.75
586.242	380.75
586.452	383.75
586.662	362.75
586.872	376.75
587.082	370.75
587.292	372.75
587.502	369.75
587.713	383.75
587.923	365.75
588.133	376.75
588.343	382.75
588.553	375.75
588.762	371.75
588.972	380.75
589.182	379.75
589.392	392.75
589.602	403.75
589.812	383.75
590.022	380.75
590.232	397.75
590.441	398.75
590.651	374.75
590.861	383.75
591.071	400.75
591.281	397.75
591.49	384.75
591.7	398.75
591.91	422.75
592.119	414.75
592.329	436.75
592.539	438.75
592.748	440.75
592.958	438.75
593.167	440.75
593.377	469.75
593.587	473.75
593.796	426.75
594.006	458.75
594.215	449.75
594.424	452.75
594.634	444.75
594.843	451.75
595.053	422.75
595.262	397.75
595.472	417.75
595.681	379.75
595.89	395.75
596.1	382.75
596.309	364.75
596.518	380.75
596.727	374.75
596.937	358.75
597.146	347.75
597.355	360.75
597.564	350.75
597.774	341.75
597.983	341.75
598.192	349.75
598.401	336.75
598.61	359.75
598.819	319.75
599.028	337.75
599.237	338.75
599.446	332.75
599.655	352.75
599.864	350.75
600.073	331.75
600.282	342.75
600.491	330.75
600.7	338.75
600.909	333.75
601.118	307.75
601.327	357.75
601.536	330.75
601.745	320.75
601.953	321.75
602.162	331.75
602.371	310.75
602.58	316.75
602.789	314.75
602.997	319.75
603.206	316.75
603.415	302.75
603.623	311.75
603.832	318.75
604.041	331.75
604.249	316.75
604.458	298.75
604.666	319.75
604.875	310.75
605.084	310.75
605.292	296.75
605.501	298.75
605.709	324.75
605.918	296.75
606.126	315.75
606.334	302.75
606.543	312.75
606.751	293.75
606.96	290.75
607.168	301.75
607.376	313.75
607.585	294.75
607.793	300.75
608.001	286.75
608.21	297.75
608.418	294.75
608.626	288.75
608.834	310.75
609.043	297.75
609.251	297.75
609.459	289.75
609.667	301.75
609.875	296.75
610.083	307.75
610.291	316.75
610.499	319.75
610.707	298.75
610.916	297.75
611.124	314.75
611.332	288.75
611.54	314.75
611.748	296.75
611.955	304.75
612.163	286.75
612.371	294.75
612.579	311.75
612.787	287.75
612.995	286.75
613.203	304.75
613.411	283.75
613.618	286.75
613.826	312.75
614.034	288.75
614.242	282.75
614.449	278.75
614.657	299.75
614.865	287.75
615.072	295.75
615.28	310.75
615.488	284.75
615.695	292.75
615.903	289.75
616.111	302.75
616.318	302.75
616.526	301.75
616.733	293.75
616.941	300.75
617.148	298.75
617.356	310.75
617.563	272.75
617.771	284.75
617.978	288.75
618.185	276.75
618.393	296.75
618.6	298.75
618.807	290.75
619.015	298.75
619.222	303.75
619.429	295.75
619.637	286.75
619.844	283.75
620.051	261.75
620.258	296.75
620.466	277.75
620.673	285.75
620.88	282.75
621.087	282.75
621.294	286.75
621.501	276.75
621.708	265.75
621.915	280.75
622.122	262.75
622.329	270.75
622.536	272.75
622.743	273.75
622.95	277.75
623.157	282.75
623.364	262.75
623.571	252.75
623.778	276.75
623.985	267.75
624.192	269.75
624.399	268.75
624.606	279.75
624.812	258.75
625.019	248.75
625.226	262.75
625.433	265.75
625.639	242.75
625.846	265.75
626.053	263.75
626.259	238.75
626.466	229.75
626.673	263.75
626.879	255.75
627.086	256.75
627.293	234.75
627.499	277.75
627.706	242.75
627.912	239.75
628.119	248.75
628.325	249.75
628.532	242.75
628.738	231.75
628.945	232.75
629.151	255.75
629.357	236.75
629.564	227.75
629.77	255.75
629.976	237.75
630.183	238.75
630.389	227.75
630.595	234.75
630.802	232.75
631.008	229.75
631.214	245.75
631.42	242.75
631.627	248.75
631.833	230.75
632.039	238.75
632.245	235.75
632.451	214.75
632.657	235.75
632.863	230.75
633.069	232.75
633.275	242.75
633.481	242.75
633.688	232.75
633.893	222.75
634.099	218.75
634.305	219.75
634.511	222.75
634.717	227.75
634.923	214.75
635.129	227.75
635.335	216.75
635.541	222.75
635.747	230.75
635.952	213.75
636.158	218.75
636.364	209.75
636.57	233.75
636.775	229.75
636.981	226.75
637.187	222.75
637.392	238.75
637.598	215.75
637.804	215.75
638.009	203.75
638.215	211.75
638.421	195.75
638.626	216.75
638.832	215.75
639.037	204.75
639.243	199.75
639.448	217.75
639.654	206.75
639.859	205.75
640.065	209.75
640.27	220.75
640.475	211.75
640.681	218.75
640.886	198.75
641.091	214.75
641.297	205.75
641.502	202.75
641.707	194.75
641.913	201.75
642.118	197.75
642.323	214.75
642.528	201.75
642.733	196.75
642.939	184.75
643.144	191.75
643.349	208.75
643.554	199.75
643.759	200.75
643.964	196.75
644.169	197.75
644.374	196.75
644.579	200.75
644.784	194.75
644.989	189.75
645.194	196.75
645.399	187.75
645.604	203.75
645.809	202.75
646.014	181.75
646.219	185.75
646.423	192.75
646.628	205.75
646.833	200.75
647.038	203.75
647.243	204.75
647.447	208.75
647.652	217.75
647.857	202.75
648.062	211.75
648.266	196.75
648.471	215.75
648.676	219.75
648.88	210.75
649.085	209.75
649.289	200.75
649.494	203.75
649.698	219.75
649.903	220.75
650.107	198.75
650.312	186.75
650.516	188.75
650.721	191.75
650.925	181.75
651.13	191.75
651.334	181.75
651.539	173.75
651.743	190.75
651.947	171.75
652.152	168.75
652.356	170.75
652.56	162.75
652.764	162.75
652.969	173.75
653.173	162.75
653.377	134.75
653.581	162.75
653.785	161.75
653.99	154.75
654.194	157.75
654.398	156.75
654.602	158.75
654.806	160.75
655.01	165.75
655.214	170.75
655.418	154.75
655.622	148.75
655.826	141.75
656.03	162.75
656.234	154.75
656.438	175.75
656.642	163.75
656.846	146.75
657.049	155.75
657.253	151.75
657.457	150.75
657.661	142.75
657.865	133.75
658.068	101.75
658.272	122.75
658.476	136.75
658.68	107.75
658.883	117.75
659.087	104.75
659.291	101.75
659.494	110.75
659.698	89.75
659.901	101.75
660.105	112.75
660.309	101.75
660.512	100.75
660.716	95.75
660.919	90.75
661.123	107.75
661.326	113.75
661.53	92.75
661.733	95.75
661.936	99.75
662.14	93.75
662.343	103.75
662.546	84.75
662.75	91.75
662.953	95.75
663.156	81.75
663.36	79.75
663.563	78.75
663.766	70.75
663.969	98.75
664.173	86.75
664.376	76.75
664.579	73.75
664.782	83.75
664.985	86.75
665.188	89.75
665.391	85.75
665.594	83.75
665.797	83.75
666	87.75
666.203	76.75
666.406	92.75
666.609	75.75
666.812	80.75
667.015	90.75
667.218	92.75
667.421	65.75
667.624	68.75
667.827	87.75
668.03	90.75
668.232	89.75
668.435	87.75
668.638	93.75
668.841	93.75
669.043	82.75
669.246	85.75
669.449	82.75
669.651	80.75
669.854	80.75
670.057	78.75
670.259	87.75
670.462	80.75
670.665	91.75
670.867	79.75
671.07	85.75
671.272	89.75
671.475	97.75
671.677	81.75
671.88	97.75
672.082	82.75
672.284	86.75
672.487	71.75
672.689	75.75
672.892	99.75
