Data from 1963.PennyLincolnUp.Lamp.En5.5.200Scan.071719.P1._HRD10591_13-57-59-063.txt Node
Date: Thu Jul 18 13:57:59 EDT 2019
User: cochatt
Spectrometer: HR+D1059
Trigger mode: 1
Integration Time (sec): 1.000000E-1
Scans to average: 1
Electric dark correction enabled: true
Nonlinearity correction enabled: false
Boxcar width: 0
XAxis mode: Wavelengths
Number of Pixels in Spectrum: 2048
>>>>>Begin Spectral Data<<<<<
223.165	-2.62
223.4	-2.62
223.635	-2.62
223.869	-17.62
224.104	-22.62
224.338	-10.62
224.573	-28.62
224.808	-16.62
225.042	-13.62
225.277	2.38
225.511	-1.62
225.746	8.38
225.98	5.38
226.215	12.38
226.449	17.38
226.683	23.38
226.918	21.38
227.152	23.38
227.387	39.38
227.621	41.38
227.856	48.38
228.09	41.38
228.324	50.38
228.559	61.38
228.793	65.38
229.027	98.38
229.262	94.38
229.496	104.38
229.73	101.38
229.964	130.38
230.199	116.38
230.433	107.38
230.667	105.38
230.901	113.38
231.136	106.38
231.37	113.38
231.604	113.38
231.838	113.38
232.072	117.38
232.306	108.38
232.541	112.38
232.775	115.38
233.009	116.38
233.243	96.38
233.477	116.38
233.711	119.38
233.945	119.38
234.179	125.38
234.413	131.38
234.647	128.38
234.881	133.38
235.115	117.38
235.349	112.38
235.583	123.38
235.817	120.38
236.051	119.38
236.285	124.38
236.519	122.38
236.753	132.38
236.987	162.38
237.221	163.38
237.455	204.38
237.689	159.38
237.922	140.38
238.156	127.38
238.39	135.38
238.624	133.38
238.858	139.38
239.091	131.38
239.325	114.38
239.559	126.38
239.793	130.38
240.027	126.38
240.26	156.38
240.494	149.38
240.728	143.38
240.961	148.38
241.195	143.38
241.429	145.38
241.662	143.38
241.896	141.38
242.13	133.38
242.363	149.38
242.597	129.38
242.83	155.38
243.064	152.38
243.298	135.38
243.531	148.38
243.765	159.38
243.998	152.38
244.232	155.38
244.465	155.38
244.699	156.38
244.932	162.38
245.166	165.38
245.399	146.38
245.633	159.38
245.866	155.38
246.099	150.38
246.333	156.38
246.566	170.38
246.8	150.38
247.033	178.38
247.266	180.38
247.5	175.38
247.733	185.38
247.966	184.38
248.2	172.38
248.433	195.38
248.666	171.38
248.899	193.38
249.133	208.38
249.366	204.38
249.599	189.38
249.832	184.38
250.066	209.38
250.299	185.38
250.532	185.38
250.765	211.38
250.998	214.38
251.231	241.38
251.465	199.38
251.698	203.38
251.931	207.38
252.164	182.38
252.397	203.38
252.63	215.38
252.863	229.38
253.096	214.38
253.329	216.38
253.562	227.38
253.795	228.38
254.028	223.38
254.261	224.38
254.494	223.38
254.727	253.38
254.96	259.38
255.193	262.38
255.426	231.38
255.659	229.38
255.892	234.38
256.124	239.38
256.357	232.38
256.59	231.38
256.823	220.38
257.056	207.38
257.289	225.38
257.521	222.38
257.754	236.38
257.987	220.38
258.22	215.38
258.452	234.38
258.685	225.38
258.918	223.38
259.151	217.38
259.383	230.38
259.616	242.38
259.849	228.38
260.081	255.38
260.314	233.38
260.547	242.38
260.779	230.38
261.012	225.38
261.244	247.38
261.477	240.38
261.71	214.38
261.942	225.38
262.175	250.38
262.407	233.38
262.64	227.38
262.872	231.38
263.105	236.38
263.337	240.38
263.57	224.38
263.802	247.38
264.035	218.38
264.267	244.38
264.499	222.38
264.732	246.38
264.964	243.38
265.197	226.38
265.429	233.38
265.661	219.38
265.894	239.38
266.126	245.38
266.358	250.38
266.591	234.38
266.823	256.38
267.055	250.38
267.287	239.38
267.52	256.38
267.752	244.38
267.984	253.38
268.216	240.38
268.448	252.38
268.681	264.38
268.913	283.38
269.145	254.38
269.377	285.38
269.609	282.38
269.841	281.38
270.073	278.38
270.306	291.38
270.538	292.38
270.77	293.38
271.002	291.38
271.234	310.38
271.466	285.38
271.698	321.38
271.93	313.38
272.162	314.38
272.394	308.38
272.626	291.38
272.858	296.38
273.09	304.38
273.322	292.38
273.553	286.38
273.785	276.38
274.017	276.38
274.249	297.38
274.481	293.38
274.713	297.38
274.945	288.38
275.176	293.38
275.408	294.38
275.64	290.38
275.872	274.38
276.104	278.38
276.335	288.38
276.567	301.38
276.799	300.38
277.031	324.38
277.262	340.38
277.494	320.38
277.726	324.38
277.957	315.38
278.189	300.38
278.421	292.38
278.652	296.38
278.884	297.38
279.115	301.38
279.347	309.38
279.579	297.38
279.81	307.38
280.042	297.38
280.273	313.38
280.505	314.38
280.736	312.38
280.968	305.38
281.199	306.38
281.431	315.38
281.662	321.38
281.894	312.38
282.125	330.38
282.356	322.38
282.588	323.38
282.819	346.38
283.051	326.38
283.282	314.38
283.513	321.38
283.745	323.38
283.976	316.38
284.207	319.38
284.439	330.38
284.67	313.38
284.901	303.38
285.132	321.38
285.364	336.38
285.595	318.38
285.826	309.38
286.057	315.38
286.288	324.38
286.52	324.38
286.751	319.38
286.982	329.38
287.213	332.38
287.444	340.38
287.675	344.38
287.906	335.38
288.138	333.38
288.369	348.38
288.6	360.38
288.831	344.38
289.062	354.38
289.293	346.38
289.524	342.38
289.755	352.38
289.986	340.38
290.217	362.38
290.448	344.38
290.679	348.38
290.91	357.38
291.141	335.38
291.371	331.38
291.602	351.38
291.833	357.38
292.064	337.38
292.295	360.38
292.526	322.38
292.757	328.38
292.987	331.38
293.218	337.38
293.449	369.38
293.68	360.38
293.91	343.38
294.141	348.38
294.372	353.38
294.603	340.38
294.833	346.38
295.064	363.38
295.295	355.38
295.525	361.38
295.756	370.38
295.987	365.38
296.217	367.38
296.448	385.38
296.679	364.38
296.909	358.38
297.14	382.38
297.37	369.38
297.601	350.38
297.831	383.38
298.062	363.38
298.292	371.38
298.523	367.38
298.753	379.38
298.984	378.38
299.214	369.38
299.445	387.38
299.675	365.38
299.905	391.38
300.136	383.38
300.366	379.38
300.597	377.38
300.827	393.38
301.057	384.38
301.288	403.38
301.518	410.38
301.748	398.38
301.979	408.38
302.209	395.38
302.439	391.38
302.669	390.38
302.9	412.38
303.13	401.38
303.36	404.38
303.59	390.38
303.82	397.38
304.051	415.38
304.281	399.38
304.511	382.38
304.741	387.38
304.971	391.38
305.201	397.38
305.431	398.38
305.661	403.38
305.891	412.38
306.121	393.38
306.352	414.38
306.582	387.38
306.812	401.38
307.042	409.38
307.272	398.38
307.502	384.38
307.731	396.38
307.961	395.38
308.191	395.38
308.421	390.38
308.651	387.38
308.881	387.38
309.111	394.38
309.341	404.38
309.571	407.38
309.8	407.38
310.03	428.38
310.26	426.38
310.49	412.38
310.72	418.38
310.949	421.38
311.179	439.38
311.409	425.38
311.639	427.38
311.868	440.38
312.098	431.38
312.328	419.38
312.557	453.38
312.787	436.38
313.017	429.38
313.246	421.38
313.476	437.38
313.706	423.38
313.935	433.38
314.165	448.38
314.394	464.38
314.624	436.38
314.853	456.38
315.083	444.38
315.312	442.38
315.542	411.38
315.771	449.38
316.001	416.38
316.23	429.38
316.46	451.38
316.689	448.38
316.919	448.38
317.148	453.38
317.377	456.38
317.607	435.38
317.836	431.38
318.065	424.38
318.295	438.38
318.524	433.38
318.753	418.38
318.983	427.38
319.212	448.38
319.441	463.38
319.67	448.38
319.9	424.38
320.129	437.38
320.358	431.38
320.587	437.38
320.816	462.38
321.046	431.38
321.275	453.38
321.504	444.38
321.733	454.38
321.962	447.38
322.191	458.38
322.42	467.38
322.649	466.38
322.878	474.38
323.108	485.38
323.337	481.38
323.566	492.38
323.795	507.38
324.024	533.38
324.253	587.38
324.482	731.38
324.71	1051.38
324.939	1443.38
325.168	1297.38
325.397	722.38
325.626	577.38
325.855	511.38
326.084	522.38
326.313	503.38
326.542	516.38
326.77	525.38
326.999	596.38
327.228	724.38
327.457	941.38
327.686	1161.38
327.914	838.38
328.143	618.38
328.372	581.38
328.6	546.38
328.829	530.38
329.058	537.38
329.287	563.38
329.515	547.38
329.744	519.38
329.972	491.38
330.201	529.38
330.43	539.38
330.658	564.38
330.887	593.38
331.115	580.38
331.344	539.38
331.572	537.38
331.801	534.38
332.03	550.38
332.258	536.38
332.486	532.38
332.715	557.38
332.943	570.38
333.172	561.38
333.4	580.38
333.629	562.38
333.857	603.38
334.085	631.38
334.314	602.38
334.542	607.38
334.771	648.38
334.999	595.38
335.227	559.38
335.455	548.38
335.684	563.38
335.912	579.38
336.14	537.38
336.369	555.38
336.597	554.38
336.825	557.38
337.053	544.38
337.281	543.38
337.51	553.38
337.738	548.38
337.966	515.38
338.194	542.38
338.422	523.38
338.65	510.38
338.878	547.38
339.106	499.38
339.334	531.38
339.562	540.38
339.79	498.38
340.018	509.38
340.246	500.38
340.474	515.38
340.702	514.38
340.93	507.38
341.158	527.38
341.386	500.38
341.614	509.38
341.842	508.38
342.07	500.38
342.298	486.38
342.526	485.38
342.754	494.38
342.981	506.38
343.209	501.38
343.437	535.38
343.665	529.38
343.893	565.38
344.12	575.38
344.348	576.38
344.576	555.38
344.804	542.38
345.031	543.38
345.259	537.38
345.487	515.38
345.714	493.38
345.942	501.38
346.17	486.38
346.397	491.38
346.625	465.38
346.853	461.38
347.08	493.38
347.308	481.38
347.535	498.38
347.763	497.38
347.99	470.38
348.218	488.38
348.445	488.38
348.673	475.38
348.9	481.38
349.128	497.38
349.355	479.38
349.583	487.38
349.81	467.38
350.037	466.38
350.265	472.38
350.492	482.38
350.72	479.38
350.947	457.38
351.174	468.38
351.402	470.38
351.629	472.38
351.856	472.38
352.083	475.38
352.311	476.38
352.538	487.38
352.765	469.38
352.992	477.38
353.22	481.38
353.447	479.38
353.674	468.38
353.901	468.38
354.128	465.38
354.355	471.38
354.583	476.38
354.81	449.38
355.037	459.38
355.264	453.38
355.491	481.38
355.718	468.38
355.945	463.38
356.172	479.38
356.399	484.38
356.626	455.38
356.853	467.38
357.08	455.38
357.307	475.38
357.534	458.38
357.761	471.38
357.988	468.38
358.215	462.38
358.441	466.38
358.668	471.38
358.895	467.38
359.122	475.38
359.349	467.38
359.576	460.38
359.802	506.38
360.029	498.38
360.256	497.38
360.483	521.38
360.709	511.38
360.936	484.38
361.163	498.38
361.39	496.38
361.616	471.38
361.843	469.38
362.07	491.38
362.296	482.38
362.523	458.38
362.749	497.38
362.976	476.38
363.203	492.38
363.429	474.38
363.656	460.38
363.882	480.38
364.109	477.38
364.335	467.38
364.562	481.38
364.788	494.38
365.015	481.38
365.241	452.38
365.468	466.38
365.694	476.38
365.92	493.38
366.147	477.38
366.373	470.38
366.599	481.38
366.826	480.38
367.052	486.38
367.278	489.38
367.505	489.38
367.731	472.38
367.957	473.38
368.184	456.38
368.41	468.38
368.636	479.38
368.862	485.38
369.089	493.38
369.315	477.38
369.541	491.38
369.767	499.38
369.993	491.38
370.219	482.38
370.445	488.38
370.672	505.38
370.898	479.38
371.124	477.38
371.35	497.38
371.576	489.38
371.802	503.38
372.028	483.38
372.254	476.38
372.48	506.38
372.706	490.38
372.932	512.38
373.158	517.38
373.384	504.38
373.61	519.38
373.835	493.38
374.061	491.38
374.287	504.38
374.513	505.38
374.739	522.38
374.965	529.38
375.191	533.38
375.416	543.38
375.642	496.38
375.868	521.38
376.094	499.38
376.319	492.38
376.545	502.38
376.771	513.38
376.997	508.38
377.222	481.38
377.448	507.38
377.674	511.38
377.899	479.38
378.125	490.38
378.35	503.38
378.576	481.38
378.802	473.38
379.027	495.38
379.253	501.38
379.478	493.38
379.704	503.38
379.929	468.38
380.155	483.38
380.38	490.38
380.606	481.38
380.831	498.38
381.057	519.38
381.282	505.38
381.507	506.38
381.733	519.38
381.958	480.38
382.184	520.38
382.409	536.38
382.634	492.38
382.86	528.38
383.085	545.38
383.31	524.38
383.535	539.38
383.761	538.38
383.986	548.38
384.211	544.38
384.436	541.38
384.662	550.38
384.887	561.38
385.112	582.38
385.337	571.38
385.562	583.38
385.787	577.38
386.013	598.38
386.238	581.38
386.463	582.38
386.688	565.38
386.913	567.38
387.138	576.38
387.363	557.38
387.588	571.38
387.813	571.38
388.038	576.38
388.263	558.38
388.488	577.38
388.713	580.38
388.938	568.38
389.163	556.38
389.387	571.38
389.612	552.38
389.837	545.38
390.062	550.38
390.287	542.38
390.512	538.38
390.736	564.38
390.961	560.38
391.186	566.38
391.411	592.38
391.636	593.38
391.86	607.38
392.085	612.38
392.31	606.38
392.534	611.38
392.759	611.38
392.984	596.38
393.208	610.38
393.433	624.38
393.658	603.38
393.882	595.38
394.107	572.38
394.331	579.38
394.556	607.38
394.78	596.38
395.005	588.38
395.229	593.38
395.454	599.38
395.678	627.38
395.903	632.38
396.127	647.38
396.352	611.38
396.576	612.38
396.801	616.38
397.025	606.38
397.249	626.38
397.474	617.38
397.698	632.38
397.922	648.38
398.147	649.38
398.371	655.38
398.595	643.38
398.82	674.38
399.044	701.38
399.268	740.38
399.492	818.38
399.717	919.38
399.941	933.38
400.165	901.38
400.389	851.38
400.613	757.38
400.837	721.38
401.062	700.38
401.286	691.38
401.51	703.38
401.734	682.38
401.958	672.38
402.182	693.38
402.406	705.38
402.63	721.38
402.854	708.38
403.078	720.38
403.302	731.38
403.526	743.38
403.75	755.38
403.974	747.38
404.198	770.38
404.422	751.38
404.645	744.38
404.869	747.38
405.093	751.38
405.317	792.38
405.541	792.38
405.765	772.38
405.988	765.38
406.212	760.38
406.436	758.38
406.66	770.38
406.883	773.38
407.107	801.38
407.331	869.38
407.555	909.38
407.778	903.38
408.002	877.38
408.226	821.38
408.449	812.38
408.673	782.38
408.896	788.38
409.12	821.38
409.344	786.38
409.567	752.38
409.791	748.38
410.014	725.38
410.238	753.38
410.461	729.38
410.685	725.38
410.908	729.38
411.132	751.38
411.355	757.38
411.578	729.38
411.802	702.38
412.025	681.38
412.249	720.38
412.472	738.38
412.695	743.38
412.919	748.38
413.142	718.38
413.365	677.38
413.589	693.38
413.812	709.38
414.035	680.38
414.258	696.38
414.482	698.38
414.705	695.38
414.928	666.38
415.151	666.38
415.374	678.38
415.597	689.38
415.821	663.38
416.044	695.38
416.267	692.38
416.49	668.38
416.713	665.38
416.936	661.38
417.159	662.38
417.382	655.38
417.605	673.38
417.828	687.38
418.051	675.38
418.274	680.38
418.497	682.38
418.72	691.38
418.943	682.38
419.166	721.38
419.389	748.38
419.611	740.38
419.834	721.38
420.057	726.38
420.28	715.38
420.503	704.38
420.726	686.38
420.948	685.38
421.171	715.38
421.394	740.38
421.617	690.38
421.839	672.38
422.062	672.38
422.285	662.38
422.507	729.38
422.73	797.38
422.953	798.38
423.175	757.38
423.398	730.38
423.621	703.38
423.843	744.38
424.066	756.38
424.288	746.38
424.511	777.38
424.733	780.38
424.956	822.38
425.178	782.38
425.401	792.38
425.623	812.38
425.846	733.38
426.068	695.38
426.291	703.38
426.513	700.38
426.735	671.38
426.958	706.38
427.18	746.38
427.402	827.38
427.625	915.38
427.847	813.38
428.069	739.38
428.292	710.38
428.514	687.38
428.736	661.38
428.958	634.38
429.181	641.38
429.403	644.38
429.625	647.38
429.847	624.38
430.069	700.38
430.292	701.38
430.514	640.38
430.736	643.38
430.958	639.38
431.18	641.38
431.402	601.38
431.624	631.38
431.846	621.38
432.068	641.38
432.29	636.38
432.512	608.38
432.734	616.38
432.956	614.38
433.178	635.38
433.4	631.38
433.622	628.38
433.844	629.38
434.066	652.38
434.287	643.38
434.509	653.38
434.731	677.38
434.953	675.38
435.175	697.38
435.397	713.38
435.618	674.38
435.84	673.38
436.062	771.38
436.284	802.38
436.505	711.38
436.727	689.38
436.949	646.38
437.17	636.38
437.392	633.38
437.614	668.38
437.835	643.38
438.057	703.38
438.278	778.38
438.5	778.38
438.721	876.38
438.943	825.38
439.165	695.38
439.386	679.38
439.608	670.38
439.829	652.38
440.05	675.38
440.272	735.38
440.493	705.38
440.715	654.38
440.936	657.38
441.158	659.38
441.379	649.38
441.6	665.38
441.822	718.38
442.043	731.38
442.264	784.38
442.486	804.38
442.707	739.38
442.928	701.38
443.149	730.38
443.371	736.38
443.592	740.38
443.813	799.38
444.034	880.38
444.255	803.38
444.476	754.38
444.698	747.38
444.919	752.38
445.14	891.38
445.361	827.38
445.582	743.38
445.803	756.38
446.024	817.38
446.245	847.38
446.466	753.38
446.687	671.38
446.908	676.38
447.129	665.38
447.35	609.38
447.571	616.38
447.792	626.38
448.013	639.38
448.234	632.38
448.455	639.38
448.675	732.38
448.896	812.38
449.117	724.38
449.338	664.38
449.559	740.38
449.779	858.38
450	704.38
450.221	628.38
450.442	595.38
450.662	617.38
450.883	610.38
451.104	601.38
451.324	596.38
451.545	597.38
451.766	607.38
451.986	559.38
452.207	569.38
452.428	565.38
452.648	576.38
452.869	557.38
453.089	582.38
453.31	610.38
453.53	578.38
453.751	549.38
453.971	546.38
454.192	573.38
454.412	562.38
454.633	540.38
454.853	551.38
455.073	554.38
455.294	561.38
455.514	599.38
455.734	608.38
455.955	551.38
456.175	526.38
456.395	537.38
456.616	530.38
456.836	547.38
457.056	543.38
457.276	538.38
457.497	559.38
457.717	542.38
457.937	571.38
458.157	567.38
458.377	555.38
458.598	565.38
458.818	629.38
459.038	683.38
459.258	691.38
459.478	666.38
459.698	641.38
459.918	663.38
460.138	671.38
460.358	694.38
460.578	687.38
460.798	720.38
461.018	704.38
461.238	682.38
461.458	684.38
461.678	683.38
461.898	699.38
462.118	698.38
462.338	730.38
462.558	748.38
462.777	772.38
462.997	803.38
463.217	833.38
463.437	846.38
463.657	769.38
463.876	765.38
464.096	758.38
464.316	739.38
464.536	767.38
464.755	757.38
464.975	736.38
465.195	742.38
465.414	754.38
465.634	674.38
465.854	651.38
466.073	650.38
466.293	597.38
466.512	623.38
466.732	599.38
466.951	603.38
467.171	588.38
467.391	625.38
467.61	607.38
467.829	575.38
468.049	586.38
468.268	590.38
468.488	598.38
468.707	576.38
468.927	588.38
469.146	579.38
469.365	592.38
469.585	582.38
469.804	601.38
470.023	612.38
470.243	620.38
470.462	632.38
470.681	602.38
470.901	627.38
471.12	600.38
471.339	577.38
471.558	607.38
471.777	596.38
471.997	619.38
472.216	616.38
472.435	645.38
472.654	623.38
472.873	596.38
473.092	580.38
473.311	597.38
473.53	593.38
473.749	595.38
473.968	617.38
474.187	663.38
474.406	697.38
474.625	639.38
474.844	607.38
475.063	601.38
475.282	601.38
475.501	581.38
475.72	584.38
475.939	597.38
476.158	619.38
476.377	605.38
476.596	597.38
476.814	592.38
477.033	641.38
477.252	628.38
477.471	647.38
477.69	644.38
477.908	668.38
478.127	673.38
478.346	666.38
478.564	687.38
478.783	691.38
479.002	704.38
479.22	686.38
479.439	713.38
479.658	722.38
479.876	739.38
480.095	740.38
480.313	799.38
480.532	783.38
480.751	768.38
480.969	763.38
481.188	773.38
481.406	795.38
481.624	731.38
481.843	718.38
482.061	703.38
482.28	699.38
482.498	696.38
482.717	677.38
482.935	687.38
483.153	675.38
483.372	669.38
483.59	714.38
483.808	687.38
484.027	689.38
484.245	693.38
484.463	698.38
484.681	711.38
484.9	692.38
485.118	707.38
485.336	714.38
485.554	687.38
485.772	711.38
485.99	716.38
486.209	701.38
486.427	716.38
486.645	729.38
486.863	726.38
487.081	670.38
487.299	715.38
487.517	722.38
487.735	715.38
487.953	767.38
488.171	730.38
488.389	740.38
488.607	712.38
488.825	713.38
489.043	734.38
489.261	737.38
489.479	755.38
489.696	751.38
489.914	753.38
490.132	762.38
490.35	754.38
490.568	748.38
490.786	767.38
491.003	783.38
491.221	778.38
491.439	798.38
491.657	806.38
491.874	801.38
492.092	809.38
492.31	830.38
492.527	830.38
492.745	844.38
492.963	816.38
493.18	827.38
493.398	832.38
493.615	863.38
493.833	851.38
494.05	839.38
494.268	849.38
494.485	836.38
494.703	846.38
494.92	869.38
495.138	842.38
495.355	849.38
495.573	837.38
495.79	844.38
496.008	863.38
496.225	865.38
496.442	825.38
496.66	855.38
496.877	857.38
497.094	881.38
497.312	883.38
497.529	913.38
497.746	900.38
497.963	963.38
498.181	986.38
498.398	979.38
498.615	1058.38
498.832	1091.38
499.049	1124.38
499.267	1189.38
499.484	1293.38
499.701	1360.38
499.918	1449.38
500.135	1572.38
500.352	1703.38
500.569	1754.38
500.786	1795.38
501.003	1683.38
501.22	1585.38
501.437	1453.38
501.654	1366.38
501.871	1305.38
502.088	1186.38
502.305	1124.38
502.522	1096.38
502.739	1051.38
502.956	1010.38
503.172	971.38
503.389	937.38
503.606	967.38
503.823	940.38
504.04	914.38
504.256	905.38
504.473	933.38
504.69	953.38
504.907	924.38
505.123	859.38
505.34	851.38
505.557	845.38
505.773	827.38
505.99	855.38
506.207	803.38
506.423	816.38
506.64	788.38
506.856	769.38
507.073	793.38
507.289	757.38
507.506	772.38
507.722	785.38
507.939	771.38
508.155	764.38
508.372	761.38
508.588	720.38
508.805	726.38
509.021	731.38
509.238	751.38
509.454	708.38
509.67	725.38
509.887	709.38
510.103	714.38
510.319	724.38
510.536	783.38
510.752	1093.38
510.968	920.38
511.184	734.38
511.401	721.38
511.617	708.38
511.833	683.38
512.049	697.38
512.265	713.38
512.481	688.38
512.698	705.38
512.914	690.38
513.13	693.38
513.346	682.38
513.562	689.38
513.778	695.38
513.994	682.38
514.21	710.38
514.426	696.38
514.642	735.38
514.858	761.38
515.074	766.38
515.29	843.38
515.506	1098.38
515.721	991.38
515.937	775.38
516.153	765.38
516.369	753.38
516.585	765.38
516.801	800.38
517.016	815.38
517.232	837.38
517.448	828.38
517.664	875.38
517.879	848.38
518.095	868.38
518.311	880.38
518.527	817.38
518.742	787.38
518.958	777.38
519.173	758.38
519.389	768.38
519.605	731.38
519.82	737.38
520.036	723.38
520.251	722.38
520.467	722.38
520.682	757.38
520.898	732.38
521.113	724.38
521.329	726.38
521.544	805.38
521.76	874.38
521.975	1253.38
522.19	1307.38
522.406	848.38
522.621	707.38
522.836	679.38
523.052	693.38
523.267	642.38
523.482	662.38
523.698	641.38
523.913	628.38
524.128	650.38
524.343	626.38
524.559	631.38
524.774	595.38
524.989	632.38
525.204	600.38
525.419	642.38
525.634	611.38
525.849	615.38
526.064	620.38
526.28	613.38
526.495	593.38
526.71	589.38
526.925	599.38
527.14	598.38
527.355	606.38
527.57	596.38
527.785	597.38
527.999	582.38
528.214	604.38
528.429	592.38
528.644	600.38
528.859	605.38
529.074	594.38
529.289	603.38
529.503	639.38
529.718	639.38
529.933	601.38
530.148	621.38
530.363	618.38
530.577	587.38
530.792	562.38
531.007	581.38
531.221	596.38
531.436	600.38
531.651	586.38
531.865	589.38
532.08	601.38
532.295	586.38
532.509	592.38
532.724	594.38
532.938	599.38
533.153	600.38
533.367	588.38
533.582	588.38
533.796	594.38
534.011	588.38
534.225	592.38
534.44	596.38
534.654	601.38
534.868	564.38
535.083	577.38
535.297	594.38
535.511	602.38
535.726	576.38
535.94	594.38
536.154	587.38
536.369	580.38
536.583	563.38
536.797	558.38
537.011	561.38
537.225	553.38
537.44	580.38
537.654	546.38
537.868	562.38
538.082	549.38
538.296	556.38
538.51	574.38
538.724	561.38
538.938	565.38
539.153	569.38
539.367	583.38
539.581	554.38
539.795	555.38
540.009	553.38
540.222	523.38
540.436	552.38
540.65	577.38
540.864	551.38
541.078	556.38
541.292	560.38
541.506	537.38
541.72	543.38
541.934	546.38
542.147	548.38
542.361	531.38
542.575	537.38
542.789	545.38
543.002	550.38
543.216	552.38
543.43	541.38
543.644	548.38
543.857	550.38
544.071	542.38
544.285	554.38
544.498	564.38
544.712	548.38
544.925	562.38
545.139	563.38
545.352	529.38
545.566	566.38
545.779	557.38
545.993	573.38
546.206	564.38
546.42	553.38
546.633	545.38
546.847	554.38
547.06	552.38
547.274	546.38
547.487	545.38
547.7	552.38
547.914	529.38
548.127	553.38
548.34	569.38
548.554	552.38
548.767	587.38
548.98	573.38
549.193	547.38
549.407	533.38
549.62	563.38
549.833	578.38
550.046	570.38
550.259	556.38
550.473	549.38
550.686	540.38
550.899	545.38
551.112	545.38
551.325	542.38
551.538	547.38
551.751	539.38
551.964	557.38
552.177	548.38
552.39	579.38
552.603	567.38
552.816	568.38
553.029	568.38
553.242	592.38
553.455	604.38
553.667	628.38
553.88	587.38
554.093	584.38
554.306	570.38
554.519	578.38
554.732	548.38
554.944	523.38
555.157	543.38
555.37	533.38
555.583	552.38
555.795	527.38
556.008	515.38
556.221	503.38
556.433	497.38
556.646	506.38
556.859	498.38
557.071	487.38
557.284	479.38
557.496	482.38
557.709	471.38
557.921	500.38
558.134	476.38
558.346	469.38
558.559	488.38
558.771	473.38
558.984	478.38
559.196	482.38
559.409	476.38
559.621	481.38
559.833	469.38
560.046	458.38
560.258	482.38
560.47	480.38
560.683	483.38
560.895	486.38
561.107	476.38
561.32	490.38
561.532	468.38
561.744	476.38
561.956	483.38
562.168	455.38
562.381	488.38
562.593	471.38
562.805	470.38
563.017	483.38
563.229	483.38
563.441	474.38
563.653	493.38
563.865	504.38
564.077	510.38
564.289	501.38
564.501	488.38
564.713	515.38
564.925	547.38
565.137	550.38
565.349	549.38
565.561	535.38
565.773	579.38
565.985	603.38
566.197	611.38
566.408	636.38
566.62	677.38
566.832	717.38
567.044	728.38
567.255	731.38
567.467	745.38
567.679	768.38
567.891	785.38
568.102	822.38
568.314	799.38
568.526	737.38
568.737	692.38
568.949	645.38
569.161	611.38
569.372	577.38
569.584	580.38
569.795	560.38
570.007	550.38
570.218	544.38
570.43	517.38
570.641	493.38
570.853	518.38
571.064	513.38
571.276	505.38
571.487	506.38
571.698	473.38
571.91	490.38
572.121	462.38
572.333	455.38
572.544	460.38
572.755	428.38
572.966	431.38
573.178	436.38
573.389	417.38
573.6	442.38
573.811	423.38
574.023	403.38
574.234	420.38
574.445	403.38
574.656	420.38
574.867	414.38
575.078	429.38
575.289	410.38
575.501	426.38
575.712	406.38
575.923	402.38
576.134	411.38
576.345	410.38
576.556	400.38
576.767	390.38
576.978	417.38
577.188	420.38
577.399	385.38
577.61	401.38
577.821	393.38
578.032	401.38
578.243	437.38
578.454	538.38
578.665	450.38
578.875	389.38
579.086	403.38
579.297	384.38
579.508	385.38
579.718	405.38
579.929	388.38
580.14	373.38
580.35	378.38
580.561	379.38
580.772	365.38
580.982	362.38
581.193	365.38
581.403	371.38
581.614	386.38
581.825	370.38
582.035	351.38
582.246	375.38
582.456	347.38
582.667	353.38
582.877	371.38
583.087	362.38
583.298	353.38
583.508	368.38
583.719	367.38
583.929	386.38
584.139	374.38
584.35	357.38
584.56	369.38
584.77	385.38
584.981	357.38
585.191	355.38
585.401	377.38
585.611	357.38
585.821	371.38
586.032	349.38
586.242	372.38
586.452	375.38
586.662	373.38
586.872	367.38
587.082	373.38
587.292	370.38
587.502	371.38
587.713	352.38
587.923	373.38
588.133	341.38
588.343	359.38
588.553	368.38
588.762	339.38
588.972	362.38
589.182	358.38
589.392	359.38
589.602	374.38
589.812	364.38
590.022	357.38
590.232	367.38
590.441	366.38
590.651	359.38
590.861	364.38
591.071	371.38
591.281	383.38
591.49	362.38
591.7	391.38
591.91	387.38
592.119	375.38
592.329	384.38
592.539	416.38
592.748	415.38
592.958	418.38
593.167	409.38
593.377	421.38
593.587	455.38
593.796	431.38
594.006	445.38
594.215	443.38
594.424	423.38
594.634	444.38
594.843	411.38
595.053	417.38
595.262	392.38
595.472	399.38
595.681	383.38
595.89	380.38
596.1	364.38
596.309	356.38
596.518	361.38
596.727	356.38
596.937	345.38
597.146	345.38
597.355	341.38
597.564	316.38
597.774	352.38
597.983	342.38
598.192	340.38
598.401	321.38
598.61	327.38
598.819	335.38
599.028	333.38
599.237	310.38
599.446	321.38
599.655	312.38
599.864	319.38
600.073	311.38
600.282	323.38
600.491	317.38
600.7	317.38
600.909	307.38
601.118	292.38
601.327	303.38
601.536	304.38
601.745	316.38
601.953	320.38
602.162	306.38
602.371	300.38
602.58	306.38
602.789	313.38
602.997	295.38
603.206	301.38
603.415	301.38
603.623	293.38
603.832	305.38
604.041	293.38
604.249	293.38
604.458	300.38
604.666	297.38
604.875	293.38
605.084	306.38
605.292	292.38
605.501	297.38
605.709	294.38
605.918	280.38
606.126	292.38
606.334	287.38
606.543	303.38
606.751	292.38
606.96	289.38
607.168	275.38
607.376	282.38
607.585	280.38
607.793	305.38
608.001	292.38
608.21	295.38
608.418	286.38
608.626	291.38
608.834	281.38
609.043	289.38
609.251	284.38
609.459	277.38
609.667	292.38
609.875	288.38
610.083	294.38
610.291	294.38
610.499	278.38
610.707	288.38
610.916	296.38
611.124	272.38
611.332	279.38
611.54	294.38
611.748	274.38
611.955	292.38
612.163	279.38
612.371	286.38
612.579	280.38
612.787	293.38
612.995	279.38
613.203	297.38
613.411	281.38
613.618	265.38
613.826	282.38
614.034	272.38
614.242	277.38
614.449	279.38
614.657	288.38
614.865	306.38
615.072	284.38
615.28	265.38
615.488	271.38
615.695	277.38
615.903	269.38
616.111	287.38
616.318	292.38
616.526	285.38
616.733	274.38
616.941	285.38
617.148	259.38
617.356	284.38
617.563	281.38
617.771	265.38
617.978	278.38
618.185	280.38
618.393	277.38
618.6	273.38
618.807	280.38
619.015	289.38
619.222	270.38
619.429	255.38
619.637	268.38
619.844	284.38
620.051	273.38
620.258	268.38
620.466	270.38
620.673	265.38
620.88	265.38
621.087	267.38
621.294	254.38
621.501	265.38
621.708	255.38
621.915	261.38
622.122	273.38
622.329	266.38
622.536	263.38
622.743	245.38
622.95	255.38
623.157	254.38
623.364	257.38
623.571	253.38
623.778	250.38
623.985	236.38
624.192	247.38
624.399	231.38
624.606	248.38
624.812	220.38
625.019	247.38
625.226	255.38
625.433	244.38
625.639	251.38
625.846	225.38
626.053	236.38
626.259	231.38
626.466	255.38
626.673	245.38
626.879	243.38
627.086	242.38
627.293	240.38
627.499	250.38
627.706	235.38
627.912	242.38
628.119	257.38
628.325	238.38
628.532	240.38
628.738	237.38
628.945	232.38
629.151	245.38
629.357	249.38
629.564	243.38
629.77	224.38
629.976	231.38
630.183	242.38
630.389	245.38
630.595	242.38
630.802	236.38
631.008	240.38
631.214	214.38
631.42	251.38
631.627	218.38
631.833	240.38
632.039	257.38
632.245	226.38
632.451	217.38
632.657	207.38
632.863	211.38
633.069	219.38
633.275	217.38
633.481	231.38
633.688	217.38
633.893	214.38
634.099	220.38
634.305	222.38
634.511	218.38
634.717	204.38
634.923	203.38
635.129	226.38
635.335	200.38
635.541	204.38
635.747	207.38
635.952	211.38
636.158	214.38
636.364	196.38
636.57	197.38
636.775	197.38
636.981	212.38
637.187	203.38
637.392	207.38
637.598	218.38
637.804	201.38
638.009	212.38
638.215	210.38
638.421	212.38
638.626	196.38
638.832	210.38
639.037	194.38
639.243	193.38
639.448	208.38
639.654	200.38
639.859	192.38
640.065	197.38
640.27	211.38
640.475	194.38
640.681	196.38
640.886	193.38
641.091	202.38
641.297	195.38
641.502	187.38
641.707	188.38
641.913	194.38
642.118	197.38
642.323	187.38
642.528	216.38
642.733	175.38
642.939	194.38
643.144	195.38
643.349	180.38
643.554	203.38
643.759	195.38
643.964	187.38
644.169	191.38
644.374	183.38
644.579	179.38
644.784	200.38
644.989	175.38
645.194	178.38
645.399	194.38
645.604	181.38
645.809	180.38
646.014	189.38
646.219	198.38
646.423	201.38
646.628	203.38
646.833	184.38
647.038	195.38
647.243	186.38
647.447	197.38
647.652	194.38
647.857	197.38
648.062	195.38
648.266	202.38
648.471	203.38
648.676	204.38
648.88	201.38
649.085	193.38
649.289	192.38
649.494	204.38
649.698	216.38
649.903	214.38
650.107	173.38
650.312	170.38
650.516	176.38
650.721	187.38
650.925	181.38
651.13	164.38
651.334	185.38
651.539	168.38
651.743	153.38
651.947	166.38
652.152	164.38
652.356	162.38
652.56	173.38
652.764	151.38
652.969	154.38
653.173	151.38
653.377	162.38
653.581	149.38
653.785	152.38
653.99	149.38
654.194	157.38
654.398	147.38
654.602	146.38
654.806	151.38
655.01	153.38
655.214	152.38
655.418	150.38
655.622	147.38
655.826	141.38
656.03	165.38
656.234	159.38
656.438	160.38
656.642	151.38
656.846	153.38
657.049	135.38
657.253	151.38
657.457	136.38
657.661	131.38
657.865	128.38
658.068	134.38
658.272	120.38
658.476	120.38
658.68	98.38
658.883	119.38
659.087	100.38
659.291	97.38
659.494	106.38
659.698	107.38
659.901	98.38
660.105	105.38
660.309	103.38
660.512	91.38
660.716	105.38
660.919	103.38
661.123	97.38
661.326	87.38
661.53	98.38
661.733	94.38
661.936	98.38
662.14	81.38
662.343	91.38
662.546	85.38
662.75	94.38
662.953	83.38
663.156	67.38
663.36	86.38
663.563	101.38
663.766	81.38
663.969	91.38
664.173	75.38
664.376	75.38
664.579	81.38
664.782	72.38
664.985	80.38
665.188	82.38
665.391	77.38
665.594	77.38
665.797	75.38
666	87.38
666.203	81.38
666.406	90.38
666.609	83.38
666.812	56.38
667.015	83.38
667.218	83.38
667.421	83.38
667.624	101.38
667.827	81.38
668.03	77.38
668.232	79.38
668.435	88.38
668.638	92.38
668.841	88.38
669.043	89.38
669.246	74.38
669.449	71.38
669.651	83.38
669.854	88.38
670.057	86.38
670.259	73.38
670.462	78.38
670.665	67.38
670.867	80.38
671.07	74.38
671.272	76.38
671.475	74.38
671.677	75.38
671.88	83.38
672.082	84.38
672.284	76.38
672.487	82.38
672.689	64.38
672.892	75.38
