Data from 1963.PennyLincolnUp.Lamp.En5.5.200Scan.071719.P1._HRD10591_14-00-25-064.txt Node
Date: Thu Jul 18 14:00:25 EDT 2019
User: cochatt
Spectrometer: HR+D1059
Trigger mode: 1
Integration Time (sec): 1.000000E-1
Scans to average: 1
Electric dark correction enabled: true
Nonlinearity correction enabled: false
Boxcar width: 0
XAxis mode: Wavelengths
Number of Pixels in Spectrum: 2048
>>>>>Begin Spectral Data<<<<<
223.165	-16.94
223.4	-16.94
223.635	-16.94
223.869	-20.94
224.104	-9.94
224.338	-14.94
224.573	-12.94
224.808	-17.94
225.042	-4.94
225.277	-9.94
225.511	11.06
225.746	7.06
225.98	3.06
226.215	9.06
226.449	18.06
226.683	12.06
226.918	32.06
227.152	16.06
227.387	35.06
227.621	31.06
227.856	46.06
228.09	28.06
228.324	45.06
228.559	58.06
228.793	67.06
229.027	94.06
229.262	107.06
229.496	116.06
229.73	144.06
229.964	142.06
230.199	118.06
230.433	120.06
230.667	122.06
230.901	106.06
231.136	107.06
231.37	116.06
231.604	124.06
231.838	107.06
232.072	120.06
232.306	107.06
232.541	122.06
232.775	125.06
233.009	135.06
233.243	118.06
233.477	140.06
233.711	126.06
233.945	120.06
234.179	121.06
234.413	126.06
234.647	133.06
234.881	125.06
235.115	116.06
235.349	124.06
235.583	122.06
235.817	127.06
236.051	150.06
236.285	122.06
236.519	131.06
236.753	150.06
236.987	139.06
237.221	185.06
237.455	208.06
237.689	180.06
237.922	160.06
238.156	153.06
238.39	140.06
238.624	140.06
238.858	140.06
239.091	129.06
239.325	127.06
239.559	147.06
239.793	134.06
240.027	140.06
240.26	160.06
240.494	157.06
240.728	156.06
240.961	154.06
241.195	159.06
241.429	153.06
241.662	142.06
241.896	144.06
242.13	148.06
242.363	152.06
242.597	166.06
242.83	147.06
243.064	152.06
243.298	169.06
243.531	167.06
243.765	165.06
243.998	158.06
244.232	143.06
244.465	162.06
244.699	166.06
244.932	150.06
245.166	181.06
245.399	177.06
245.633	169.06
245.866	178.06
246.099	163.06
246.333	166.06
246.566	157.06
246.8	161.06
247.033	173.06
247.266	182.06
247.5	182.06
247.733	183.06
247.966	196.06
248.2	189.06
248.433	199.06
248.666	191.06
248.899	199.06
249.133	207.06
249.366	216.06
249.599	218.06
249.832	218.06
250.066	215.06
250.299	202.06
250.532	218.06
250.765	220.06
250.998	264.06
251.231	229.06
251.465	223.06
251.698	223.06
251.931	229.06
252.164	233.06
252.397	217.06
252.63	230.06
252.863	228.06
253.096	244.06
253.329	258.06
253.562	242.06
253.795	251.06
254.028	225.06
254.261	229.06
254.494	230.06
254.727	257.06
254.96	284.06
255.193	290.06
255.426	266.06
255.659	247.06
255.892	267.06
256.124	250.06
256.357	234.06
256.59	228.06
256.823	223.06
257.056	231.06
257.289	213.06
257.521	236.06
257.754	249.06
257.987	235.06
258.22	251.06
258.452	239.06
258.685	229.06
258.918	224.06
259.151	235.06
259.383	236.06
259.616	249.06
259.849	257.06
260.081	263.06
260.314	271.06
260.547	284.06
260.779	275.06
261.012	278.06
261.244	241.06
261.477	258.06
261.71	261.06
261.942	257.06
262.175	261.06
262.407	256.06
262.64	247.06
262.872	254.06
263.105	241.06
263.337	252.06
263.57	245.06
263.802	256.06
264.035	258.06
264.267	231.06
264.499	243.06
264.732	261.06
264.964	254.06
265.197	250.06
265.429	253.06
265.661	259.06
265.894	260.06
266.126	252.06
266.358	239.06
266.591	265.06
266.823	281.06
267.055	266.06
267.287	257.06
267.52	262.06
267.752	266.06
267.984	261.06
268.216	274.06
268.448	286.06
268.681	297.06
268.913	281.06
269.145	298.06
269.377	304.06
269.609	305.06
269.841	285.06
270.073	294.06
270.306	319.06
270.538	342.06
270.77	346.06
271.002	338.06
271.234	307.06
271.466	335.06
271.698	358.06
271.93	349.06
272.162	349.06
272.394	356.06
272.626	334.06
272.858	331.06
273.09	319.06
273.322	312.06
273.553	300.06
273.785	303.06
274.017	314.06
274.249	309.06
274.481	315.06
274.713	319.06
274.945	319.06
275.176	306.06
275.408	300.06
275.64	313.06
275.872	305.06
276.104	311.06
276.335	331.06
276.567	333.06
276.799	341.06
277.031	342.06
277.262	366.06
277.494	367.06
277.726	337.06
277.957	331.06
278.189	329.06
278.421	319.06
278.652	307.06
278.884	313.06
279.115	339.06
279.347	317.06
279.579	317.06
279.81	331.06
280.042	332.06
280.273	322.06
280.505	325.06
280.736	315.06
280.968	314.06
281.199	337.06
281.431	346.06
281.662	325.06
281.894	341.06
282.125	335.06
282.356	351.06
282.588	360.06
282.819	371.06
283.051	343.06
283.282	335.06
283.513	335.06
283.745	345.06
283.976	354.06
284.207	354.06
284.439	353.06
284.67	357.06
284.901	331.06
285.132	349.06
285.364	339.06
285.595	353.06
285.826	339.06
286.057	367.06
286.288	347.06
286.52	343.06
286.751	352.06
286.982	347.06
287.213	370.06
287.444	353.06
287.675	349.06
287.906	372.06
288.138	364.06
288.369	371.06
288.6	375.06
288.831	351.06
289.062	366.06
289.293	370.06
289.524	369.06
289.755	358.06
289.986	383.06
290.217	377.06
290.448	350.06
290.679	366.06
290.91	358.06
291.141	344.06
291.371	373.06
291.602	366.06
291.833	370.06
292.064	366.06
292.295	387.06
292.526	377.06
292.757	375.06
292.987	353.06
293.218	353.06
293.449	372.06
293.68	369.06
293.91	378.06
294.141	389.06
294.372	393.06
294.603	387.06
294.833	385.06
295.064	372.06
295.295	377.06
295.525	378.06
295.756	371.06
295.987	378.06
296.217	415.06
296.448	407.06
296.679	388.06
296.909	393.06
297.14	383.06
297.37	377.06
297.601	403.06
297.831	384.06
298.062	402.06
298.292	370.06
298.523	387.06
298.753	409.06
298.984	392.06
299.214	404.06
299.445	395.06
299.675	389.06
299.905	405.06
300.136	405.06
300.366	390.06
300.597	388.06
300.827	418.06
301.057	415.06
301.288	435.06
301.518	422.06
301.748	405.06
301.979	429.06
302.209	411.06
302.439	420.06
302.669	413.06
302.9	423.06
303.13	414.06
303.36	408.06
303.59	414.06
303.82	434.06
304.051	432.06
304.281	420.06
304.511	418.06
304.741	433.06
304.971	422.06
305.201	409.06
305.431	405.06
305.661	409.06
305.891	427.06
306.121	421.06
306.352	400.06
306.582	430.06
306.812	408.06
307.042	424.06
307.272	416.06
307.502	409.06
307.731	418.06
307.961	437.06
308.191	423.06
308.421	429.06
308.651	417.06
308.881	444.06
309.111	436.06
309.341	418.06
309.571	441.06
309.8	451.06
310.03	458.06
310.26	447.06
310.49	455.06
310.72	452.06
310.949	461.06
311.179	482.06
311.409	439.06
311.639	447.06
311.868	462.06
312.098	471.06
312.328	460.06
312.557	484.06
312.787	502.06
313.017	500.06
313.246	478.06
313.476	454.06
313.706	458.06
313.935	470.06
314.165	485.06
314.394	493.06
314.624	487.06
314.853	469.06
315.083	459.06
315.312	478.06
315.542	479.06
315.771	477.06
316.001	476.06
316.23	453.06
316.46	486.06
316.689	473.06
316.919	489.06
317.148	473.06
317.377	479.06
317.607	494.06
317.836	477.06
318.065	460.06
318.295	472.06
318.524	464.06
318.753	484.06
318.983	472.06
319.212	484.06
319.441	474.06
319.67	481.06
319.9	472.06
320.129	477.06
320.358	489.06
320.587	464.06
320.816	474.06
321.046	496.06
321.275	479.06
321.504	477.06
321.733	473.06
321.962	495.06
322.191	515.06
322.42	511.06
322.649	492.06
322.878	517.06
323.108	533.06
323.337	535.06
323.566	535.06
323.795	548.06
324.024	605.06
324.253	667.06
324.482	858.06
324.71	1251.06
324.939	1816.06
325.168	1593.06
325.397	865.06
325.626	649.06
325.855	581.06
326.084	547.06
326.313	547.06
326.542	568.06
326.77	626.06
326.999	670.06
327.228	833.06
327.457	1184.06
327.686	1465.06
327.914	994.06
328.143	716.06
328.372	640.06
328.6	669.06
328.829	612.06
329.058	637.06
329.287	617.06
329.515	625.06
329.744	587.06
329.972	574.06
330.201	583.06
330.43	643.06
330.658	660.06
330.887	659.06
331.115	666.06
331.344	618.06
331.572	581.06
331.801	606.06
332.03	608.06
332.258	571.06
332.486	586.06
332.715	598.06
332.943	620.06
333.172	612.06
333.4	639.06
333.629	641.06
333.857	660.06
334.085	667.06
334.314	668.06
334.542	680.06
334.771	702.06
334.999	666.06
335.227	626.06
335.455	630.06
335.684	617.06
335.912	599.06
336.14	594.06
336.369	598.06
336.597	605.06
336.825	590.06
337.053	585.06
337.281	571.06
337.51	566.06
337.738	600.06
337.966	585.06
338.194	569.06
338.422	545.06
338.65	551.06
338.878	573.06
339.106	565.06
339.334	563.06
339.562	541.06
339.79	550.06
340.018	536.06
340.246	544.06
340.474	534.06
340.702	529.06
340.93	543.06
341.158	536.06
341.386	563.06
341.614	550.06
341.842	563.06
342.07	520.06
342.298	534.06
342.526	525.06
342.754	521.06
342.981	551.06
343.209	542.06
343.437	546.06
343.665	579.06
343.893	590.06
344.12	615.06
344.348	598.06
344.576	591.06
344.804	552.06
345.031	572.06
345.259	571.06
345.487	536.06
345.714	550.06
345.942	537.06
346.17	525.06
346.397	531.06
346.625	535.06
346.853	514.06
347.08	510.06
347.308	507.06
347.535	525.06
347.763	535.06
347.99	527.06
348.218	521.06
348.445	523.06
348.673	545.06
348.9	515.06
349.128	525.06
349.355	511.06
349.583	519.06
349.81	515.06
350.037	504.06
350.265	513.06
350.492	534.06
350.72	527.06
350.947	516.06
351.174	540.06
351.402	533.06
351.629	518.06
351.856	528.06
352.083	522.06
352.311	523.06
352.538	543.06
352.765	525.06
352.992	519.06
353.22	517.06
353.447	513.06
353.674	494.06
353.901	499.06
354.128	508.06
354.355	485.06
354.583	499.06
354.81	517.06
355.037	478.06
355.264	498.06
355.491	497.06
355.718	500.06
355.945	497.06
356.172	501.06
356.399	467.06
356.626	525.06
356.853	513.06
357.08	513.06
357.307	495.06
357.534	499.06
357.761	509.06
357.988	490.06
358.215	497.06
358.441	489.06
358.668	501.06
358.895	501.06
359.122	514.06
359.349	512.06
359.576	524.06
359.802	527.06
360.029	554.06
360.256	541.06
360.483	550.06
360.709	546.06
360.936	534.06
361.163	516.06
361.39	516.06
361.616	510.06
361.843	547.06
362.07	531.06
362.296	525.06
362.523	510.06
362.749	519.06
362.976	523.06
363.203	511.06
363.429	522.06
363.656	512.06
363.882	473.06
364.109	504.06
364.335	525.06
364.562	497.06
364.788	498.06
365.015	498.06
365.241	532.06
365.468	524.06
365.694	490.06
365.92	525.06
366.147	511.06
366.373	485.06
366.599	525.06
366.826	503.06
367.052	508.06
367.278	499.06
367.505	498.06
367.731	522.06
367.957	504.06
368.184	507.06
368.41	523.06
368.636	522.06
368.862	529.06
369.089	533.06
369.315	521.06
369.541	521.06
369.767	523.06
369.993	527.06
370.219	524.06
370.445	520.06
370.672	518.06
370.898	534.06
371.124	519.06
371.35	525.06
371.576	535.06
371.802	540.06
372.028	542.06
372.254	532.06
372.48	526.06
372.706	527.06
372.932	537.06
373.158	533.06
373.384	553.06
373.61	537.06
373.835	543.06
374.061	548.06
374.287	538.06
374.513	517.06
374.739	577.06
374.965	577.06
375.191	564.06
375.416	547.06
375.642	551.06
375.868	557.06
376.094	545.06
376.319	537.06
376.545	525.06
376.771	531.06
376.997	533.06
377.222	505.06
377.448	500.06
377.674	528.06
377.899	528.06
378.125	535.06
378.35	496.06
378.576	518.06
378.802	502.06
379.027	528.06
379.253	499.06
379.478	513.06
379.704	532.06
379.929	538.06
380.155	519.06
380.38	531.06
380.606	518.06
380.831	531.06
381.057	501.06
381.282	531.06
381.507	523.06
381.733	529.06
381.958	541.06
382.184	551.06
382.409	519.06
382.634	533.06
382.86	542.06
383.085	554.06
383.31	570.06
383.535	581.06
383.761	553.06
383.986	569.06
384.211	557.06
384.436	608.06
384.662	599.06
384.887	617.06
385.112	592.06
385.337	604.06
385.562	593.06
385.787	618.06
386.013	618.06
386.238	621.06
386.463	603.06
386.688	616.06
386.913	627.06
387.138	624.06
387.363	597.06
387.588	608.06
387.813	572.06
388.038	612.06
388.263	631.06
388.488	599.06
388.713	607.06
388.938	613.06
389.163	602.06
389.387	609.06
389.612	577.06
389.837	591.06
390.062	579.06
390.287	616.06
390.512	597.06
390.736	585.06
390.961	610.06
391.186	629.06
391.411	617.06
391.636	630.06
391.86	637.06
392.085	647.06
392.31	644.06
392.534	663.06
392.759	641.06
392.984	623.06
393.208	629.06
393.433	633.06
393.658	636.06
393.882	635.06
394.107	607.06
394.331	625.06
394.556	627.06
394.78	612.06
395.005	643.06
395.229	629.06
395.454	655.06
395.678	666.06
395.903	668.06
396.127	706.06
396.352	687.06
396.576	641.06
396.801	678.06
397.025	645.06
397.249	646.06
397.474	657.06
397.698	651.06
397.922	690.06
398.147	676.06
398.371	701.06
398.595	734.06
398.82	727.06
399.044	754.06
399.268	802.06
399.492	883.06
399.717	979.06
399.941	1018.06
400.165	939.06
400.389	914.06
400.613	817.06
400.837	759.06
401.062	740.06
401.286	771.06
401.51	733.06
401.734	718.06
401.958	731.06
402.182	740.06
402.406	744.06
402.63	743.06
402.854	791.06
403.078	779.06
403.302	763.06
403.526	808.06
403.75	809.06
403.974	804.06
404.198	793.06
404.422	797.06
404.645	798.06
404.869	812.06
405.093	825.06
405.317	839.06
405.541	897.06
405.765	856.06
405.988	813.06
406.212	819.06
406.436	857.06
406.66	841.06
406.883	830.06
407.107	875.06
407.331	938.06
407.555	965.06
407.778	971.06
408.002	919.06
408.226	872.06
408.449	899.06
408.673	828.06
408.896	867.06
409.12	871.06
409.344	862.06
409.567	809.06
409.791	756.06
410.014	739.06
410.238	760.06
410.461	770.06
410.685	773.06
410.908	778.06
411.132	794.06
411.355	829.06
411.578	807.06
411.802	765.06
412.025	754.06
412.249	764.06
412.472	789.06
412.695	812.06
412.919	812.06
413.142	746.06
413.365	715.06
413.589	764.06
413.812	733.06
414.035	725.06
414.258	687.06
414.482	715.06
414.705	716.06
414.928	717.06
415.151	702.06
415.374	720.06
415.597	711.06
415.821	713.06
416.044	705.06
416.267	719.06
416.49	709.06
416.713	702.06
416.936	723.06
417.159	737.06
417.382	700.06
417.605	725.06
417.828	717.06
418.051	735.06
418.274	735.06
418.497	720.06
418.72	730.06
418.943	697.06
419.166	782.06
419.389	830.06
419.611	790.06
419.834	783.06
420.057	764.06
420.28	750.06
420.503	753.06
420.726	755.06
420.948	741.06
421.171	779.06
421.394	782.06
421.617	744.06
421.839	730.06
422.062	741.06
422.285	762.06
422.507	815.06
422.73	871.06
422.953	860.06
423.175	777.06
423.398	761.06
423.621	757.06
423.843	803.06
424.066	775.06
424.288	771.06
424.511	782.06
424.733	821.06
424.956	898.06
425.178	877.06
425.401	875.06
425.623	891.06
425.846	798.06
426.068	783.06
426.291	774.06
426.513	754.06
426.735	727.06
426.958	759.06
427.18	821.06
427.402	971.06
427.625	1018.06
427.847	894.06
428.069	805.06
428.292	762.06
428.514	717.06
428.736	705.06
428.958	711.06
429.181	696.06
429.403	679.06
429.625	677.06
429.847	717.06
430.069	773.06
430.292	751.06
430.514	691.06
430.736	685.06
430.958	685.06
431.18	654.06
431.402	680.06
431.624	650.06
431.846	677.06
432.068	671.06
432.29	683.06
432.512	665.06
432.734	675.06
432.956	661.06
433.178	688.06
433.4	685.06
433.622	678.06
433.844	673.06
434.066	649.06
434.287	692.06
434.509	685.06
434.731	716.06
434.953	747.06
435.175	748.06
435.397	794.06
435.618	759.06
435.84	754.06
436.062	827.06
436.284	883.06
436.505	784.06
436.727	720.06
436.949	709.06
437.17	705.06
437.392	697.06
437.614	687.06
437.835	718.06
438.057	779.06
438.278	867.06
438.5	860.06
438.721	914.06
438.943	913.06
439.165	753.06
439.386	738.06
439.608	738.06
439.829	721.06
440.05	743.06
440.272	784.06
440.493	723.06
440.715	749.06
440.936	699.06
441.158	714.06
441.379	707.06
441.6	739.06
441.822	756.06
442.043	803.06
442.264	856.06
442.486	885.06
442.707	795.06
442.928	765.06
443.149	777.06
443.371	797.06
443.592	846.06
443.813	903.06
444.034	935.06
444.255	866.06
444.476	836.06
444.698	806.06
444.919	823.06
445.14	929.06
445.361	846.06
445.582	805.06
445.803	843.06
446.024	916.06
446.245	899.06
446.466	850.06
446.687	773.06
446.908	732.06
447.129	701.06
447.35	654.06
447.571	673.06
447.792	655.06
448.013	664.06
448.234	691.06
448.455	716.06
448.675	804.06
448.896	898.06
449.117	781.06
449.338	749.06
449.559	834.06
449.779	921.06
450	771.06
450.221	690.06
450.442	644.06
450.662	649.06
450.883	647.06
451.104	671.06
451.324	648.06
451.545	651.06
451.766	637.06
451.986	611.06
452.207	629.06
452.428	620.06
452.648	621.06
452.869	614.06
453.089	628.06
453.31	622.06
453.53	621.06
453.751	620.06
453.971	592.06
454.192	615.06
454.412	592.06
454.633	594.06
454.853	603.06
455.073	597.06
455.294	614.06
455.514	677.06
455.734	645.06
455.955	591.06
456.175	567.06
456.395	569.06
456.616	562.06
456.836	599.06
457.056	570.06
457.276	559.06
457.497	584.06
457.717	598.06
457.937	583.06
458.157	595.06
458.377	580.06
458.598	634.06
458.818	663.06
459.038	740.06
459.258	789.06
459.478	726.06
459.698	691.06
459.918	702.06
460.138	709.06
460.358	719.06
460.578	740.06
460.798	725.06
461.018	748.06
461.238	718.06
461.458	718.06
461.678	729.06
461.898	717.06
462.118	734.06
462.338	753.06
462.558	779.06
462.777	826.06
462.997	854.06
463.217	874.06
463.437	909.06
463.657	813.06
463.876	834.06
464.096	833.06
464.316	806.06
464.536	823.06
464.755	803.06
464.975	783.06
465.195	824.06
465.414	817.06
465.634	740.06
465.854	706.06
466.073	711.06
466.293	671.06
466.512	653.06
466.732	651.06
466.951	654.06
467.171	639.06
467.391	653.06
467.61	643.06
467.829	643.06
468.049	643.06
468.268	642.06
468.488	623.06
468.707	620.06
468.927	619.06
469.146	596.06
469.365	631.06
469.585	612.06
469.804	616.06
470.023	650.06
470.243	654.06
470.462	674.06
470.681	669.06
470.901	695.06
471.12	669.06
471.339	642.06
471.558	643.06
471.777	654.06
471.997	649.06
472.216	640.06
472.435	665.06
472.654	660.06
472.873	635.06
473.092	626.06
473.311	599.06
473.53	627.06
473.749	633.06
473.968	630.06
474.187	729.06
474.406	747.06
474.625	674.06
474.844	642.06
475.063	634.06
475.282	618.06
475.501	641.06
475.72	645.06
475.939	632.06
476.158	633.06
476.377	641.06
476.596	667.06
476.814	671.06
477.033	667.06
477.252	661.06
477.471	693.06
477.69	713.06
477.908	711.06
478.127	737.06
478.346	717.06
478.564	734.06
478.783	746.06
479.002	765.06
479.22	746.06
479.439	767.06
479.658	783.06
479.876	792.06
480.095	791.06
480.313	823.06
480.532	841.06
480.751	823.06
480.969	809.06
481.188	833.06
481.406	919.06
481.624	817.06
481.843	752.06
482.061	749.06
482.28	753.06
482.498	739.06
482.717	724.06
482.935	711.06
483.153	751.06
483.372	728.06
483.59	745.06
483.808	756.06
484.027	721.06
484.245	759.06
484.463	731.06
484.681	781.06
484.9	775.06
485.118	772.06
485.336	792.06
485.554	771.06
485.772	761.06
485.99	781.06
486.209	757.06
486.427	769.06
486.645	797.06
486.863	797.06
487.081	789.06
487.299	788.06
487.517	799.06
487.735	784.06
487.953	781.06
488.171	798.06
488.389	801.06
488.607	794.06
488.825	796.06
489.043	799.06
489.261	775.06
489.479	765.06
489.696	798.06
489.914	819.06
490.132	775.06
490.35	833.06
490.568	820.06
490.786	860.06
491.003	842.06
491.221	866.06
491.439	866.06
491.657	861.06
491.874	881.06
492.092	884.06
492.31	889.06
492.527	864.06
492.745	893.06
492.963	882.06
493.18	921.06
493.398	907.06
493.615	894.06
493.833	891.06
494.05	917.06
494.268	930.06
494.485	915.06
494.703	912.06
494.92	910.06
495.138	919.06
495.355	904.06
495.573	925.06
495.79	927.06
496.008	920.06
496.225	913.06
496.442	956.06
496.66	930.06
496.877	913.06
497.094	936.06
497.312	962.06
497.529	995.06
497.746	1002.06
497.963	1001.06
498.181	1053.06
498.398	1058.06
498.615	1121.06
498.832	1133.06
499.049	1210.06
499.267	1276.06
499.484	1337.06
499.701	1443.06
499.918	1570.06
500.135	1690.06
500.352	1802.06
500.569	1835.06
500.786	1859.06
501.003	1777.06
501.22	1701.06
501.437	1591.06
501.654	1476.06
501.871	1422.06
502.088	1294.06
502.305	1226.06
502.522	1157.06
502.739	1106.06
502.956	1075.06
503.172	1035.06
503.389	1011.06
503.606	1031.06
503.823	1016.06
504.04	990.06
504.256	999.06
504.473	979.06
504.69	995.06
504.907	989.06
505.123	988.06
505.34	939.06
505.557	879.06
505.773	891.06
505.99	887.06
506.207	884.06
506.423	872.06
506.64	875.06
506.856	876.06
507.073	856.06
507.289	833.06
507.506	851.06
507.722	830.06
507.939	842.06
508.155	847.06
508.372	808.06
508.588	794.06
508.805	802.06
509.021	799.06
509.238	827.06
509.454	826.06
509.67	810.06
509.887	784.06
510.103	797.06
510.319	811.06
510.536	880.06
510.752	1281.06
510.968	1058.06
511.184	810.06
511.401	772.06
511.617	767.06
511.833	758.06
512.049	774.06
512.265	747.06
512.481	771.06
512.698	742.06
512.914	769.06
513.13	794.06
513.346	745.06
513.562	746.06
513.778	779.06
513.994	749.06
514.21	754.06
514.426	789.06
514.642	812.06
514.858	831.06
515.074	843.06
515.29	942.06
515.506	1293.06
515.721	1139.06
515.937	873.06
516.153	825.06
516.369	822.06
516.585	853.06
516.801	834.06
517.016	862.06
517.232	878.06
517.448	901.06
517.664	932.06
517.879	908.06
518.095	935.06
518.311	893.06
518.527	879.06
518.742	870.06
518.958	829.06
519.173	823.06
519.389	813.06
519.605	797.06
519.82	790.06
520.036	792.06
520.251	773.06
520.467	796.06
520.682	789.06
520.898	787.06
521.113	797.06
521.329	794.06
521.544	840.06
521.76	1017.06
521.975	1528.06
522.19	1550.06
522.406	937.06
522.621	798.06
522.836	756.06
523.052	706.06
523.267	694.06
523.482	694.06
523.698	648.06
523.913	717.06
524.128	693.06
524.343	698.06
524.559	674.06
524.774	655.06
524.989	669.06
525.204	691.06
525.419	675.06
525.634	662.06
525.849	667.06
526.064	659.06
526.28	658.06
526.495	663.06
526.71	628.06
526.925	627.06
527.14	642.06
527.355	624.06
527.57	627.06
527.785	650.06
527.999	629.06
528.214	644.06
528.429	659.06
528.644	671.06
528.859	635.06
529.074	631.06
529.289	635.06
529.503	709.06
529.718	705.06
529.933	654.06
530.148	656.06
530.363	628.06
530.577	636.06
530.792	654.06
531.007	636.06
531.221	645.06
531.436	642.06
531.651	634.06
531.865	637.06
532.08	637.06
532.295	630.06
532.509	612.06
532.724	618.06
532.938	650.06
533.153	626.06
533.367	632.06
533.582	636.06
533.796	628.06
534.011	615.06
534.225	625.06
534.44	627.06
534.654	622.06
534.868	642.06
535.083	620.06
535.297	659.06
535.511	643.06
535.726	634.06
535.94	625.06
536.154	610.06
536.369	590.06
536.583	595.06
536.797	603.06
537.011	598.06
537.225	610.06
537.44	597.06
537.654	605.06
537.868	588.06
538.082	571.06
538.296	563.06
538.51	613.06
538.724	589.06
538.938	601.06
539.153	589.06
539.367	615.06
539.581	600.06
539.795	601.06
540.009	595.06
540.222	585.06
540.436	579.06
540.65	577.06
540.864	581.06
541.078	599.06
541.292	619.06
541.506	589.06
541.72	578.06
541.934	559.06
542.147	568.06
542.361	581.06
542.575	558.06
542.789	579.06
543.002	577.06
543.216	596.06
543.43	589.06
543.644	602.06
543.857	599.06
544.071	586.06
544.285	600.06
544.498	582.06
544.712	598.06
544.925	598.06
545.139	586.06
545.352	572.06
545.566	581.06
545.779	579.06
545.993	593.06
546.206	597.06
546.42	595.06
546.633	603.06
546.847	596.06
547.06	561.06
547.274	580.06
547.487	587.06
547.7	580.06
547.914	580.06
548.127	603.06
548.34	601.06
548.554	581.06
548.767	573.06
548.98	604.06
549.193	584.06
549.407	595.06
549.62	606.06
549.833	601.06
550.046	594.06
550.259	597.06
550.473	573.06
550.686	599.06
550.899	574.06
551.112	575.06
551.325	577.06
551.538	567.06
551.751	582.06
551.964	600.06
552.177	574.06
552.39	592.06
552.603	618.06
552.816	635.06
553.029	637.06
553.242	622.06
553.455	625.06
553.667	637.06
553.88	636.06
554.093	623.06
554.306	597.06
554.519	597.06
554.732	582.06
554.944	585.06
555.157	599.06
555.37	580.06
555.583	565.06
555.795	558.06
556.008	555.06
556.221	532.06
556.433	531.06
556.646	521.06
556.859	539.06
557.071	518.06
557.284	489.06
557.496	508.06
557.709	503.06
557.921	518.06
558.134	514.06
558.346	517.06
558.559	506.06
558.771	504.06
558.984	501.06
559.196	500.06
559.409	511.06
559.621	501.06
559.833	499.06
560.046	492.06
560.258	504.06
560.47	490.06
560.683	508.06
560.895	484.06
561.107	525.06
561.32	493.06
561.532	522.06
561.744	508.06
561.956	513.06
562.168	489.06
562.381	487.06
562.593	517.06
562.805	520.06
563.017	512.06
563.229	525.06
563.441	499.06
563.653	520.06
563.865	524.06
564.077	529.06
564.289	554.06
564.501	543.06
564.713	528.06
564.925	543.06
565.137	552.06
565.349	577.06
565.561	578.06
565.773	598.06
565.985	637.06
566.197	641.06
566.408	658.06
566.62	710.06
566.832	746.06
567.044	760.06
567.255	733.06
567.467	739.06
567.679	804.06
567.891	861.06
568.102	845.06
568.314	806.06
568.526	762.06
568.737	708.06
568.949	663.06
569.161	644.06
569.372	603.06
569.584	595.06
569.795	571.06
570.007	544.06
570.218	572.06
570.43	588.06
570.641	529.06
570.853	532.06
571.064	527.06
571.276	525.06
571.487	519.06
571.698	501.06
571.91	490.06
572.121	503.06
572.333	480.06
572.544	442.06
572.755	447.06
572.966	450.06
573.178	467.06
573.389	459.06
573.6	461.06
573.811	450.06
574.023	455.06
574.234	460.06
574.445	442.06
574.656	422.06
574.867	429.06
575.078	463.06
575.289	442.06
575.501	470.06
575.712	428.06
575.923	452.06
576.134	427.06
576.345	412.06
576.556	435.06
576.767	421.06
576.978	415.06
577.188	412.06
577.399	426.06
577.61	406.06
577.821	430.06
578.032	423.06
578.243	440.06
578.454	584.06
578.665	499.06
578.875	402.06
579.086	402.06
579.297	395.06
579.508	397.06
579.718	399.06
579.929	408.06
580.14	413.06
580.35	391.06
580.561	423.06
580.772	389.06
580.982	406.06
581.193	400.06
581.403	393.06
581.614	394.06
581.825	386.06
582.035	373.06
582.246	393.06
582.456	405.06
582.667	387.06
582.877	397.06
583.087	381.06
583.298	373.06
583.508	404.06
583.719	384.06
583.929	381.06
584.139	368.06
584.35	400.06
584.56	382.06
584.77	391.06
584.981	365.06
585.191	385.06
585.401	375.06
585.611	381.06
585.821	379.06
586.032	384.06
586.242	377.06
586.452	381.06
586.662	379.06
586.872	370.06
587.082	383.06
587.292	390.06
587.502	368.06
587.713	382.06
587.923	391.06
588.133	381.06
588.343	378.06
588.553	352.06
588.762	381.06
588.972	387.06
589.182	383.06
589.392	376.06
589.602	382.06
589.812	383.06
590.022	378.06
590.232	388.06
590.441	390.06
590.651	404.06
590.861	385.06
591.071	409.06
591.281	403.06
591.49	391.06
591.7	407.06
591.91	406.06
592.119	403.06
592.329	404.06
592.539	424.06
592.748	424.06
592.958	431.06
593.167	459.06
593.377	457.06
593.587	453.06
593.796	455.06
594.006	427.06
594.215	456.06
594.424	450.06
594.634	471.06
594.843	428.06
595.053	419.06
595.262	430.06
595.472	426.06
595.681	407.06
595.89	390.06
596.1	385.06
596.309	385.06
596.518	375.06
596.727	376.06
596.937	358.06
597.146	365.06
597.355	362.06
597.564	355.06
597.774	330.06
597.983	350.06
598.192	345.06
598.401	334.06
598.61	345.06
598.819	339.06
599.028	350.06
599.237	336.06
599.446	339.06
599.655	356.06
599.864	330.06
600.073	324.06
600.282	323.06
600.491	322.06
600.7	338.06
600.909	335.06
601.118	332.06
601.327	322.06
601.536	337.06
601.745	321.06
601.953	335.06
602.162	331.06
602.371	322.06
602.58	321.06
602.789	306.06
602.997	324.06
603.206	301.06
603.415	319.06
603.623	318.06
603.832	309.06
604.041	323.06
604.249	326.06
604.458	332.06
604.666	310.06
604.875	305.06
605.084	297.06
605.292	309.06
605.501	301.06
605.709	310.06
605.918	323.06
606.126	321.06
606.334	308.06
606.543	294.06
606.751	287.06
606.96	297.06
607.168	292.06
607.376	310.06
607.585	313.06
607.793	286.06
608.001	306.06
608.21	302.06
608.418	314.06
608.626	300.06
608.834	290.06
609.043	295.06
609.251	293.06
609.459	302.06
609.667	311.06
609.875	302.06
610.083	296.06
610.291	307.06
610.499	310.06
610.707	295.06
610.916	290.06
611.124	315.06
611.332	302.06
611.54	302.06
611.748	307.06
611.955	294.06
612.163	298.06
612.371	299.06
612.579	294.06
612.787	300.06
612.995	296.06
613.203	305.06
613.411	303.06
613.618	302.06
613.826	302.06
614.034	294.06
614.242	289.06
614.449	290.06
614.657	294.06
614.865	276.06
615.072	290.06
615.28	291.06
615.488	283.06
615.695	286.06
615.903	298.06
616.111	308.06
616.318	286.06
616.526	311.06
616.733	286.06
616.941	289.06
617.148	284.06
617.356	299.06
617.563	290.06
617.771	311.06
617.978	293.06
618.185	280.06
618.393	278.06
618.6	295.06
618.807	309.06
619.015	289.06
619.222	286.06
619.429	286.06
619.637	287.06
619.844	276.06
620.051	279.06
620.258	289.06
620.466	279.06
620.673	282.06
620.88	273.06
621.087	283.06
621.294	281.06
621.501	270.06
621.708	272.06
621.915	278.06
622.122	282.06
622.329	301.06
622.536	263.06
622.743	263.06
622.95	260.06
623.157	275.06
623.364	271.06
623.571	275.06
623.778	279.06
623.985	272.06
624.192	275.06
624.399	260.06
624.606	272.06
624.812	251.06
625.019	270.06
625.226	259.06
625.433	263.06
625.639	253.06
625.846	253.06
626.053	257.06
626.259	250.06
626.466	262.06
626.673	245.06
626.879	255.06
627.086	269.06
627.293	244.06
627.499	221.06
627.706	255.06
627.912	251.06
628.119	241.06
628.325	263.06
628.532	267.06
628.738	255.06
628.945	254.06
629.151	252.06
629.357	252.06
629.564	253.06
629.77	243.06
629.976	258.06
630.183	236.06
630.389	227.06
630.595	229.06
630.802	232.06
631.008	238.06
631.214	229.06
631.42	231.06
631.627	246.06
631.833	227.06
632.039	226.06
632.245	223.06
632.451	237.06
632.657	223.06
632.863	222.06
633.069	238.06
633.275	225.06
633.481	216.06
633.688	229.06
633.893	237.06
634.099	232.06
634.305	227.06
634.511	214.06
634.717	216.06
634.923	226.06
635.129	224.06
635.335	215.06
635.541	215.06
635.747	216.06
635.952	214.06
636.158	237.06
636.364	222.06
636.57	219.06
636.775	223.06
636.981	213.06
637.187	210.06
637.392	204.06
637.598	211.06
637.804	219.06
638.009	223.06
638.215	208.06
638.421	224.06
638.626	217.06
638.832	219.06
639.037	217.06
639.243	199.06
639.448	208.06
639.654	212.06
639.859	204.06
640.065	219.06
640.27	213.06
640.475	211.06
640.681	200.06
640.886	221.06
641.091	201.06
641.297	205.06
641.502	201.06
641.707	196.06
641.913	206.06
642.118	203.06
642.323	200.06
642.528	211.06
642.733	195.06
642.939	199.06
643.144	211.06
643.349	193.06
643.554	197.06
643.759	190.06
643.964	196.06
644.169	191.06
644.374	190.06
644.579	198.06
644.784	190.06
644.989	198.06
645.194	198.06
645.399	199.06
645.604	198.06
645.809	185.06
646.014	193.06
646.219	201.06
646.423	201.06
646.628	212.06
646.833	209.06
647.038	214.06
647.243	189.06
647.447	200.06
647.652	203.06
647.857	213.06
648.062	207.06
648.266	227.06
648.471	210.06
648.676	191.06
648.88	204.06
649.085	193.06
649.289	191.06
649.494	207.06
649.698	227.06
649.903	204.06
650.107	203.06
650.312	193.06
650.516	196.06
650.721	192.06
650.925	198.06
651.13	170.06
651.334	183.06
651.539	176.06
651.743	171.06
651.947	169.06
652.152	155.06
652.356	158.06
652.56	163.06
652.764	158.06
652.969	172.06
653.173	169.06
653.377	166.06
653.581	163.06
653.785	156.06
653.99	165.06
654.194	142.06
654.398	159.06
654.602	147.06
654.806	164.06
655.01	161.06
655.214	161.06
655.418	156.06
655.622	140.06
655.826	154.06
656.03	156.06
656.234	160.06
656.438	151.06
656.642	153.06
656.846	149.06
657.049	158.06
657.253	147.06
657.457	126.06
657.661	127.06
657.865	131.06
658.068	132.06
658.272	119.06
658.476	127.06
658.68	116.06
658.883	126.06
659.087	109.06
659.291	113.06
659.494	123.06
659.698	114.06
659.901	103.06
660.105	96.06
660.309	99.06
660.512	104.06
660.716	118.06
660.919	105.06
661.123	107.06
661.326	86.06
661.53	97.06
661.733	89.06
661.936	91.06
662.14	95.06
662.343	102.06
662.546	98.06
662.75	99.06
662.953	97.06
663.156	86.06
663.36	72.06
663.563	77.06
663.766	78.06
663.969	89.06
664.173	90.06
664.376	98.06
664.579	95.06
664.782	78.06
664.985	94.06
665.188	82.06
665.391	81.06
665.594	86.06
665.797	77.06
666	80.06
666.203	84.06
666.406	88.06
666.609	86.06
666.812	94.06
667.015	71.06
667.218	77.06
667.421	66.06
667.624	79.06
667.827	83.06
668.03	87.06
668.232	87.06
668.435	76.06
668.638	83.06
668.841	90.06
669.043	84.06
669.246	84.06
669.449	100.06
669.651	91.06
669.854	89.06
670.057	84.06
670.259	98.06
670.462	101.06
670.665	86.06
670.867	94.06
671.07	82.06
671.272	82.06
671.475	91.06
671.677	80.06
671.88	76.06
672.082	78.06
672.284	83.06
672.487	84.06
672.689	97.06
672.892	94.06
