Data from 1963.PennyLincolnUp.Lamp.En5.5.200Scan.071719.P1._HRD10591_13-57-46-063.txt Node
Date: Thu Jul 18 13:57:46 EDT 2019
User: cochatt
Spectrometer: HR+D1059
Trigger mode: 1
Integration Time (sec): 1.000000E-1
Scans to average: 1
Electric dark correction enabled: true
Nonlinearity correction enabled: false
Boxcar width: 0
XAxis mode: Wavelengths
Number of Pixels in Spectrum: 2048
>>>>>Begin Spectral Data<<<<<
223.165	-16.31
223.4	-16.31
223.635	-16.31
223.869	-20.31
224.104	-21.31
224.338	-18.31
224.573	-23.31
224.808	-17.31
225.042	-14.31
225.277	7.69
225.511	14.69
225.746	2.69
225.98	11.69
226.215	11.69
226.449	13.69
226.683	23.69
226.918	13.69
227.152	31.69
227.387	41.69
227.621	43.69
227.856	54.69
228.09	43.69
228.324	48.69
228.559	68.69
228.793	52.69
229.027	92.69
229.262	96.69
229.496	106.69
229.73	135.69
229.964	133.69
230.199	132.69
230.433	103.69
230.667	119.69
230.901	106.69
231.136	129.69
231.37	115.69
231.604	109.69
231.838	115.69
232.072	115.69
232.306	113.69
232.541	119.69
232.775	141.69
233.009	112.69
233.243	114.69
233.477	112.69
233.711	126.69
233.945	127.69
234.179	117.69
234.413	117.69
234.647	119.69
234.881	119.69
235.115	124.69
235.349	120.69
235.583	127.69
235.817	126.69
236.051	130.69
236.285	138.69
236.519	138.69
236.753	136.69
236.987	133.69
237.221	169.69
237.455	184.69
237.689	175.69
237.922	163.69
238.156	134.69
238.39	112.69
238.624	128.69
238.858	141.69
239.091	136.69
239.325	128.69
239.559	135.69
239.793	140.69
240.027	133.69
240.26	148.69
240.494	144.69
240.728	162.69
240.961	159.69
241.195	144.69
241.429	146.69
241.662	149.69
241.896	151.69
242.13	160.69
242.363	155.69
242.597	161.69
242.83	144.69
243.064	145.69
243.298	142.69
243.531	149.69
243.765	156.69
243.998	164.69
244.232	157.69
244.465	162.69
244.699	165.69
244.932	161.69
245.166	167.69
245.399	161.69
245.633	164.69
245.866	179.69
246.099	162.69
246.333	174.69
246.566	169.69
246.8	173.69
247.033	185.69
247.266	179.69
247.5	182.69
247.733	168.69
247.966	164.69
248.2	183.69
248.433	175.69
248.666	190.69
248.899	187.69
249.133	197.69
249.366	199.69
249.599	203.69
249.832	184.69
250.066	183.69
250.299	177.69
250.532	200.69
250.765	210.69
250.998	225.69
251.231	223.69
251.465	238.69
251.698	214.69
251.931	197.69
252.164	213.69
252.397	208.69
252.63	212.69
252.863	187.69
253.096	220.69
253.329	217.69
253.562	224.69
253.795	232.69
254.028	215.69
254.261	218.69
254.494	241.69
254.727	245.69
254.96	256.69
255.193	243.69
255.426	240.69
255.659	236.69
255.892	228.69
256.124	235.69
256.357	224.69
256.59	236.69
256.823	236.69
257.056	215.69
257.289	223.69
257.521	220.69
257.754	204.69
257.987	227.69
258.22	229.69
258.452	258.69
258.685	226.69
258.918	226.69
259.151	225.69
259.383	231.69
259.616	234.69
259.849	249.69
260.081	251.69
260.314	272.69
260.547	256.69
260.779	244.69
261.012	237.69
261.244	234.69
261.477	243.69
261.71	236.69
261.942	246.69
262.175	249.69
262.407	250.69
262.64	244.69
262.872	237.69
263.105	232.69
263.337	228.69
263.57	219.69
263.802	222.69
264.035	246.69
264.267	248.69
264.499	235.69
264.732	247.69
264.964	238.69
265.197	227.69
265.429	232.69
265.661	231.69
265.894	248.69
266.126	245.69
266.358	235.69
266.591	240.69
266.823	235.69
267.055	256.69
267.287	259.69
267.52	249.69
267.752	270.69
267.984	252.69
268.216	265.69
268.448	256.69
268.681	246.69
268.913	248.69
269.145	293.69
269.377	303.69
269.609	288.69
269.841	285.69
270.073	288.69
270.306	286.69
270.538	298.69
270.77	308.69
271.002	312.69
271.234	301.69
271.466	316.69
271.698	324.69
271.93	315.69
272.162	332.69
272.394	329.69
272.626	307.69
272.858	315.69
273.09	302.69
273.322	289.69
273.553	307.69
273.785	293.69
274.017	288.69
274.249	279.69
274.481	292.69
274.713	287.69
274.945	309.69
275.176	270.69
275.408	295.69
275.64	292.69
275.872	267.69
276.104	286.69
276.335	299.69
276.567	302.69
276.799	322.69
277.031	327.69
277.262	332.69
277.494	348.69
277.726	324.69
277.957	313.69
278.189	320.69
278.421	303.69
278.652	314.69
278.884	302.69
279.115	296.69
279.347	312.69
279.579	309.69
279.81	300.69
280.042	311.69
280.273	319.69
280.505	298.69
280.736	293.69
280.968	295.69
281.199	307.69
281.431	311.69
281.662	310.69
281.894	327.69
282.125	318.69
282.356	315.69
282.588	333.69
282.819	318.69
283.051	332.69
283.282	331.69
283.513	329.69
283.745	337.69
283.976	325.69
284.207	314.69
284.439	336.69
284.67	342.69
284.901	321.69
285.132	333.69
285.364	336.69
285.595	335.69
285.826	334.69
286.057	351.69
286.288	350.69
286.52	343.69
286.751	333.69
286.982	346.69
287.213	335.69
287.444	346.69
287.675	348.69
287.906	355.69
288.138	364.69
288.369	352.69
288.6	352.69
288.831	342.69
289.062	343.69
289.293	353.69
289.524	359.69
289.755	348.69
289.986	360.69
290.217	356.69
290.448	338.69
290.679	354.69
290.91	341.69
291.141	339.69
291.371	344.69
291.602	352.69
291.833	352.69
292.064	341.69
292.295	346.69
292.526	358.69
292.757	358.69
292.987	352.69
293.218	351.69
293.449	351.69
293.68	343.69
293.91	371.69
294.141	357.69
294.372	355.69
294.603	371.69
294.833	376.69
295.064	354.69
295.295	359.69
295.525	339.69
295.756	377.69
295.987	371.69
296.217	362.69
296.448	377.69
296.679	370.69
296.909	358.69
297.14	369.69
297.37	364.69
297.601	360.69
297.831	357.69
298.062	384.69
298.292	379.69
298.523	378.69
298.753	391.69
298.984	389.69
299.214	387.69
299.445	391.69
299.675	376.69
299.905	375.69
300.136	397.69
300.366	373.69
300.597	393.69
300.827	404.69
301.057	385.69
301.288	394.69
301.518	393.69
301.748	406.69
301.979	396.69
302.209	385.69
302.439	398.69
302.669	411.69
302.9	430.69
303.13	419.69
303.36	400.69
303.59	401.69
303.82	408.69
304.051	417.69
304.281	387.69
304.511	408.69
304.741	401.69
304.971	383.69
305.201	396.69
305.431	398.69
305.661	395.69
305.891	395.69
306.121	394.69
306.352	384.69
306.582	419.69
306.812	400.69
307.042	412.69
307.272	416.69
307.502	396.69
307.731	403.69
307.961	391.69
308.191	388.69
308.421	407.69
308.651	409.69
308.881	389.69
309.111	395.69
309.341	413.69
309.571	420.69
309.8	428.69
310.03	427.69
310.26	419.69
310.49	425.69
310.72	419.69
310.949	408.69
311.179	433.69
311.409	426.69
311.639	433.69
311.868	413.69
312.098	430.69
312.328	459.69
312.557	443.69
312.787	430.69
313.017	425.69
313.246	428.69
313.476	425.69
313.706	437.69
313.935	439.69
314.165	462.69
314.394	454.69
314.624	456.69
314.853	447.69
315.083	449.69
315.312	460.69
315.542	435.69
315.771	440.69
316.001	433.69
316.23	444.69
316.46	425.69
316.689	441.69
316.919	444.69
317.148	444.69
317.377	456.69
317.607	452.69
317.836	437.69
318.065	436.69
318.295	442.69
318.524	436.69
318.753	430.69
318.983	450.69
319.212	452.69
319.441	447.69
319.67	444.69
319.9	441.69
320.129	454.69
320.358	449.69
320.587	454.69
320.816	437.69
321.046	447.69
321.275	442.69
321.504	467.69
321.733	461.69
321.962	454.69
322.191	451.69
322.42	460.69
322.649	485.69
322.878	473.69
323.108	483.69
323.337	472.69
323.566	495.69
323.795	511.69
324.024	529.69
324.253	575.69
324.482	739.69
324.71	1014.69
324.939	1424.69
325.168	1300.69
325.397	746.69
325.626	592.69
325.855	541.69
326.084	517.69
326.313	522.69
326.542	517.69
326.77	522.69
326.999	567.69
327.228	680.69
327.457	958.69
327.686	1211.69
327.914	815.69
328.143	612.69
328.372	607.69
328.6	565.69
328.829	548.69
329.058	552.69
329.287	556.69
329.515	565.69
329.744	529.69
329.972	516.69
330.201	540.69
330.43	575.69
330.658	570.69
330.887	575.69
331.115	598.69
331.344	567.69
331.572	535.69
331.801	538.69
332.03	541.69
332.258	543.69
332.486	544.69
332.715	567.69
332.943	545.69
333.172	573.69
333.4	573.69
333.629	620.69
333.857	612.69
334.085	621.69
334.314	617.69
334.542	649.69
334.771	659.69
334.999	617.69
335.227	588.69
335.455	584.69
335.684	570.69
335.912	579.69
336.14	558.69
336.369	524.69
336.597	541.69
336.825	554.69
337.053	553.69
337.281	561.69
337.51	552.69
337.738	545.69
337.966	532.69
338.194	523.69
338.422	528.69
338.65	533.69
338.878	523.69
339.106	517.69
339.334	539.69
339.562	533.69
339.79	516.69
340.018	520.69
340.246	520.69
340.474	509.69
340.702	509.69
340.93	513.69
341.158	509.69
341.386	525.69
341.614	508.69
341.842	521.69
342.07	492.69
342.298	507.69
342.526	517.69
342.754	516.69
342.981	490.69
343.209	495.69
343.437	535.69
343.665	537.69
343.893	572.69
344.12	571.69
344.348	566.69
344.576	551.69
344.804	526.69
345.031	526.69
345.259	529.69
345.487	522.69
345.714	503.69
345.942	494.69
346.17	509.69
346.397	510.69
346.625	519.69
346.853	491.69
347.08	477.69
347.308	489.69
347.535	489.69
347.763	497.69
347.99	496.69
348.218	483.69
348.445	512.69
348.673	481.69
348.9	502.69
349.128	489.69
349.355	476.69
349.583	479.69
349.81	480.69
350.037	463.69
350.265	468.69
350.492	471.69
350.72	477.69
350.947	493.69
351.174	501.69
351.402	515.69
351.629	493.69
351.856	496.69
352.083	499.69
352.311	485.69
352.538	483.69
352.765	499.69
352.992	469.69
353.22	477.69
353.447	480.69
353.674	456.69
353.901	465.69
354.128	487.69
354.355	466.69
354.583	472.69
354.81	451.69
355.037	467.69
355.264	471.69
355.491	452.69
355.718	460.69
355.945	489.69
356.172	464.69
356.399	450.69
356.626	462.69
356.853	471.69
357.08	448.69
357.307	477.69
357.534	473.69
357.761	481.69
357.988	463.69
358.215	477.69
358.441	504.69
358.668	469.69
358.895	477.69
359.122	486.69
359.349	497.69
359.576	499.69
359.802	490.69
360.029	533.69
360.256	505.69
360.483	521.69
360.709	486.69
360.936	485.69
361.163	492.69
361.39	470.69
361.616	508.69
361.843	499.69
362.07	499.69
362.296	497.69
362.523	486.69
362.749	488.69
362.976	491.69
363.203	476.69
363.429	491.69
363.656	486.69
363.882	478.69
364.109	492.69
364.335	461.69
364.562	478.69
364.788	481.69
365.015	490.69
365.241	470.69
365.468	479.69
365.694	473.69
365.92	486.69
366.147	478.69
366.373	484.69
366.599	492.69
366.826	478.69
367.052	500.69
367.278	489.69
367.505	495.69
367.731	475.69
367.957	485.69
368.184	482.69
368.41	489.69
368.636	481.69
368.862	515.69
369.089	491.69
369.315	503.69
369.541	475.69
369.767	488.69
369.993	503.69
370.219	496.69
370.445	503.69
370.672	485.69
370.898	491.69
371.124	500.69
371.35	497.69
371.576	503.69
371.802	510.69
372.028	489.69
372.254	479.69
372.48	507.69
372.706	525.69
372.932	516.69
373.158	520.69
373.384	542.69
373.61	525.69
373.835	497.69
374.061	513.69
374.287	510.69
374.513	526.69
374.739	534.69
374.965	532.69
375.191	555.69
375.416	543.69
375.642	520.69
375.868	525.69
376.094	532.69
376.319	535.69
376.545	512.69
376.771	514.69
376.997	510.69
377.222	519.69
377.448	500.69
377.674	519.69
377.899	510.69
378.125	510.69
378.35	483.69
378.576	515.69
378.802	493.69
379.027	495.69
379.253	522.69
379.478	528.69
379.704	515.69
379.929	486.69
380.155	508.69
380.38	489.69
380.606	493.69
380.831	521.69
381.057	515.69
381.282	507.69
381.507	499.69
381.733	491.69
381.958	507.69
382.184	518.69
382.409	528.69
382.634	518.69
382.86	515.69
383.085	517.69
383.31	511.69
383.535	540.69
383.761	560.69
383.986	534.69
384.211	558.69
384.436	550.69
384.662	585.69
384.887	568.69
385.112	587.69
385.337	564.69
385.562	570.69
385.787	581.69
386.013	604.69
386.238	608.69
386.463	605.69
386.688	602.69
386.913	583.69
387.138	600.69
387.363	602.69
387.588	605.69
387.813	596.69
388.038	592.69
388.263	585.69
388.488	591.69
388.713	582.69
388.938	569.69
389.163	604.69
389.387	581.69
389.612	553.69
389.837	569.69
390.062	593.69
390.287	576.69
390.512	553.69
390.736	567.69
390.961	583.69
391.186	592.69
391.411	574.69
391.636	623.69
391.86	621.69
392.085	635.69
392.31	628.69
392.534	608.69
392.759	633.69
392.984	593.69
393.208	595.69
393.433	613.69
393.658	609.69
393.882	604.69
394.107	612.69
394.331	607.69
394.556	613.69
394.78	611.69
395.005	611.69
395.229	604.69
395.454	622.69
395.678	635.69
395.903	641.69
396.127	641.69
396.352	620.69
396.576	622.69
396.801	614.69
397.025	614.69
397.249	625.69
397.474	640.69
397.698	639.69
397.922	650.69
398.147	664.69
398.371	663.69
398.595	679.69
398.82	684.69
399.044	722.69
399.268	748.69
399.492	842.69
399.717	893.69
399.941	896.69
400.165	922.69
400.389	873.69
400.613	793.69
400.837	736.69
401.062	728.69
401.286	700.69
401.51	686.69
401.734	683.69
401.958	697.69
402.182	707.69
402.406	712.69
402.63	712.69
402.854	729.69
403.078	734.69
403.302	759.69
403.526	740.69
403.75	760.69
403.974	757.69
404.198	755.69
404.422	721.69
404.645	766.69
404.869	785.69
405.093	792.69
405.317	816.69
405.541	831.69
405.765	783.69
405.988	752.69
406.212	771.69
406.436	777.69
406.66	777.69
406.883	797.69
407.107	821.69
407.331	871.69
407.555	913.69
407.778	905.69
408.002	859.69
408.226	807.69
408.449	801.69
408.673	781.69
408.896	803.69
409.12	801.69
409.344	816.69
409.567	769.69
409.791	771.69
410.014	729.69
410.238	743.69
410.461	736.69
410.685	732.69
410.908	725.69
411.132	760.69
411.355	759.69
411.578	772.69
411.802	719.69
412.025	705.69
412.249	730.69
412.472	733.69
412.695	751.69
412.919	744.69
413.142	755.69
413.365	697.69
413.589	693.69
413.812	673.69
414.035	680.69
414.258	678.69
414.482	709.69
414.705	709.69
414.928	684.69
415.151	681.69
415.374	693.69
415.597	709.69
415.821	679.69
416.044	680.69
416.267	674.69
416.49	697.69
416.713	681.69
416.936	663.69
417.159	689.69
417.382	700.69
417.605	655.69
417.828	691.69
418.051	701.69
418.274	709.69
418.497	703.69
418.72	672.69
418.943	695.69
419.166	727.69
419.389	756.69
419.611	759.69
419.834	734.69
420.057	717.69
420.28	695.69
420.503	691.69
420.726	685.69
420.948	694.69
421.171	735.69
421.394	748.69
421.617	703.69
421.839	673.69
422.062	714.69
422.285	671.69
422.507	730.69
422.73	790.69
422.953	806.69
423.175	721.69
423.398	726.69
423.621	709.69
423.843	723.69
424.066	739.69
424.288	735.69
424.511	746.69
424.733	774.69
424.956	816.69
425.178	814.69
425.401	814.69
425.623	808.69
425.846	761.69
426.068	717.69
426.291	701.69
426.513	715.69
426.735	692.69
426.958	720.69
427.18	778.69
427.402	860.69
427.625	947.69
427.847	803.69
428.069	752.69
428.292	691.69
428.514	692.69
428.736	656.69
428.958	650.69
429.181	622.69
429.403	631.69
429.625	653.69
429.847	660.69
430.069	725.69
430.292	681.69
430.514	643.69
430.736	638.69
430.958	621.69
431.18	641.69
431.402	628.69
431.624	649.69
431.846	653.69
432.068	638.69
432.29	641.69
432.512	634.69
432.734	632.69
432.956	644.69
433.178	637.69
433.4	644.69
433.622	649.69
433.844	660.69
434.066	619.69
434.287	616.69
434.509	669.69
434.731	680.69
434.953	687.69
435.175	718.69
435.397	739.69
435.618	696.69
435.84	691.69
436.062	767.69
436.284	807.69
436.505	738.69
436.727	664.69
436.949	667.69
437.17	617.69
437.392	632.69
437.614	655.69
437.835	665.69
438.057	736.69
438.278	809.69
438.5	789.69
438.721	838.69
438.943	839.69
439.165	677.69
439.386	651.69
439.608	699.69
439.829	675.69
440.05	703.69
440.272	732.69
440.493	695.69
440.715	658.69
440.936	663.69
441.158	651.69
441.379	675.69
441.6	702.69
441.822	723.69
442.043	748.69
442.264	785.69
442.486	806.69
442.707	742.69
442.928	704.69
443.149	707.69
443.371	757.69
443.592	776.69
443.813	810.69
444.034	891.69
444.255	775.69
444.476	745.69
444.698	781.69
444.919	784.69
445.14	899.69
445.361	805.69
445.582	741.69
445.803	766.69
446.024	819.69
446.245	834.69
446.466	789.69
446.687	702.69
446.908	664.69
447.129	644.69
447.35	636.69
447.571	647.69
447.792	614.69
448.013	618.69
448.234	648.69
448.455	647.69
448.675	720.69
448.896	815.69
449.117	700.69
449.338	691.69
449.559	759.69
449.779	843.69
450	718.69
450.221	648.69
450.442	633.69
450.662	605.69
450.883	612.69
451.104	615.69
451.324	621.69
451.545	592.69
451.766	595.69
451.986	567.69
452.207	589.69
452.428	575.69
452.648	575.69
452.869	582.69
453.089	581.69
453.31	587.69
453.53	604.69
453.751	575.69
453.971	549.69
454.192	586.69
454.412	565.69
454.633	573.69
454.853	573.69
455.073	565.69
455.294	586.69
455.514	605.69
455.734	609.69
455.955	557.69
456.175	562.69
456.395	519.69
456.616	536.69
456.836	551.69
457.056	559.69
457.276	525.69
457.497	551.69
457.717	547.69
457.937	550.69
458.157	561.69
458.377	565.69
458.598	585.69
458.818	603.69
459.038	688.69
459.258	701.69
459.478	665.69
459.698	655.69
459.918	668.69
460.138	655.69
460.358	684.69
460.578	698.69
460.798	717.69
461.018	704.69
461.238	711.69
461.458	683.69
461.678	687.69
461.898	702.69
462.118	688.69
462.338	741.69
462.558	756.69
462.777	775.69
462.997	776.69
463.217	851.69
463.437	835.69
463.657	772.69
463.876	799.69
464.096	763.69
464.316	776.69
464.536	793.69
464.755	790.69
464.975	773.69
465.195	751.69
465.414	765.69
465.634	703.69
465.854	679.69
466.073	665.69
466.293	623.69
466.512	632.69
466.732	623.69
466.951	622.69
467.171	585.69
467.391	618.69
467.61	612.69
467.829	625.69
468.049	631.69
468.268	603.69
468.488	607.69
468.707	593.69
468.927	577.69
469.146	602.69
469.365	604.69
469.585	586.69
469.804	622.69
470.023	612.69
470.243	637.69
470.462	625.69
470.681	634.69
470.901	639.69
471.12	635.69
471.339	610.69
471.558	599.69
471.777	628.69
471.997	619.69
472.216	602.69
472.435	631.69
472.654	624.69
472.873	622.69
473.092	584.69
473.311	612.69
473.53	581.69
473.749	586.69
473.968	624.69
474.187	684.69
474.406	676.69
474.625	648.69
474.844	605.69
475.063	615.69
475.282	593.69
475.501	595.69
475.72	611.69
475.939	596.69
476.158	619.69
476.377	622.69
476.596	605.69
476.814	634.69
477.033	642.69
477.252	654.69
477.471	653.69
477.69	647.69
477.908	662.69
478.127	686.69
478.346	664.69
478.564	670.69
478.783	693.69
479.002	750.69
479.22	719.69
479.439	702.69
479.658	733.69
479.876	717.69
480.095	740.69
480.313	791.69
480.532	777.69
480.751	773.69
480.969	796.69
481.188	785.69
481.406	808.69
481.624	775.69
481.843	701.69
482.061	707.69
482.28	700.69
482.498	698.69
482.717	700.69
482.935	731.69
483.153	692.69
483.372	712.69
483.59	715.69
483.808	728.69
484.027	703.69
484.245	697.69
484.463	708.69
484.681	721.69
484.9	703.69
485.118	739.69
485.336	694.69
485.554	717.69
485.772	731.69
485.99	734.69
486.209	736.69
486.427	748.69
486.645	751.69
486.863	732.69
487.081	753.69
487.299	751.69
487.517	739.69
487.735	739.69
487.953	735.69
488.171	757.69
488.389	737.69
488.607	740.69
488.825	731.69
489.043	750.69
489.261	748.69
489.479	742.69
489.696	746.69
489.914	756.69
490.132	784.69
490.35	741.69
490.568	777.69
490.786	776.69
491.003	793.69
491.221	792.69
491.439	789.69
491.657	811.69
491.874	800.69
492.092	808.69
492.31	810.69
492.527	825.69
492.745	825.69
492.963	834.69
493.18	836.69
493.398	850.69
493.615	851.69
493.833	841.69
494.05	855.69
494.268	853.69
494.485	860.69
494.703	846.69
494.92	853.69
495.138	859.69
495.355	854.69
495.573	846.69
495.79	853.69
496.008	862.69
496.225	847.69
496.442	874.69
496.66	887.69
496.877	872.69
497.094	904.69
497.312	895.69
497.529	903.69
497.746	924.69
497.963	965.69
498.181	975.69
498.398	999.69
498.615	1045.69
498.832	1098.69
499.049	1137.69
499.267	1232.69
499.484	1267.69
499.701	1353.69
499.918	1436.69
500.135	1547.69
500.352	1682.69
500.569	1823.69
500.786	1754.69
501.003	1715.69
501.22	1567.69
501.437	1435.69
501.654	1347.69
501.871	1278.69
502.088	1212.69
502.305	1141.69
502.522	1098.69
502.739	1069.69
502.956	1014.69
503.172	997.69
503.389	953.69
503.606	958.69
503.823	943.69
504.04	938.69
504.256	912.69
504.473	927.69
504.69	931.69
504.907	943.69
505.123	912.69
505.34	861.69
505.557	842.69
505.773	831.69
505.99	824.69
506.207	807.69
506.423	786.69
506.64	796.69
506.856	806.69
507.073	800.69
507.289	781.69
507.506	781.69
507.722	780.69
507.939	755.69
508.155	773.69
508.372	750.69
508.588	740.69
508.805	728.69
509.021	723.69
509.238	731.69
509.454	744.69
509.67	724.69
509.887	729.69
510.103	720.69
510.319	712.69
510.536	801.69
510.752	1067.69
510.968	968.69
511.184	729.69
511.401	728.69
511.617	718.69
511.833	703.69
512.049	689.69
512.265	691.69
512.481	720.69
512.698	698.69
512.914	702.69
513.13	682.69
513.346	703.69
513.562	697.69
513.778	695.69
513.994	716.69
514.21	716.69
514.426	720.69
514.642	742.69
514.858	757.69
515.074	805.69
515.29	851.69
515.506	1070.69
515.721	987.69
515.937	797.69
516.153	783.69
516.369	777.69
516.585	762.69
516.801	793.69
517.016	791.69
517.232	825.69
517.448	879.69
517.664	844.69
517.879	843.69
518.095	869.69
518.311	865.69
518.527	836.69
518.742	818.69
518.958	800.69
519.173	789.69
519.389	747.69
519.605	739.69
519.82	727.69
520.036	751.69
520.251	722.69
520.467	752.69
520.682	732.69
520.898	748.69
521.113	720.69
521.329	738.69
521.544	766.69
521.76	873.69
521.975	1260.69
522.19	1278.69
522.406	812.69
522.621	711.69
522.836	679.69
523.052	668.69
523.267	654.69
523.482	643.69
523.698	646.69
523.913	621.69
524.128	633.69
524.343	637.69
524.559	605.69
524.774	639.69
524.989	642.69
525.204	627.69
525.419	652.69
525.634	615.69
525.849	633.69
526.064	624.69
526.28	621.69
526.495	590.69
526.71	599.69
526.925	594.69
527.14	612.69
527.355	597.69
527.57	587.69
527.785	603.69
527.999	609.69
528.214	624.69
528.429	593.69
528.644	643.69
528.859	603.69
529.074	607.69
529.289	610.69
529.503	669.69
529.718	644.69
529.933	629.69
530.148	630.69
530.363	616.69
530.577	609.69
530.792	584.69
531.007	588.69
531.221	615.69
531.436	579.69
531.651	601.69
531.865	589.69
532.08	585.69
532.295	592.69
532.509	607.69
532.724	619.69
532.938	582.69
533.153	592.69
533.367	600.69
533.582	586.69
533.796	593.69
534.011	595.69
534.225	598.69
534.44	581.69
534.654	588.69
534.868	599.69
535.083	565.69
535.297	569.69
535.511	566.69
535.726	588.69
535.94	608.69
536.154	572.69
536.369	571.69
536.583	575.69
536.797	601.69
537.011	583.69
537.225	554.69
537.44	584.69
537.654	558.69
537.868	558.69
538.082	544.69
538.296	555.69
538.51	599.69
538.724	581.69
538.938	561.69
539.153	572.69
539.367	580.69
539.581	549.69
539.795	555.69
540.009	536.69
540.222	558.69
540.436	552.69
540.65	545.69
540.864	538.69
541.078	550.69
541.292	564.69
541.506	561.69
541.72	558.69
541.934	545.69
542.147	552.69
542.361	565.69
542.575	523.69
542.789	544.69
543.002	551.69
543.216	549.69
543.43	556.69
543.644	557.69
543.857	550.69
544.071	555.69
544.285	552.69
544.498	544.69
544.712	565.69
544.925	561.69
545.139	567.69
545.352	537.69
545.566	550.69
545.779	550.69
545.993	580.69
546.206	579.69
546.42	553.69
546.633	576.69
546.847	545.69
547.06	546.69
547.274	561.69
547.487	558.69
547.7	556.69
547.914	561.69
548.127	582.69
548.34	555.69
548.554	556.69
548.767	575.69
548.98	561.69
549.193	588.69
549.407	582.69
549.62	566.69
549.833	589.69
550.046	555.69
550.259	543.69
550.473	547.69
550.686	558.69
550.899	543.69
551.112	540.69
551.325	553.69
551.538	551.69
551.751	533.69
551.964	575.69
552.177	552.69
552.39	544.69
552.603	572.69
552.816	567.69
553.029	604.69
553.242	611.69
553.455	585.69
553.667	613.69
553.88	593.69
554.093	582.69
554.306	582.69
554.519	565.69
554.732	575.69
554.944	573.69
555.157	559.69
555.37	549.69
555.583	544.69
555.795	529.69
556.008	522.69
556.221	518.69
556.433	519.69
556.646	519.69
556.859	493.69
557.071	472.69
557.284	495.69
557.496	489.69
557.709	493.69
557.921	483.69
558.134	497.69
558.346	498.69
558.559	482.69
558.771	476.69
558.984	496.69
559.196	484.69
559.409	471.69
559.621	487.69
559.833	483.69
560.046	482.69
560.258	492.69
560.47	471.69
560.683	471.69
560.895	481.69
561.107	474.69
561.32	488.69
561.532	477.69
561.744	495.69
561.956	471.69
562.168	489.69
562.381	490.69
562.593	485.69
562.805	496.69
563.017	486.69
563.229	486.69
563.441	503.69
563.653	508.69
563.865	519.69
564.077	479.69
564.289	500.69
564.501	501.69
564.713	543.69
564.925	540.69
565.137	559.69
565.349	550.69
565.561	555.69
565.773	565.69
565.985	596.69
566.197	584.69
566.408	641.69
566.62	662.69
566.832	709.69
567.044	718.69
567.255	723.69
567.467	753.69
567.679	763.69
567.891	815.69
568.102	823.69
568.314	787.69
568.526	705.69
568.737	700.69
568.949	647.69
569.161	607.69
569.372	589.69
569.584	561.69
569.795	528.69
570.007	525.69
570.218	539.69
570.43	534.69
570.641	515.69
570.853	512.69
571.064	515.69
571.276	506.69
571.487	497.69
571.698	492.69
571.91	480.69
572.121	460.69
572.333	450.69
572.544	451.69
572.755	448.69
572.966	439.69
573.178	446.69
573.389	436.69
573.6	443.69
573.811	422.69
574.023	426.69
574.234	417.69
574.445	432.69
574.656	433.69
574.867	430.69
575.078	433.69
575.289	438.69
575.501	423.69
575.712	429.69
575.923	420.69
576.134	420.69
576.345	406.69
576.556	410.69
576.767	414.69
576.978	430.69
577.188	404.69
577.399	406.69
577.61	411.69
577.821	366.69
578.032	406.69
578.243	425.69
578.454	532.69
578.665	440.69
578.875	398.69
579.086	381.69
579.297	382.69
579.508	368.69
579.718	400.69
579.929	381.69
580.14	391.69
580.35	402.69
580.561	377.69
580.772	382.69
580.982	376.69
581.193	374.69
581.403	389.69
581.614	378.69
581.825	377.69
582.035	364.69
582.246	374.69
582.456	372.69
582.667	368.69
582.877	387.69
583.087	368.69
583.298	381.69
583.508	366.69
583.719	371.69
583.929	384.69
584.139	375.69
584.35	383.69
584.56	383.69
584.77	374.69
584.981	375.69
585.191	372.69
585.401	365.69
585.611	377.69
585.821	355.69
586.032	372.69
586.242	367.69
586.452	375.69
586.662	367.69
586.872	360.69
587.082	377.69
587.292	367.69
587.502	367.69
587.713	352.69
587.923	353.69
588.133	355.69
588.343	360.69
588.553	366.69
588.762	368.69
588.972	363.69
589.182	377.69
589.392	366.69
589.602	375.69
589.812	367.69
590.022	376.69
590.232	358.69
590.441	371.69
590.651	387.69
590.861	391.69
591.071	368.69
591.281	375.69
591.49	383.69
591.7	381.69
591.91	398.69
592.119	393.69
592.329	403.69
592.539	412.69
592.748	426.69
592.958	429.69
593.167	441.69
593.377	428.69
593.587	438.69
593.796	459.69
594.006	452.69
594.215	468.69
594.424	435.69
594.634	441.69
594.843	429.69
595.053	423.69
595.262	399.69
595.472	412.69
595.681	396.69
595.89	379.69
596.1	383.69
596.309	367.69
596.518	355.69
596.727	356.69
596.937	358.69
597.146	328.69
597.355	352.69
597.564	367.69
597.774	361.69
597.983	329.69
598.192	342.69
598.401	327.69
598.61	332.69
598.819	321.69
599.028	320.69
599.237	323.69
599.446	334.69
599.655	329.69
599.864	333.69
600.073	344.69
600.282	312.69
600.491	315.69
600.7	300.69
600.909	315.69
601.118	328.69
601.327	317.69
601.536	320.69
601.745	313.69
601.953	300.69
602.162	317.69
602.371	317.69
602.58	305.69
602.789	321.69
602.997	307.69
603.206	317.69
603.415	296.69
603.623	303.69
603.832	305.69
604.041	285.69
604.249	297.69
604.458	286.69
604.666	317.69
604.875	296.69
605.084	304.69
605.292	303.69
605.501	321.69
605.709	300.69
605.918	293.69
606.126	317.69
606.334	298.69
606.543	294.69
606.751	302.69
606.96	293.69
607.168	284.69
607.376	285.69
607.585	295.69
607.793	289.69
608.001	294.69
608.21	275.69
608.418	292.69
608.626	290.69
608.834	295.69
609.043	295.69
609.251	285.69
609.459	280.69
609.667	285.69
609.875	304.69
610.083	290.69
610.291	303.69
610.499	295.69
610.707	283.69
610.916	295.69
611.124	285.69
611.332	304.69
611.54	288.69
611.748	301.69
611.955	303.69
612.163	288.69
612.371	297.69
612.579	272.69
612.787	290.69
612.995	298.69
613.203	303.69
613.411	285.69
613.618	295.69
613.826	285.69
614.034	301.69
614.242	281.69
614.449	262.69
614.657	279.69
614.865	279.69
615.072	273.69
615.28	274.69
615.488	265.69
615.695	281.69
615.903	296.69
616.111	284.69
616.318	299.69
616.526	292.69
616.733	279.69
616.941	291.69
617.148	286.69
617.356	307.69
617.563	289.69
617.771	295.69
617.978	289.69
618.185	291.69
618.393	292.69
618.6	280.69
618.807	278.69
619.015	285.69
619.222	289.69
619.429	273.69
619.637	281.69
619.844	281.69
620.051	274.69
620.258	287.69
620.466	276.69
620.673	270.69
620.88	252.69
621.087	257.69
621.294	249.69
621.501	276.69
621.708	258.69
621.915	284.69
622.122	281.69
622.329	279.69
622.536	273.69
622.743	262.69
622.95	264.69
623.157	263.69
623.364	251.69
623.571	263.69
623.778	259.69
623.985	272.69
624.192	261.69
624.399	248.69
624.606	247.69
624.812	250.69
625.019	263.69
625.226	262.69
625.433	259.69
625.639	254.69
625.846	257.69
626.053	257.69
626.259	259.69
626.466	251.69
626.673	241.69
626.879	259.69
627.086	252.69
627.293	239.69
627.499	254.69
627.706	243.69
627.912	237.69
628.119	245.69
628.325	240.69
628.532	254.69
628.738	237.69
628.945	241.69
629.151	230.69
629.357	229.69
629.564	258.69
629.77	224.69
629.976	231.69
630.183	236.69
630.389	234.69
630.595	245.69
630.802	243.69
631.008	243.69
631.214	233.69
631.42	229.69
631.627	228.69
631.833	236.69
632.039	238.69
632.245	223.69
632.451	215.69
632.657	209.69
632.863	216.69
633.069	209.69
633.275	233.69
633.481	237.69
633.688	237.69
633.893	217.69
634.099	211.69
634.305	211.69
634.511	223.69
634.717	208.69
634.923	217.69
635.129	219.69
635.335	206.69
635.541	205.69
635.747	219.69
635.952	219.69
636.158	219.69
636.364	211.69
636.57	215.69
636.775	226.69
636.981	214.69
637.187	214.69
637.392	227.69
637.598	218.69
637.804	224.69
638.009	214.69
638.215	237.69
638.421	210.69
638.626	209.69
638.832	204.69
639.037	204.69
639.243	204.69
639.448	229.69
639.654	219.69
639.859	194.69
640.065	189.69
640.27	211.69
640.475	200.69
640.681	209.69
640.886	202.69
641.091	211.69
641.297	192.69
641.502	199.69
641.707	203.69
641.913	201.69
642.118	204.69
642.323	191.69
642.528	205.69
642.733	207.69
642.939	206.69
643.144	188.69
643.349	191.69
643.554	199.69
643.759	187.69
643.964	182.69
644.169	201.69
644.374	192.69
644.579	181.69
644.784	204.69
644.989	198.69
645.194	202.69
645.399	186.69
645.604	202.69
645.809	195.69
646.014	209.69
646.219	203.69
646.423	199.69
646.628	189.69
646.833	209.69
647.038	206.69
647.243	201.69
647.447	207.69
647.652	201.69
647.857	212.69
648.062	200.69
648.266	202.69
648.471	184.69
648.676	208.69
648.88	195.69
649.085	205.69
649.289	214.69
649.494	203.69
649.698	199.69
649.903	201.69
650.107	204.69
650.312	189.69
650.516	171.69
650.721	191.69
650.925	168.69
651.13	179.69
651.334	184.69
651.539	167.69
651.743	165.69
651.947	186.69
652.152	184.69
652.356	153.69
652.56	178.69
652.764	160.69
652.969	154.69
653.173	175.69
653.377	160.69
653.581	158.69
653.785	153.69
653.99	147.69
654.194	160.69
654.398	185.69
654.602	167.69
654.806	153.69
655.01	160.69
655.214	170.69
655.418	146.69
655.622	161.69
655.826	137.69
656.03	160.69
656.234	151.69
656.438	158.69
656.642	160.69
656.846	156.69
657.049	136.69
657.253	139.69
657.457	140.69
657.661	124.69
657.865	115.69
658.068	116.69
658.272	120.69
658.476	116.69
658.68	120.69
658.883	128.69
659.087	116.69
659.291	112.69
659.494	119.69
659.698	115.69
659.901	111.69
660.105	106.69
660.309	108.69
660.512	102.69
660.716	100.69
660.919	92.69
661.123	97.69
661.326	96.69
661.53	109.69
661.733	90.69
661.936	111.69
662.14	92.69
662.343	87.69
662.546	105.69
662.75	86.69
662.953	83.69
663.156	73.69
663.36	88.69
663.563	108.69
663.766	86.69
663.969	88.69
664.173	98.69
664.376	80.69
664.579	87.69
664.782	80.69
664.985	88.69
665.188	91.69
665.391	67.69
665.594	81.69
665.797	94.69
666	80.69
666.203	93.69
666.406	93.69
666.609	75.69
666.812	74.69
667.015	81.69
667.218	101.69
667.421	92.69
667.624	96.69
667.827	92.69
668.03	97.69
668.232	92.69
668.435	69.69
668.638	89.69
668.841	94.69
669.043	86.69
669.246	96.69
669.449	83.69
669.651	88.69
669.854	93.69
670.057	102.69
670.259	86.69
670.462	87.69
670.665	81.69
670.867	86.69
671.07	86.69
671.272	104.69
671.475	81.69
671.677	83.69
671.88	79.69
672.082	74.69
672.284	93.69
672.487	97.69
672.689	89.69
672.892	80.69
