Data from 1963.PennyLincolnUp.Lamp.En5.5.200Scan.071719.P1._HRD10591_14-00-16-063.txt Node
Date: Thu Jul 18 14:00:16 EDT 2019
User: cochatt
Spectrometer: HR+D1059
Trigger mode: 1
Integration Time (sec): 1.000000E-1
Scans to average: 1
Electric dark correction enabled: true
Nonlinearity correction enabled: false
Boxcar width: 0
XAxis mode: Wavelengths
Number of Pixels in Spectrum: 2048
>>>>>Begin Spectral Data<<<<<
223.165	-2.31
223.4	-2.31
223.635	-2.31
223.869	-2.31
224.104	-18.31
224.338	-14.31
224.573	-19.31
224.808	-4.31
225.042	-11.31
225.277	-15.31
225.511	-19.31
225.746	7.69
225.98	2.69
226.215	16.69
226.449	1.69
226.683	9.69
226.918	33.69
227.152	34.69
227.387	29.69
227.621	45.69
227.856	44.69
228.09	38.69
228.324	43.69
228.559	64.69
228.793	60.69
229.027	93.69
229.262	117.69
229.496	117.69
229.73	124.69
229.964	149.69
230.199	114.69
230.433	116.69
230.667	125.69
230.901	124.69
231.136	106.69
231.37	111.69
231.604	108.69
231.838	111.69
232.072	98.69
232.306	124.69
232.541	105.69
232.775	115.69
233.009	127.69
233.243	124.69
233.477	131.69
233.711	136.69
233.945	129.69
234.179	120.69
234.413	134.69
234.647	132.69
234.881	141.69
235.115	124.69
235.349	134.69
235.583	133.69
235.817	114.69
236.051	131.69
236.285	140.69
236.519	124.69
236.753	135.69
236.987	159.69
237.221	154.69
237.455	199.69
237.689	188.69
237.922	142.69
238.156	136.69
238.39	135.69
238.624	122.69
238.858	122.69
239.091	126.69
239.325	141.69
239.559	144.69
239.793	138.69
240.027	141.69
240.26	142.69
240.494	154.69
240.728	160.69
240.961	168.69
241.195	145.69
241.429	150.69
241.662	153.69
241.896	151.69
242.13	151.69
242.363	155.69
242.597	151.69
242.83	157.69
243.064	139.69
243.298	152.69
243.531	147.69
243.765	147.69
243.998	176.69
244.232	156.69
244.465	166.69
244.699	149.69
244.932	178.69
245.166	159.69
245.399	164.69
245.633	161.69
245.866	152.69
246.099	163.69
246.333	174.69
246.566	159.69
246.8	170.69
247.033	168.69
247.266	163.69
247.5	167.69
247.733	183.69
247.966	196.69
248.2	195.69
248.433	179.69
248.666	182.69
248.899	197.69
249.133	210.69
249.366	216.69
249.599	214.69
249.832	197.69
250.066	197.69
250.299	200.69
250.532	211.69
250.765	217.69
250.998	226.69
251.231	251.69
251.465	237.69
251.698	224.69
251.931	221.69
252.164	202.69
252.397	223.69
252.63	218.69
252.863	206.69
253.096	226.69
253.329	244.69
253.562	232.69
253.795	233.69
254.028	231.69
254.261	236.69
254.494	251.69
254.727	255.69
254.96	290.69
255.193	280.69
255.426	257.69
255.659	238.69
255.892	259.69
256.124	275.69
256.357	236.69
256.59	237.69
256.823	228.69
257.056	256.69
257.289	220.69
257.521	229.69
257.754	239.69
257.987	236.69
258.22	215.69
258.452	222.69
258.685	221.69
258.918	239.69
259.151	237.69
259.383	218.69
259.616	235.69
259.849	241.69
260.081	262.69
260.314	279.69
260.547	279.69
260.779	268.69
261.012	279.69
261.244	236.69
261.477	255.69
261.71	263.69
261.942	260.69
262.175	247.69
262.407	251.69
262.64	234.69
262.872	227.69
263.105	232.69
263.337	248.69
263.57	257.69
263.802	242.69
264.035	227.69
264.267	253.69
264.499	236.69
264.732	222.69
264.964	254.69
265.197	256.69
265.429	264.69
265.661	264.69
265.894	247.69
266.126	243.69
266.358	250.69
266.591	242.69
266.823	246.69
267.055	261.69
267.287	263.69
267.52	269.69
267.752	260.69
267.984	245.69
268.216	272.69
268.448	276.69
268.681	252.69
268.913	283.69
269.145	293.69
269.377	317.69
269.609	290.69
269.841	297.69
270.073	298.69
270.306	319.69
270.538	350.69
270.77	344.69
271.002	334.69
271.234	308.69
271.466	311.69
271.698	323.69
271.93	318.69
272.162	337.69
272.394	341.69
272.626	333.69
272.858	317.69
273.09	297.69
273.322	321.69
273.553	315.69
273.785	304.69
274.017	321.69
274.249	310.69
274.481	307.69
274.713	298.69
274.945	319.69
275.176	320.69
275.408	293.69
275.64	304.69
275.872	309.69
276.104	292.69
276.335	308.69
276.567	324.69
276.799	305.69
277.031	351.69
277.262	369.69
277.494	369.69
277.726	355.69
277.957	339.69
278.189	338.69
278.421	331.69
278.652	336.69
278.884	315.69
279.115	305.69
279.347	321.69
279.579	339.69
279.81	309.69
280.042	325.69
280.273	316.69
280.505	332.69
280.736	296.69
280.968	329.69
281.199	321.69
281.431	331.69
281.662	318.69
281.894	331.69
282.125	324.69
282.356	340.69
282.588	321.69
282.819	344.69
283.051	328.69
283.282	342.69
283.513	344.69
283.745	340.69
283.976	363.69
284.207	345.69
284.439	352.69
284.67	344.69
284.901	341.69
285.132	344.69
285.364	338.69
285.595	347.69
285.826	346.69
286.057	332.69
286.288	338.69
286.52	347.69
286.751	352.69
286.982	328.69
287.213	338.69
287.444	350.69
287.675	365.69
287.906	357.69
288.138	370.69
288.369	361.69
288.6	362.69
288.831	374.69
289.062	369.69
289.293	360.69
289.524	362.69
289.755	347.69
289.986	344.69
290.217	361.69
290.448	346.69
290.679	363.69
290.91	371.69
291.141	375.69
291.371	368.69
291.602	373.69
291.833	355.69
292.064	351.69
292.295	364.69
292.526	367.69
292.757	365.69
292.987	359.69
293.218	360.69
293.449	356.69
293.68	346.69
293.91	367.69
294.141	357.69
294.372	359.69
294.603	377.69
294.833	402.69
295.064	381.69
295.295	374.69
295.525	370.69
295.756	363.69
295.987	369.69
296.217	403.69
296.448	416.69
296.679	377.69
296.909	368.69
297.14	372.69
297.37	396.69
297.601	396.69
297.831	391.69
298.062	391.69
298.292	389.69
298.523	364.69
298.753	401.69
298.984	393.69
299.214	391.69
299.445	402.69
299.675	398.69
299.905	380.69
300.136	385.69
300.366	403.69
300.597	376.69
300.827	394.69
301.057	400.69
301.288	414.69
301.518	417.69
301.748	423.69
301.979	427.69
302.209	425.69
302.439	417.69
302.669	408.69
302.9	417.69
303.13	407.69
303.36	385.69
303.59	394.69
303.82	423.69
304.051	441.69
304.281	426.69
304.511	387.69
304.741	412.69
304.971	411.69
305.201	405.69
305.431	410.69
305.661	425.69
305.891	399.69
306.121	421.69
306.352	423.69
306.582	415.69
306.812	427.69
307.042	415.69
307.272	418.69
307.502	423.69
307.731	412.69
307.961	422.69
308.191	413.69
308.421	410.69
308.651	436.69
308.881	409.69
309.111	420.69
309.341	424.69
309.571	419.69
309.8	419.69
310.03	435.69
310.26	433.69
310.49	447.69
310.72	443.69
310.949	464.69
311.179	472.69
311.409	469.69
311.639	446.69
311.868	459.69
312.098	449.69
312.328	462.69
312.557	460.69
312.787	467.69
313.017	469.69
313.246	464.69
313.476	464.69
313.706	456.69
313.935	450.69
314.165	467.69
314.394	458.69
314.624	468.69
314.853	469.69
315.083	470.69
315.312	467.69
315.542	447.69
315.771	461.69
316.001	451.69
316.23	481.69
316.46	448.69
316.689	474.69
316.919	474.69
317.148	459.69
317.377	473.69
317.607	463.69
317.836	480.69
318.065	466.69
318.295	454.69
318.524	469.69
318.753	443.69
318.983	457.69
319.212	453.69
319.441	472.69
319.67	480.69
319.9	471.69
320.129	475.69
320.358	478.69
320.587	490.69
320.816	469.69
321.046	471.69
321.275	474.69
321.504	452.69
321.733	475.69
321.962	481.69
322.191	488.69
322.42	495.69
322.649	506.69
322.878	511.69
323.108	511.69
323.337	537.69
323.566	538.69
323.795	536.69
324.024	564.69
324.253	662.69
324.482	880.69
324.71	1255.69
324.939	1760.69
325.168	1557.69
325.397	872.69
325.626	651.69
325.855	585.69
326.084	563.69
326.313	556.69
326.542	541.69
326.77	612.69
326.999	663.69
327.228	815.69
327.457	1151.69
327.686	1411.69
327.914	995.69
328.143	700.69
328.372	646.69
328.6	597.69
328.829	595.69
329.058	599.69
329.287	621.69
329.515	564.69
329.744	569.69
329.972	582.69
330.201	566.69
330.43	632.69
330.658	648.69
330.887	675.69
331.115	641.69
331.344	608.69
331.572	561.69
331.801	572.69
332.03	597.69
332.258	587.69
332.486	589.69
332.715	592.69
332.943	579.69
333.172	594.69
333.4	615.69
333.629	641.69
333.857	634.69
334.085	663.69
334.314	675.69
334.542	684.69
334.771	703.69
334.999	627.69
335.227	607.69
335.455	623.69
335.684	595.69
335.912	614.69
336.14	592.69
336.369	572.69
336.597	574.69
336.825	569.69
337.053	567.69
337.281	565.69
337.51	581.69
337.738	544.69
337.966	537.69
338.194	564.69
338.422	541.69
338.65	556.69
338.878	548.69
339.106	540.69
339.334	546.69
339.562	551.69
339.79	535.69
340.018	529.69
340.246	531.69
340.474	547.69
340.702	517.69
340.93	548.69
341.158	547.69
341.386	524.69
341.614	533.69
341.842	546.69
342.07	547.69
342.298	537.69
342.526	531.69
342.754	540.69
342.981	533.69
343.209	522.69
343.437	526.69
343.665	572.69
343.893	580.69
344.12	608.69
344.348	572.69
344.576	576.69
344.804	568.69
345.031	556.69
345.259	551.69
345.487	548.69
345.714	535.69
345.942	506.69
346.17	532.69
346.397	505.69
346.625	507.69
346.853	503.69
347.08	516.69
347.308	511.69
347.535	522.69
347.763	513.69
347.99	510.69
348.218	515.69
348.445	504.69
348.673	522.69
348.9	499.69
349.128	520.69
349.355	500.69
349.583	487.69
349.81	510.69
350.037	495.69
350.265	489.69
350.492	495.69
350.72	492.69
350.947	502.69
351.174	522.69
351.402	525.69
351.629	509.69
351.856	495.69
352.083	497.69
352.311	519.69
352.538	512.69
352.765	538.69
352.992	520.69
353.22	520.69
353.447	490.69
353.674	491.69
353.901	517.69
354.128	503.69
354.355	488.69
354.583	484.69
354.81	481.69
355.037	484.69
355.264	479.69
355.491	502.69
355.718	495.69
355.945	463.69
356.172	511.69
356.399	474.69
356.626	497.69
356.853	502.69
357.08	496.69
357.307	500.69
357.534	484.69
357.761	491.69
357.988	503.69
358.215	517.69
358.441	495.69
358.668	515.69
358.895	487.69
359.122	492.69
359.349	509.69
359.576	501.69
359.802	531.69
360.029	521.69
360.256	523.69
360.483	521.69
360.709	501.69
360.936	508.69
361.163	504.69
361.39	508.69
361.616	517.69
361.843	531.69
362.07	536.69
362.296	523.69
362.523	507.69
362.749	497.69
362.976	497.69
363.203	517.69
363.429	499.69
363.656	507.69
363.882	496.69
364.109	513.69
364.335	505.69
364.562	497.69
364.788	500.69
365.015	485.69
365.241	500.69
365.468	512.69
365.694	505.69
365.92	521.69
366.147	491.69
366.373	510.69
366.599	499.69
366.826	497.69
367.052	511.69
367.278	492.69
367.505	474.69
367.731	501.69
367.957	511.69
368.184	513.69
368.41	513.69
368.636	486.69
368.862	518.69
369.089	521.69
369.315	521.69
369.541	513.69
369.767	512.69
369.993	524.69
370.219	504.69
370.445	525.69
370.672	522.69
370.898	511.69
371.124	522.69
371.35	519.69
371.576	532.69
371.802	519.69
372.028	519.69
372.254	543.69
372.48	535.69
372.706	549.69
372.932	535.69
373.158	517.69
373.384	531.69
373.61	548.69
373.835	533.69
374.061	531.69
374.287	523.69
374.513	522.69
374.739	530.69
374.965	551.69
375.191	572.69
375.416	553.69
375.642	533.69
375.868	536.69
376.094	536.69
376.319	534.69
376.545	525.69
376.771	527.69
376.997	499.69
377.222	509.69
377.448	514.69
377.674	523.69
377.899	476.69
378.125	509.69
378.35	499.69
378.576	497.69
378.802	501.69
379.027	525.69
379.253	505.69
379.478	519.69
379.704	526.69
379.929	535.69
380.155	499.69
380.38	513.69
380.606	507.69
380.831	489.69
381.057	537.69
381.282	542.69
381.507	515.69
381.733	534.69
381.958	529.69
382.184	511.69
382.409	532.69
382.634	551.69
382.86	531.69
383.085	535.69
383.31	526.69
383.535	548.69
383.761	559.69
383.986	572.69
384.211	566.69
384.436	600.69
384.662	581.69
384.887	572.69
385.112	575.69
385.337	598.69
385.562	620.69
385.787	613.69
386.013	599.69
386.238	595.69
386.463	602.69
386.688	577.69
386.913	585.69
387.138	571.69
387.363	595.69
387.588	571.69
387.813	587.69
388.038	600.69
388.263	589.69
388.488	623.69
388.713	617.69
388.938	599.69
389.163	592.69
389.387	602.69
389.612	579.69
389.837	601.69
390.062	588.69
390.287	553.69
390.512	579.69
390.736	625.69
390.961	627.69
391.186	615.69
391.411	617.69
391.636	629.69
391.86	630.69
392.085	627.69
392.31	641.69
392.534	651.69
392.759	632.69
392.984	604.69
393.208	625.69
393.433	619.69
393.658	643.69
393.882	627.69
394.107	604.69
394.331	597.69
394.556	635.69
394.78	616.69
395.005	648.69
395.229	616.69
395.454	641.69
395.678	642.69
395.903	667.69
396.127	659.69
396.352	640.69
396.576	659.69
396.801	632.69
397.025	661.69
397.249	649.69
397.474	668.69
397.698	642.69
397.922	678.69
398.147	673.69
398.371	716.69
398.595	697.69
398.82	687.69
399.044	723.69
399.268	805.69
399.492	902.69
399.717	938.69
399.941	956.69
400.165	932.69
400.389	887.69
400.613	796.69
400.837	750.69
401.062	742.69
401.286	725.69
401.51	727.69
401.734	681.69
401.958	716.69
402.182	744.69
402.406	732.69
402.63	757.69
402.854	775.69
403.078	771.69
403.302	773.69
403.526	775.69
403.75	787.69
403.974	785.69
404.198	777.69
404.422	803.69
404.645	799.69
404.869	800.69
405.093	805.69
405.317	839.69
405.541	887.69
405.765	803.69
405.988	799.69
406.212	823.69
406.436	819.69
406.66	833.69
406.883	795.69
407.107	859.69
407.331	931.69
407.555	964.69
407.778	991.69
408.002	905.69
408.226	849.69
408.449	820.69
408.673	803.69
408.896	841.69
409.12	856.69
409.344	822.69
409.567	796.69
409.791	766.69
410.014	755.69
410.238	724.69
410.461	743.69
410.685	721.69
410.908	761.69
411.132	784.69
411.355	819.69
411.578	770.69
411.802	747.69
412.025	753.69
412.249	757.69
412.472	797.69
412.695	800.69
412.919	786.69
413.142	755.69
413.365	723.69
413.589	698.69
413.812	721.69
414.035	727.69
414.258	697.69
414.482	702.69
414.705	712.69
414.928	718.69
415.151	705.69
415.374	724.69
415.597	700.69
415.821	699.69
416.044	704.69
416.267	699.69
416.49	702.69
416.713	676.69
416.936	698.69
417.159	703.69
417.382	697.69
417.605	708.69
417.828	705.69
418.051	732.69
418.274	741.69
418.497	723.69
418.72	733.69
418.943	698.69
419.166	732.69
419.389	805.69
419.611	783.69
419.834	761.69
420.057	738.69
420.28	751.69
420.503	746.69
420.726	727.69
420.948	725.69
421.171	772.69
421.394	807.69
421.617	736.69
421.839	728.69
422.062	735.69
422.285	737.69
422.507	815.69
422.73	844.69
422.953	858.69
423.175	771.69
423.398	736.69
423.621	777.69
423.843	787.69
424.066	776.69
424.288	791.69
424.511	817.69
424.733	827.69
424.956	865.69
425.178	874.69
425.401	846.69
425.623	891.69
425.846	770.69
426.068	729.69
426.291	732.69
426.513	711.69
426.735	745.69
426.958	761.69
427.18	839.69
427.402	935.69
427.625	1014.69
427.847	900.69
428.069	813.69
428.292	749.69
428.514	699.69
428.736	703.69
428.958	707.69
429.181	667.69
429.403	675.69
429.625	666.69
429.847	690.69
430.069	741.69
430.292	740.69
430.514	691.69
430.736	680.69
430.958	668.69
431.18	640.69
431.402	667.69
431.624	674.69
431.846	649.69
432.068	634.69
432.29	673.69
432.512	666.69
432.734	663.69
432.956	659.69
433.178	666.69
433.4	668.69
433.622	654.69
433.844	641.69
434.066	669.69
434.287	662.69
434.509	679.69
434.731	687.69
434.953	700.69
435.175	729.69
435.397	740.69
435.618	732.69
435.84	736.69
436.062	818.69
436.284	889.69
436.505	763.69
436.727	707.69
436.949	690.69
437.17	669.69
437.392	683.69
437.614	673.69
437.835	717.69
438.057	781.69
438.278	844.69
438.5	860.69
438.721	920.69
438.943	918.69
439.165	762.69
439.386	699.69
439.608	720.69
439.829	689.69
440.05	720.69
440.272	751.69
440.493	714.69
440.715	704.69
440.936	664.69
441.158	704.69
441.379	701.69
441.6	744.69
441.822	762.69
442.043	775.69
442.264	850.69
442.486	854.69
442.707	772.69
442.928	744.69
443.149	758.69
443.371	783.69
443.592	789.69
443.813	882.69
444.034	948.69
444.255	819.69
444.476	809.69
444.698	825.69
444.919	823.69
445.14	901.69
445.361	868.69
445.582	776.69
445.803	815.69
446.024	905.69
446.245	909.69
446.466	835.69
446.687	767.69
446.908	702.69
447.129	665.69
447.35	684.69
447.571	656.69
447.792	631.69
448.013	667.69
448.234	670.69
448.455	716.69
448.675	800.69
448.896	878.69
449.117	801.69
449.338	753.69
449.559	833.69
449.779	923.69
450	766.69
450.221	669.69
450.442	659.69
450.662	634.69
450.883	653.69
451.104	646.69
451.324	645.69
451.545	594.69
451.766	603.69
451.986	605.69
452.207	596.69
452.428	597.69
452.648	618.69
452.869	612.69
453.089	599.69
453.31	620.69
453.53	600.69
453.751	593.69
453.971	582.69
454.192	613.69
454.412	612.69
454.633	590.69
454.853	577.69
455.073	582.69
455.294	580.69
455.514	628.69
455.734	650.69
455.955	565.69
456.175	596.69
456.395	564.69
456.616	570.69
456.836	561.69
457.056	557.69
457.276	544.69
457.497	595.69
457.717	577.69
457.937	604.69
458.157	587.69
458.377	571.69
458.598	616.69
458.818	672.69
459.038	724.69
459.258	744.69
459.478	700.69
459.698	689.69
459.918	681.69
460.138	682.69
460.358	703.69
460.578	719.69
460.798	733.69
461.018	728.69
461.238	742.69
461.458	713.69
461.678	723.69
461.898	733.69
462.118	739.69
462.338	761.69
462.558	763.69
462.777	758.69
462.997	833.69
463.217	889.69
463.437	877.69
463.657	824.69
463.876	799.69
464.096	809.69
464.316	821.69
464.536	809.69
464.755	791.69
464.975	766.69
465.195	803.69
465.414	808.69
465.634	733.69
465.854	692.69
466.073	688.69
466.293	654.69
466.512	623.69
466.732	643.69
466.951	660.69
467.171	629.69
467.391	648.69
467.61	641.69
467.829	653.69
468.049	642.69
468.268	614.69
468.488	605.69
468.707	606.69
468.927	627.69
469.146	620.69
469.365	605.69
469.585	634.69
469.804	643.69
470.023	637.69
470.243	630.69
470.462	652.69
470.681	651.69
470.901	657.69
471.12	658.69
471.339	671.69
471.558	649.69
471.777	637.69
471.997	632.69
472.216	633.69
472.435	644.69
472.654	644.69
472.873	622.69
473.092	617.69
473.311	619.69
473.53	606.69
473.749	633.69
473.968	643.69
474.187	719.69
474.406	761.69
474.625	650.69
474.844	628.69
475.063	627.69
475.282	611.69
475.501	619.69
475.72	612.69
475.939	629.69
476.158	641.69
476.377	661.69
476.596	654.69
476.814	635.69
477.033	676.69
477.252	684.69
477.471	674.69
477.69	679.69
477.908	683.69
478.127	710.69
478.346	704.69
478.564	707.69
478.783	730.69
479.002	741.69
479.22	744.69
479.439	731.69
479.658	760.69
479.876	779.69
480.095	751.69
480.313	838.69
480.532	823.69
480.751	839.69
480.969	806.69
481.188	807.69
481.406	851.69
481.624	808.69
481.843	761.69
482.061	755.69
482.28	728.69
482.498	738.69
482.717	722.69
482.935	716.69
483.153	707.69
483.372	724.69
483.59	740.69
483.808	728.69
484.027	744.69
484.245	730.69
484.463	735.69
484.681	743.69
484.9	735.69
485.118	759.69
485.336	756.69
485.554	743.69
485.772	751.69
485.99	758.69
486.209	744.69
486.427	779.69
486.645	760.69
486.863	787.69
487.081	759.69
487.299	773.69
487.517	792.69
487.735	781.69
487.953	763.69
488.171	789.69
488.389	784.69
488.607	786.69
488.825	779.69
489.043	779.69
489.261	782.69
489.479	775.69
489.696	797.69
489.914	800.69
490.132	820.69
490.35	823.69
490.568	799.69
490.786	809.69
491.003	811.69
491.221	860.69
491.439	849.69
491.657	880.69
491.874	845.69
492.092	854.69
492.31	858.69
492.527	879.69
492.745	880.69
492.963	891.69
493.18	910.69
493.398	874.69
493.615	912.69
493.833	889.69
494.05	872.69
494.268	903.69
494.485	899.69
494.703	917.69
494.92	915.69
495.138	908.69
495.355	915.69
495.573	899.69
495.79	896.69
496.008	919.69
496.225	910.69
496.442	915.69
496.66	932.69
496.877	923.69
497.094	919.69
497.312	971.69
497.529	950.69
497.746	971.69
497.963	963.69
498.181	1050.69
498.398	1062.69
498.615	1120.69
498.832	1141.69
499.049	1211.69
499.267	1235.69
499.484	1345.69
499.701	1421.69
499.918	1503.69
500.135	1640.69
500.352	1798.69
500.569	1819.69
500.786	1855.69
501.003	1744.69
501.22	1670.69
501.437	1504.69
501.654	1452.69
501.871	1352.69
502.088	1252.69
502.305	1204.69
502.522	1137.69
502.739	1147.69
502.956	1068.69
503.172	1031.69
503.389	1014.69
503.606	1007.69
503.823	979.69
504.04	959.69
504.256	957.69
504.473	978.69
504.69	965.69
504.907	973.69
505.123	958.69
505.34	926.69
505.557	886.69
505.773	891.69
505.99	877.69
506.207	850.69
506.423	870.69
506.64	864.69
506.856	842.69
507.073	859.69
507.289	836.69
507.506	799.69
507.722	807.69
507.939	826.69
508.155	817.69
508.372	804.69
508.588	815.69
508.805	787.69
509.021	775.69
509.238	796.69
509.454	804.69
509.67	791.69
509.887	795.69
510.103	782.69
510.319	776.69
510.536	852.69
510.752	1277.69
510.968	1058.69
511.184	786.69
511.401	762.69
511.617	783.69
511.833	728.69
512.049	741.69
512.265	752.69
512.481	760.69
512.698	732.69
512.914	752.69
513.13	747.69
513.346	722.69
513.562	733.69
513.778	744.69
513.994	738.69
514.21	757.69
514.426	774.69
514.642	823.69
514.858	841.69
515.074	852.69
515.29	922.69
515.506	1260.69
515.721	1124.69
515.937	848.69
516.153	836.69
516.369	817.69
516.585	826.69
516.801	833.69
517.016	852.69
517.232	874.69
517.448	881.69
517.664	910.69
517.879	932.69
518.095	898.69
518.311	907.69
518.527	884.69
518.742	846.69
518.958	836.69
519.173	826.69
519.389	800.69
519.605	772.69
519.82	771.69
520.036	765.69
520.251	785.69
520.467	769.69
520.682	782.69
520.898	803.69
521.113	794.69
521.329	809.69
521.544	859.69
521.76	987.69
521.975	1512.69
522.19	1535.69
522.406	956.69
522.621	799.69
522.836	724.69
523.052	696.69
523.267	707.69
523.482	699.69
523.698	667.69
523.913	677.69
524.128	669.69
524.343	659.69
524.559	658.69
524.774	666.69
524.989	660.69
525.204	662.69
525.419	661.69
525.634	641.69
525.849	657.69
526.064	649.69
526.28	640.69
526.495	629.69
526.71	645.69
526.925	643.69
527.14	645.69
527.355	636.69
527.57	637.69
527.785	623.69
527.999	632.69
528.214	621.69
528.429	643.69
528.644	634.69
528.859	632.69
529.074	629.69
529.289	638.69
529.503	672.69
529.718	671.69
529.933	672.69
530.148	637.69
530.363	631.69
530.577	634.69
530.792	608.69
531.007	627.69
531.221	637.69
531.436	623.69
531.651	618.69
531.865	626.69
532.08	592.69
532.295	619.69
532.509	603.69
532.724	623.69
532.938	624.69
533.153	615.69
533.367	623.69
533.582	601.69
533.796	620.69
534.011	620.69
534.225	624.69
534.44	602.69
534.654	610.69
534.868	616.69
535.083	595.69
535.297	617.69
535.511	624.69
535.726	614.69
535.94	615.69
536.154	597.69
536.369	591.69
536.583	581.69
536.797	590.69
537.011	579.69
537.225	586.69
537.44	586.69
537.654	589.69
537.868	573.69
538.082	551.69
538.296	587.69
538.51	573.69
538.724	583.69
538.938	570.69
539.153	598.69
539.367	608.69
539.581	587.69
539.795	600.69
540.009	587.69
540.222	593.69
540.436	600.69
540.65	570.69
540.864	553.69
541.078	584.69
541.292	604.69
541.506	579.69
541.72	565.69
541.934	565.69
542.147	565.69
542.361	559.69
542.575	568.69
542.789	541.69
543.002	576.69
543.216	584.69
543.43	584.69
543.644	574.69
543.857	579.69
544.071	585.69
544.285	568.69
544.498	588.69
544.712	590.69
544.925	573.69
545.139	604.69
545.352	559.69
545.566	583.69
545.779	578.69
545.993	569.69
546.206	598.69
546.42	566.69
546.633	591.69
546.847	559.69
547.06	564.69
547.274	565.69
547.487	567.69
547.7	573.69
547.914	588.69
548.127	588.69
548.34	574.69
548.554	597.69
548.767	589.69
548.98	572.69
549.193	564.69
549.407	568.69
549.62	595.69
549.833	586.69
550.046	563.69
550.259	561.69
550.473	565.69
550.686	576.69
550.899	561.69
551.112	544.69
551.325	545.69
551.538	559.69
551.751	577.69
551.964	562.69
552.177	574.69
552.39	586.69
552.603	591.69
552.816	609.69
553.029	624.69
553.242	608.69
553.455	617.69
553.667	631.69
553.88	628.69
554.093	600.69
554.306	621.69
554.519	615.69
554.732	567.69
554.944	549.69
555.157	558.69
555.37	545.69
555.583	549.69
555.795	547.69
556.008	534.69
556.221	526.69
556.433	533.69
556.646	514.69
556.859	505.69
557.071	509.69
557.284	498.69
557.496	495.69
557.709	504.69
557.921	507.69
558.134	505.69
558.346	493.69
558.559	503.69
558.771	499.69
558.984	520.69
559.196	502.69
559.409	499.69
559.621	505.69
559.833	520.69
560.046	490.69
560.258	498.69
560.47	486.69
560.683	498.69
560.895	482.69
561.107	518.69
561.32	499.69
561.532	501.69
561.744	513.69
561.956	511.69
562.168	481.69
562.381	480.69
562.593	504.69
562.805	487.69
563.017	504.69
563.229	517.69
563.441	519.69
563.653	510.69
563.865	505.69
564.077	515.69
564.289	519.69
564.501	519.69
564.713	538.69
564.925	534.69
565.137	549.69
565.349	560.69
565.561	578.69
565.773	565.69
565.985	613.69
566.197	633.69
566.408	666.69
566.62	698.69
566.832	729.69
567.044	759.69
567.255	745.69
567.467	770.69
567.679	773.69
567.891	833.69
568.102	817.69
568.314	817.69
568.526	748.69
568.737	706.69
568.949	678.69
569.161	618.69
569.372	590.69
569.584	570.69
569.795	586.69
570.007	559.69
570.218	566.69
570.43	556.69
570.641	521.69
570.853	513.69
571.064	547.69
571.276	500.69
571.487	515.69
571.698	524.69
571.91	495.69
572.121	459.69
572.333	477.69
572.544	449.69
572.755	433.69
572.966	458.69
573.178	453.69
573.389	461.69
573.6	451.69
573.811	432.69
574.023	437.69
574.234	442.69
574.445	447.69
574.656	446.69
574.867	449.69
575.078	447.69
575.289	427.69
575.501	429.69
575.712	420.69
575.923	409.69
576.134	418.69
576.345	417.69
576.556	429.69
576.767	418.69
576.978	429.69
577.188	415.69
577.399	417.69
577.61	425.69
577.821	407.69
578.032	400.69
578.243	431.69
578.454	616.69
578.665	486.69
578.875	426.69
579.086	409.69
579.297	408.69
579.508	379.69
579.718	389.69
579.929	397.69
580.14	380.69
580.35	383.69
580.561	415.69
580.772	406.69
580.982	401.69
581.193	391.69
581.403	373.69
581.614	363.69
581.825	381.69
582.035	358.69
582.246	401.69
582.456	367.69
582.667	386.69
582.877	371.69
583.087	377.69
583.298	369.69
583.508	393.69
583.719	397.69
583.929	402.69
584.139	387.69
584.35	372.69
584.56	374.69
584.77	392.69
584.981	374.69
585.191	394.69
585.401	372.69
585.611	383.69
585.821	373.69
586.032	367.69
586.242	375.69
586.452	368.69
586.662	371.69
586.872	360.69
587.082	369.69
587.292	373.69
587.502	380.69
587.713	373.69
587.923	342.69
588.133	369.69
588.343	378.69
588.553	370.69
588.762	382.69
588.972	351.69
589.182	359.69
589.392	364.69
589.602	358.69
589.812	372.69
590.022	378.69
590.232	362.69
590.441	355.69
590.651	377.69
590.861	371.69
591.071	379.69
591.281	369.69
591.49	384.69
591.7	387.69
591.91	400.69
592.119	393.69
592.329	391.69
592.539	424.69
592.748	422.69
592.958	422.69
593.167	437.69
593.377	436.69
593.587	449.69
593.796	441.69
594.006	450.69
594.215	455.69
594.424	452.69
594.634	443.69
594.843	446.69
595.053	425.69
595.262	398.69
595.472	414.69
595.681	391.69
595.89	380.69
596.1	367.69
596.309	342.69
596.518	361.69
596.727	373.69
596.937	345.69
597.146	347.69
597.355	361.69
597.564	360.69
597.774	336.69
597.983	332.69
598.192	338.69
598.401	336.69
598.61	333.69
598.819	343.69
599.028	348.69
599.237	321.69
599.446	335.69
599.655	324.69
599.864	326.69
600.073	325.69
600.282	324.69
600.491	331.69
600.7	329.69
600.909	308.69
601.118	330.69
601.327	321.69
601.536	317.69
601.745	310.69
601.953	327.69
602.162	296.69
602.371	307.69
602.58	321.69
602.789	308.69
602.997	324.69
603.206	314.69
603.415	298.69
603.623	309.69
603.832	290.69
604.041	313.69
604.249	304.69
604.458	307.69
604.666	317.69
604.875	303.69
605.084	297.69
605.292	323.69
605.501	311.69
605.709	291.69
605.918	289.69
606.126	302.69
606.334	291.69
606.543	313.69
606.751	319.69
606.96	298.69
607.168	294.69
607.376	285.69
607.585	305.69
607.793	312.69
608.001	299.69
608.21	294.69
608.418	303.69
608.626	295.69
608.834	288.69
609.043	304.69
609.251	297.69
609.459	308.69
609.667	296.69
609.875	282.69
610.083	283.69
610.291	300.69
610.499	281.69
610.707	294.69
610.916	288.69
611.124	298.69
611.332	290.69
611.54	310.69
611.748	302.69
611.955	286.69
612.163	296.69
612.371	286.69
612.579	307.69
612.787	283.69
612.995	280.69
613.203	296.69
613.411	283.69
613.618	284.69
613.826	292.69
614.034	281.69
614.242	293.69
614.449	268.69
614.657	281.69
614.865	295.69
615.072	273.69
615.28	288.69
615.488	284.69
615.695	291.69
615.903	290.69
616.111	288.69
616.318	291.69
616.526	295.69
616.733	293.69
616.941	277.69
617.148	292.69
617.356	298.69
617.563	293.69
617.771	289.69
617.978	283.69
618.185	305.69
618.393	284.69
618.6	289.69
618.807	289.69
619.015	291.69
619.222	286.69
619.429	288.69
619.637	289.69
619.844	281.69
620.051	275.69
620.258	277.69
620.466	268.69
620.673	273.69
620.88	279.69
621.087	265.69
621.294	276.69
621.501	275.69
621.708	256.69
621.915	281.69
622.122	288.69
622.329	292.69
622.536	270.69
622.743	258.69
622.95	241.69
623.157	260.69
623.364	262.69
623.571	247.69
623.778	246.69
623.985	256.69
624.192	253.69
624.399	263.69
624.606	258.69
624.812	259.69
625.019	256.69
625.226	245.69
625.433	259.69
625.639	243.69
625.846	258.69
626.053	248.69
626.259	269.69
626.466	248.69
626.673	251.69
626.879	257.69
627.086	246.69
627.293	256.69
627.499	259.69
627.706	230.69
627.912	258.69
628.119	243.69
628.325	251.69
628.532	246.69
628.738	251.69
628.945	244.69
629.151	240.69
629.357	236.69
629.564	224.69
629.77	245.69
629.976	228.69
630.183	226.69
630.389	221.69
630.595	230.69
630.802	221.69
631.008	220.69
631.214	243.69
631.42	230.69
631.627	232.69
631.833	233.69
632.039	227.69
632.245	244.69
632.451	220.69
632.657	243.69
632.863	236.69
633.069	226.69
633.275	221.69
633.481	208.69
633.688	218.69
633.893	222.69
634.099	216.69
634.305	231.69
634.511	229.69
634.717	230.69
634.923	214.69
635.129	205.69
635.335	207.69
635.541	219.69
635.747	237.69
635.952	236.69
636.158	207.69
636.364	201.69
636.57	223.69
636.775	214.69
636.981	216.69
637.187	221.69
637.392	206.69
637.598	231.69
637.804	199.69
638.009	209.69
638.215	209.69
638.421	206.69
638.626	207.69
638.832	209.69
639.037	200.69
639.243	199.69
639.448	202.69
639.654	207.69
639.859	204.69
640.065	204.69
640.27	192.69
640.475	205.69
640.681	208.69
640.886	199.69
641.091	203.69
641.297	189.69
641.502	179.69
641.707	205.69
641.913	203.69
642.118	192.69
642.323	208.69
642.528	182.69
642.733	186.69
642.939	193.69
643.144	200.69
643.349	197.69
643.554	207.69
643.759	182.69
643.964	195.69
644.169	188.69
644.374	195.69
644.579	201.69
644.784	203.69
644.989	176.69
645.194	196.69
645.399	189.69
645.604	189.69
645.809	203.69
646.014	191.69
646.219	201.69
646.423	189.69
646.628	194.69
646.833	187.69
647.038	196.69
647.243	183.69
647.447	178.69
647.652	199.69
647.857	199.69
648.062	208.69
648.266	186.69
648.471	200.69
648.676	199.69
648.88	197.69
649.085	205.69
649.289	205.69
649.494	203.69
649.698	202.69
649.903	205.69
650.107	182.69
650.312	187.69
650.516	181.69
650.721	187.69
650.925	182.69
651.13	164.69
651.334	189.69
651.539	182.69
651.743	173.69
651.947	165.69
652.152	163.69
652.356	176.69
652.56	164.69
652.764	151.69
652.969	160.69
653.173	163.69
653.377	144.69
653.581	154.69
653.785	144.69
653.99	163.69
654.194	150.69
654.398	156.69
654.602	160.69
654.806	138.69
655.01	154.69
655.214	164.69
655.418	145.69
655.622	138.69
655.826	160.69
656.03	168.69
656.234	157.69
656.438	149.69
656.642	152.69
656.846	152.69
657.049	136.69
657.253	149.69
657.457	144.69
657.661	125.69
657.865	122.69
658.068	125.69
658.272	119.69
658.476	117.69
658.68	118.69
658.883	97.69
659.087	103.69
659.291	116.69
659.494	108.69
659.698	97.69
659.901	101.69
660.105	94.69
660.309	90.69
660.512	103.69
660.716	82.69
660.919	92.69
661.123	101.69
661.326	91.69
661.53	88.69
661.733	87.69
661.936	94.69
662.14	89.69
662.343	87.69
662.546	95.69
662.75	95.69
662.953	86.69
663.156	93.69
663.36	82.69
663.563	59.69
663.766	83.69
663.969	85.69
664.173	76.69
664.376	89.69
664.579	80.69
664.782	74.69
664.985	76.69
665.188	76.69
665.391	84.69
665.594	85.69
665.797	91.69
666	81.69
666.203	88.69
666.406	79.69
666.609	77.69
666.812	79.69
667.015	84.69
667.218	94.69
667.421	63.69
667.624	84.69
667.827	89.69
668.03	86.69
668.232	82.69
668.435	98.69
668.638	77.69
668.841	88.69
669.043	93.69
669.246	78.69
669.449	91.69
669.651	93.69
669.854	98.69
670.057	74.69
670.259	81.69
670.462	93.69
670.665	76.69
670.867	88.69
671.07	80.69
671.272	90.69
671.475	75.69
671.677	89.69
671.88	87.69
672.082	104.69
672.284	87.69
672.487	77.69
672.689	90.69
672.892	77.69
