Data from 1963.PennyLincolnUp.Lamp.En5.5.200Scan.071719.P1._HRD10591_14-00-17-064.txt Node
Date: Thu Jul 18 14:00:17 EDT 2019
User: cochatt
Spectrometer: HR+D1059
Trigger mode: 1
Integration Time (sec): 1.000000E-1
Scans to average: 1
Electric dark correction enabled: true
Nonlinearity correction enabled: false
Boxcar width: 0
XAxis mode: Wavelengths
Number of Pixels in Spectrum: 2048
>>>>>Begin Spectral Data<<<<<
223.165	-9.62
223.4	-9.62
223.635	-9.62
223.869	-20.62
224.104	-6.62
224.338	-25.62
224.573	-12.62
224.808	-2.62
225.042	-4.62
225.277	-12.62
225.511	-8.62
225.746	5.38
225.98	15.38
226.215	8.38
226.449	1.38
226.683	16.38
226.918	26.38
227.152	30.38
227.387	30.38
227.621	42.38
227.856	44.38
228.09	51.38
228.324	44.38
228.559	57.38
228.793	69.38
229.027	104.38
229.262	108.38
229.496	113.38
229.73	120.38
229.964	150.38
230.199	116.38
230.433	107.38
230.667	108.38
230.901	118.38
231.136	119.38
231.37	126.38
231.604	116.38
231.838	110.38
232.072	114.38
232.306	128.38
232.541	138.38
232.775	123.38
233.009	130.38
233.243	132.38
233.477	128.38
233.711	132.38
233.945	123.38
234.179	119.38
234.413	124.38
234.647	119.38
234.881	129.38
235.115	133.38
235.349	122.38
235.583	127.38
235.817	124.38
236.051	142.38
236.285	144.38
236.519	125.38
236.753	133.38
236.987	127.38
237.221	165.38
237.455	204.38
237.689	175.38
237.922	151.38
238.156	138.38
238.39	140.38
238.624	131.38
238.858	135.38
239.091	119.38
239.325	135.38
239.559	111.38
239.793	120.38
240.027	152.38
240.26	142.38
240.494	178.38
240.728	154.38
240.961	152.38
241.195	153.38
241.429	152.38
241.662	154.38
241.896	141.38
242.13	138.38
242.363	140.38
242.597	153.38
242.83	157.38
243.064	154.38
243.298	154.38
243.531	147.38
243.765	164.38
243.998	155.38
244.232	145.38
244.465	152.38
244.699	179.38
244.932	155.38
245.166	163.38
245.399	167.38
245.633	162.38
245.866	168.38
246.099	173.38
246.333	140.38
246.566	161.38
246.8	162.38
247.033	175.38
247.266	176.38
247.5	170.38
247.733	190.38
247.966	188.38
248.2	195.38
248.433	195.38
248.666	196.38
248.899	201.38
249.133	189.38
249.366	207.38
249.599	204.38
249.832	188.38
250.066	195.38
250.299	194.38
250.532	202.38
250.765	219.38
250.998	224.38
251.231	244.38
251.465	224.38
251.698	219.38
251.931	222.38
252.164	219.38
252.397	223.38
252.63	216.38
252.863	216.38
253.096	214.38
253.329	238.38
253.562	243.38
253.795	248.38
254.028	222.38
254.261	227.38
254.494	230.38
254.727	275.38
254.96	270.38
255.193	276.38
255.426	248.38
255.659	242.38
255.892	236.38
256.124	244.38
256.357	241.38
256.59	233.38
256.823	243.38
257.056	229.38
257.289	241.38
257.521	224.38
257.754	245.38
257.987	201.38
258.22	248.38
258.452	231.38
258.685	220.38
258.918	250.38
259.151	242.38
259.383	241.38
259.616	227.38
259.849	264.38
260.081	247.38
260.314	254.38
260.547	264.38
260.779	278.38
261.012	275.38
261.244	242.38
261.477	254.38
261.71	244.38
261.942	252.38
262.175	242.38
262.407	244.38
262.64	251.38
262.872	239.38
263.105	227.38
263.337	235.38
263.57	245.38
263.802	239.38
264.035	228.38
264.267	245.38
264.499	261.38
264.732	244.38
264.964	250.38
265.197	234.38
265.429	252.38
265.661	252.38
265.894	244.38
266.126	238.38
266.358	247.38
266.591	250.38
266.823	251.38
267.055	267.38
267.287	281.38
267.52	275.38
267.752	242.38
267.984	255.38
268.216	264.38
268.448	261.38
268.681	268.38
268.913	275.38
269.145	280.38
269.377	308.38
269.609	304.38
269.841	273.38
270.073	280.38
270.306	315.38
270.538	337.38
270.77	336.38
271.002	326.38
271.234	301.38
271.466	324.38
271.698	322.38
271.93	346.38
272.162	327.38
272.394	336.38
272.626	313.38
272.858	299.38
273.09	309.38
273.322	306.38
273.553	293.38
273.785	308.38
274.017	294.38
274.249	300.38
274.481	319.38
274.713	310.38
274.945	314.38
275.176	308.38
275.408	306.38
275.64	299.38
275.872	301.38
276.104	295.38
276.335	303.38
276.567	304.38
276.799	314.38
277.031	339.38
277.262	363.38
277.494	357.38
277.726	329.38
277.957	334.38
278.189	327.38
278.421	307.38
278.652	327.38
278.884	324.38
279.115	319.38
279.347	304.38
279.579	333.38
279.81	313.38
280.042	328.38
280.273	321.38
280.505	325.38
280.736	319.38
280.968	305.38
281.199	327.38
281.431	336.38
281.662	325.38
281.894	334.38
282.125	332.38
282.356	325.38
282.588	354.38
282.819	363.38
283.051	341.38
283.282	308.38
283.513	342.38
283.745	350.38
283.976	346.38
284.207	343.38
284.439	349.38
284.67	318.38
284.901	327.38
285.132	336.38
285.364	336.38
285.595	335.38
285.826	324.38
286.057	355.38
286.288	354.38
286.52	345.38
286.751	334.38
286.982	332.38
287.213	361.38
287.444	362.38
287.675	357.38
287.906	347.38
288.138	352.38
288.369	368.38
288.6	354.38
288.831	370.38
289.062	378.38
289.293	371.38
289.524	337.38
289.755	348.38
289.986	360.38
290.217	379.38
290.448	351.38
290.679	362.38
290.91	352.38
291.141	368.38
291.371	375.38
291.602	363.38
291.833	374.38
292.064	370.38
292.295	342.38
292.526	386.38
292.757	350.38
292.987	359.38
293.218	344.38
293.449	353.38
293.68	355.38
293.91	339.38
294.141	355.38
294.372	371.38
294.603	356.38
294.833	358.38
295.064	370.38
295.295	372.38
295.525	367.38
295.756	376.38
295.987	367.38
296.217	361.38
296.448	401.38
296.679	369.38
296.909	371.38
297.14	383.38
297.37	399.38
297.601	368.38
297.831	408.38
298.062	377.38
298.292	402.38
298.523	381.38
298.753	382.38
298.984	386.38
299.214	386.38
299.445	398.38
299.675	404.38
299.905	397.38
300.136	392.38
300.366	390.38
300.597	393.38
300.827	401.38
301.057	419.38
301.288	405.38
301.518	413.38
301.748	412.38
301.979	415.38
302.209	411.38
302.439	405.38
302.669	431.38
302.9	429.38
303.13	389.38
303.36	400.38
303.59	404.38
303.82	410.38
304.051	434.38
304.281	389.38
304.511	414.38
304.741	418.38
304.971	413.38
305.201	419.38
305.431	428.38
305.661	410.38
305.891	417.38
306.121	424.38
306.352	418.38
306.582	413.38
306.812	411.38
307.042	422.38
307.272	444.38
307.502	403.38
307.731	414.38
307.961	411.38
308.191	402.38
308.421	419.38
308.651	414.38
308.881	406.38
309.111	424.38
309.341	419.38
309.571	420.38
309.8	429.38
310.03	417.38
310.26	427.38
310.49	431.38
310.72	452.38
310.949	470.38
311.179	473.38
311.409	458.38
311.639	443.38
311.868	459.38
312.098	428.38
312.328	458.38
312.557	457.38
312.787	472.38
313.017	465.38
313.246	460.38
313.476	454.38
313.706	428.38
313.935	448.38
314.165	472.38
314.394	464.38
314.624	492.38
314.853	476.38
315.083	447.38
315.312	475.38
315.542	438.38
315.771	471.38
316.001	450.38
316.23	450.38
316.46	456.38
316.689	459.38
316.919	473.38
317.148	480.38
317.377	454.38
317.607	464.38
317.836	471.38
318.065	427.38
318.295	458.38
318.524	466.38
318.753	458.38
318.983	446.38
319.212	447.38
319.441	467.38
319.67	472.38
319.9	458.38
320.129	469.38
320.358	475.38
320.587	459.38
320.816	453.38
321.046	450.38
321.275	456.38
321.504	484.38
321.733	466.38
321.962	446.38
322.191	473.38
322.42	504.38
322.649	506.38
322.878	493.38
323.108	507.38
323.337	525.38
323.566	546.38
323.795	535.38
324.024	587.38
324.253	636.38
324.482	848.38
324.71	1232.38
324.939	1700.38
325.168	1506.38
325.397	849.38
325.626	644.38
325.855	581.38
326.084	524.38
326.313	541.38
326.542	556.38
326.77	580.38
326.999	647.38
327.228	790.38
327.457	1144.38
327.686	1381.38
327.914	941.38
328.143	707.38
328.372	631.38
328.6	613.38
328.829	596.38
329.058	600.38
329.287	629.38
329.515	584.38
329.744	562.38
329.972	578.38
330.201	572.38
330.43	601.38
330.658	610.38
330.887	621.38
331.115	630.38
331.344	573.38
331.572	566.38
331.801	574.38
332.03	572.38
332.258	564.38
332.486	571.38
332.715	599.38
332.943	598.38
333.172	592.38
333.4	603.38
333.629	621.38
333.857	640.38
334.085	640.38
334.314	649.38
334.542	661.38
334.771	665.38
334.999	641.38
335.227	583.38
335.455	596.38
335.684	617.38
335.912	608.38
336.14	583.38
336.369	558.38
336.597	575.38
336.825	590.38
337.053	585.38
337.281	544.38
337.51	560.38
337.738	552.38
337.966	577.38
338.194	536.38
338.422	556.38
338.65	548.38
338.878	548.38
339.106	546.38
339.334	563.38
339.562	547.38
339.79	532.38
340.018	546.38
340.246	546.38
340.474	528.38
340.702	538.38
340.93	539.38
341.158	509.38
341.386	526.38
341.614	544.38
341.842	544.38
342.07	531.38
342.298	508.38
342.526	535.38
342.754	517.38
342.981	520.38
343.209	522.38
343.437	527.38
343.665	543.38
343.893	573.38
344.12	607.38
344.348	586.38
344.576	549.38
344.804	566.38
345.031	549.38
345.259	546.38
345.487	536.38
345.714	530.38
345.942	493.38
346.17	520.38
346.397	512.38
346.625	506.38
346.853	516.38
347.08	490.38
347.308	506.38
347.535	538.38
347.763	515.38
347.99	504.38
348.218	512.38
348.445	513.38
348.673	542.38
348.9	506.38
349.128	504.38
349.355	501.38
349.583	493.38
349.81	487.38
350.037	486.38
350.265	492.38
350.492	499.38
350.72	519.38
350.947	519.38
351.174	483.38
351.402	488.38
351.629	507.38
351.856	528.38
352.083	511.38
352.311	520.38
352.538	495.38
352.765	528.38
352.992	506.38
353.22	502.38
353.447	481.38
353.674	498.38
353.901	493.38
354.128	484.38
354.355	476.38
354.583	477.38
354.81	489.38
355.037	469.38
355.264	487.38
355.491	481.38
355.718	480.38
355.945	488.38
356.172	461.38
356.399	492.38
356.626	492.38
356.853	493.38
357.08	504.38
357.307	488.38
357.534	492.38
357.761	487.38
357.988	499.38
358.215	486.38
358.441	482.38
358.668	519.38
358.895	498.38
359.122	523.38
359.349	469.38
359.576	520.38
359.802	544.38
360.029	538.38
360.256	534.38
360.483	535.38
360.709	499.38
360.936	511.38
361.163	515.38
361.39	498.38
361.616	499.38
361.843	499.38
362.07	528.38
362.296	518.38
362.523	490.38
362.749	500.38
362.976	506.38
363.203	535.38
363.429	504.38
363.656	502.38
363.882	504.38
364.109	521.38
364.335	515.38
364.562	491.38
364.788	492.38
365.015	495.38
365.241	498.38
365.468	492.38
365.694	507.38
365.92	499.38
366.147	501.38
366.373	511.38
366.599	499.38
366.826	487.38
367.052	478.38
367.278	486.38
367.505	487.38
367.731	505.38
367.957	496.38
368.184	508.38
368.41	500.38
368.636	500.38
368.862	526.38
369.089	499.38
369.315	491.38
369.541	498.38
369.767	512.38
369.993	487.38
370.219	506.38
370.445	507.38
370.672	517.38
370.898	514.38
371.124	518.38
371.35	520.38
371.576	521.38
371.802	525.38
372.028	519.38
372.254	512.38
372.48	501.38
372.706	542.38
372.932	546.38
373.158	533.38
373.384	533.38
373.61	525.38
373.835	530.38
374.061	514.38
374.287	514.38
374.513	524.38
374.739	528.38
374.965	556.38
375.191	541.38
375.416	555.38
375.642	540.38
375.868	533.38
376.094	532.38
376.319	524.38
376.545	522.38
376.771	538.38
376.997	523.38
377.222	502.38
377.448	518.38
377.674	517.38
377.899	523.38
378.125	525.38
378.35	516.38
378.576	509.38
378.802	505.38
379.027	533.38
379.253	512.38
379.478	514.38
379.704	509.38
379.929	502.38
380.155	518.38
380.38	530.38
380.606	534.38
380.831	514.38
381.057	510.38
381.282	514.38
381.507	504.38
381.733	519.38
381.958	512.38
382.184	540.38
382.409	559.38
382.634	535.38
382.86	523.38
383.085	534.38
383.31	532.38
383.535	539.38
383.761	552.38
383.986	554.38
384.211	566.38
384.436	559.38
384.662	565.38
384.887	583.38
385.112	590.38
385.337	580.38
385.562	591.38
385.787	617.38
386.013	606.38
386.238	604.38
386.463	598.38
386.688	613.38
386.913	573.38
387.138	590.38
387.363	590.38
387.588	580.38
387.813	586.38
388.038	599.38
388.263	601.38
388.488	589.38
388.713	602.38
388.938	590.38
389.163	583.38
389.387	578.38
389.612	582.38
389.837	574.38
390.062	601.38
390.287	612.38
390.512	603.38
390.736	591.38
390.961	599.38
391.186	621.38
391.411	640.38
391.636	617.38
391.86	625.38
392.085	640.38
392.31	639.38
392.534	656.38
392.759	629.38
392.984	612.38
393.208	607.38
393.433	645.38
393.658	607.38
393.882	608.38
394.107	615.38
394.331	627.38
394.556	619.38
394.78	616.38
395.005	602.38
395.229	611.38
395.454	644.38
395.678	655.38
395.903	654.38
396.127	655.38
396.352	642.38
396.576	631.38
396.801	594.38
397.025	635.38
397.249	629.38
397.474	648.38
397.698	664.38
397.922	651.38
398.147	671.38
398.371	687.38
398.595	706.38
398.82	704.38
399.044	733.38
399.268	781.38
399.492	871.38
399.717	944.38
399.941	942.38
400.165	936.38
400.389	901.38
400.613	816.38
400.837	755.38
401.062	754.38
401.286	703.38
401.51	712.38
401.734	712.38
401.958	726.38
402.182	738.38
402.406	750.38
402.63	714.38
402.854	716.38
403.078	759.38
403.302	772.38
403.526	775.38
403.75	770.38
403.974	744.38
404.198	775.38
404.422	752.38
404.645	780.38
404.869	786.38
405.093	826.38
405.317	832.38
405.541	870.38
405.765	805.38
405.988	776.38
406.212	784.38
406.436	802.38
406.66	811.38
406.883	812.38
407.107	871.38
407.331	900.38
407.555	963.38
407.778	942.38
408.002	907.38
408.226	866.38
408.449	842.38
408.673	806.38
408.896	787.38
409.12	859.38
409.344	836.38
409.567	786.38
409.791	786.38
410.014	780.38
410.238	744.38
410.461	749.38
410.685	736.38
410.908	760.38
411.132	757.38
411.355	803.38
411.578	778.38
411.802	752.38
412.025	710.38
412.249	740.38
412.472	772.38
412.695	807.38
412.919	766.38
413.142	735.38
413.365	752.38
413.589	715.38
413.812	712.38
414.035	711.38
414.258	714.38
414.482	704.38
414.705	743.38
414.928	725.38
415.151	698.38
415.374	731.38
415.597	700.38
415.821	667.38
416.044	686.38
416.267	704.38
416.49	679.38
416.713	670.38
416.936	706.38
417.159	680.38
417.382	706.38
417.605	694.38
417.828	705.38
418.051	710.38
418.274	729.38
418.497	698.38
418.72	724.38
418.943	711.38
419.166	754.38
419.389	769.38
419.611	755.38
419.834	758.38
420.057	755.38
420.28	744.38
420.503	720.38
420.726	712.38
420.948	743.38
421.171	776.38
421.394	762.38
421.617	747.38
421.839	719.38
422.062	724.38
422.285	725.38
422.507	782.38
422.73	857.38
422.953	798.38
423.175	755.38
423.398	751.38
423.621	754.38
423.843	758.38
424.066	788.38
424.288	760.38
424.511	760.38
424.733	831.38
424.956	888.38
425.178	849.38
425.401	850.38
425.623	867.38
425.846	760.38
426.068	731.38
426.291	737.38
426.513	712.38
426.735	728.38
426.958	744.38
427.18	804.38
427.402	931.38
427.625	983.38
427.847	901.38
428.069	788.38
428.292	723.38
428.514	713.38
428.736	672.38
428.958	710.38
429.181	664.38
429.403	659.38
429.625	690.38
429.847	672.38
430.069	714.38
430.292	733.38
430.514	669.38
430.736	664.38
430.958	641.38
431.18	652.38
431.402	678.38
431.624	644.38
431.846	651.38
432.068	659.38
432.29	644.38
432.512	655.38
432.734	675.38
432.956	648.38
433.178	657.38
433.4	648.38
433.622	671.38
433.844	655.38
434.066	672.38
434.287	664.38
434.509	685.38
434.731	713.38
434.953	719.38
435.175	739.38
435.397	748.38
435.618	723.38
435.84	722.38
436.062	803.38
436.284	839.38
436.505	742.38
436.727	719.38
436.949	704.38
437.17	663.38
437.392	671.38
437.614	679.38
437.835	688.38
438.057	730.38
438.278	849.38
438.5	850.38
438.721	901.38
438.943	910.38
439.165	738.38
439.386	707.38
439.608	703.38
439.829	699.38
440.05	722.38
440.272	767.38
440.493	710.38
440.715	685.38
440.936	695.38
441.158	690.38
441.379	677.38
441.6	730.38
441.822	767.38
442.043	762.38
442.264	842.38
442.486	857.38
442.707	766.38
442.928	755.38
443.149	746.38
443.371	754.38
443.592	791.38
443.813	875.38
444.034	925.38
444.255	827.38
444.476	806.38
444.698	807.38
444.919	796.38
445.14	894.38
445.361	827.38
445.582	791.38
445.803	809.38
446.024	876.38
446.245	861.38
446.466	804.38
446.687	727.38
446.908	706.38
447.129	654.38
447.35	643.38
447.571	653.38
447.792	648.38
448.013	624.38
448.234	653.38
448.455	680.38
448.675	792.38
448.896	882.38
449.117	748.38
449.338	712.38
449.559	806.38
449.779	880.38
450	760.38
450.221	681.38
450.442	642.38
450.662	635.38
450.883	602.38
451.104	642.38
451.324	641.38
451.545	617.38
451.766	594.38
451.986	604.38
452.207	591.38
452.428	596.38
452.648	616.38
452.869	606.38
453.089	594.38
453.31	604.38
453.53	614.38
453.751	607.38
453.971	588.38
454.192	617.38
454.412	599.38
454.633	586.38
454.853	593.38
455.073	595.38
455.294	602.38
455.514	653.38
455.734	649.38
455.955	581.38
456.175	566.38
456.395	548.38
456.616	555.38
456.836	557.38
457.056	575.38
457.276	570.38
457.497	572.38
457.717	560.38
457.937	572.38
458.157	589.38
458.377	580.38
458.598	609.38
458.818	680.38
459.038	736.38
459.258	741.38
459.478	675.38
459.698	662.38
459.918	660.38
460.138	691.38
460.358	708.38
460.578	708.38
460.798	735.38
461.018	716.38
461.238	694.38
461.458	696.38
461.678	719.38
461.898	722.38
462.118	726.38
462.338	748.38
462.558	772.38
462.777	796.38
462.997	829.38
463.217	895.38
463.437	887.38
463.657	831.38
463.876	815.38
464.096	803.38
464.316	780.38
464.536	822.38
464.755	805.38
464.975	806.38
465.195	791.38
465.414	785.38
465.634	721.38
465.854	714.38
466.073	669.38
466.293	669.38
466.512	618.38
466.732	635.38
466.951	630.38
467.171	622.38
467.391	624.38
467.61	655.38
467.829	645.38
468.049	631.38
468.268	613.38
468.488	618.38
468.707	626.38
468.927	610.38
469.146	607.38
469.365	614.38
469.585	590.38
469.804	643.38
470.023	638.38
470.243	644.38
470.462	655.38
470.681	663.38
470.901	671.38
471.12	644.38
471.339	647.38
471.558	648.38
471.777	636.38
471.997	624.38
472.216	638.38
472.435	642.38
472.654	622.38
472.873	602.38
473.092	607.38
473.311	622.38
473.53	629.38
473.749	619.38
473.968	646.38
474.187	704.38
474.406	719.38
474.625	664.38
474.844	624.38
475.063	633.38
475.282	607.38
475.501	611.38
475.72	644.38
475.939	631.38
476.158	636.38
476.377	627.38
476.596	619.38
476.814	648.38
477.033	632.38
477.252	642.38
477.471	646.38
477.69	684.38
477.908	696.38
478.127	708.38
478.346	719.38
478.564	724.38
478.783	751.38
479.002	736.38
479.22	727.38
479.439	758.38
479.658	724.38
479.876	779.38
480.095	752.38
480.313	845.38
480.532	831.38
480.751	795.38
480.969	827.38
481.188	836.38
481.406	841.38
481.624	774.38
481.843	747.38
482.061	711.38
482.28	743.38
482.498	700.38
482.717	725.38
482.935	718.38
483.153	722.38
483.372	711.38
483.59	745.38
483.808	730.38
484.027	704.38
484.245	738.38
484.463	751.38
484.681	745.38
484.9	718.38
485.118	759.38
485.336	760.38
485.554	699.38
485.772	767.38
485.99	747.38
486.209	762.38
486.427	759.38
486.645	743.38
486.863	788.38
487.081	765.38
487.299	762.38
487.517	770.38
487.735	756.38
487.953	760.38
488.171	773.38
488.389	758.38
488.607	779.38
488.825	789.38
489.043	745.38
489.261	764.38
489.479	770.38
489.696	754.38
489.914	794.38
490.132	812.38
490.35	809.38
490.568	789.38
490.786	782.38
491.003	814.38
491.221	829.38
491.439	837.38
491.657	821.38
491.874	846.38
492.092	885.38
492.31	863.38
492.527	844.38
492.745	844.38
492.963	870.38
493.18	891.38
493.398	880.38
493.615	900.38
493.833	895.38
494.05	890.38
494.268	884.38
494.485	869.38
494.703	869.38
494.92	908.38
495.138	886.38
495.355	929.38
495.573	901.38
495.79	926.38
496.008	919.38
496.225	894.38
496.442	902.38
496.66	907.38
496.877	884.38
497.094	911.38
497.312	948.38
497.529	962.38
497.746	965.38
497.963	966.38
498.181	1026.38
498.398	1050.38
498.615	1090.38
498.832	1136.38
499.049	1172.38
499.267	1235.38
499.484	1319.38
499.701	1416.38
499.918	1515.38
500.135	1629.38
500.352	1782.38
500.569	1824.38
500.786	1819.38
501.003	1742.38
501.22	1647.38
501.437	1528.38
501.654	1376.38
501.871	1363.38
502.088	1274.38
502.305	1210.38
502.522	1125.38
502.739	1094.38
502.956	1058.38
503.172	998.38
503.389	997.38
503.606	997.38
503.823	1016.38
504.04	951.38
504.256	939.38
504.473	972.38
504.69	969.38
504.907	973.38
505.123	934.38
505.34	892.38
505.557	889.38
505.773	850.38
505.99	846.38
506.207	879.38
506.423	858.38
506.64	845.38
506.856	835.38
507.073	820.38
507.289	808.38
507.506	808.38
507.722	812.38
507.939	821.38
508.155	810.38
508.372	788.38
508.588	781.38
508.805	792.38
509.021	745.38
509.238	808.38
509.454	789.38
509.67	771.38
509.887	772.38
510.103	776.38
510.319	784.38
510.536	835.38
510.752	1226.38
510.968	1061.38
511.184	775.38
511.401	760.38
511.617	768.38
511.833	746.38
512.049	740.38
512.265	727.38
512.481	721.38
512.698	747.38
512.914	720.38
513.13	710.38
513.346	754.38
513.562	711.38
513.778	765.38
513.994	731.38
514.21	744.38
514.426	752.38
514.642	789.38
514.858	806.38
515.074	816.38
515.29	909.38
515.506	1222.38
515.721	1084.38
515.937	831.38
516.153	825.38
516.369	819.38
516.585	793.38
516.801	819.38
517.016	812.38
517.232	873.38
517.448	896.38
517.664	899.38
517.879	930.38
518.095	929.38
518.311	886.38
518.527	825.38
518.742	826.38
518.958	822.38
519.173	807.38
519.389	807.38
519.605	767.38
519.82	785.38
520.036	746.38
520.251	767.38
520.467	772.38
520.682	775.38
520.898	792.38
521.113	755.38
521.329	810.38
521.544	848.38
521.76	972.38
521.975	1448.38
522.19	1447.38
522.406	931.38
522.621	782.38
522.836	748.38
523.052	733.38
523.267	709.38
523.482	698.38
523.698	680.38
523.913	673.38
524.128	667.38
524.343	647.38
524.559	646.38
524.774	651.38
524.989	652.38
525.204	639.38
525.419	654.38
525.634	667.38
525.849	648.38
526.064	621.38
526.28	631.38
526.495	620.38
526.71	630.38
526.925	626.38
527.14	619.38
527.355	629.38
527.57	617.38
527.785	622.38
527.999	628.38
528.214	622.38
528.429	648.38
528.644	639.38
528.859	612.38
529.074	636.38
529.289	636.38
529.503	683.38
529.718	680.38
529.933	638.38
530.148	642.38
530.363	640.38
530.577	630.38
530.792	621.38
531.007	622.38
531.221	599.38
531.436	622.38
531.651	620.38
531.865	608.38
532.08	618.38
532.295	615.38
532.509	598.38
532.724	620.38
532.938	606.38
533.153	612.38
533.367	606.38
533.582	612.38
533.796	604.38
534.011	628.38
534.225	632.38
534.44	603.38
534.654	601.38
534.868	618.38
535.083	592.38
535.297	604.38
535.511	611.38
535.726	598.38
535.94	632.38
536.154	590.38
536.369	587.38
536.583	587.38
536.797	582.38
537.011	552.38
537.225	565.38
537.44	570.38
537.654	576.38
537.868	566.38
538.082	577.38
538.296	569.38
538.51	571.38
538.724	572.38
538.938	568.38
539.153	595.38
539.367	577.38
539.581	595.38
539.795	553.38
540.009	583.38
540.222	574.38
540.436	581.38
540.65	570.38
540.864	569.38
541.078	566.38
541.292	600.38
541.506	580.38
541.72	564.38
541.934	557.38
542.147	594.38
542.361	562.38
542.575	573.38
542.789	558.38
543.002	562.38
543.216	586.38
543.43	569.38
543.644	554.38
543.857	556.38
544.071	562.38
544.285	576.38
544.498	586.38
544.712	558.38
544.925	577.38
545.139	554.38
545.352	583.38
545.566	590.38
545.779	584.38
545.993	583.38
546.206	563.38
546.42	583.38
546.633	566.38
546.847	576.38
547.06	579.38
547.274	557.38
547.487	572.38
547.7	574.38
547.914	575.38
548.127	579.38
548.34	579.38
548.554	592.38
548.767	579.38
548.98	542.38
549.193	565.38
549.407	590.38
549.62	581.38
549.833	575.38
550.046	585.38
550.259	559.38
550.473	568.38
550.686	559.38
550.899	579.38
551.112	534.38
551.325	545.38
551.538	575.38
551.751	567.38
551.964	586.38
552.177	586.38
552.39	594.38
552.603	596.38
552.816	601.38
553.029	622.38
553.242	624.38
553.455	610.38
553.667	636.38
553.88	622.38
554.093	609.38
554.306	602.38
554.519	565.38
554.732	566.38
554.944	549.38
555.157	572.38
555.37	564.38
555.583	560.38
555.795	564.38
556.008	524.38
556.221	542.38
556.433	543.38
556.646	540.38
556.859	535.38
557.071	498.38
557.284	514.38
557.496	511.38
557.709	521.38
557.921	500.38
558.134	500.38
558.346	488.38
558.559	475.38
558.771	499.38
558.984	495.38
559.196	518.38
559.409	492.38
559.621	484.38
559.833	495.38
560.046	504.38
560.258	518.38
560.47	483.38
560.683	492.38
560.895	502.38
561.107	494.38
561.32	498.38
561.532	511.38
561.744	514.38
561.956	494.38
562.168	510.38
562.381	494.38
562.593	513.38
562.805	516.38
563.017	493.38
563.229	501.38
563.441	504.38
563.653	544.38
563.865	508.38
564.077	523.38
564.289	503.38
564.501	518.38
564.713	529.38
564.925	549.38
565.137	559.38
565.349	576.38
565.561	568.38
565.773	583.38
565.985	617.38
566.197	610.38
566.408	653.38
566.62	678.38
566.832	706.38
567.044	727.38
567.255	738.38
567.467	748.38
567.679	803.38
567.891	825.38
568.102	840.38
568.314	788.38
568.526	774.38
568.737	697.38
568.949	678.38
569.161	617.38
569.372	597.38
569.584	576.38
569.795	556.38
570.007	556.38
570.218	558.38
570.43	540.38
570.641	524.38
570.853	527.38
571.064	502.38
571.276	514.38
571.487	502.38
571.698	492.38
571.91	481.38
572.121	478.38
572.333	480.38
572.544	465.38
572.755	450.38
572.966	441.38
573.178	451.38
573.389	434.38
573.6	446.38
573.811	441.38
574.023	440.38
574.234	451.38
574.445	437.38
574.656	422.38
574.867	427.38
575.078	434.38
575.289	442.38
575.501	429.38
575.712	423.38
575.923	426.38
576.134	423.38
576.345	418.38
576.556	408.38
576.767	400.38
576.978	414.38
577.188	404.38
577.399	425.38
577.61	392.38
577.821	412.38
578.032	414.38
578.243	428.38
578.454	573.38
578.665	478.38
578.875	376.38
579.086	413.38
579.297	393.38
579.508	394.38
579.718	400.38
579.929	390.38
580.14	393.38
580.35	386.38
580.561	384.38
580.772	387.38
580.982	412.38
581.193	382.38
581.403	370.38
581.614	386.38
581.825	389.38
582.035	384.38
582.246	372.38
582.456	366.38
582.667	367.38
582.877	374.38
583.087	390.38
583.298	377.38
583.508	384.38
583.719	395.38
583.929	378.38
584.139	369.38
584.35	390.38
584.56	371.38
584.77	396.38
584.981	359.38
585.191	377.38
585.401	367.38
585.611	376.38
585.821	378.38
586.032	386.38
586.242	386.38
586.452	380.38
586.662	367.38
586.872	370.38
587.082	376.38
587.292	381.38
587.502	362.38
587.713	382.38
587.923	379.38
588.133	382.38
588.343	380.38
588.553	364.38
588.762	377.38
588.972	366.38
589.182	380.38
589.392	380.38
589.602	379.38
589.812	363.38
590.022	372.38
590.232	367.38
590.441	367.38
590.651	372.38
590.861	384.38
591.071	371.38
591.281	394.38
591.49	378.38
591.7	405.38
591.91	398.38
592.119	393.38
592.329	404.38
592.539	403.38
592.748	411.38
592.958	457.38
593.167	432.38
593.377	423.38
593.587	445.38
593.796	453.38
594.006	452.38
594.215	432.38
594.424	457.38
594.634	435.38
594.843	434.38
595.053	422.38
595.262	412.38
595.472	386.38
595.681	388.38
595.89	405.38
596.1	361.38
596.309	371.38
596.518	374.38
596.727	362.38
596.937	359.38
597.146	374.38
597.355	362.38
597.564	349.38
597.774	345.38
597.983	340.38
598.192	342.38
598.401	339.38
598.61	336.38
598.819	340.38
599.028	343.38
599.237	330.38
599.446	338.38
599.655	350.38
599.864	324.38
600.073	334.38
600.282	322.38
600.491	326.38
600.7	335.38
600.909	322.38
601.118	319.38
601.327	316.38
601.536	313.38
601.745	335.38
601.953	330.38
602.162	333.38
602.371	323.38
602.58	332.38
602.789	325.38
602.997	302.38
603.206	328.38
603.415	300.38
603.623	308.38
603.832	306.38
604.041	313.38
604.249	283.38
604.458	319.38
604.666	303.38
604.875	303.38
605.084	293.38
605.292	301.38
605.501	308.38
605.709	302.38
605.918	310.38
606.126	307.38
606.334	295.38
606.543	307.38
606.751	311.38
606.96	309.38
607.168	310.38
607.376	293.38
607.585	288.38
607.793	307.38
608.001	293.38
608.21	292.38
608.418	292.38
608.626	289.38
608.834	295.38
609.043	291.38
609.251	294.38
609.459	283.38
609.667	286.38
609.875	288.38
610.083	296.38
610.291	303.38
610.499	291.38
610.707	299.38
610.916	291.38
611.124	301.38
611.332	301.38
611.54	309.38
611.748	301.38
611.955	312.38
612.163	297.38
612.371	306.38
612.579	302.38
612.787	286.38
612.995	270.38
613.203	287.38
613.411	296.38
613.618	286.38
613.826	290.38
614.034	292.38
614.242	278.38
614.449	278.38
614.657	291.38
614.865	288.38
615.072	277.38
615.28	281.38
615.488	280.38
615.695	307.38
615.903	302.38
616.111	278.38
616.318	318.38
616.526	296.38
616.733	303.38
616.941	288.38
617.148	293.38
617.356	269.38
617.563	301.38
617.771	296.38
617.978	278.38
618.185	284.38
618.393	287.38
618.6	278.38
618.807	308.38
619.015	280.38
619.222	275.38
619.429	286.38
619.637	264.38
619.844	279.38
620.051	278.38
620.258	278.38
620.466	272.38
620.673	271.38
620.88	275.38
621.087	255.38
621.294	265.38
621.501	275.38
621.708	266.38
621.915	279.38
622.122	263.38
622.329	272.38
622.536	282.38
622.743	270.38
622.95	270.38
623.157	272.38
623.364	273.38
623.571	280.38
623.778	266.38
623.985	263.38
624.192	268.38
624.399	262.38
624.606	248.38
624.812	246.38
625.019	263.38
625.226	278.38
625.433	262.38
625.639	247.38
625.846	248.38
626.053	259.38
626.259	258.38
626.466	261.38
626.673	250.38
626.879	233.38
627.086	250.38
627.293	230.38
627.499	229.38
627.706	254.38
627.912	248.38
628.119	234.38
628.325	236.38
628.532	243.38
628.738	268.38
628.945	245.38
629.151	237.38
629.357	230.38
629.564	215.38
629.77	239.38
629.976	254.38
630.183	237.38
630.389	248.38
630.595	225.38
630.802	231.38
631.008	212.38
631.214	222.38
631.42	233.38
631.627	216.38
631.833	225.38
632.039	227.38
632.245	233.38
632.451	227.38
632.657	230.38
632.863	230.38
633.069	215.38
633.275	228.38
633.481	220.38
633.688	199.38
633.893	215.38
634.099	210.38
634.305	220.38
634.511	226.38
634.717	213.38
634.923	212.38
635.129	222.38
635.335	219.38
635.541	218.38
635.747	206.38
635.952	227.38
636.158	213.38
636.364	221.38
636.57	226.38
636.775	216.38
636.981	223.38
637.187	202.38
637.392	218.38
637.598	217.38
637.804	229.38
638.009	209.38
638.215	213.38
638.421	206.38
638.626	193.38
638.832	217.38
639.037	207.38
639.243	190.38
639.448	206.38
639.654	197.38
639.859	195.38
640.065	189.38
640.27	219.38
640.475	207.38
640.681	202.38
640.886	209.38
641.091	198.38
641.297	216.38
641.502	204.38
641.707	189.38
641.913	213.38
642.118	198.38
642.323	200.38
642.528	214.38
642.733	206.38
642.939	214.38
643.144	185.38
643.349	190.38
643.554	200.38
643.759	192.38
643.964	187.38
644.169	187.38
644.374	200.38
644.579	188.38
644.784	188.38
644.989	205.38
645.194	205.38
645.399	198.38
645.604	198.38
645.809	188.38
646.014	190.38
646.219	208.38
646.423	208.38
646.628	198.38
646.833	196.38
647.038	204.38
647.243	190.38
647.447	191.38
647.652	190.38
647.857	187.38
648.062	194.38
648.266	212.38
648.471	215.38
648.676	194.38
648.88	204.38
649.085	201.38
649.289	199.38
649.494	211.38
649.698	203.38
649.903	183.38
650.107	197.38
650.312	195.38
650.516	184.38
650.721	174.38
650.925	175.38
651.13	179.38
651.334	184.38
651.539	179.38
651.743	181.38
651.947	162.38
652.152	180.38
652.356	172.38
652.56	159.38
652.764	175.38
652.969	168.38
653.173	163.38
653.377	143.38
653.581	167.38
653.785	153.38
653.99	167.38
654.194	159.38
654.398	148.38
654.602	159.38
654.806	148.38
655.01	140.38
655.214	158.38
655.418	151.38
655.622	145.38
655.826	155.38
656.03	141.38
656.234	147.38
656.438	159.38
656.642	157.38
656.846	164.38
657.049	144.38
657.253	144.38
657.457	134.38
657.661	128.38
657.865	123.38
658.068	134.38
658.272	118.38
658.476	124.38
658.68	116.38
658.883	110.38
659.087	120.38
659.291	107.38
659.494	123.38
659.698	124.38
659.901	117.38
660.105	108.38
660.309	90.38
660.512	91.38
660.716	104.38
660.919	95.38
661.123	99.38
661.326	94.38
661.53	95.38
661.733	99.38
661.936	96.38
662.14	81.38
662.343	90.38
662.546	96.38
662.75	80.38
662.953	94.38
663.156	86.38
663.36	72.38
663.563	80.38
663.766	93.38
663.969	82.38
664.173	84.38
664.376	88.38
664.579	99.38
664.782	87.38
664.985	93.38
665.188	78.38
665.391	75.38
665.594	79.38
665.797	84.38
666	84.38
666.203	76.38
666.406	102.38
666.609	69.38
666.812	85.38
667.015	80.38
667.218	82.38
667.421	83.38
667.624	75.38
667.827	78.38
668.03	93.38
668.232	88.38
668.435	94.38
668.638	79.38
668.841	91.38
669.043	76.38
669.246	74.38
669.449	76.38
669.651	82.38
669.854	82.38
670.057	89.38
670.259	90.38
670.462	88.38
670.665	101.38
670.867	110.38
671.07	87.38
671.272	90.38
671.475	81.38
671.677	82.38
671.88	85.38
672.082	80.38
672.284	78.38
672.487	98.38
672.689	81.38
672.892	79.38
