Data from 1963.PennyLincolnUp.Lamp.En5.5.200Scan.071719.P1._HRD10591_13-59-28-063.txt Node
Date: Thu Jul 18 13:59:28 EDT 2019
User: cochatt
Spectrometer: HR+D1059
Trigger mode: 1
Integration Time (sec): 1.000000E-1
Scans to average: 1
Electric dark correction enabled: true
Nonlinearity correction enabled: false
Boxcar width: 0
XAxis mode: Wavelengths
Number of Pixels in Spectrum: 2048
>>>>>Begin Spectral Data<<<<<
223.165	-1.62
223.4	-1.62
223.635	-1.62
223.869	-13.62
224.104	-28.62
224.338	-20.62
224.573	-20.62
224.808	-12.62
225.042	-2.62
225.277	-3.62
225.511	-6.62
225.746	-2.62
225.98	5.38
226.215	15.38
226.449	11.38
226.683	17.38
226.918	25.38
227.152	38.38
227.387	36.38
227.621	41.38
227.856	35.38
228.09	45.38
228.324	53.38
228.559	56.38
228.793	70.38
229.027	98.38
229.262	100.38
229.496	125.38
229.73	134.38
229.964	148.38
230.199	140.38
230.433	121.38
230.667	123.38
230.901	126.38
231.136	134.38
231.37	127.38
231.604	122.38
231.838	124.38
232.072	133.38
232.306	109.38
232.541	121.38
232.775	127.38
233.009	137.38
233.243	114.38
233.477	124.38
233.711	123.38
233.945	139.38
234.179	122.38
234.413	127.38
234.647	120.38
234.881	115.38
235.115	132.38
235.349	138.38
235.583	126.38
235.817	117.38
236.051	117.38
236.285	137.38
236.519	137.38
236.753	129.38
236.987	151.38
237.221	160.38
237.455	215.38
237.689	173.38
237.922	155.38
238.156	141.38
238.39	135.38
238.624	133.38
238.858	123.38
239.091	128.38
239.325	135.38
239.559	135.38
239.793	128.38
240.027	152.38
240.26	160.38
240.494	149.38
240.728	170.38
240.961	175.38
241.195	150.38
241.429	162.38
241.662	132.38
241.896	143.38
242.13	144.38
242.363	142.38
242.597	152.38
242.83	157.38
243.064	168.38
243.298	169.38
243.531	157.38
243.765	151.38
243.998	157.38
244.232	175.38
244.465	159.38
244.699	172.38
244.932	156.38
245.166	159.38
245.399	158.38
245.633	176.38
245.866	170.38
246.099	170.38
246.333	176.38
246.566	186.38
246.8	178.38
247.033	168.38
247.266	173.38
247.5	185.38
247.733	190.38
247.966	198.38
248.2	178.38
248.433	170.38
248.666	190.38
248.899	205.38
249.133	213.38
249.366	236.38
249.599	226.38
249.832	211.38
250.066	201.38
250.299	198.38
250.532	204.38
250.765	224.38
250.998	247.38
251.231	222.38
251.465	237.38
251.698	231.38
251.931	219.38
252.164	225.38
252.397	224.38
252.63	214.38
252.863	211.38
253.096	243.38
253.329	255.38
253.562	254.38
253.795	262.38
254.028	217.38
254.261	252.38
254.494	239.38
254.727	258.38
254.96	294.38
255.193	265.38
255.426	254.38
255.659	242.38
255.892	263.38
256.124	247.38
256.357	242.38
256.59	238.38
256.823	262.38
257.056	236.38
257.289	233.38
257.521	218.38
257.754	229.38
257.987	226.38
258.22	224.38
258.452	224.38
258.685	234.38
258.918	238.38
259.151	252.38
259.383	227.38
259.616	248.38
259.849	232.38
260.081	253.38
260.314	270.38
260.547	270.38
260.779	262.38
261.012	264.38
261.244	260.38
261.477	260.38
261.71	248.38
261.942	246.38
262.175	259.38
262.407	239.38
262.64	260.38
262.872	236.38
263.105	252.38
263.337	247.38
263.57	251.38
263.802	252.38
264.035	263.38
264.267	218.38
264.499	250.38
264.732	246.38
264.964	258.38
265.197	246.38
265.429	251.38
265.661	245.38
265.894	252.38
266.126	254.38
266.358	268.38
266.591	249.38
266.823	265.38
267.055	255.38
267.287	275.38
267.52	272.38
267.752	280.38
267.984	270.38
268.216	263.38
268.448	270.38
268.681	262.38
268.913	287.38
269.145	297.38
269.377	327.38
269.609	307.38
269.841	291.38
270.073	306.38
270.306	320.38
270.538	356.38
270.77	343.38
271.002	324.38
271.234	322.38
271.466	301.38
271.698	348.38
271.93	354.38
272.162	346.38
272.394	336.38
272.626	332.38
272.858	328.38
273.09	335.38
273.322	317.38
273.553	292.38
273.785	292.38
274.017	312.38
274.249	302.38
274.481	310.38
274.713	313.38
274.945	319.38
275.176	314.38
275.408	315.38
275.64	311.38
275.872	311.38
276.104	306.38
276.335	321.38
276.567	317.38
276.799	335.38
277.031	335.38
277.262	375.38
277.494	355.38
277.726	327.38
277.957	331.38
278.189	332.38
278.421	317.38
278.652	322.38
278.884	315.38
279.115	332.38
279.347	345.38
279.579	315.38
279.81	320.38
280.042	336.38
280.273	319.38
280.505	324.38
280.736	326.38
280.968	325.38
281.199	325.38
281.431	341.38
281.662	325.38
281.894	327.38
282.125	323.38
282.356	335.38
282.588	359.38
282.819	362.38
283.051	344.38
283.282	338.38
283.513	342.38
283.745	341.38
283.976	344.38
284.207	352.38
284.439	340.38
284.67	341.38
284.901	357.38
285.132	345.38
285.364	339.38
285.595	353.38
285.826	336.38
286.057	356.38
286.288	357.38
286.52	350.38
286.751	351.38
286.982	331.38
287.213	357.38
287.444	357.38
287.675	372.38
287.906	354.38
288.138	372.38
288.369	376.38
288.6	373.38
288.831	371.38
289.062	386.38
289.293	366.38
289.524	370.38
289.755	364.38
289.986	354.38
290.217	365.38
290.448	376.38
290.679	379.38
290.91	365.38
291.141	366.38
291.371	355.38
291.602	373.38
291.833	379.38
292.064	384.38
292.295	371.38
292.526	343.38
292.757	359.38
292.987	369.38
293.218	376.38
293.449	360.38
293.68	361.38
293.91	364.38
294.141	364.38
294.372	352.38
294.603	385.38
294.833	365.38
295.064	378.38
295.295	374.38
295.525	362.38
295.756	388.38
295.987	386.38
296.217	414.38
296.448	415.38
296.679	392.38
296.909	395.38
297.14	383.38
297.37	378.38
297.601	409.38
297.831	404.38
298.062	406.38
298.292	382.38
298.523	402.38
298.753	390.38
298.984	399.38
299.214	408.38
299.445	401.38
299.675	400.38
299.905	397.38
300.136	406.38
300.366	393.38
300.597	408.38
300.827	417.38
301.057	390.38
301.288	428.38
301.518	419.38
301.748	413.38
301.979	442.38
302.209	438.38
302.439	422.38
302.669	406.38
302.9	427.38
303.13	426.38
303.36	435.38
303.59	418.38
303.82	436.38
304.051	418.38
304.281	431.38
304.511	416.38
304.741	419.38
304.971	428.38
305.201	418.38
305.431	411.38
305.661	423.38
305.891	427.38
306.121	407.38
306.352	437.38
306.582	426.38
306.812	422.38
307.042	416.38
307.272	423.38
307.502	414.38
307.731	439.38
307.961	412.38
308.191	421.38
308.421	430.38
308.651	421.38
308.881	413.38
309.111	418.38
309.341	424.38
309.571	430.38
309.8	444.38
310.03	432.38
310.26	454.38
310.49	460.38
310.72	458.38
310.949	469.38
311.179	454.38
311.409	453.38
311.639	452.38
311.868	467.38
312.098	464.38
312.328	451.38
312.557	483.38
312.787	487.38
313.017	457.38
313.246	463.38
313.476	456.38
313.706	479.38
313.935	464.38
314.165	483.38
314.394	487.38
314.624	484.38
314.853	463.38
315.083	471.38
315.312	493.38
315.542	461.38
315.771	456.38
316.001	458.38
316.23	464.38
316.46	476.38
316.689	479.38
316.919	462.38
317.148	485.38
317.377	462.38
317.607	449.38
317.836	456.38
318.065	459.38
318.295	447.38
318.524	468.38
318.753	462.38
318.983	476.38
319.212	475.38
319.441	481.38
319.67	495.38
319.9	473.38
320.129	480.38
320.358	473.38
320.587	480.38
320.816	463.38
321.046	480.38
321.275	489.38
321.504	447.38
321.733	466.38
321.962	482.38
322.191	503.38
322.42	504.38
322.649	494.38
322.878	521.38
323.108	519.38
323.337	550.38
323.566	564.38
323.795	555.38
324.024	571.38
324.253	680.38
324.482	845.38
324.71	1252.38
324.939	1796.38
325.168	1578.38
325.397	883.38
325.626	677.38
325.855	571.38
326.084	556.38
326.313	562.38
326.542	568.38
326.77	602.38
326.999	646.38
327.228	830.38
327.457	1168.38
327.686	1421.38
327.914	982.38
328.143	700.38
328.372	634.38
328.6	638.38
328.829	590.38
329.058	609.38
329.287	606.38
329.515	591.38
329.744	567.38
329.972	596.38
330.201	611.38
330.43	630.38
330.658	610.38
330.887	649.38
331.115	615.38
331.344	595.38
331.572	579.38
331.801	583.38
332.03	570.38
332.258	592.38
332.486	583.38
332.715	600.38
332.943	607.38
333.172	607.38
333.4	608.38
333.629	632.38
333.857	661.38
334.085	682.38
334.314	637.38
334.542	668.38
334.771	727.38
334.999	660.38
335.227	627.38
335.455	587.38
335.684	610.38
335.912	609.38
336.14	589.38
336.369	582.38
336.597	591.38
336.825	572.38
337.053	571.38
337.281	574.38
337.51	580.38
337.738	567.38
337.966	578.38
338.194	546.38
338.422	557.38
338.65	578.38
338.878	559.38
339.106	555.38
339.334	566.38
339.562	541.38
339.79	562.38
340.018	584.38
340.246	536.38
340.474	558.38
340.702	552.38
340.93	550.38
341.158	537.38
341.386	550.38
341.614	541.38
341.842	532.38
342.07	535.38
342.298	550.38
342.526	532.38
342.754	543.38
342.981	531.38
343.209	534.38
343.437	563.38
343.665	568.38
343.893	575.38
344.12	583.38
344.348	596.38
344.576	591.38
344.804	573.38
345.031	576.38
345.259	536.38
345.487	566.38
345.714	550.38
345.942	532.38
346.17	543.38
346.397	531.38
346.625	528.38
346.853	516.38
347.08	519.38
347.308	522.38
347.535	517.38
347.763	550.38
347.99	537.38
348.218	523.38
348.445	546.38
348.673	501.38
348.9	516.38
349.128	494.38
349.355	498.38
349.583	526.38
349.81	512.38
350.037	517.38
350.265	479.38
350.492	521.38
350.72	514.38
350.947	507.38
351.174	542.38
351.402	519.38
351.629	529.38
351.856	541.38
352.083	523.38
352.311	516.38
352.538	506.38
352.765	528.38
352.992	509.38
353.22	499.38
353.447	491.38
353.674	492.38
353.901	488.38
354.128	500.38
354.355	528.38
354.583	504.38
354.81	506.38
355.037	482.38
355.264	498.38
355.491	494.38
355.718	521.38
355.945	476.38
356.172	484.38
356.399	498.38
356.626	491.38
356.853	512.38
357.08	518.38
357.307	490.38
357.534	504.38
357.761	480.38
357.988	500.38
358.215	492.38
358.441	494.38
358.668	510.38
358.895	492.38
359.122	500.38
359.349	511.38
359.576	548.38
359.802	542.38
360.029	548.38
360.256	564.38
360.483	555.38
360.709	546.38
360.936	529.38
361.163	506.38
361.39	522.38
361.616	528.38
361.843	515.38
362.07	506.38
362.296	528.38
362.523	493.38
362.749	494.38
362.976	504.38
363.203	508.38
363.429	500.38
363.656	504.38
363.882	509.38
364.109	512.38
364.335	498.38
364.562	489.38
364.788	491.38
365.015	511.38
365.241	500.38
365.468	525.38
365.694	507.38
365.92	518.38
366.147	514.38
366.373	471.38
366.599	486.38
366.826	498.38
367.052	495.38
367.278	510.38
367.505	516.38
367.731	516.38
367.957	503.38
368.184	511.38
368.41	514.38
368.636	512.38
368.862	535.38
369.089	517.38
369.315	544.38
369.541	502.38
369.767	506.38
369.993	522.38
370.219	537.38
370.445	521.38
370.672	497.38
370.898	531.38
371.124	507.38
371.35	521.38
371.576	516.38
371.802	509.38
372.028	506.38
372.254	539.38
372.48	524.38
372.706	551.38
372.932	543.38
373.158	536.38
373.384	555.38
373.61	539.38
373.835	528.38
374.061	535.38
374.287	557.38
374.513	559.38
374.739	531.38
374.965	575.38
375.191	554.38
375.416	543.38
375.642	542.38
375.868	539.38
376.094	544.38
376.319	525.38
376.545	543.38
376.771	520.38
376.997	538.38
377.222	509.38
377.448	520.38
377.674	534.38
377.899	544.38
378.125	528.38
378.35	534.38
378.576	524.38
378.802	508.38
379.027	560.38
379.253	509.38
379.478	527.38
379.704	537.38
379.929	506.38
380.155	492.38
380.38	518.38
380.606	533.38
380.831	532.38
381.057	536.38
381.282	523.38
381.507	535.38
381.733	531.38
381.958	541.38
382.184	538.38
382.409	561.38
382.634	554.38
382.86	553.38
383.085	560.38
383.31	557.38
383.535	556.38
383.761	558.38
383.986	585.38
384.211	578.38
384.436	585.38
384.662	594.38
384.887	599.38
385.112	581.38
385.337	603.38
385.562	598.38
385.787	606.38
386.013	607.38
386.238	608.38
386.463	622.38
386.688	611.38
386.913	621.38
387.138	591.38
387.363	599.38
387.588	604.38
387.813	639.38
388.038	611.38
388.263	596.38
388.488	597.38
388.713	588.38
388.938	627.38
389.163	595.38
389.387	577.38
389.612	576.38
389.837	576.38
390.062	599.38
390.287	602.38
390.512	591.38
390.736	593.38
390.961	606.38
391.186	607.38
391.411	596.38
391.636	616.38
391.86	648.38
392.085	663.38
392.31	646.38
392.534	650.38
392.759	646.38
392.984	638.38
393.208	621.38
393.433	624.38
393.658	631.38
393.882	620.38
394.107	617.38
394.331	613.38
394.556	615.38
394.78	615.38
395.005	610.38
395.229	651.38
395.454	656.38
395.678	661.38
395.903	680.38
396.127	676.38
396.352	662.38
396.576	633.38
396.801	633.38
397.025	635.38
397.249	660.38
397.474	664.38
397.698	682.38
397.922	693.38
398.147	674.38
398.371	687.38
398.595	687.38
398.82	708.38
399.044	738.38
399.268	785.38
399.492	877.38
399.717	963.38
399.941	964.38
400.165	933.38
400.389	898.38
400.613	832.38
400.837	788.38
401.062	738.38
401.286	738.38
401.51	732.38
401.734	719.38
401.958	734.38
402.182	717.38
402.406	755.38
402.63	762.38
402.854	758.38
403.078	767.38
403.302	795.38
403.526	770.38
403.75	796.38
403.974	811.38
404.198	770.38
404.422	783.38
404.645	784.38
404.869	806.38
405.093	806.38
405.317	829.38
405.541	876.38
405.765	820.38
405.988	814.38
406.212	799.38
406.436	820.38
406.66	824.38
406.883	852.38
407.107	862.38
407.331	912.38
407.555	977.38
407.778	998.38
408.002	905.38
408.226	873.38
408.449	857.38
408.673	837.38
408.896	857.38
409.12	861.38
409.344	858.38
409.567	808.38
409.791	770.38
410.014	791.38
410.238	760.38
410.461	765.38
410.685	792.38
410.908	753.38
411.132	788.38
411.355	797.38
411.578	794.38
411.802	743.38
412.025	754.38
412.249	781.38
412.472	783.38
412.695	813.38
412.919	787.38
413.142	733.38
413.365	724.38
413.589	713.38
413.812	740.38
414.035	719.38
414.258	733.38
414.482	714.38
414.705	723.38
414.928	705.38
415.151	711.38
415.374	722.38
415.597	699.38
415.821	703.38
416.044	708.38
416.267	711.38
416.49	722.38
416.713	705.38
416.936	728.38
417.159	717.38
417.382	702.38
417.605	720.38
417.828	743.38
418.051	745.38
418.274	741.38
418.497	742.38
418.72	749.38
418.943	719.38
419.166	752.38
419.389	810.38
419.611	802.38
419.834	758.38
420.057	731.38
420.28	744.38
420.503	715.38
420.726	748.38
420.948	726.38
421.171	766.38
421.394	808.38
421.617	736.38
421.839	720.38
422.062	741.38
422.285	766.38
422.507	794.38
422.73	848.38
422.953	858.38
423.175	757.38
423.398	778.38
423.621	748.38
423.843	778.38
424.066	772.38
424.288	780.38
424.511	782.38
424.733	841.38
424.956	881.38
425.178	868.38
425.401	849.38
425.623	871.38
425.846	794.38
426.068	742.38
426.291	716.38
426.513	748.38
426.735	742.38
426.958	781.38
427.18	864.38
427.402	942.38
427.625	988.38
427.847	899.38
428.069	816.38
428.292	764.38
428.514	688.38
428.736	683.38
428.958	675.38
429.181	643.38
429.403	685.38
429.625	698.38
429.847	712.38
430.069	756.38
430.292	767.38
430.514	680.38
430.736	660.38
430.958	681.38
431.18	666.38
431.402	679.38
431.624	674.38
431.846	652.38
432.068	649.38
432.29	684.38
432.512	642.38
432.734	690.38
432.956	653.38
433.178	656.38
433.4	665.38
433.622	651.38
433.844	643.38
434.066	663.38
434.287	669.38
434.509	690.38
434.731	733.38
434.953	723.38
435.175	720.38
435.397	742.38
435.618	730.38
435.84	771.38
436.062	810.38
436.284	858.38
436.505	771.38
436.727	718.38
436.949	698.38
437.17	681.38
437.392	674.38
437.614	694.38
437.835	711.38
438.057	784.38
438.278	858.38
438.5	842.38
438.721	934.38
438.943	891.38
439.165	747.38
439.386	712.38
439.608	720.38
439.829	709.38
440.05	747.38
440.272	778.38
440.493	754.38
440.715	706.38
440.936	720.38
441.158	725.38
441.379	698.38
441.6	711.38
441.822	758.38
442.043	794.38
442.264	850.38
442.486	864.38
442.707	784.38
442.928	766.38
443.149	765.38
443.371	793.38
443.592	811.38
443.813	902.38
444.034	932.38
444.255	848.38
444.476	796.38
444.698	812.38
444.919	825.38
445.14	939.38
445.361	831.38
445.582	822.38
445.803	826.38
446.024	894.38
446.245	893.38
446.466	851.38
446.687	754.38
446.908	748.38
447.129	671.38
447.35	656.38
447.571	664.38
447.792	671.38
448.013	692.38
448.234	676.38
448.455	684.38
448.675	807.38
448.896	890.38
449.117	780.38
449.338	757.38
449.559	847.38
449.779	956.38
450	802.38
450.221	706.38
450.442	660.38
450.662	642.38
450.883	664.38
451.104	676.38
451.324	623.38
451.545	595.38
451.766	613.38
451.986	580.38
452.207	585.38
452.428	594.38
452.648	622.38
452.869	610.38
453.089	594.38
453.31	636.38
453.53	607.38
453.751	614.38
453.971	596.38
454.192	603.38
454.412	590.38
454.633	619.38
454.853	612.38
455.073	605.38
455.294	610.38
455.514	669.38
455.734	656.38
455.955	575.38
456.175	563.38
456.395	580.38
456.616	567.38
456.836	574.38
457.056	574.38
457.276	576.38
457.497	596.38
457.717	560.38
457.937	603.38
458.157	601.38
458.377	587.38
458.598	609.38
458.818	644.38
459.038	724.38
459.258	766.38
459.478	698.38
459.698	685.38
459.918	690.38
460.138	703.38
460.358	709.38
460.578	744.38
460.798	723.38
461.018	733.38
461.238	732.38
461.458	743.38
461.678	698.38
461.898	758.38
462.118	732.38
462.338	765.38
462.558	756.38
462.777	808.38
462.997	841.38
463.217	891.38
463.437	902.38
463.657	828.38
463.876	827.38
464.096	794.38
464.316	805.38
464.536	802.38
464.755	809.38
464.975	795.38
465.195	790.38
465.414	824.38
465.634	740.38
465.854	692.38
466.073	655.38
466.293	670.38
466.512	656.38
466.732	645.38
466.951	637.38
467.171	640.38
467.391	653.38
467.61	644.38
467.829	649.38
468.049	632.38
468.268	647.38
468.488	639.38
468.707	622.38
468.927	620.38
469.146	623.38
469.365	623.38
469.585	621.38
469.804	615.38
470.023	650.38
470.243	644.38
470.462	652.38
470.681	675.38
470.901	666.38
471.12	627.38
471.339	648.38
471.558	667.38
471.777	638.38
471.997	631.38
472.216	632.38
472.435	674.38
472.654	628.38
472.873	623.38
473.092	616.38
473.311	630.38
473.53	632.38
473.749	619.38
473.968	648.38
474.187	724.38
474.406	723.38
474.625	663.38
474.844	633.38
475.063	621.38
475.282	608.38
475.501	645.38
475.72	657.38
475.939	648.38
476.158	669.38
476.377	650.38
476.596	674.38
476.814	651.38
477.033	671.38
477.252	674.38
477.471	682.38
477.69	691.38
477.908	726.38
478.127	716.38
478.346	715.38
478.564	698.38
478.783	734.38
479.002	754.38
479.22	757.38
479.439	788.38
479.658	781.38
479.876	783.38
480.095	810.38
480.313	864.38
480.532	843.38
480.751	829.38
480.969	816.38
481.188	862.38
481.406	877.38
481.624	800.38
481.843	770.38
482.061	749.38
482.28	729.38
482.498	733.38
482.717	731.38
482.935	743.38
483.153	746.38
483.372	697.38
483.59	736.38
483.808	779.38
484.027	742.38
484.245	739.38
484.463	741.38
484.681	750.38
484.9	761.38
485.118	747.38
485.336	757.38
485.554	758.38
485.772	777.38
485.99	761.38
486.209	784.38
486.427	796.38
486.645	781.38
486.863	784.38
487.081	805.38
487.299	804.38
487.517	773.38
487.735	774.38
487.953	774.38
488.171	767.38
488.389	774.38
488.607	770.38
488.825	795.38
489.043	772.38
489.261	787.38
489.479	789.38
489.696	799.38
489.914	788.38
490.132	817.38
490.35	802.38
490.568	808.38
490.786	815.38
491.003	834.38
491.221	849.38
491.439	854.38
491.657	875.38
491.874	865.38
492.092	874.38
492.31	877.38
492.527	864.38
492.745	886.38
492.963	898.38
493.18	919.38
493.398	906.38
493.615	907.38
493.833	901.38
494.05	903.38
494.268	926.38
494.485	907.38
494.703	892.38
494.92	880.38
495.138	920.38
495.355	899.38
495.573	885.38
495.79	902.38
496.008	936.38
496.225	902.38
496.442	925.38
496.66	919.38
496.877	932.38
497.094	950.38
497.312	956.38
497.529	988.38
497.746	986.38
497.963	1006.38
498.181	1046.38
498.398	1069.38
498.615	1090.38
498.832	1160.38
499.049	1184.38
499.267	1255.38
499.484	1310.38
499.701	1404.38
499.918	1520.38
500.135	1662.38
500.352	1759.38
500.569	1856.38
500.786	1864.38
501.003	1802.38
501.22	1684.38
501.437	1530.38
501.654	1449.38
501.871	1375.38
502.088	1272.38
502.305	1240.38
502.522	1156.38
502.739	1108.38
502.956	1061.38
503.172	1062.38
503.389	1026.38
503.606	998.38
503.823	1011.38
504.04	950.38
504.256	980.38
504.473	967.38
504.69	991.38
504.907	993.38
505.123	956.38
505.34	932.38
505.557	896.38
505.773	896.38
505.99	877.38
506.207	868.38
506.423	877.38
506.64	850.38
506.856	844.38
507.073	837.38
507.289	822.38
507.506	823.38
507.722	845.38
507.939	852.38
508.155	816.38
508.372	818.38
508.588	779.38
508.805	781.38
509.021	804.38
509.238	811.38
509.454	806.38
509.67	776.38
509.887	799.38
510.103	791.38
510.319	789.38
510.536	859.38
510.752	1250.38
510.968	1085.38
511.184	788.38
511.401	760.38
511.617	756.38
511.833	726.38
512.049	758.38
512.265	766.38
512.481	764.38
512.698	751.38
512.914	740.38
513.13	764.38
513.346	733.38
513.562	754.38
513.778	750.38
513.994	743.38
514.21	778.38
514.426	751.38
514.642	802.38
514.858	808.38
515.074	826.38
515.29	960.38
515.506	1270.38
515.721	1119.38
515.937	869.38
516.153	830.38
516.369	842.38
516.585	830.38
516.801	803.38
517.016	850.38
517.232	871.38
517.448	876.38
517.664	898.38
517.879	916.38
518.095	929.38
518.311	931.38
518.527	894.38
518.742	842.38
518.958	812.38
519.173	828.38
519.389	798.38
519.605	785.38
519.82	788.38
520.036	806.38
520.251	779.38
520.467	770.38
520.682	788.38
520.898	778.38
521.113	795.38
521.329	798.38
521.544	874.38
521.76	978.38
521.975	1488.38
522.19	1556.38
522.406	946.38
522.621	775.38
522.836	731.38
523.052	724.38
523.267	701.38
523.482	684.38
523.698	688.38
523.913	686.38
524.128	686.38
524.343	674.38
524.559	682.38
524.774	667.38
524.989	654.38
525.204	674.38
525.419	646.38
525.634	670.38
525.849	646.38
526.064	656.38
526.28	648.38
526.495	645.38
526.71	651.38
526.925	634.38
527.14	646.38
527.355	630.38
527.57	637.38
527.785	613.38
527.999	625.38
528.214	646.38
528.429	663.38
528.644	664.38
528.859	648.38
529.074	653.38
529.289	641.38
529.503	691.38
529.718	684.38
529.933	668.38
530.148	650.38
530.363	648.38
530.577	624.38
530.792	644.38
531.007	626.38
531.221	643.38
531.436	616.38
531.651	627.38
531.865	638.38
532.08	624.38
532.295	650.38
532.509	619.38
532.724	611.38
532.938	622.38
533.153	621.38
533.367	615.38
533.582	614.38
533.796	634.38
534.011	641.38
534.225	619.38
534.44	629.38
534.654	618.38
534.868	639.38
535.083	606.38
535.297	622.38
535.511	613.38
535.726	634.38
535.94	640.38
536.154	603.38
536.369	621.38
536.583	612.38
536.797	616.38
537.011	583.38
537.225	615.38
537.44	616.38
537.654	615.38
537.868	581.38
538.082	611.38
538.296	587.38
538.51	598.38
538.724	588.38
538.938	590.38
539.153	602.38
539.367	612.38
539.581	586.38
539.795	571.38
540.009	596.38
540.222	594.38
540.436	590.38
540.65	571.38
540.864	583.38
541.078	599.38
541.292	605.38
541.506	584.38
541.72	584.38
541.934	573.38
542.147	570.38
542.361	570.38
542.575	562.38
542.789	564.38
543.002	572.38
543.216	596.38
543.43	626.38
543.644	589.38
543.857	583.38
544.071	576.38
544.285	568.38
544.498	582.38
544.712	583.38
544.925	588.38
545.139	592.38
545.352	584.38
545.566	587.38
545.779	579.38
545.993	581.38
546.206	627.38
546.42	573.38
546.633	594.38
546.847	587.38
547.06	594.38
547.274	574.38
547.487	596.38
547.7	571.38
547.914	563.38
548.127	579.38
548.34	599.38
548.554	576.38
548.767	590.38
548.98	605.38
549.193	582.38
549.407	584.38
549.62	602.38
549.833	608.38
550.046	590.38
550.259	600.38
550.473	580.38
550.686	560.38
550.899	571.38
551.112	558.38
551.325	564.38
551.538	559.38
551.751	589.38
551.964	558.38
552.177	580.38
552.39	572.38
552.603	591.38
552.816	614.38
553.029	613.38
553.242	615.38
553.455	623.38
553.667	644.38
553.88	630.38
554.093	619.38
554.306	634.38
554.519	601.38
554.732	583.38
554.944	571.38
555.157	548.38
555.37	548.38
555.583	540.38
555.795	552.38
556.008	556.38
556.221	531.38
556.433	534.38
556.646	522.38
556.859	526.38
557.071	538.38
557.284	517.38
557.496	496.38
557.709	515.38
557.921	492.38
558.134	515.38
558.346	524.38
558.559	515.38
558.771	516.38
558.984	504.38
559.196	518.38
559.409	488.38
559.621	481.38
559.833	514.38
560.046	514.38
560.258	511.38
560.47	514.38
560.683	503.38
560.895	507.38
561.107	501.38
561.32	496.38
561.532	493.38
561.744	501.38
561.956	501.38
562.168	501.38
562.381	512.38
562.593	521.38
562.805	516.38
563.017	503.38
563.229	511.38
563.441	525.38
563.653	541.38
563.865	538.38
564.077	535.38
564.289	528.38
564.501	527.38
564.713	541.38
564.925	543.38
565.137	572.38
565.349	578.38
565.561	574.38
565.773	587.38
565.985	615.38
566.197	635.38
566.408	645.38
566.62	723.38
566.832	734.38
567.044	749.38
567.255	742.38
567.467	797.38
567.679	794.38
567.891	841.38
568.102	841.38
568.314	821.38
568.526	764.38
568.737	700.38
568.949	652.38
569.161	628.38
569.372	588.38
569.584	582.38
569.795	575.38
570.007	575.38
570.218	581.38
570.43	586.38
570.641	522.38
570.853	523.38
571.064	543.38
571.276	505.38
571.487	508.38
571.698	493.38
571.91	488.38
572.121	468.38
572.333	475.38
572.544	459.38
572.755	468.38
572.966	458.38
573.178	450.38
573.389	461.38
573.6	457.38
573.811	436.38
574.023	450.38
574.234	445.38
574.445	437.38
574.656	439.38
574.867	443.38
575.078	448.38
575.289	431.38
575.501	431.38
575.712	429.38
575.923	417.38
576.134	431.38
576.345	431.38
576.556	420.38
576.767	412.38
576.978	416.38
577.188	410.38
577.399	428.38
577.61	422.38
577.821	423.38
578.032	415.38
578.243	435.38
578.454	612.38
578.665	475.38
578.875	431.38
579.086	411.38
579.297	407.38
579.508	408.38
579.718	405.38
579.929	399.38
580.14	407.38
580.35	385.38
580.561	376.38
580.772	409.38
580.982	383.38
581.193	381.38
581.403	391.38
581.614	384.38
581.825	395.38
582.035	376.38
582.246	411.38
582.456	370.38
582.667	391.38
582.877	389.38
583.087	383.38
583.298	386.38
583.508	396.38
583.719	370.38
583.929	382.38
584.139	371.38
584.35	371.38
584.56	373.38
584.77	368.38
584.981	390.38
585.191	379.38
585.401	397.38
585.611	382.38
585.821	401.38
586.032	388.38
586.242	379.38
586.452	380.38
586.662	370.38
586.872	392.38
587.082	380.38
587.292	378.38
587.502	384.38
587.713	362.38
587.923	390.38
588.133	374.38
588.343	374.38
588.553	374.38
588.762	374.38
588.972	364.38
589.182	384.38
589.392	385.38
589.602	371.38
589.812	391.38
590.022	371.38
590.232	395.38
590.441	382.38
590.651	370.38
590.861	378.38
591.071	388.38
591.281	376.38
591.49	376.38
591.7	390.38
591.91	403.38
592.119	408.38
592.329	410.38
592.539	422.38
592.748	429.38
592.958	459.38
593.167	427.38
593.377	452.38
593.587	485.38
593.796	473.38
594.006	436.38
594.215	465.38
594.424	455.38
594.634	458.38
594.843	442.38
595.053	428.38
595.262	424.38
595.472	426.38
595.681	395.38
595.89	404.38
596.1	390.38
596.309	378.38
596.518	371.38
596.727	376.38
596.937	361.38
597.146	356.38
597.355	343.38
597.564	354.38
597.774	349.38
597.983	341.38
598.192	363.38
598.401	347.38
598.61	330.38
598.819	349.38
599.028	334.38
599.237	319.38
599.446	348.38
599.655	340.38
599.864	338.38
600.073	335.38
600.282	329.38
600.491	322.38
600.7	332.38
600.909	311.38
601.118	328.38
601.327	322.38
601.536	318.38
601.745	334.38
601.953	327.38
602.162	322.38
602.371	315.38
602.58	312.38
602.789	308.38
602.997	315.38
603.206	318.38
603.415	312.38
603.623	330.38
603.832	341.38
604.041	323.38
604.249	326.38
604.458	296.38
604.666	317.38
604.875	296.38
605.084	301.38
605.292	309.38
605.501	310.38
605.709	312.38
605.918	297.38
606.126	311.38
606.334	290.38
606.543	304.38
606.751	311.38
606.96	297.38
607.168	290.38
607.376	308.38
607.585	306.38
607.793	301.38
608.001	312.38
608.21	272.38
608.418	309.38
608.626	305.38
608.834	303.38
609.043	300.38
609.251	300.38
609.459	306.38
609.667	298.38
609.875	309.38
610.083	301.38
610.291	294.38
610.499	307.38
610.707	305.38
610.916	304.38
611.124	312.38
611.332	302.38
611.54	304.38
611.748	282.38
611.955	295.38
612.163	281.38
612.371	305.38
612.579	316.38
612.787	294.38
612.995	291.38
613.203	295.38
613.411	297.38
613.618	314.38
613.826	290.38
614.034	292.38
614.242	291.38
614.449	287.38
614.657	299.38
614.865	293.38
615.072	291.38
615.28	298.38
615.488	287.38
615.695	306.38
615.903	284.38
616.111	300.38
616.318	295.38
616.526	310.38
616.733	283.38
616.941	272.38
617.148	275.38
617.356	295.38
617.563	301.38
617.771	292.38
617.978	294.38
618.185	297.38
618.393	286.38
618.6	311.38
618.807	300.38
619.015	310.38
619.222	292.38
619.429	299.38
619.637	292.38
619.844	290.38
620.051	283.38
620.258	272.38
620.466	273.38
620.673	270.38
620.88	261.38
621.087	271.38
621.294	282.38
621.501	284.38
621.708	279.38
621.915	278.38
622.122	277.38
622.329	282.38
622.536	278.38
622.743	290.38
622.95	277.38
623.157	281.38
623.364	265.38
623.571	258.38
623.778	252.38
623.985	269.38
624.192	257.38
624.399	263.38
624.606	280.38
624.812	250.38
625.019	266.38
625.226	276.38
625.433	271.38
625.639	234.38
625.846	261.38
626.053	244.38
626.259	253.38
626.466	266.38
626.673	263.38
626.879	251.38
627.086	248.38
627.293	271.38
627.499	248.38
627.706	268.38
627.912	251.38
628.119	258.38
628.325	233.38
628.532	231.38
628.738	255.38
628.945	234.38
629.151	237.38
629.357	254.38
629.564	250.38
629.77	234.38
629.976	234.38
630.183	244.38
630.389	240.38
630.595	219.38
630.802	235.38
631.008	233.38
631.214	228.38
631.42	228.38
631.627	219.38
631.833	234.38
632.039	227.38
632.245	242.38
632.451	234.38
632.657	230.38
632.863	213.38
633.069	217.38
633.275	246.38
633.481	223.38
633.688	208.38
633.893	215.38
634.099	219.38
634.305	236.38
634.511	220.38
634.717	224.38
634.923	231.38
635.129	201.38
635.335	212.38
635.541	210.38
635.747	220.38
635.952	226.38
636.158	207.38
636.364	209.38
636.57	235.38
636.775	213.38
636.981	218.38
637.187	224.38
637.392	230.38
637.598	223.38
637.804	233.38
638.009	222.38
638.215	212.38
638.421	214.38
638.626	206.38
638.832	216.38
639.037	213.38
639.243	208.38
639.448	200.38
639.654	218.38
639.859	200.38
640.065	209.38
640.27	211.38
640.475	221.38
640.681	210.38
640.886	208.38
641.091	219.38
641.297	223.38
641.502	194.38
641.707	219.38
641.913	212.38
642.118	191.38
642.323	207.38
642.528	208.38
642.733	195.38
642.939	188.38
643.144	179.38
643.349	205.38
643.554	178.38
643.759	202.38
643.964	192.38
644.169	205.38
644.374	188.38
644.579	200.38
644.784	194.38
644.989	197.38
645.194	209.38
645.399	202.38
645.604	188.38
645.809	188.38
646.014	197.38
646.219	192.38
646.423	205.38
646.628	197.38
646.833	185.38
647.038	189.38
647.243	201.38
647.447	214.38
647.652	227.38
647.857	207.38
648.062	225.38
648.266	220.38
648.471	208.38
648.676	206.38
648.88	210.38
649.085	208.38
649.289	213.38
649.494	221.38
649.698	212.38
649.903	218.38
650.107	202.38
650.312	184.38
650.516	180.38
650.721	192.38
650.925	167.38
651.13	175.38
651.334	174.38
651.539	167.38
651.743	171.38
651.947	172.38
652.152	174.38
652.356	162.38
652.56	169.38
652.764	178.38
652.969	170.38
653.173	182.38
653.377	168.38
653.581	157.38
653.785	164.38
653.99	154.38
654.194	142.38
654.398	156.38
654.602	144.38
654.806	141.38
655.01	153.38
655.214	165.38
655.418	160.38
655.622	153.38
655.826	166.38
656.03	157.38
656.234	140.38
656.438	156.38
656.642	145.38
656.846	155.38
657.049	153.38
657.253	130.38
657.457	144.38
657.661	132.38
657.865	127.38
658.068	140.38
658.272	127.38
658.476	121.38
658.68	112.38
658.883	116.38
659.087	123.38
659.291	127.38
659.494	94.38
659.698	108.38
659.901	96.38
660.105	108.38
660.309	108.38
660.512	101.38
660.716	90.38
660.919	95.38
661.123	93.38
661.326	91.38
661.53	94.38
661.733	95.38
661.936	91.38
662.14	86.38
662.343	80.38
662.546	85.38
662.75	93.38
662.953	83.38
663.156	82.38
663.36	94.38
663.563	86.38
663.766	79.38
663.969	108.38
664.173	103.38
664.376	80.38
664.579	80.38
664.782	82.38
664.985	95.38
665.188	87.38
665.391	91.38
665.594	76.38
665.797	87.38
666	76.38
666.203	85.38
666.406	95.38
666.609	82.38
666.812	92.38
667.015	95.38
667.218	93.38
667.421	94.38
667.624	74.38
667.827	80.38
668.03	77.38
668.232	91.38
668.435	85.38
668.638	81.38
668.841	86.38
669.043	74.38
669.246	89.38
669.449	87.38
669.651	94.38
669.854	95.38
670.057	83.38
670.259	79.38
670.462	97.38
670.665	81.38
670.867	74.38
671.07	102.38
671.272	85.38
671.475	95.38
671.677	74.38
671.88	83.38
672.082	86.38
672.284	98.38
672.487	86.38
672.689	73.38
672.892	92.38
