Data from 1963.PennyLincolnUp.Lamp.En5.5.200Scan.071719.P1._HRD10591_13-57-52-063.txt Node
Date: Thu Jul 18 13:57:52 EDT 2019
User: cochatt
Spectrometer: HR+D1059
Trigger mode: 1
Integration Time (sec): 1.000000E-1
Scans to average: 1
Electric dark correction enabled: true
Nonlinearity correction enabled: false
Boxcar width: 0
XAxis mode: Wavelengths
Number of Pixels in Spectrum: 2048
>>>>>Begin Spectral Data<<<<<
223.165	-11.62
223.4	-11.62
223.635	-11.62
223.869	-25.62
224.104	-21.62
224.338	-13.62
224.573	-23.62
224.808	-10.62
225.042	-6.62
225.277	0.38
225.511	-7.62
225.746	0.38
225.98	11.38
226.215	9.38
226.449	18.38
226.683	18.38
226.918	32.38
227.152	30.38
227.387	36.38
227.621	48.38
227.856	27.38
228.09	48.38
228.324	50.38
228.559	67.38
228.793	55.38
229.027	102.38
229.262	92.38
229.496	98.38
229.73	125.38
229.964	127.38
230.199	124.38
230.433	99.38
230.667	109.38
230.901	105.38
231.136	116.38
231.37	105.38
231.604	112.38
231.838	108.38
232.072	117.38
232.306	112.38
232.541	114.38
232.775	112.38
233.009	122.38
233.243	109.38
233.477	112.38
233.711	109.38
233.945	124.38
234.179	116.38
234.413	122.38
234.647	120.38
234.881	130.38
235.115	123.38
235.349	114.38
235.583	123.38
235.817	107.38
236.051	122.38
236.285	124.38
236.519	108.38
236.753	114.38
236.987	130.38
237.221	164.38
237.455	177.38
237.689	170.38
237.922	126.38
238.156	115.38
238.39	128.38
238.624	130.38
238.858	145.38
239.091	124.38
239.325	114.38
239.559	132.38
239.793	130.38
240.027	148.38
240.26	139.38
240.494	147.38
240.728	162.38
240.961	162.38
241.195	145.38
241.429	133.38
241.662	125.38
241.896	134.38
242.13	126.38
242.363	134.38
242.597	147.38
242.83	138.38
243.064	142.38
243.298	142.38
243.531	165.38
243.765	144.38
243.998	162.38
244.232	162.38
244.465	162.38
244.699	142.38
244.932	161.38
245.166	157.38
245.399	148.38
245.633	136.38
245.866	150.38
246.099	155.38
246.333	152.38
246.566	171.38
246.8	163.38
247.033	154.38
247.266	180.38
247.5	172.38
247.733	184.38
247.966	188.38
248.2	177.38
248.433	176.38
248.666	171.38
248.899	178.38
249.133	192.38
249.366	182.38
249.599	186.38
249.832	189.38
250.066	205.38
250.299	185.38
250.532	190.38
250.765	200.38
250.998	206.38
251.231	210.38
251.465	221.38
251.698	206.38
251.931	213.38
252.164	197.38
252.397	196.38
252.63	199.38
252.863	212.38
253.096	212.38
253.329	211.38
253.562	210.38
253.795	202.38
254.028	211.38
254.261	209.38
254.494	219.38
254.727	229.38
254.96	241.38
255.193	229.38
255.426	240.38
255.659	224.38
255.892	238.38
256.124	241.38
256.357	228.38
256.59	228.38
256.823	234.38
257.056	213.38
257.289	214.38
257.521	238.38
257.754	219.38
257.987	217.38
258.22	241.38
258.452	226.38
258.685	212.38
258.918	216.38
259.151	227.38
259.383	229.38
259.616	225.38
259.849	241.38
260.081	235.38
260.314	243.38
260.547	247.38
260.779	248.38
261.012	238.38
261.244	232.38
261.477	251.38
261.71	229.38
261.942	242.38
262.175	245.38
262.407	243.38
262.64	243.38
262.872	232.38
263.105	222.38
263.337	229.38
263.57	245.38
263.802	236.38
264.035	227.38
264.267	211.38
264.499	236.38
264.732	243.38
264.964	229.38
265.197	233.38
265.429	240.38
265.661	236.38
265.894	236.38
266.126	258.38
266.358	230.38
266.591	230.38
266.823	245.38
267.055	220.38
267.287	246.38
267.52	247.38
267.752	259.38
267.984	245.38
268.216	244.38
268.448	255.38
268.681	266.38
268.913	257.38
269.145	286.38
269.377	274.38
269.609	295.38
269.841	290.38
270.073	294.38
270.306	282.38
270.538	318.38
270.77	290.38
271.002	301.38
271.234	289.38
271.466	277.38
271.698	302.38
271.93	323.38
272.162	284.38
272.394	313.38
272.626	306.38
272.858	293.38
273.09	301.38
273.322	309.38
273.553	299.38
273.785	290.38
274.017	279.38
274.249	293.38
274.481	295.38
274.713	287.38
274.945	289.38
275.176	293.38
275.408	281.38
275.64	276.38
275.872	274.38
276.104	294.38
276.335	281.38
276.567	283.38
276.799	300.38
277.031	323.38
277.262	320.38
277.494	326.38
277.726	316.38
277.957	317.38
278.189	307.38
278.421	298.38
278.652	300.38
278.884	302.38
279.115	294.38
279.347	297.38
279.579	311.38
279.81	300.38
280.042	319.38
280.273	285.38
280.505	316.38
280.736	306.38
280.968	294.38
281.199	308.38
281.431	301.38
281.662	310.38
281.894	304.38
282.125	309.38
282.356	316.38
282.588	354.38
282.819	341.38
283.051	308.38
283.282	321.38
283.513	313.38
283.745	319.38
283.976	325.38
284.207	330.38
284.439	321.38
284.67	305.38
284.901	327.38
285.132	331.38
285.364	317.38
285.595	342.38
285.826	328.38
286.057	336.38
286.288	312.38
286.52	321.38
286.751	346.38
286.982	318.38
287.213	320.38
287.444	331.38
287.675	326.38
287.906	353.38
288.138	357.38
288.369	349.38
288.6	343.38
288.831	346.38
289.062	349.38
289.293	341.38
289.524	350.38
289.755	334.38
289.986	354.38
290.217	346.38
290.448	353.38
290.679	328.38
290.91	352.38
291.141	358.38
291.371	343.38
291.602	337.38
291.833	354.38
292.064	326.38
292.295	345.38
292.526	346.38
292.757	343.38
292.987	335.38
293.218	350.38
293.449	362.38
293.68	351.38
293.91	355.38
294.141	346.38
294.372	339.38
294.603	326.38
294.833	356.38
295.064	362.38
295.295	377.38
295.525	344.38
295.756	346.38
295.987	355.38
296.217	396.38
296.448	370.38
296.679	345.38
296.909	350.38
297.14	372.38
297.37	366.38
297.601	357.38
297.831	361.38
298.062	362.38
298.292	374.38
298.523	368.38
298.753	386.38
298.984	392.38
299.214	376.38
299.445	370.38
299.675	361.38
299.905	386.38
300.136	384.38
300.366	397.38
300.597	389.38
300.827	404.38
301.057	393.38
301.288	398.38
301.518	408.38
301.748	392.38
301.979	387.38
302.209	400.38
302.439	410.38
302.669	407.38
302.9	390.38
303.13	399.38
303.36	388.38
303.59	404.38
303.82	413.38
304.051	407.38
304.281	397.38
304.511	390.38
304.741	393.38
304.971	409.38
305.201	380.38
305.431	390.38
305.661	406.38
305.891	386.38
306.121	397.38
306.352	411.38
306.582	411.38
306.812	407.38
307.042	388.38
307.272	401.38
307.502	365.38
307.731	393.38
307.961	398.38
308.191	405.38
308.421	404.38
308.651	405.38
308.881	385.38
309.111	385.38
309.341	386.38
309.571	413.38
309.8	402.38
310.03	381.38
310.26	435.38
310.49	421.38
310.72	428.38
310.949	435.38
311.179	414.38
311.409	445.38
311.639	418.38
311.868	438.38
312.098	397.38
312.328	436.38
312.557	423.38
312.787	427.38
313.017	443.38
313.246	458.38
313.476	434.38
313.706	438.38
313.935	437.38
314.165	443.38
314.394	468.38
314.624	469.38
314.853	441.38
315.083	444.38
315.312	440.38
315.542	443.38
315.771	438.38
316.001	424.38
316.23	434.38
316.46	446.38
316.689	438.38
316.919	438.38
317.148	445.38
317.377	448.38
317.607	446.38
317.836	427.38
318.065	412.38
318.295	436.38
318.524	436.38
318.753	408.38
318.983	440.38
319.212	431.38
319.441	432.38
319.67	449.38
319.9	434.38
320.129	446.38
320.358	424.38
320.587	442.38
320.816	440.38
321.046	448.38
321.275	443.38
321.504	454.38
321.733	462.38
321.962	446.38
322.191	446.38
322.42	443.38
322.649	463.38
322.878	466.38
323.108	471.38
323.337	475.38
323.566	477.38
323.795	510.38
324.024	525.38
324.253	596.38
324.482	716.38
324.71	981.38
324.939	1394.38
325.168	1244.38
325.397	698.38
325.626	586.38
325.855	517.38
326.084	520.38
326.313	497.38
326.542	508.38
326.77	533.38
326.999	562.38
327.228	682.38
327.457	956.38
327.686	1114.38
327.914	793.38
328.143	602.38
328.372	553.38
328.6	570.38
328.829	520.38
329.058	542.38
329.287	595.38
329.515	543.38
329.744	522.38
329.972	532.38
330.201	540.38
330.43	543.38
330.658	572.38
330.887	582.38
331.115	576.38
331.344	551.38
331.572	516.38
331.801	538.38
332.03	536.38
332.258	546.38
332.486	548.38
332.715	559.38
332.943	541.38
333.172	566.38
333.4	590.38
333.629	598.38
333.857	626.38
334.085	624.38
334.314	611.38
334.542	614.38
334.771	614.38
334.999	588.38
335.227	586.38
335.455	577.38
335.684	560.38
335.912	571.38
336.14	569.38
336.369	574.38
336.597	539.38
336.825	555.38
337.053	533.38
337.281	527.38
337.51	555.38
337.738	502.38
337.966	530.38
338.194	534.38
338.422	518.38
338.65	525.38
338.878	500.38
339.106	508.38
339.334	510.38
339.562	493.38
339.79	498.38
340.018	514.38
340.246	515.38
340.474	519.38
340.702	524.38
340.93	485.38
341.158	504.38
341.386	520.38
341.614	525.38
341.842	492.38
342.07	484.38
342.298	509.38
342.526	485.38
342.754	485.38
342.981	513.38
343.209	516.38
343.437	518.38
343.665	542.38
343.893	566.38
344.12	571.38
344.348	562.38
344.576	538.38
344.804	541.38
345.031	505.38
345.259	523.38
345.487	522.38
345.714	493.38
345.942	516.38
346.17	474.38
346.397	491.38
346.625	485.38
346.853	485.38
347.08	485.38
347.308	485.38
347.535	475.38
347.763	492.38
347.99	492.38
348.218	496.38
348.445	491.38
348.673	484.38
348.9	491.38
349.128	454.38
349.355	470.38
349.583	460.38
349.81	476.38
350.037	469.38
350.265	483.38
350.492	480.38
350.72	491.38
350.947	502.38
351.174	490.38
351.402	486.38
351.629	479.38
351.856	464.38
352.083	472.38
352.311	475.38
352.538	489.38
352.765	464.38
352.992	486.38
353.22	485.38
353.447	485.38
353.674	472.38
353.901	480.38
354.128	482.38
354.355	473.38
354.583	460.38
354.81	476.38
355.037	474.38
355.264	449.38
355.491	482.38
355.718	461.38
355.945	470.38
356.172	477.38
356.399	472.38
356.626	462.38
356.853	459.38
357.08	456.38
357.307	468.38
357.534	481.38
357.761	462.38
357.988	460.38
358.215	470.38
358.441	455.38
358.668	451.38
358.895	475.38
359.122	482.38
359.349	479.38
359.576	498.38
359.802	490.38
360.029	489.38
360.256	510.38
360.483	509.38
360.709	478.38
360.936	487.38
361.163	476.38
361.39	469.38
361.616	468.38
361.843	467.38
362.07	505.38
362.296	478.38
362.523	493.38
362.749	489.38
362.976	473.38
363.203	473.38
363.429	485.38
363.656	485.38
363.882	482.38
364.109	476.38
364.335	454.38
364.562	479.38
364.788	482.38
365.015	488.38
365.241	461.38
365.468	472.38
365.694	477.38
365.92	482.38
366.147	496.38
366.373	454.38
366.599	453.38
366.826	461.38
367.052	467.38
367.278	481.38
367.505	478.38
367.731	480.38
367.957	461.38
368.184	472.38
368.41	473.38
368.636	507.38
368.862	479.38
369.089	500.38
369.315	475.38
369.541	470.38
369.767	489.38
369.993	479.38
370.219	478.38
370.445	503.38
370.672	490.38
370.898	483.38
371.124	498.38
371.35	511.38
371.576	491.38
371.802	474.38
372.028	502.38
372.254	494.38
372.48	492.38
372.706	495.38
372.932	518.38
373.158	502.38
373.384	508.38
373.61	498.38
373.835	494.38
374.061	510.38
374.287	499.38
374.513	499.38
374.739	520.38
374.965	523.38
375.191	538.38
375.416	539.38
375.642	508.38
375.868	531.38
376.094	500.38
376.319	523.38
376.545	533.38
376.771	504.38
376.997	509.38
377.222	511.38
377.448	506.38
377.674	515.38
377.899	482.38
378.125	503.38
378.35	482.38
378.576	494.38
378.802	490.38
379.027	476.38
379.253	500.38
379.478	489.38
379.704	481.38
379.929	507.38
380.155	492.38
380.38	513.38
380.606	503.38
380.831	508.38
381.057	520.38
381.282	516.38
381.507	509.38
381.733	518.38
381.958	531.38
382.184	508.38
382.409	508.38
382.634	504.38
382.86	519.38
383.085	531.38
383.31	539.38
383.535	526.38
383.761	535.38
383.986	552.38
384.211	547.38
384.436	563.38
384.662	573.38
384.887	568.38
385.112	571.38
385.337	564.38
385.562	609.38
385.787	576.38
386.013	603.38
386.238	588.38
386.463	574.38
386.688	577.38
386.913	584.38
387.138	568.38
387.363	569.38
387.588	574.38
387.813	570.38
388.038	563.38
388.263	566.38
388.488	573.38
388.713	572.38
388.938	578.38
389.163	568.38
389.387	562.38
389.612	566.38
389.837	540.38
390.062	564.38
390.287	561.38
390.512	563.38
390.736	574.38
390.961	595.38
391.186	581.38
391.411	607.38
391.636	626.38
391.86	629.38
392.085	651.38
392.31	602.38
392.534	596.38
392.759	630.38
392.984	615.38
393.208	601.38
393.433	627.38
393.658	610.38
393.882	613.38
394.107	582.38
394.331	617.38
394.556	597.38
394.78	607.38
395.005	601.38
395.229	625.38
395.454	583.38
395.678	626.38
395.903	628.38
396.127	655.38
396.352	645.38
396.576	628.38
396.801	619.38
397.025	636.38
397.249	650.38
397.474	628.38
397.698	632.38
397.922	640.38
398.147	631.38
398.371	681.38
398.595	684.38
398.82	678.38
399.044	701.38
399.268	746.38
399.492	836.38
399.717	935.38
399.941	912.38
400.165	913.38
400.389	876.38
400.613	758.38
400.837	751.38
401.062	709.38
401.286	711.38
401.51	680.38
401.734	693.38
401.958	700.38
402.182	703.38
402.406	680.38
402.63	706.38
402.854	709.38
403.078	711.38
403.302	736.38
403.526	752.38
403.75	764.38
403.974	746.38
404.198	768.38
404.422	768.38
404.645	739.38
404.869	777.38
405.093	769.38
405.317	786.38
405.541	810.38
405.765	780.38
405.988	761.38
406.212	751.38
406.436	768.38
406.66	781.38
406.883	772.38
407.107	794.38
407.331	879.38
407.555	928.38
407.778	932.38
408.002	865.38
408.226	801.38
408.449	800.38
408.673	790.38
408.896	798.38
409.12	806.38
409.344	780.38
409.567	750.38
409.791	746.38
410.014	748.38
410.238	744.38
410.461	733.38
410.685	720.38
410.908	738.38
411.132	717.38
411.355	765.38
411.578	735.38
411.802	690.38
412.025	703.38
412.249	719.38
412.472	741.38
412.695	762.38
412.919	740.38
413.142	722.38
413.365	691.38
413.589	692.38
413.812	670.38
414.035	677.38
414.258	677.38
414.482	677.38
414.705	686.38
414.928	670.38
415.151	673.38
415.374	678.38
415.597	687.38
415.821	670.38
416.044	673.38
416.267	658.38
416.49	665.38
416.713	675.38
416.936	676.38
417.159	641.38
417.382	680.38
417.605	677.38
417.828	678.38
418.051	706.38
418.274	683.38
418.497	659.38
418.72	668.38
418.943	682.38
419.166	716.38
419.389	746.38
419.611	747.38
419.834	713.38
420.057	721.38
420.28	698.38
420.503	712.38
420.726	676.38
420.948	697.38
421.171	732.38
421.394	724.38
421.617	715.38
421.839	685.38
422.062	685.38
422.285	681.38
422.507	764.38
422.73	782.38
422.953	776.38
423.175	695.38
423.398	704.38
423.621	706.38
423.843	742.38
424.066	729.38
424.288	723.38
424.511	732.38
424.733	759.38
424.956	798.38
425.178	798.38
425.401	781.38
425.623	802.38
425.846	725.38
426.068	681.38
426.291	680.38
426.513	685.38
426.735	678.38
426.958	701.38
427.18	733.38
427.402	844.38
427.625	884.38
427.847	804.38
428.069	725.38
428.292	718.38
428.514	650.38
428.736	649.38
428.958	645.38
429.181	628.38
429.403	634.38
429.625	661.38
429.847	658.38
430.069	694.38
430.292	696.38
430.514	652.38
430.736	636.38
430.958	603.38
431.18	606.38
431.402	621.38
431.624	639.38
431.846	651.38
432.068	624.38
432.29	661.38
432.512	628.38
432.734	636.38
432.956	627.38
433.178	635.38
433.4	625.38
433.622	642.38
433.844	626.38
434.066	660.38
434.287	617.38
434.509	660.38
434.731	676.38
434.953	675.38
435.175	686.38
435.397	695.38
435.618	706.38
435.84	677.38
436.062	733.38
436.284	787.38
436.505	710.38
436.727	652.38
436.949	620.38
437.17	626.38
437.392	620.38
437.614	633.38
437.835	653.38
438.057	712.38
438.278	786.38
438.5	751.38
438.721	828.38
438.943	805.38
439.165	716.38
439.386	684.38
439.608	662.38
439.829	653.38
440.05	658.38
440.272	725.38
440.493	676.38
440.715	662.38
440.936	678.38
441.158	663.38
441.379	672.38
441.6	688.38
441.822	703.38
442.043	732.38
442.264	766.38
442.486	780.38
442.707	721.38
442.928	710.38
443.149	702.38
443.371	707.38
443.592	744.38
443.813	820.38
444.034	850.38
444.255	767.38
444.476	737.38
444.698	748.38
444.919	811.38
445.14	909.38
445.361	790.38
445.582	752.38
445.803	761.38
446.024	824.38
446.245	796.38
446.466	774.38
446.687	713.38
446.908	679.38
447.129	644.38
447.35	640.38
447.571	634.38
447.792	620.38
448.013	613.38
448.234	628.38
448.455	648.38
448.675	717.38
448.896	783.38
449.117	709.38
449.338	686.38
449.559	756.38
449.779	864.38
450	700.38
450.221	646.38
450.442	613.38
450.662	601.38
450.883	596.38
451.104	606.38
451.324	597.38
451.545	573.38
451.766	568.38
451.986	579.38
452.207	560.38
452.428	558.38
452.648	586.38
452.869	584.38
453.089	570.38
453.31	596.38
453.53	554.38
453.751	554.38
453.971	582.38
454.192	578.38
454.412	560.38
454.633	567.38
454.853	576.38
455.073	555.38
455.294	563.38
455.514	591.38
455.734	606.38
455.955	570.38
456.175	531.38
456.395	516.38
456.616	540.38
456.836	548.38
457.056	532.38
457.276	545.38
457.497	557.38
457.717	548.38
457.937	549.38
458.157	561.38
458.377	583.38
458.598	608.38
458.818	604.38
459.038	647.38
459.258	688.38
459.478	644.38
459.698	642.38
459.918	630.38
460.138	661.38
460.358	673.38
460.578	700.38
460.798	696.38
461.018	683.38
461.238	716.38
461.458	703.38
461.678	680.38
461.898	684.38
462.118	694.38
462.338	731.38
462.558	730.38
462.777	754.38
462.997	824.38
463.217	803.38
463.437	844.38
463.657	776.38
463.876	774.38
464.096	754.38
464.316	745.38
464.536	771.38
464.755	743.38
464.975	730.38
465.195	709.38
465.414	744.38
465.634	672.38
465.854	667.38
466.073	648.38
466.293	634.38
466.512	639.38
466.732	603.38
466.951	605.38
467.171	612.38
467.391	592.38
467.61	617.38
467.829	604.38
468.049	619.38
468.268	600.38
468.488	586.38
468.707	594.38
468.927	578.38
469.146	593.38
469.365	585.38
469.585	603.38
469.804	625.38
470.023	621.38
470.243	608.38
470.462	622.38
470.681	649.38
470.901	620.38
471.12	630.38
471.339	606.38
471.558	578.38
471.777	616.38
471.997	603.38
472.216	595.38
472.435	625.38
472.654	608.38
472.873	597.38
473.092	602.38
473.311	579.38
473.53	589.38
473.749	603.38
473.968	627.38
474.187	629.38
474.406	691.38
474.625	634.38
474.844	598.38
475.063	608.38
475.282	604.38
475.501	580.38
475.72	619.38
475.939	581.38
476.158	612.38
476.377	613.38
476.596	606.38
476.814	625.38
477.033	644.38
477.252	658.38
477.471	653.38
477.69	663.38
477.908	682.38
478.127	668.38
478.346	697.38
478.564	684.38
478.783	721.38
479.002	712.38
479.22	700.38
479.439	694.38
479.658	722.38
479.876	756.38
480.095	734.38
480.313	763.38
480.532	790.38
480.751	797.38
480.969	756.38
481.188	806.38
481.406	781.38
481.624	733.38
481.843	720.38
482.061	707.38
482.28	698.38
482.498	708.38
482.717	714.38
482.935	678.38
483.153	692.38
483.372	651.38
483.59	691.38
483.808	688.38
484.027	666.38
484.245	690.38
484.463	703.38
484.681	707.38
484.9	674.38
485.118	682.38
485.336	704.38
485.554	739.38
485.772	730.38
485.99	698.38
486.209	725.38
486.427	752.38
486.645	718.38
486.863	748.38
487.081	740.38
487.299	724.38
487.517	734.38
487.735	723.38
487.953	732.38
488.171	726.38
488.389	708.38
488.607	709.38
488.825	730.38
489.043	728.38
489.261	754.38
489.479	736.38
489.696	734.38
489.914	735.38
490.132	748.38
490.35	744.38
490.568	755.38
490.786	755.38
491.003	756.38
491.221	798.38
491.439	812.38
491.657	806.38
491.874	796.38
492.092	822.38
492.31	794.38
492.527	829.38
492.745	802.38
492.963	812.38
493.18	823.38
493.398	821.38
493.615	827.38
493.833	833.38
494.05	842.38
494.268	835.38
494.485	825.38
494.703	840.38
494.92	849.38
495.138	871.38
495.355	844.38
495.573	845.38
495.79	839.38
496.008	851.38
496.225	867.38
496.442	839.38
496.66	890.38
496.877	892.38
497.094	881.38
497.312	891.38
497.529	910.38
497.746	939.38
497.963	937.38
498.181	997.38
498.398	1016.38
498.615	1031.38
498.832	1116.38
499.049	1135.38
499.267	1190.38
499.484	1260.38
499.701	1369.38
499.918	1440.38
500.135	1588.38
500.352	1698.38
500.569	1764.38
500.786	1754.38
501.003	1718.38
501.22	1592.38
501.437	1475.38
501.654	1355.38
501.871	1306.38
502.088	1220.38
502.305	1140.38
502.522	1085.38
502.739	1058.38
502.956	989.38
503.172	1003.38
503.389	946.38
503.606	939.38
503.823	904.38
504.04	918.38
504.256	920.38
504.473	921.38
504.69	951.38
504.907	934.38
505.123	893.38
505.34	871.38
505.557	851.38
505.773	819.38
505.99	823.38
506.207	811.38
506.423	807.38
506.64	808.38
506.856	804.38
507.073	792.38
507.289	783.38
507.506	752.38
507.722	750.38
507.939	778.38
508.155	737.38
508.372	753.38
508.588	711.38
508.805	732.38
509.021	748.38
509.238	734.38
509.454	744.38
509.67	719.38
509.887	734.38
510.103	725.38
510.319	705.38
510.536	741.38
510.752	1037.38
510.968	898.38
511.184	714.38
511.401	702.38
511.617	697.38
511.833	692.38
512.049	692.38
512.265	709.38
512.481	705.38
512.698	684.38
512.914	689.38
513.13	712.38
513.346	690.38
513.562	685.38
513.778	676.38
513.994	691.38
514.21	704.38
514.426	714.38
514.642	715.38
514.858	721.38
515.074	781.38
515.29	827.38
515.506	1050.38
515.721	958.38
515.937	775.38
516.153	749.38
516.369	774.38
516.585	752.38
516.801	762.38
517.016	808.38
517.232	836.38
517.448	840.38
517.664	847.38
517.879	837.38
518.095	854.38
518.311	833.38
518.527	808.38
518.742	802.38
518.958	770.38
519.173	780.38
519.389	741.38
519.605	737.38
519.82	712.38
520.036	724.38
520.251	710.38
520.467	744.38
520.682	722.38
520.898	713.38
521.113	708.38
521.329	739.38
521.544	758.38
521.76	841.38
521.975	1218.38
522.19	1246.38
522.406	790.38
522.621	684.38
522.836	664.38
523.052	665.38
523.267	653.38
523.482	647.38
523.698	613.38
523.913	621.38
524.128	631.38
524.343	634.38
524.559	624.38
524.774	605.38
524.989	626.38
525.204	594.38
525.419	653.38
525.634	612.38
525.849	614.38
526.064	613.38
526.28	616.38
526.495	604.38
526.71	583.38
526.925	615.38
527.14	575.38
527.355	591.38
527.57	587.38
527.785	605.38
527.999	600.38
528.214	614.38
528.429	600.38
528.644	602.38
528.859	591.38
529.074	575.38
529.289	584.38
529.503	649.38
529.718	641.38
529.933	611.38
530.148	610.38
530.363	600.38
530.577	610.38
530.792	608.38
531.007	591.38
531.221	597.38
531.436	608.38
531.651	596.38
531.865	594.38
532.08	617.38
532.295	597.38
532.509	594.38
532.724	612.38
532.938	613.38
533.153	606.38
533.367	616.38
533.582	590.38
533.796	607.38
534.011	626.38
534.225	588.38
534.44	586.38
534.654	582.38
534.868	579.38
535.083	572.38
535.297	581.38
535.511	582.38
535.726	593.38
535.94	581.38
536.154	564.38
536.369	551.38
536.583	600.38
536.797	571.38
537.011	565.38
537.225	560.38
537.44	573.38
537.654	565.38
537.868	555.38
538.082	554.38
538.296	554.38
538.51	560.38
538.724	562.38
538.938	541.38
539.153	544.38
539.367	550.38
539.581	533.38
539.795	542.38
540.009	540.38
540.222	555.38
540.436	558.38
540.65	563.38
540.864	554.38
541.078	552.38
541.292	555.38
541.506	557.38
541.72	553.38
541.934	537.38
542.147	565.38
542.361	553.38
542.575	562.38
542.789	535.38
543.002	523.38
543.216	541.38
543.43	544.38
543.644	543.38
543.857	555.38
544.071	542.38
544.285	535.38
544.498	559.38
544.712	555.38
544.925	545.38
545.139	553.38
545.352	548.38
545.566	532.38
545.779	545.38
545.993	541.38
546.206	563.38
546.42	554.38
546.633	576.38
546.847	567.38
547.06	565.38
547.274	538.38
547.487	536.38
547.7	539.38
547.914	565.38
548.127	566.38
548.34	549.38
548.554	548.38
548.767	574.38
548.98	568.38
549.193	576.38
549.407	557.38
549.62	568.38
549.833	552.38
550.046	570.38
550.259	540.38
550.473	540.38
550.686	548.38
550.899	557.38
551.112	564.38
551.325	561.38
551.538	539.38
551.751	552.38
551.964	573.38
552.177	552.38
552.39	554.38
552.603	579.38
552.816	568.38
553.029	580.38
553.242	586.38
553.455	607.38
553.667	624.38
553.88	594.38
554.093	588.38
554.306	576.38
554.519	584.38
554.732	565.38
554.944	570.38
555.157	550.38
555.37	538.38
555.583	528.38
555.795	521.38
556.008	530.38
556.221	514.38
556.433	502.38
556.646	494.38
556.859	493.38
557.071	517.38
557.284	500.38
557.496	501.38
557.709	490.38
557.921	488.38
558.134	499.38
558.346	494.38
558.559	488.38
558.771	475.38
558.984	471.38
559.196	499.38
559.409	473.38
559.621	465.38
559.833	478.38
560.046	462.38
560.258	484.38
560.47	466.38
560.683	476.38
560.895	496.38
561.107	485.38
561.32	470.38
561.532	486.38
561.744	483.38
561.956	478.38
562.168	477.38
562.381	477.38
562.593	487.38
562.805	497.38
563.017	500.38
563.229	502.38
563.441	489.38
563.653	488.38
563.865	465.38
564.077	522.38
564.289	503.38
564.501	517.38
564.713	512.38
564.925	522.38
565.137	539.38
565.349	555.38
565.561	569.38
565.773	561.38
565.985	629.38
566.197	608.38
566.408	624.38
566.62	650.38
566.832	699.38
567.044	726.38
567.255	737.38
567.467	732.38
567.679	768.38
567.891	828.38
568.102	800.38
568.314	801.38
568.526	732.38
568.737	676.38
568.949	617.38
569.161	608.38
569.372	571.38
569.584	570.38
569.795	530.38
570.007	541.38
570.218	540.38
570.43	527.38
570.641	523.38
570.853	513.38
571.064	490.38
571.276	513.38
571.487	503.38
571.698	476.38
571.91	460.38
572.121	450.38
572.333	449.38
572.544	437.38
572.755	448.38
572.966	431.38
573.178	430.38
573.389	412.38
573.6	424.38
573.811	443.38
574.023	432.38
574.234	438.38
574.445	413.38
574.656	422.38
574.867	421.38
575.078	424.38
575.289	435.38
575.501	418.38
575.712	412.38
575.923	399.38
576.134	387.38
576.345	433.38
576.556	394.38
576.767	406.38
576.978	397.38
577.188	416.38
577.399	394.38
577.61	406.38
577.821	392.38
578.032	379.38
578.243	407.38
578.454	545.38
578.665	461.38
578.875	394.38
579.086	377.38
579.297	398.38
579.508	389.38
579.718	388.38
579.929	398.38
580.14	366.38
580.35	390.38
580.561	389.38
580.772	403.38
580.982	373.38
581.193	362.38
581.403	388.38
581.614	370.38
581.825	380.38
582.035	373.38
582.246	380.38
582.456	364.38
582.667	373.38
582.877	377.38
583.087	363.38
583.298	368.38
583.508	380.38
583.719	352.38
583.929	376.38
584.139	371.38
584.35	373.38
584.56	374.38
584.77	385.38
584.981	390.38
585.191	381.38
585.401	373.38
585.611	365.38
585.821	352.38
586.032	365.38
586.242	371.38
586.452	352.38
586.662	356.38
586.872	338.38
587.082	353.38
587.292	349.38
587.502	355.38
587.713	356.38
587.923	374.38
588.133	360.38
588.343	372.38
588.553	334.38
588.762	354.38
588.972	350.38
589.182	366.38
589.392	370.38
589.602	357.38
589.812	355.38
590.022	366.38
590.232	369.38
590.441	362.38
590.651	362.38
590.861	365.38
591.071	370.38
591.281	364.38
591.49	383.38
591.7	378.38
591.91	383.38
592.119	374.38
592.329	397.38
592.539	403.38
592.748	403.38
592.958	429.38
593.167	428.38
593.377	429.38
593.587	455.38
593.796	456.38
594.006	443.38
594.215	418.38
594.424	454.38
594.634	419.38
594.843	406.38
595.053	422.38
595.262	397.38
595.472	395.38
595.681	397.38
595.89	377.38
596.1	363.38
596.309	355.38
596.518	376.38
596.727	372.38
596.937	339.38
597.146	345.38
597.355	338.38
597.564	341.38
597.774	329.38
597.983	334.38
598.192	311.38
598.401	324.38
598.61	323.38
598.819	333.38
599.028	334.38
599.237	318.38
599.446	322.38
599.655	314.38
599.864	317.38
600.073	321.38
600.282	323.38
600.491	320.38
600.7	334.38
600.909	293.38
601.118	313.38
601.327	318.38
601.536	307.38
601.745	311.38
601.953	300.38
602.162	312.38
602.371	306.38
602.58	303.38
602.789	311.38
602.997	316.38
603.206	306.38
603.415	314.38
603.623	298.38
603.832	287.38
604.041	298.38
604.249	309.38
604.458	297.38
604.666	307.38
604.875	309.38
605.084	290.38
605.292	304.38
605.501	284.38
605.709	288.38
605.918	285.38
606.126	323.38
606.334	291.38
606.543	281.38
606.751	307.38
606.96	312.38
607.168	282.38
607.376	284.38
607.585	299.38
607.793	288.38
608.001	274.38
608.21	295.38
608.418	280.38
608.626	283.38
608.834	298.38
609.043	296.38
609.251	288.38
609.459	284.38
609.667	299.38
609.875	267.38
610.083	284.38
610.291	282.38
610.499	275.38
610.707	289.38
610.916	282.38
611.124	294.38
611.332	292.38
611.54	296.38
611.748	277.38
611.955	301.38
612.163	279.38
612.371	286.38
612.579	289.38
612.787	303.38
612.995	304.38
613.203	280.38
613.411	286.38
613.618	295.38
613.826	283.38
614.034	281.38
614.242	289.38
614.449	276.38
614.657	297.38
614.865	280.38
615.072	282.38
615.28	302.38
615.488	281.38
615.695	282.38
615.903	278.38
616.111	284.38
616.318	285.38
616.526	275.38
616.733	285.38
616.941	290.38
617.148	284.38
617.356	295.38
617.563	284.38
617.771	276.38
617.978	291.38
618.185	278.38
618.393	276.38
618.6	290.38
618.807	267.38
619.015	271.38
619.222	276.38
619.429	280.38
619.637	266.38
619.844	261.38
620.051	262.38
620.258	267.38
620.466	270.38
620.673	253.38
620.88	277.38
621.087	273.38
621.294	268.38
621.501	278.38
621.708	287.38
621.915	278.38
622.122	269.38
622.329	258.38
622.536	263.38
622.743	277.38
622.95	268.38
623.157	261.38
623.364	274.38
623.571	252.38
623.778	258.38
623.985	260.38
624.192	249.38
624.399	259.38
624.606	250.38
624.812	256.38
625.019	258.38
625.226	260.38
625.433	264.38
625.639	236.38
625.846	246.38
626.053	236.38
626.259	248.38
626.466	236.38
626.673	236.38
626.879	234.38
627.086	253.38
627.293	244.38
627.499	235.38
627.706	233.38
627.912	264.38
628.119	243.38
628.325	225.38
628.532	238.38
628.738	234.38
628.945	224.38
629.151	237.38
629.357	248.38
629.564	239.38
629.77	224.38
629.976	224.38
630.183	222.38
630.389	231.38
630.595	230.38
630.802	242.38
631.008	242.38
631.214	230.38
631.42	218.38
631.627	220.38
631.833	241.38
632.039	218.38
632.245	220.38
632.451	206.38
632.657	233.38
632.863	216.38
633.069	221.38
633.275	224.38
633.481	212.38
633.688	210.38
633.893	217.38
634.099	221.38
634.305	212.38
634.511	232.38
634.717	209.38
634.923	197.38
635.129	218.38
635.335	195.38
635.541	228.38
635.747	214.38
635.952	214.38
636.158	202.38
636.364	222.38
636.57	206.38
636.775	208.38
636.981	221.38
637.187	208.38
637.392	215.38
637.598	192.38
637.804	200.38
638.009	207.38
638.215	198.38
638.421	195.38
638.626	216.38
638.832	197.38
639.037	196.38
639.243	198.38
639.448	206.38
639.654	206.38
639.859	210.38
640.065	196.38
640.27	211.38
640.475	206.38
640.681	187.38
640.886	186.38
641.091	194.38
641.297	201.38
641.502	204.38
641.707	191.38
641.913	210.38
642.118	199.38
642.323	170.38
642.528	191.38
642.733	194.38
642.939	195.38
643.144	196.38
643.349	207.38
643.554	194.38
643.759	206.38
643.964	190.38
644.169	185.38
644.374	184.38
644.579	196.38
644.784	192.38
644.989	186.38
645.194	192.38
645.399	192.38
645.604	188.38
645.809	198.38
646.014	188.38
646.219	188.38
646.423	194.38
646.628	174.38
646.833	204.38
647.038	198.38
647.243	186.38
647.447	180.38
647.652	192.38
647.857	201.38
648.062	215.38
648.266	199.38
648.471	204.38
648.676	195.38
648.88	203.38
649.085	224.38
649.289	183.38
649.494	211.38
649.698	199.38
649.903	198.38
650.107	208.38
650.312	183.38
650.516	200.38
650.721	194.38
650.925	164.38
651.13	186.38
651.334	170.38
651.539	178.38
651.743	176.38
651.947	182.38
652.152	168.38
652.356	143.38
652.56	160.38
652.764	170.38
652.969	160.38
653.173	169.38
653.377	156.38
653.581	155.38
653.785	162.38
653.99	163.38
654.194	145.38
654.398	148.38
654.602	156.38
654.806	150.38
655.01	145.38
655.214	150.38
655.418	146.38
655.622	146.38
655.826	158.38
656.03	155.38
656.234	161.38
656.438	157.38
656.642	160.38
656.846	161.38
657.049	164.38
657.253	133.38
657.457	141.38
657.661	127.38
657.865	120.38
658.068	134.38
658.272	124.38
658.476	124.38
658.68	124.38
658.883	109.38
659.087	113.38
659.291	103.38
659.494	100.38
659.698	96.38
659.901	94.38
660.105	100.38
660.309	98.38
660.512	97.38
660.716	89.38
660.919	88.38
661.123	89.38
661.326	87.38
661.53	93.38
661.733	83.38
661.936	103.38
662.14	91.38
662.343	93.38
662.546	84.38
662.75	108.38
662.953	88.38
663.156	89.38
663.36	88.38
663.563	78.38
663.766	86.38
663.969	90.38
664.173	84.38
664.376	80.38
664.579	85.38
664.782	82.38
664.985	77.38
665.188	73.38
665.391	84.38
665.594	100.38
665.797	89.38
666	87.38
666.203	81.38
666.406	85.38
666.609	82.38
666.812	87.38
667.015	77.38
667.218	93.38
667.421	95.38
667.624	93.38
667.827	93.38
668.03	87.38
668.232	68.38
668.435	80.38
668.638	90.38
668.841	89.38
669.043	67.38
669.246	74.38
669.449	72.38
669.651	92.38
669.854	80.38
670.057	97.38
670.259	93.38
670.462	91.38
670.665	75.38
670.867	79.38
671.07	89.38
671.272	90.38
671.475	81.38
671.677	78.38
671.88	69.38
672.082	78.38
672.284	64.38
672.487	62.38
672.689	85.38
672.892	86.38
