Data from 1963.PennyLincolnUp.Lamp.En5.5.200Scan.071719.P1._HRD10591_13-57-48-062.txt Node
Date: Thu Jul 18 13:57:48 EDT 2019
User: cochatt
Spectrometer: HR+D1059
Trigger mode: 1
Integration Time (sec): 1.000000E-1
Scans to average: 1
Electric dark correction enabled: true
Nonlinearity correction enabled: false
Boxcar width: 0
XAxis mode: Wavelengths
Number of Pixels in Spectrum: 2048
>>>>>Begin Spectral Data<<<<<
223.165	-7.25
223.4	-7.25
223.635	-7.25
223.869	-6.25
224.104	-15.25
224.338	-23.25
224.573	-22.25
224.808	-15.25
225.042	-8.25
225.277	-9.25
225.511	-5.25
225.746	-0.25
225.98	16.75
226.215	7.75
226.449	24.75
226.683	16.75
226.918	15.75
227.152	30.75
227.387	39.75
227.621	30.75
227.856	27.75
228.09	36.75
228.324	50.75
228.559	63.75
228.793	67.75
229.027	80.75
229.262	89.75
229.496	100.75
229.73	117.75
229.964	145.75
230.199	123.75
230.433	124.75
230.667	121.75
230.901	122.75
231.136	111.75
231.37	121.75
231.604	115.75
231.838	119.75
232.072	107.75
232.306	107.75
232.541	111.75
232.775	126.75
233.009	116.75
233.243	114.75
233.477	101.75
233.711	112.75
233.945	120.75
234.179	121.75
234.413	115.75
234.647	122.75
234.881	118.75
235.115	122.75
235.349	127.75
235.583	131.75
235.817	128.75
236.051	124.75
236.285	121.75
236.519	121.75
236.753	133.75
236.987	129.75
237.221	149.75
237.455	188.75
237.689	162.75
237.922	146.75
238.156	143.75
238.39	129.75
238.624	124.75
238.858	123.75
239.091	122.75
239.325	131.75
239.559	127.75
239.793	129.75
240.027	140.75
240.26	142.75
240.494	154.75
240.728	145.75
240.961	130.75
241.195	158.75
241.429	153.75
241.662	149.75
241.896	147.75
242.13	140.75
242.363	147.75
242.597	150.75
242.83	152.75
243.064	138.75
243.298	151.75
243.531	148.75
243.765	139.75
243.998	139.75
244.232	138.75
244.465	154.75
244.699	140.75
244.932	155.75
245.166	159.75
245.399	154.75
245.633	156.75
245.866	155.75
246.099	158.75
246.333	159.75
246.566	161.75
246.8	156.75
247.033	154.75
247.266	161.75
247.5	179.75
247.733	156.75
247.966	189.75
248.2	166.75
248.433	179.75
248.666	188.75
248.899	178.75
249.133	188.75
249.366	205.75
249.599	186.75
249.832	183.75
250.066	191.75
250.299	186.75
250.532	200.75
250.765	208.75
250.998	204.75
251.231	201.75
251.465	208.75
251.698	212.75
251.931	188.75
252.164	207.75
252.397	206.75
252.63	214.75
252.863	207.75
253.096	215.75
253.329	218.75
253.562	236.75
253.795	216.75
254.028	215.75
254.261	200.75
254.494	206.75
254.727	220.75
254.96	231.75
255.193	257.75
255.426	234.75
255.659	219.75
255.892	242.75
256.124	226.75
256.357	244.75
256.59	225.75
256.823	200.75
257.056	223.75
257.289	221.75
257.521	227.75
257.754	229.75
257.987	229.75
258.22	227.75
258.452	218.75
258.685	233.75
258.918	229.75
259.151	230.75
259.383	220.75
259.616	203.75
259.849	208.75
260.081	252.75
260.314	242.75
260.547	251.75
260.779	249.75
261.012	226.75
261.244	222.75
261.477	231.75
261.71	221.75
261.942	231.75
262.175	223.75
262.407	250.75
262.64	227.75
262.872	209.75
263.105	222.75
263.337	231.75
263.57	208.75
263.802	219.75
264.035	226.75
264.267	250.75
264.499	225.75
264.732	229.75
264.964	254.75
265.197	255.75
265.429	243.75
265.661	232.75
265.894	251.75
266.126	254.75
266.358	258.75
266.591	239.75
266.823	242.75
267.055	232.75
267.287	240.75
267.52	260.75
267.752	246.75
267.984	252.75
268.216	249.75
268.448	268.75
268.681	230.75
268.913	244.75
269.145	272.75
269.377	286.75
269.609	280.75
269.841	262.75
270.073	273.75
270.306	295.75
270.538	307.75
270.77	307.75
271.002	281.75
271.234	286.75
271.466	300.75
271.698	303.75
271.93	300.75
272.162	316.75
272.394	315.75
272.626	314.75
272.858	284.75
273.09	301.75
273.322	296.75
273.553	282.75
273.785	269.75
274.017	288.75
274.249	278.75
274.481	273.75
274.713	280.75
274.945	302.75
275.176	284.75
275.408	295.75
275.64	294.75
275.872	283.75
276.104	291.75
276.335	289.75
276.567	320.75
276.799	294.75
277.031	319.75
277.262	297.75
277.494	328.75
277.726	296.75
277.957	316.75
278.189	300.75
278.421	299.75
278.652	306.75
278.884	310.75
279.115	320.75
279.347	300.75
279.579	310.75
279.81	314.75
280.042	296.75
280.273	294.75
280.505	300.75
280.736	311.75
280.968	296.75
281.199	300.75
281.431	307.75
281.662	304.75
281.894	319.75
282.125	336.75
282.356	327.75
282.588	330.75
282.819	325.75
283.051	315.75
283.282	314.75
283.513	327.75
283.745	320.75
283.976	312.75
284.207	319.75
284.439	308.75
284.67	329.75
284.901	334.75
285.132	327.75
285.364	318.75
285.595	321.75
285.826	302.75
286.057	324.75
286.288	342.75
286.52	338.75
286.751	335.75
286.982	340.75
287.213	330.75
287.444	316.75
287.675	339.75
287.906	338.75
288.138	341.75
288.369	336.75
288.6	343.75
288.831	331.75
289.062	356.75
289.293	335.75
289.524	348.75
289.755	339.75
289.986	343.75
290.217	344.75
290.448	337.75
290.679	343.75
290.91	343.75
291.141	354.75
291.371	326.75
291.602	326.75
291.833	353.75
292.064	352.75
292.295	349.75
292.526	351.75
292.757	342.75
292.987	347.75
293.218	340.75
293.449	347.75
293.68	354.75
293.91	338.75
294.141	358.75
294.372	331.75
294.603	360.75
294.833	387.75
295.064	357.75
295.295	374.75
295.525	370.75
295.756	350.75
295.987	368.75
296.217	380.75
296.448	384.75
296.679	369.75
296.909	368.75
297.14	353.75
297.37	362.75
297.601	371.75
297.831	362.75
298.062	374.75
298.292	368.75
298.523	369.75
298.753	380.75
298.984	381.75
299.214	373.75
299.445	374.75
299.675	369.75
299.905	374.75
300.136	384.75
300.366	376.75
300.597	388.75
300.827	388.75
301.057	394.75
301.288	397.75
301.518	382.75
301.748	388.75
301.979	389.75
302.209	400.75
302.439	408.75
302.669	409.75
302.9	380.75
303.13	381.75
303.36	393.75
303.59	379.75
303.82	403.75
304.051	423.75
304.281	407.75
304.511	395.75
304.741	403.75
304.971	395.75
305.201	390.75
305.431	395.75
305.661	410.75
305.891	389.75
306.121	376.75
306.352	392.75
306.582	417.75
306.812	386.75
307.042	416.75
307.272	393.75
307.502	366.75
307.731	404.75
307.961	378.75
308.191	399.75
308.421	402.75
308.651	400.75
308.881	388.75
309.111	391.75
309.341	396.75
309.571	416.75
309.8	423.75
310.03	396.75
310.26	435.75
310.49	418.75
310.72	416.75
310.949	408.75
311.179	417.75
311.409	432.75
311.639	411.75
311.868	424.75
312.098	420.75
312.328	412.75
312.557	421.75
312.787	420.75
313.017	456.75
313.246	444.75
313.476	442.75
313.706	446.75
313.935	423.75
314.165	437.75
314.394	430.75
314.624	447.75
314.853	439.75
315.083	442.75
315.312	432.75
315.542	438.75
315.771	425.75
316.001	420.75
316.23	436.75
316.46	435.75
316.689	437.75
316.919	444.75
317.148	447.75
317.377	448.75
317.607	441.75
317.836	440.75
318.065	426.75
318.295	439.75
318.524	436.75
318.753	458.75
318.983	434.75
319.212	424.75
319.441	438.75
319.67	441.75
319.9	429.75
320.129	444.75
320.358	420.75
320.587	446.75
320.816	418.75
321.046	452.75
321.275	427.75
321.504	452.75
321.733	451.75
321.962	449.75
322.191	475.75
322.42	453.75
322.649	487.75
322.878	482.75
323.108	478.75
323.337	480.75
323.566	502.75
323.795	508.75
324.024	547.75
324.253	595.75
324.482	726.75
324.71	1030.75
324.939	1424.75
325.168	1237.75
325.397	735.75
325.626	564.75
325.855	486.75
326.084	497.75
326.313	495.75
326.542	467.75
326.77	554.75
326.999	587.75
327.228	686.75
327.457	948.75
327.686	1196.75
327.914	831.75
328.143	620.75
328.372	581.75
328.6	540.75
328.829	551.75
329.058	545.75
329.287	536.75
329.515	539.75
329.744	539.75
329.972	512.75
330.201	524.75
330.43	552.75
330.658	552.75
330.887	547.75
331.115	564.75
331.344	547.75
331.572	535.75
331.801	546.75
332.03	547.75
332.258	522.75
332.486	543.75
332.715	556.75
332.943	558.75
333.172	580.75
333.4	600.75
333.629	575.75
333.857	623.75
334.085	614.75
334.314	604.75
334.542	620.75
334.771	648.75
334.999	608.75
335.227	568.75
335.455	574.75
335.684	556.75
335.912	569.75
336.14	565.75
336.369	567.75
336.597	563.75
336.825	572.75
337.053	555.75
337.281	544.75
337.51	537.75
337.738	530.75
337.966	547.75
338.194	535.75
338.422	534.75
338.65	526.75
338.878	516.75
339.106	516.75
339.334	542.75
339.562	511.75
339.79	501.75
340.018	514.75
340.246	517.75
340.474	502.75
340.702	499.75
340.93	500.75
341.158	518.75
341.386	488.75
341.614	492.75
341.842	490.75
342.07	492.75
342.298	506.75
342.526	499.75
342.754	482.75
342.981	497.75
343.209	535.75
343.437	520.75
343.665	521.75
343.893	569.75
344.12	572.75
344.348	535.75
344.576	535.75
344.804	546.75
345.031	508.75
345.259	543.75
345.487	526.75
345.714	487.75
345.942	498.75
346.17	506.75
346.397	505.75
346.625	490.75
346.853	495.75
347.08	469.75
347.308	491.75
347.535	481.75
347.763	494.75
347.99	492.75
348.218	462.75
348.445	491.75
348.673	497.75
348.9	496.75
349.128	483.75
349.355	477.75
349.583	461.75
349.81	485.75
350.037	459.75
350.265	475.75
350.492	458.75
350.72	473.75
350.947	463.75
351.174	492.75
351.402	476.75
351.629	488.75
351.856	485.75
352.083	485.75
352.311	490.75
352.538	461.75
352.765	498.75
352.992	475.75
353.22	485.75
353.447	454.75
353.674	460.75
353.901	480.75
354.128	462.75
354.355	458.75
354.583	473.75
354.81	456.75
355.037	444.75
355.264	464.75
355.491	468.75
355.718	457.75
355.945	465.75
356.172	458.75
356.399	464.75
356.626	459.75
356.853	492.75
357.08	460.75
357.307	474.75
357.534	462.75
357.761	480.75
357.988	441.75
358.215	466.75
358.441	459.75
358.668	476.75
358.895	460.75
359.122	469.75
359.349	489.75
359.576	466.75
359.802	482.75
360.029	508.75
360.256	487.75
360.483	510.75
360.709	490.75
360.936	474.75
361.163	471.75
361.39	491.75
361.616	504.75
361.843	472.75
362.07	479.75
362.296	482.75
362.523	478.75
362.749	488.75
362.976	475.75
363.203	464.75
363.429	468.75
363.656	483.75
363.882	480.75
364.109	476.75
364.335	459.75
364.562	471.75
364.788	458.75
365.015	477.75
365.241	477.75
365.468	482.75
365.694	475.75
365.92	469.75
366.147	477.75
366.373	468.75
366.599	441.75
366.826	491.75
367.052	471.75
367.278	477.75
367.505	495.75
367.731	476.75
367.957	490.75
368.184	483.75
368.41	506.75
368.636	503.75
368.862	490.75
369.089	514.75
369.315	478.75
369.541	471.75
369.767	472.75
369.993	491.75
370.219	470.75
370.445	491.75
370.672	482.75
370.898	491.75
371.124	486.75
371.35	494.75
371.576	510.75
371.802	498.75
372.028	471.75
372.254	473.75
372.48	502.75
372.706	498.75
372.932	503.75
373.158	517.75
373.384	518.75
373.61	508.75
373.835	483.75
374.061	526.75
374.287	499.75
374.513	521.75
374.739	509.75
374.965	504.75
375.191	528.75
375.416	508.75
375.642	537.75
375.868	528.75
376.094	508.75
376.319	503.75
376.545	523.75
376.771	501.75
376.997	469.75
377.222	498.75
377.448	497.75
377.674	477.75
377.899	478.75
378.125	479.75
378.35	500.75
378.576	500.75
378.802	505.75
379.027	467.75
379.253	489.75
379.478	484.75
379.704	488.75
379.929	490.75
380.155	481.75
380.38	499.75
380.606	510.75
380.831	518.75
381.057	505.75
381.282	483.75
381.507	490.75
381.733	502.75
381.958	518.75
382.184	516.75
382.409	514.75
382.634	510.75
382.86	518.75
383.085	505.75
383.31	531.75
383.535	516.75
383.761	545.75
383.986	545.75
384.211	546.75
384.436	545.75
384.662	547.75
384.887	564.75
385.112	571.75
385.337	570.75
385.562	584.75
385.787	588.75
386.013	570.75
386.238	580.75
386.463	587.75
386.688	587.75
386.913	574.75
387.138	552.75
387.363	572.75
387.588	577.75
387.813	567.75
388.038	546.75
388.263	586.75
388.488	574.75
388.713	568.75
388.938	563.75
389.163	550.75
389.387	562.75
389.612	576.75
389.837	544.75
390.062	556.75
390.287	541.75
390.512	547.75
390.736	575.75
390.961	578.75
391.186	593.75
391.411	622.75
391.636	603.75
391.86	594.75
392.085	600.75
392.31	625.75
392.534	604.75
392.759	593.75
392.984	597.75
393.208	611.75
393.433	600.75
393.658	615.75
393.882	597.75
394.107	587.75
394.331	604.75
394.556	608.75
394.78	602.75
395.005	588.75
395.229	616.75
395.454	627.75
395.678	606.75
395.903	628.75
396.127	654.75
396.352	633.75
396.576	609.75
396.801	601.75
397.025	630.75
397.249	632.75
397.474	634.75
397.698	625.75
397.922	635.75
398.147	664.75
398.371	668.75
398.595	660.75
398.82	691.75
399.044	695.75
399.268	755.75
399.492	844.75
399.717	898.75
399.941	933.75
400.165	877.75
400.389	828.75
400.613	762.75
400.837	761.75
401.062	717.75
401.286	707.75
401.51	687.75
401.734	696.75
401.958	695.75
402.182	702.75
402.406	709.75
402.63	728.75
402.854	712.75
403.078	710.75
403.302	729.75
403.526	727.75
403.75	752.75
403.974	755.75
404.198	743.75
404.422	772.75
404.645	754.75
404.869	727.75
405.093	781.75
405.317	816.75
405.541	816.75
405.765	729.75
405.988	760.75
406.212	761.75
406.436	743.75
406.66	806.75
406.883	752.75
407.107	820.75
407.331	838.75
407.555	893.75
407.778	918.75
408.002	841.75
408.226	804.75
408.449	786.75
408.673	789.75
408.896	783.75
409.12	832.75
409.344	809.75
409.567	728.75
409.791	735.75
410.014	728.75
410.238	724.75
410.461	727.75
410.685	713.75
410.908	712.75
411.132	730.75
411.355	730.75
411.578	730.75
411.802	728.75
412.025	690.75
412.249	712.75
412.472	755.75
412.695	735.75
412.919	746.75
413.142	702.75
413.365	686.75
413.589	689.75
413.812	671.75
414.035	680.75
414.258	684.75
414.482	661.75
414.705	683.75
414.928	662.75
415.151	688.75
415.374	688.75
415.597	696.75
415.821	672.75
416.044	678.75
416.267	677.75
416.49	663.75
416.713	681.75
416.936	653.75
417.159	671.75
417.382	674.75
417.605	699.75
417.828	696.75
418.051	700.75
418.274	662.75
418.497	664.75
418.72	687.75
418.943	683.75
419.166	698.75
419.389	750.75
419.611	738.75
419.834	738.75
420.057	727.75
420.28	705.75
420.503	657.75
420.726	676.75
420.948	688.75
421.171	716.75
421.394	735.75
421.617	679.75
421.839	673.75
422.062	680.75
422.285	674.75
422.507	725.75
422.73	811.75
422.953	762.75
423.175	727.75
423.398	704.75
423.621	742.75
423.843	752.75
424.066	715.75
424.288	722.75
424.511	724.75
424.733	771.75
424.956	797.75
425.178	809.75
425.401	786.75
425.623	788.75
425.846	709.75
426.068	720.75
426.291	679.75
426.513	692.75
426.735	685.75
426.958	730.75
427.18	768.75
427.402	885.75
427.625	907.75
427.847	799.75
428.069	739.75
428.292	704.75
428.514	675.75
428.736	634.75
428.958	640.75
429.181	624.75
429.403	606.75
429.625	631.75
429.847	645.75
430.069	681.75
430.292	695.75
430.514	642.75
430.736	648.75
430.958	632.75
431.18	632.75
431.402	618.75
431.624	609.75
431.846	631.75
432.068	620.75
432.29	612.75
432.512	618.75
432.734	639.75
432.956	642.75
433.178	632.75
433.4	635.75
433.622	628.75
433.844	629.75
434.066	674.75
434.287	653.75
434.509	647.75
434.731	656.75
434.953	673.75
435.175	707.75
435.397	706.75
435.618	681.75
435.84	672.75
436.062	730.75
436.284	810.75
436.505	706.75
436.727	662.75
436.949	635.75
437.17	630.75
437.392	608.75
437.614	608.75
437.835	629.75
438.057	694.75
438.278	768.75
438.5	809.75
438.721	828.75
438.943	799.75
439.165	690.75
439.386	678.75
439.608	682.75
439.829	652.75
440.05	667.75
440.272	715.75
440.493	677.75
440.715	640.75
440.936	632.75
441.158	676.75
441.379	660.75
441.6	688.75
441.822	683.75
442.043	721.75
442.264	796.75
442.486	788.75
442.707	741.75
442.928	706.75
443.149	712.75
443.371	720.75
443.592	731.75
443.813	816.75
444.034	865.75
444.255	810.75
444.476	760.75
444.698	766.75
444.919	770.75
445.14	902.75
445.361	814.75
445.582	738.75
445.803	770.75
446.024	835.75
446.245	799.75
446.466	746.75
446.687	674.75
446.908	659.75
447.129	651.75
447.35	623.75
447.571	619.75
447.792	620.75
448.013	623.75
448.234	632.75
448.455	654.75
448.675	730.75
448.896	801.75
449.117	706.75
449.338	675.75
449.559	768.75
449.779	839.75
450	675.75
450.221	612.75
450.442	596.75
450.662	611.75
450.883	591.75
451.104	607.75
451.324	608.75
451.545	582.75
451.766	574.75
451.986	576.75
452.207	575.75
452.428	576.75
452.648	577.75
452.869	558.75
453.089	563.75
453.31	582.75
453.53	578.75
453.751	563.75
453.971	558.75
454.192	581.75
454.412	536.75
454.633	547.75
454.853	537.75
455.073	560.75
455.294	568.75
455.514	612.75
455.734	592.75
455.955	549.75
456.175	551.75
456.395	529.75
456.616	542.75
456.836	558.75
457.056	544.75
457.276	533.75
457.497	532.75
457.717	532.75
457.937	560.75
458.157	560.75
458.377	561.75
458.598	562.75
458.818	601.75
459.038	674.75
459.258	696.75
459.478	636.75
459.698	652.75
459.918	637.75
460.138	650.75
460.358	664.75
460.578	690.75
460.798	692.75
461.018	695.75
461.238	675.75
461.458	677.75
461.678	677.75
461.898	682.75
462.118	695.75
462.338	738.75
462.558	738.75
462.777	742.75
462.997	792.75
463.217	854.75
463.437	858.75
463.657	805.75
463.876	754.75
464.096	755.75
464.316	768.75
464.536	786.75
464.755	793.75
464.975	726.75
465.195	733.75
465.414	776.75
465.634	704.75
465.854	675.75
466.073	634.75
466.293	634.75
466.512	608.75
466.732	616.75
466.951	606.75
467.171	588.75
467.391	583.75
467.61	606.75
467.829	618.75
468.049	602.75
468.268	588.75
468.488	577.75
468.707	580.75
468.927	574.75
469.146	592.75
469.365	591.75
469.585	567.75
469.804	596.75
470.023	610.75
470.243	619.75
470.462	624.75
470.681	648.75
470.901	631.75
471.12	629.75
471.339	628.75
471.558	598.75
471.777	606.75
471.997	612.75
472.216	589.75
472.435	625.75
472.654	589.75
472.873	578.75
473.092	596.75
473.311	588.75
473.53	586.75
473.749	637.75
473.968	619.75
474.187	672.75
474.406	691.75
474.625	617.75
474.844	596.75
475.063	608.75
475.282	591.75
475.501	611.75
475.72	617.75
475.939	614.75
476.158	615.75
476.377	602.75
476.596	612.75
476.814	620.75
477.033	640.75
477.252	656.75
477.471	631.75
477.69	649.75
477.908	665.75
478.127	673.75
478.346	676.75
478.564	679.75
478.783	682.75
479.002	711.75
479.22	721.75
479.439	724.75
479.658	724.75
479.876	720.75
480.095	731.75
480.313	770.75
480.532	778.75
480.751	806.75
480.969	767.75
481.188	792.75
481.406	793.75
481.624	734.75
481.843	709.75
482.061	703.75
482.28	698.75
482.498	697.75
482.717	710.75
482.935	688.75
483.153	687.75
483.372	667.75
483.59	688.75
483.808	714.75
484.027	683.75
484.245	703.75
484.463	686.75
484.681	697.75
484.9	713.75
485.118	695.75
485.336	669.75
485.554	716.75
485.772	712.75
485.99	729.75
486.209	735.75
486.427	726.75
486.645	745.75
486.863	745.75
487.081	738.75
487.299	710.75
487.517	729.75
487.735	765.75
487.953	732.75
488.171	735.75
488.389	739.75
488.607	759.75
488.825	772.75
489.043	737.75
489.261	755.75
489.479	729.75
489.696	743.75
489.914	738.75
490.132	746.75
490.35	763.75
490.568	741.75
490.786	778.75
491.003	804.75
491.221	786.75
491.439	798.75
491.657	773.75
491.874	782.75
492.092	788.75
492.31	816.75
492.527	814.75
492.745	803.75
492.963	812.75
493.18	832.75
493.398	837.75
493.615	823.75
493.833	837.75
494.05	811.75
494.268	834.75
494.485	822.75
494.703	817.75
494.92	834.75
495.138	839.75
495.355	855.75
495.573	848.75
495.79	832.75
496.008	843.75
496.225	850.75
496.442	845.75
496.66	858.75
496.877	857.75
497.094	863.75
497.312	866.75
497.529	895.75
497.746	933.75
497.963	942.75
498.181	958.75
498.398	985.75
498.615	999.75
498.832	1058.75
499.049	1101.75
499.267	1191.75
499.484	1272.75
499.701	1351.75
499.918	1439.75
500.135	1513.75
500.352	1690.75
500.569	1733.75
500.786	1734.75
501.003	1678.75
501.22	1578.75
501.437	1444.75
501.654	1343.75
501.871	1243.75
502.088	1214.75
502.305	1141.75
502.522	1086.75
502.739	1065.75
502.956	1044.75
503.172	976.75
503.389	966.75
503.606	951.75
503.823	923.75
504.04	913.75
504.256	904.75
504.473	934.75
504.69	904.75
504.907	937.75
505.123	890.75
505.34	867.75
505.557	830.75
505.773	812.75
505.99	792.75
506.207	808.75
506.423	798.75
506.64	776.75
506.856	790.75
507.073	778.75
507.289	776.75
507.506	761.75
507.722	754.75
507.939	773.75
508.155	744.75
508.372	745.75
508.588	730.75
508.805	739.75
509.021	707.75
509.238	711.75
509.454	742.75
509.67	723.75
509.887	726.75
510.103	722.75
510.319	727.75
510.536	768.75
510.752	1048.75
510.968	933.75
511.184	723.75
511.401	704.75
511.617	692.75
511.833	714.75
512.049	699.75
512.265	706.75
512.481	691.75
512.698	673.75
512.914	692.75
513.13	711.75
513.346	684.75
513.562	682.75
513.778	701.75
513.994	680.75
514.21	707.75
514.426	711.75
514.642	728.75
514.858	732.75
515.074	759.75
515.29	823.75
515.506	1078.75
515.721	996.75
515.937	786.75
516.153	771.75
516.369	742.75
516.585	752.75
516.801	752.75
517.016	788.75
517.232	834.75
517.448	840.75
517.664	864.75
517.879	848.75
518.095	871.75
518.311	833.75
518.527	834.75
518.742	794.75
518.958	774.75
519.173	758.75
519.389	750.75
519.605	726.75
519.82	714.75
520.036	739.75
520.251	716.75
520.467	739.75
520.682	720.75
520.898	719.75
521.113	725.75
521.329	731.75
521.544	773.75
521.76	872.75
521.975	1236.75
522.19	1307.75
522.406	846.75
522.621	715.75
522.836	681.75
523.052	666.75
523.267	633.75
523.482	636.75
523.698	632.75
523.913	615.75
524.128	644.75
524.343	632.75
524.559	639.75
524.774	610.75
524.989	635.75
525.204	630.75
525.419	639.75
525.634	630.75
525.849	598.75
526.064	600.75
526.28	600.75
526.495	602.75
526.71	612.75
526.925	597.75
527.14	583.75
527.355	572.75
527.57	588.75
527.785	583.75
527.999	583.75
528.214	581.75
528.429	601.75
528.644	582.75
528.859	588.75
529.074	582.75
529.289	610.75
529.503	640.75
529.718	634.75
529.933	608.75
530.148	591.75
530.363	592.75
530.577	593.75
530.792	597.75
531.007	593.75
531.221	583.75
531.436	599.75
531.651	617.75
531.865	599.75
532.08	575.75
532.295	602.75
532.509	580.75
532.724	595.75
532.938	588.75
533.153	574.75
533.367	587.75
533.582	593.75
533.796	579.75
534.011	586.75
534.225	574.75
534.44	583.75
534.654	606.75
534.868	609.75
535.083	596.75
535.297	588.75
535.511	561.75
535.726	569.75
535.94	594.75
536.154	559.75
536.369	556.75
536.583	560.75
536.797	554.75
537.011	566.75
537.225	555.75
537.44	570.75
537.654	546.75
537.868	568.75
538.082	562.75
538.296	536.75
538.51	564.75
538.724	585.75
538.938	563.75
539.153	548.75
539.367	548.75
539.581	571.75
539.795	534.75
540.009	546.75
540.222	552.75
540.436	540.75
540.65	546.75
540.864	543.75
541.078	572.75
541.292	555.75
541.506	560.75
541.72	526.75
541.934	534.75
542.147	534.75
542.361	559.75
542.575	536.75
542.789	553.75
543.002	516.75
543.216	544.75
543.43	563.75
543.644	553.75
543.857	545.75
544.071	559.75
544.285	574.75
544.498	564.75
544.712	550.75
544.925	539.75
545.139	556.75
545.352	563.75
545.566	544.75
545.779	555.75
545.993	564.75
546.206	574.75
546.42	554.75
546.633	571.75
546.847	566.75
547.06	530.75
547.274	516.75
547.487	538.75
547.7	533.75
547.914	551.75
548.127	552.75
548.34	546.75
548.554	547.75
548.767	539.75
548.98	545.75
549.193	553.75
549.407	560.75
549.62	563.75
549.833	557.75
550.046	548.75
550.259	571.75
550.473	563.75
550.686	555.75
550.899	563.75
551.112	542.75
551.325	548.75
551.538	556.75
551.751	539.75
551.964	568.75
552.177	551.75
552.39	553.75
552.603	582.75
552.816	587.75
553.029	582.75
553.242	610.75
553.455	596.75
553.667	622.75
553.88	617.75
554.093	608.75
554.306	555.75
554.519	579.75
554.732	552.75
554.944	546.75
555.157	533.75
555.37	536.75
555.583	538.75
555.795	531.75
556.008	508.75
556.221	507.75
556.433	492.75
556.646	504.75
556.859	508.75
557.071	495.75
557.284	513.75
557.496	486.75
557.709	465.75
557.921	475.75
558.134	491.75
558.346	491.75
558.559	485.75
558.771	489.75
558.984	511.75
559.196	474.75
559.409	467.75
559.621	485.75
559.833	475.75
560.046	469.75
560.258	472.75
560.47	477.75
560.683	476.75
560.895	472.75
561.107	476.75
561.32	455.75
561.532	474.75
561.744	468.75
561.956	502.75
562.168	458.75
562.381	483.75
562.593	475.75
562.805	491.75
563.017	494.75
563.229	484.75
563.441	487.75
563.653	495.75
563.865	500.75
564.077	496.75
564.289	491.75
564.501	523.75
564.713	519.75
564.925	515.75
565.137	517.75
565.349	544.75
565.561	573.75
565.773	546.75
565.985	596.75
566.197	607.75
566.408	646.75
566.62	698.75
566.832	695.75
567.044	715.75
567.255	714.75
567.467	725.75
567.679	762.75
567.891	818.75
568.102	813.75
568.314	786.75
568.526	729.75
568.737	670.75
568.949	656.75
569.161	614.75
569.372	585.75
569.584	543.75
569.795	552.75
570.007	517.75
570.218	552.75
570.43	533.75
570.641	502.75
570.853	510.75
571.064	467.75
571.276	515.75
571.487	501.75
571.698	455.75
571.91	467.75
572.121	474.75
572.333	436.75
572.544	455.75
572.755	448.75
572.966	439.75
573.178	459.75
573.389	431.75
573.6	423.75
573.811	420.75
574.023	432.75
574.234	421.75
574.445	422.75
574.656	431.75
574.867	416.75
575.078	437.75
575.289	433.75
575.501	415.75
575.712	402.75
575.923	404.75
576.134	395.75
576.345	422.75
576.556	416.75
576.767	406.75
576.978	395.75
577.188	414.75
577.399	412.75
577.61	389.75
577.821	402.75
578.032	391.75
578.243	406.75
578.454	532.75
578.665	442.75
578.875	401.75
579.086	386.75
579.297	386.75
579.508	395.75
579.718	385.75
579.929	386.75
580.14	378.75
580.35	359.75
580.561	379.75
580.772	374.75
580.982	402.75
581.193	366.75
581.403	374.75
581.614	366.75
581.825	385.75
582.035	378.75
582.246	359.75
582.456	356.75
582.667	366.75
582.877	372.75
583.087	369.75
583.298	374.75
583.508	370.75
583.719	346.75
583.929	352.75
584.139	350.75
584.35	362.75
584.56	343.75
584.77	370.75
584.981	362.75
585.191	361.75
585.401	362.75
585.611	372.75
585.821	365.75
586.032	391.75
586.242	367.75
586.452	355.75
586.662	365.75
586.872	356.75
587.082	382.75
587.292	352.75
587.502	362.75
587.713	363.75
587.923	355.75
588.133	357.75
588.343	364.75
588.553	353.75
588.762	376.75
588.972	352.75
589.182	367.75
589.392	372.75
589.602	363.75
589.812	369.75
590.022	366.75
590.232	367.75
590.441	352.75
590.651	375.75
590.861	370.75
591.071	366.75
591.281	369.75
591.49	374.75
591.7	386.75
591.91	392.75
592.119	390.75
592.329	375.75
592.539	402.75
592.748	427.75
592.958	415.75
593.167	439.75
593.377	408.75
593.587	458.75
593.796	442.75
594.006	439.75
594.215	424.75
594.424	441.75
594.634	405.75
594.843	411.75
595.053	416.75
595.262	410.75
595.472	381.75
595.681	397.75
595.89	364.75
596.1	379.75
596.309	390.75
596.518	358.75
596.727	336.75
596.937	357.75
597.146	354.75
597.355	342.75
597.564	331.75
597.774	346.75
597.983	335.75
598.192	330.75
598.401	320.75
598.61	345.75
598.819	320.75
599.028	324.75
599.237	307.75
599.446	329.75
599.655	331.75
599.864	311.75
600.073	308.75
600.282	318.75
600.491	321.75
600.7	313.75
600.909	310.75
601.118	326.75
601.327	327.75
601.536	315.75
601.745	311.75
601.953	311.75
602.162	287.75
602.371	302.75
602.58	313.75
602.789	302.75
602.997	322.75
603.206	306.75
603.415	300.75
603.623	273.75
603.832	299.75
604.041	315.75
604.249	288.75
604.458	296.75
604.666	305.75
604.875	303.75
605.084	280.75
605.292	305.75
605.501	293.75
605.709	296.75
605.918	300.75
606.126	297.75
606.334	308.75
606.543	298.75
606.751	305.75
606.96	303.75
607.168	291.75
607.376	268.75
607.585	289.75
607.793	314.75
608.001	302.75
608.21	284.75
608.418	296.75
608.626	292.75
608.834	292.75
609.043	273.75
609.251	282.75
609.459	280.75
609.667	281.75
609.875	298.75
610.083	287.75
610.291	274.75
610.499	283.75
610.707	288.75
610.916	279.75
611.124	307.75
611.332	292.75
611.54	297.75
611.748	283.75
611.955	286.75
612.163	267.75
612.371	290.75
612.579	284.75
612.787	287.75
612.995	298.75
613.203	260.75
613.411	273.75
613.618	283.75
613.826	292.75
614.034	272.75
614.242	295.75
614.449	268.75
614.657	285.75
614.865	287.75
615.072	286.75
615.28	279.75
615.488	279.75
615.695	297.75
615.903	280.75
616.111	280.75
616.318	280.75
616.526	263.75
616.733	280.75
616.941	271.75
617.148	283.75
617.356	288.75
617.563	273.75
617.771	274.75
617.978	279.75
618.185	298.75
618.393	272.75
618.6	267.75
618.807	264.75
619.015	296.75
619.222	263.75
619.429	271.75
619.637	274.75
619.844	279.75
620.051	288.75
620.258	279.75
620.466	263.75
620.673	263.75
620.88	273.75
621.087	250.75
621.294	265.75
621.501	271.75
621.708	243.75
621.915	271.75
622.122	269.75
622.329	267.75
622.536	256.75
622.743	255.75
622.95	265.75
623.157	239.75
623.364	264.75
623.571	279.75
623.778	266.75
623.985	262.75
624.192	260.75
624.399	240.75
624.606	264.75
624.812	260.75
625.019	234.75
625.226	264.75
625.433	246.75
625.639	253.75
625.846	216.75
626.053	255.75
626.259	250.75
626.466	238.75
626.673	237.75
626.879	229.75
627.086	228.75
627.293	248.75
627.499	244.75
627.706	248.75
627.912	265.75
628.119	242.75
628.325	252.75
628.532	246.75
628.738	221.75
628.945	254.75
629.151	227.75
629.357	221.75
629.564	227.75
629.77	234.75
629.976	226.75
630.183	243.75
630.389	242.75
630.595	224.75
630.802	212.75
631.008	233.75
631.214	222.75
631.42	231.75
631.627	227.75
631.833	221.75
632.039	214.75
632.245	238.75
632.451	222.75
632.657	232.75
632.863	218.75
633.069	214.75
633.275	216.75
633.481	214.75
633.688	228.75
633.893	228.75
634.099	211.75
634.305	222.75
634.511	202.75
634.717	207.75
634.923	209.75
635.129	210.75
635.335	220.75
635.541	198.75
635.747	201.75
635.952	209.75
636.158	211.75
636.364	213.75
636.57	226.75
636.775	222.75
636.981	210.75
637.187	223.75
637.392	195.75
637.598	205.75
637.804	179.75
638.009	220.75
638.215	215.75
638.421	201.75
638.626	201.75
638.832	209.75
639.037	204.75
639.243	201.75
639.448	199.75
639.654	195.75
639.859	198.75
640.065	188.75
640.27	194.75
640.475	196.75
640.681	184.75
640.886	199.75
641.091	207.75
641.297	203.75
641.502	199.75
641.707	166.75
641.913	188.75
642.118	190.75
642.323	182.75
642.528	197.75
642.733	180.75
642.939	191.75
643.144	170.75
643.349	190.75
643.554	184.75
643.759	196.75
643.964	201.75
644.169	194.75
644.374	182.75
644.579	190.75
644.784	176.75
644.989	187.75
645.194	187.75
645.399	189.75
645.604	217.75
645.809	200.75
646.014	176.75
646.219	179.75
646.423	202.75
646.628	195.75
646.833	191.75
647.038	197.75
647.243	192.75
647.447	191.75
647.652	185.75
647.857	200.75
648.062	189.75
648.266	213.75
648.471	189.75
648.676	193.75
648.88	211.75
649.085	199.75
649.289	208.75
649.494	207.75
649.698	194.75
649.903	193.75
650.107	196.75
650.312	186.75
650.516	181.75
650.721	177.75
650.925	186.75
651.13	182.75
651.334	174.75
651.539	162.75
651.743	177.75
651.947	184.75
652.152	168.75
652.356	165.75
652.56	160.75
652.764	156.75
652.969	151.75
653.173	176.75
653.377	162.75
653.581	148.75
653.785	149.75
653.99	150.75
654.194	156.75
654.398	149.75
654.602	143.75
654.806	162.75
655.01	151.75
655.214	146.75
655.418	139.75
655.622	157.75
655.826	158.75
656.03	158.75
656.234	162.75
656.438	171.75
656.642	165.75
656.846	166.75
657.049	149.75
657.253	136.75
657.457	152.75
657.661	129.75
657.865	135.75
658.068	124.75
658.272	123.75
658.476	113.75
658.68	115.75
658.883	109.75
659.087	101.75
659.291	118.75
659.494	105.75
659.698	114.75
659.901	118.75
660.105	99.75
660.309	97.75
660.512	83.75
660.716	91.75
660.919	90.75
661.123	100.75
661.326	97.75
661.53	88.75
661.733	91.75
661.936	92.75
662.14	99.75
662.343	94.75
662.546	83.75
662.75	88.75
662.953	89.75
663.156	88.75
663.36	96.75
663.563	83.75
663.766	83.75
663.969	93.75
664.173	81.75
664.376	76.75
664.579	82.75
664.782	73.75
664.985	90.75
665.188	89.75
665.391	91.75
665.594	81.75
665.797	83.75
666	91.75
666.203	74.75
666.406	84.75
666.609	76.75
666.812	100.75
667.015	100.75
667.218	75.75
667.421	89.75
667.624	78.75
667.827	80.75
668.03	92.75
668.232	87.75
668.435	65.75
668.638	68.75
668.841	82.75
669.043	82.75
669.246	79.75
669.449	81.75
669.651	90.75
669.854	92.75
670.057	72.75
670.259	83.75
670.462	78.75
670.665	83.75
670.867	72.75
671.07	82.75
671.272	86.75
671.475	92.75
671.677	87.75
671.88	91.75
672.082	81.75
672.284	81.75
672.487	82.75
672.689	79.75
672.892	76.75
