Data from 1963.PennyLincolnUp.Lamp.En5.5.200Scan.071719.P1._HRD10591_13-57-28-063.txt Node
Date: Thu Jul 18 13:57:28 EDT 2019
User: cochatt
Spectrometer: HR+D1059
Trigger mode: 1
Integration Time (sec): 1.000000E-1
Scans to average: 1
Electric dark correction enabled: true
Nonlinearity correction enabled: false
Boxcar width: 0
XAxis mode: Wavelengths
Number of Pixels in Spectrum: 2048
>>>>>Begin Spectral Data<<<<<
223.165	-22.25
223.4	-22.25
223.635	-22.25
223.869	-16.25
224.104	-12.25
224.338	-16.25
224.573	-8.25
224.808	-12.25
225.042	-11.25
225.277	-6.25
225.511	3.75
225.746	-3.25
225.98	-7.25
226.215	23.75
226.449	8.75
226.683	23.75
226.918	25.75
227.152	29.75
227.387	28.75
227.621	32.75
227.856	53.75
228.09	39.75
228.324	60.75
228.559	57.75
228.793	70.75
229.027	95.75
229.262	97.75
229.496	109.75
229.73	118.75
229.964	117.75
230.199	119.75
230.433	106.75
230.667	109.75
230.901	103.75
231.136	109.75
231.37	100.75
231.604	108.75
231.838	127.75
232.072	127.75
232.306	109.75
232.541	115.75
232.775	110.75
233.009	111.75
233.243	117.75
233.477	113.75
233.711	111.75
233.945	114.75
234.179	113.75
234.413	126.75
234.647	122.75
234.881	122.75
235.115	132.75
235.349	105.75
235.583	123.75
235.817	121.75
236.051	139.75
236.285	107.75
236.519	108.75
236.753	133.75
236.987	134.75
237.221	143.75
237.455	167.75
237.689	168.75
237.922	133.75
238.156	127.75
238.39	117.75
238.624	124.75
238.858	132.75
239.091	132.75
239.325	126.75
239.559	136.75
239.793	137.75
240.027	126.75
240.26	120.75
240.494	152.75
240.728	149.75
240.961	146.75
241.195	157.75
241.429	146.75
241.662	135.75
241.896	142.75
242.13	132.75
242.363	142.75
242.597	141.75
242.83	139.75
243.064	142.75
243.298	149.75
243.531	157.75
243.765	159.75
243.998	143.75
244.232	147.75
244.465	159.75
244.699	145.75
244.932	146.75
245.166	153.75
245.399	159.75
245.633	155.75
245.866	154.75
246.099	158.75
246.333	143.75
246.566	157.75
246.8	154.75
247.033	156.75
247.266	168.75
247.5	162.75
247.733	168.75
247.966	185.75
248.2	178.75
248.433	155.75
248.666	172.75
248.899	179.75
249.133	208.75
249.366	196.75
249.599	186.75
249.832	189.75
250.066	196.75
250.299	181.75
250.532	189.75
250.765	196.75
250.998	192.75
251.231	208.75
251.465	199.75
251.698	203.75
251.931	187.75
252.164	197.75
252.397	207.75
252.63	208.75
252.863	204.75
253.096	202.75
253.329	227.75
253.562	204.75
253.795	201.75
254.028	188.75
254.261	216.75
254.494	223.75
254.727	243.75
254.96	255.75
255.193	238.75
255.426	210.75
255.659	220.75
255.892	234.75
256.124	227.75
256.357	229.75
256.59	198.75
256.823	210.75
257.056	219.75
257.289	196.75
257.521	215.75
257.754	227.75
257.987	218.75
258.22	215.75
258.452	201.75
258.685	224.75
258.918	221.75
259.151	210.75
259.383	221.75
259.616	235.75
259.849	224.75
260.081	227.75
260.314	236.75
260.547	245.75
260.779	223.75
261.012	224.75
261.244	232.75
261.477	223.75
261.71	213.75
261.942	211.75
262.175	217.75
262.407	227.75
262.64	223.75
262.872	237.75
263.105	236.75
263.337	245.75
263.57	213.75
263.802	233.75
264.035	229.75
264.267	223.75
264.499	226.75
264.732	235.75
264.964	244.75
265.197	224.75
265.429	226.75
265.661	242.75
265.894	228.75
266.126	232.75
266.358	243.75
266.591	225.75
266.823	249.75
267.055	239.75
267.287	238.75
267.52	234.75
267.752	249.75
267.984	247.75
268.216	240.75
268.448	250.75
268.681	251.75
268.913	259.75
269.145	256.75
269.377	281.75
269.609	270.75
269.841	271.75
270.073	269.75
270.306	287.75
270.538	290.75
270.77	319.75
271.002	281.75
271.234	292.75
271.466	281.75
271.698	291.75
271.93	295.75
272.162	296.75
272.394	292.75
272.626	284.75
272.858	283.75
273.09	297.75
273.322	285.75
273.553	282.75
273.785	289.75
274.017	264.75
274.249	283.75
274.481	276.75
274.713	281.75
274.945	278.75
275.176	294.75
275.408	297.75
275.64	289.75
275.872	271.75
276.104	296.75
276.335	299.75
276.567	267.75
276.799	279.75
277.031	298.75
277.262	312.75
277.494	329.75
277.726	332.75
277.957	290.75
278.189	287.75
278.421	287.75
278.652	290.75
278.884	283.75
279.115	292.75
279.347	291.75
279.579	305.75
279.81	294.75
280.042	287.75
280.273	298.75
280.505	299.75
280.736	303.75
280.968	309.75
281.199	308.75
281.431	297.75
281.662	313.75
281.894	306.75
282.125	319.75
282.356	325.75
282.588	313.75
282.819	324.75
283.051	326.75
283.282	313.75
283.513	316.75
283.745	320.75
283.976	315.75
284.207	325.75
284.439	328.75
284.67	322.75
284.901	334.75
285.132	323.75
285.364	309.75
285.595	348.75
285.826	315.75
286.057	327.75
286.288	326.75
286.52	319.75
286.751	310.75
286.982	329.75
287.213	322.75
287.444	335.75
287.675	331.75
287.906	341.75
288.138	364.75
288.369	339.75
288.6	337.75
288.831	332.75
289.062	341.75
289.293	343.75
289.524	351.75
289.755	340.75
289.986	333.75
290.217	335.75
290.448	346.75
290.679	333.75
290.91	341.75
291.141	335.75
291.371	352.75
291.602	339.75
291.833	333.75
292.064	329.75
292.295	340.75
292.526	344.75
292.757	349.75
292.987	327.75
293.218	327.75
293.449	353.75
293.68	354.75
293.91	330.75
294.141	325.75
294.372	338.75
294.603	337.75
294.833	355.75
295.064	344.75
295.295	323.75
295.525	356.75
295.756	360.75
295.987	374.75
296.217	361.75
296.448	360.75
296.679	360.75
296.909	355.75
297.14	353.75
297.37	369.75
297.601	365.75
297.831	357.75
298.062	363.75
298.292	362.75
298.523	370.75
298.753	387.75
298.984	356.75
299.214	369.75
299.445	361.75
299.675	368.75
299.905	389.75
300.136	377.75
300.366	365.75
300.597	387.75
300.827	374.75
301.057	404.75
301.288	388.75
301.518	387.75
301.748	387.75
301.979	372.75
302.209	406.75
302.439	387.75
302.669	383.75
302.9	380.75
303.13	387.75
303.36	391.75
303.59	379.75
303.82	386.75
304.051	402.75
304.281	379.75
304.511	397.75
304.741	371.75
304.971	378.75
305.201	374.75
305.431	393.75
305.661	393.75
305.891	384.75
306.121	373.75
306.352	395.75
306.582	390.75
306.812	383.75
307.042	396.75
307.272	396.75
307.502	396.75
307.731	398.75
307.961	408.75
308.191	391.75
308.421	386.75
308.651	389.75
308.881	369.75
309.111	388.75
309.341	369.75
309.571	375.75
309.8	389.75
310.03	402.75
310.26	394.75
310.49	406.75
310.72	403.75
310.949	419.75
311.179	417.75
311.409	426.75
311.639	409.75
311.868	415.75
312.098	408.75
312.328	422.75
312.557	423.75
312.787	410.75
313.017	404.75
313.246	420.75
313.476	425.75
313.706	417.75
313.935	425.75
314.165	435.75
314.394	434.75
314.624	444.75
314.853	413.75
315.083	419.75
315.312	423.75
315.542	435.75
315.771	422.75
316.001	427.75
316.23	441.75
316.46	414.75
316.689	411.75
316.919	444.75
317.148	456.75
317.377	438.75
317.607	411.75
317.836	437.75
318.065	431.75
318.295	426.75
318.524	432.75
318.753	417.75
318.983	428.75
319.212	416.75
319.441	414.75
319.67	435.75
319.9	415.75
320.129	428.75
320.358	404.75
320.587	413.75
320.816	446.75
321.046	448.75
321.275	442.75
321.504	445.75
321.733	424.75
321.962	439.75
322.191	446.75
322.42	455.75
322.649	436.75
322.878	455.75
323.108	468.75
323.337	462.75
323.566	469.75
323.795	489.75
324.024	484.75
324.253	564.75
324.482	666.75
324.71	908.75
324.939	1213.75
325.168	1087.75
325.397	640.75
325.626	531.75
325.855	504.75
326.084	486.75
326.313	475.75
326.542	490.75
326.77	517.75
326.999	550.75
327.228	641.75
327.457	842.75
327.686	1012.75
327.914	735.75
328.143	595.75
328.372	557.75
328.6	525.75
328.829	503.75
329.058	511.75
329.287	523.75
329.515	508.75
329.744	475.75
329.972	497.75
330.201	524.75
330.43	521.75
330.658	538.75
330.887	563.75
331.115	563.75
331.344	540.75
331.572	504.75
331.801	498.75
332.03	534.75
332.258	520.75
332.486	511.75
332.715	540.75
332.943	561.75
333.172	553.75
333.4	559.75
333.629	588.75
333.857	600.75
334.085	576.75
334.314	584.75
334.542	589.75
334.771	629.75
334.999	566.75
335.227	573.75
335.455	559.75
335.684	542.75
335.912	553.75
336.14	547.75
336.369	535.75
336.597	548.75
336.825	553.75
337.053	513.75
337.281	514.75
337.51	533.75
337.738	547.75
337.966	514.75
338.194	518.75
338.422	504.75
338.65	519.75
338.878	491.75
339.106	508.75
339.334	521.75
339.562	512.75
339.79	515.75
340.018	520.75
340.246	505.75
340.474	491.75
340.702	482.75
340.93	501.75
341.158	495.75
341.386	477.75
341.614	483.75
341.842	491.75
342.07	493.75
342.298	492.75
342.526	488.75
342.754	504.75
342.981	481.75
343.209	509.75
343.437	489.75
343.665	535.75
343.893	534.75
344.12	569.75
344.348	572.75
344.576	508.75
344.804	515.75
345.031	511.75
345.259	520.75
345.487	469.75
345.714	449.75
345.942	477.75
346.17	499.75
346.397	465.75
346.625	470.75
346.853	479.75
347.08	480.75
347.308	490.75
347.535	477.75
347.763	489.75
347.99	460.75
348.218	456.75
348.445	479.75
348.673	472.75
348.9	462.75
349.128	487.75
349.355	475.75
349.583	480.75
349.81	445.75
350.037	455.75
350.265	460.75
350.492	458.75
350.72	460.75
350.947	463.75
351.174	467.75
351.402	482.75
351.629	451.75
351.856	435.75
352.083	435.75
352.311	483.75
352.538	458.75
352.765	456.75
352.992	461.75
353.22	445.75
353.447	427.75
353.674	476.75
353.901	459.75
354.128	457.75
354.355	441.75
354.583	453.75
354.81	441.75
355.037	462.75
355.264	449.75
355.491	456.75
355.718	449.75
355.945	475.75
356.172	461.75
356.399	458.75
356.626	456.75
356.853	462.75
357.08	448.75
357.307	451.75
357.534	477.75
357.761	456.75
357.988	444.75
358.215	452.75
358.441	435.75
358.668	443.75
358.895	443.75
359.122	451.75
359.349	473.75
359.576	495.75
359.802	477.75
360.029	491.75
360.256	480.75
360.483	471.75
360.709	489.75
360.936	479.75
361.163	468.75
361.39	456.75
361.616	450.75
361.843	493.75
362.07	451.75
362.296	475.75
362.523	448.75
362.749	476.75
362.976	461.75
363.203	469.75
363.429	463.75
363.656	468.75
363.882	456.75
364.109	443.75
364.335	480.75
364.562	453.75
364.788	455.75
365.015	463.75
365.241	458.75
365.468	455.75
365.694	474.75
365.92	488.75
366.147	467.75
366.373	443.75
366.599	460.75
366.826	484.75
367.052	459.75
367.278	449.75
367.505	450.75
367.731	488.75
367.957	441.75
368.184	452.75
368.41	489.75
368.636	465.75
368.862	471.75
369.089	474.75
369.315	457.75
369.541	476.75
369.767	459.75
369.993	470.75
370.219	479.75
370.445	477.75
370.672	499.75
370.898	470.75
371.124	484.75
371.35	504.75
371.576	488.75
371.802	503.75
372.028	505.75
372.254	499.75
372.48	477.75
372.706	501.75
372.932	535.75
373.158	488.75
373.384	493.75
373.61	500.75
373.835	488.75
374.061	488.75
374.287	480.75
374.513	504.75
374.739	508.75
374.965	540.75
375.191	529.75
375.416	529.75
375.642	522.75
375.868	516.75
376.094	488.75
376.319	483.75
376.545	490.75
376.771	482.75
376.997	484.75
377.222	483.75
377.448	486.75
377.674	488.75
377.899	479.75
378.125	484.75
378.35	531.75
378.576	473.75
378.802	482.75
379.027	476.75
379.253	491.75
379.478	507.75
379.704	497.75
379.929	497.75
380.155	471.75
380.38	481.75
380.606	481.75
380.831	498.75
381.057	516.75
381.282	488.75
381.507	503.75
381.733	500.75
381.958	491.75
382.184	486.75
382.409	500.75
382.634	487.75
382.86	507.75
383.085	511.75
383.31	537.75
383.535	537.75
383.761	523.75
383.986	527.75
384.211	545.75
384.436	546.75
384.662	550.75
384.887	552.75
385.112	554.75
385.337	564.75
385.562	569.75
385.787	560.75
386.013	595.75
386.238	566.75
386.463	554.75
386.688	557.75
386.913	531.75
387.138	580.75
387.363	575.75
387.588	580.75
387.813	577.75
388.038	588.75
388.263	568.75
388.488	543.75
388.713	566.75
388.938	567.75
389.163	554.75
389.387	556.75
389.612	543.75
389.837	549.75
390.062	540.75
390.287	558.75
390.512	563.75
390.736	563.75
390.961	575.75
391.186	583.75
391.411	576.75
391.636	596.75
391.86	589.75
392.085	604.75
392.31	621.75
392.534	614.75
392.759	585.75
392.984	568.75
393.208	602.75
393.433	599.75
393.658	607.75
393.882	590.75
394.107	587.75
394.331	573.75
394.556	577.75
394.78	599.75
395.005	596.75
395.229	584.75
395.454	590.75
395.678	611.75
395.903	613.75
396.127	615.75
396.352	613.75
396.576	600.75
396.801	612.75
397.025	605.75
397.249	606.75
397.474	609.75
397.698	603.75
397.922	651.75
398.147	647.75
398.371	633.75
398.595	640.75
398.82	651.75
399.044	688.75
399.268	744.75
399.492	817.75
399.717	897.75
399.941	920.75
400.165	891.75
400.389	778.75
400.613	749.75
400.837	722.75
401.062	685.75
401.286	653.75
401.51	665.75
401.734	675.75
401.958	666.75
402.182	687.75
402.406	663.75
402.63	690.75
402.854	684.75
403.078	699.75
403.302	730.75
403.526	707.75
403.75	742.75
403.974	722.75
404.198	737.75
404.422	753.75
404.645	719.75
404.869	732.75
405.093	756.75
405.317	776.75
405.541	801.75
405.765	748.75
405.988	721.75
406.212	723.75
406.436	744.75
406.66	758.75
406.883	775.75
407.107	802.75
407.331	827.75
407.555	889.75
407.778	851.75
408.002	825.75
408.226	788.75
408.449	785.75
408.673	760.75
408.896	777.75
409.12	786.75
409.344	771.75
409.567	739.75
409.791	720.75
410.014	735.75
410.238	724.75
410.461	740.75
410.685	711.75
410.908	712.75
411.132	721.75
411.355	721.75
411.578	754.75
411.802	730.75
412.025	691.75
412.249	708.75
412.472	718.75
412.695	731.75
412.919	730.75
413.142	695.75
413.365	695.75
413.589	672.75
413.812	677.75
414.035	627.75
414.258	649.75
414.482	663.75
414.705	663.75
414.928	677.75
415.151	695.75
415.374	678.75
415.597	676.75
415.821	656.75
416.044	669.75
416.267	661.75
416.49	649.75
416.713	651.75
416.936	657.75
417.159	657.75
417.382	658.75
417.605	654.75
417.828	671.75
418.051	681.75
418.274	658.75
418.497	670.75
418.72	660.75
418.943	667.75
419.166	709.75
419.389	738.75
419.611	736.75
419.834	693.75
420.057	665.75
420.28	695.75
420.503	689.75
420.726	657.75
420.948	659.75
421.171	689.75
421.394	723.75
421.617	700.75
421.839	655.75
422.062	652.75
422.285	674.75
422.507	740.75
422.73	785.75
422.953	737.75
423.175	691.75
423.398	703.75
423.621	699.75
423.843	717.75
424.066	715.75
424.288	697.75
424.511	729.75
424.733	749.75
424.956	776.75
425.178	759.75
425.401	751.75
425.623	756.75
425.846	705.75
426.068	686.75
426.291	685.75
426.513	664.75
426.735	691.75
426.958	705.75
427.18	730.75
427.402	825.75
427.625	868.75
427.847	771.75
428.069	696.75
428.292	655.75
428.514	636.75
428.736	639.75
428.958	643.75
429.181	630.75
429.403	611.75
429.625	630.75
429.847	641.75
430.069	658.75
430.292	689.75
430.514	618.75
430.736	623.75
430.958	611.75
431.18	609.75
431.402	618.75
431.624	629.75
431.846	597.75
432.068	596.75
432.29	615.75
432.512	620.75
432.734	611.75
432.956	620.75
433.178	611.75
433.4	621.75
433.622	617.75
433.844	613.75
434.066	617.75
434.287	634.75
434.509	646.75
434.731	660.75
434.953	691.75
435.175	667.75
435.397	711.75
435.618	677.75
435.84	667.75
436.062	739.75
436.284	772.75
436.505	673.75
436.727	659.75
436.949	625.75
437.17	624.75
437.392	614.75
437.614	615.75
437.835	619.75
438.057	681.75
438.278	708.75
438.5	755.75
438.721	803.75
438.943	781.75
439.165	652.75
439.386	646.75
439.608	635.75
439.829	643.75
440.05	657.75
440.272	677.75
440.493	666.75
440.715	630.75
440.936	635.75
441.158	639.75
441.379	628.75
441.6	655.75
441.822	682.75
442.043	717.75
442.264	736.75
442.486	771.75
442.707	700.75
442.928	679.75
443.149	675.75
443.371	684.75
443.592	696.75
443.813	789.75
444.034	839.75
444.255	782.75
444.476	730.75
444.698	748.75
444.919	748.75
445.14	868.75
445.361	781.75
445.582	705.75
445.803	712.75
446.024	759.75
446.245	801.75
446.466	727.75
446.687	653.75
446.908	647.75
447.129	606.75
447.35	602.75
447.571	615.75
447.792	577.75
448.013	598.75
448.234	608.75
448.455	630.75
448.675	687.75
448.896	775.75
449.117	695.75
449.338	668.75
449.559	709.75
449.779	787.75
450	679.75
450.221	604.75
450.442	589.75
450.662	593.75
450.883	581.75
451.104	594.75
451.324	598.75
451.545	570.75
451.766	585.75
451.986	549.75
452.207	548.75
452.428	570.75
452.648	575.75
452.869	546.75
453.089	564.75
453.31	565.75
453.53	569.75
453.751	539.75
453.971	539.75
454.192	574.75
454.412	573.75
454.633	517.75
454.853	532.75
455.073	529.75
455.294	548.75
455.514	579.75
455.734	571.75
455.955	547.75
456.175	525.75
456.395	533.75
456.616	518.75
456.836	543.75
457.056	528.75
457.276	555.75
457.497	529.75
457.717	522.75
457.937	557.75
458.157	548.75
458.377	554.75
458.598	551.75
458.818	602.75
459.038	653.75
459.258	671.75
459.478	628.75
459.698	617.75
459.918	609.75
460.138	647.75
460.358	670.75
460.578	693.75
460.798	674.75
461.018	687.75
461.238	693.75
461.458	665.75
461.678	680.75
461.898	714.75
462.118	689.75
462.338	697.75
462.558	714.75
462.777	755.75
462.997	793.75
463.217	794.75
463.437	838.75
463.657	757.75
463.876	774.75
464.096	742.75
464.316	759.75
464.536	743.75
464.755	727.75
464.975	709.75
465.195	714.75
465.414	714.75
465.634	677.75
465.854	655.75
466.073	639.75
466.293	599.75
466.512	602.75
466.732	574.75
466.951	577.75
467.171	567.75
467.391	599.75
467.61	588.75
467.829	605.75
468.049	587.75
468.268	571.75
468.488	582.75
468.707	554.75
468.927	567.75
469.146	579.75
469.365	584.75
469.585	568.75
469.804	577.75
470.023	604.75
470.243	587.75
470.462	627.75
470.681	625.75
470.901	622.75
471.12	587.75
471.339	618.75
471.558	604.75
471.777	602.75
471.997	574.75
472.216	602.75
472.435	594.75
472.654	594.75
472.873	562.75
473.092	577.75
473.311	568.75
473.53	567.75
473.749	586.75
473.968	601.75
474.187	665.75
474.406	667.75
474.625	631.75
474.844	594.75
475.063	566.75
475.282	587.75
475.501	591.75
475.72	588.75
475.939	599.75
476.158	621.75
476.377	591.75
476.596	611.75
476.814	615.75
477.033	601.75
477.252	615.75
477.471	620.75
477.69	652.75
477.908	661.75
478.127	677.75
478.346	667.75
478.564	668.75
478.783	675.75
479.002	699.75
479.22	697.75
479.439	685.75
479.658	704.75
479.876	724.75
480.095	735.75
480.313	768.75
480.532	751.75
480.751	746.75
480.969	744.75
481.188	752.75
481.406	787.75
481.624	723.75
481.843	700.75
482.061	678.75
482.28	685.75
482.498	680.75
482.717	670.75
482.935	664.75
483.153	676.75
483.372	677.75
483.59	703.75
483.808	676.75
484.027	666.75
484.245	685.75
484.463	674.75
484.681	694.75
484.9	655.75
485.118	715.75
485.336	695.75
485.554	688.75
485.772	695.75
485.99	713.75
486.209	708.75
486.427	701.75
486.645	712.75
486.863	725.75
487.081	725.75
487.299	722.75
487.517	724.75
487.735	727.75
487.953	701.75
488.171	712.75
488.389	705.75
488.607	703.75
488.825	721.75
489.043	712.75
489.261	710.75
489.479	725.75
489.696	741.75
489.914	735.75
490.132	691.75
490.35	739.75
490.568	724.75
490.786	724.75
491.003	759.75
491.221	759.75
491.439	761.75
491.657	777.75
491.874	798.75
492.092	771.75
492.31	791.75
492.527	786.75
492.745	779.75
492.963	795.75
493.18	793.75
493.398	831.75
493.615	823.75
493.833	809.75
494.05	796.75
494.268	799.75
494.485	817.75
494.703	848.75
494.92	834.75
495.138	812.75
495.355	821.75
495.573	830.75
495.79	817.75
496.008	811.75
496.225	840.75
496.442	831.75
496.66	858.75
496.877	841.75
497.094	844.75
497.312	853.75
497.529	880.75
497.746	905.75
497.963	934.75
498.181	973.75
498.398	966.75
498.615	1009.75
498.832	1033.75
499.049	1104.75
499.267	1157.75
499.484	1235.75
499.701	1314.75
499.918	1441.75
500.135	1502.75
500.352	1659.75
500.569	1740.75
500.786	1727.75
501.003	1652.75
501.22	1520.75
501.437	1403.75
501.654	1308.75
501.871	1252.75
502.088	1185.75
502.305	1091.75
502.522	1057.75
502.739	1044.75
502.956	983.75
503.172	960.75
503.389	936.75
503.606	911.75
503.823	909.75
504.04	877.75
504.256	893.75
504.473	887.75
504.69	906.75
504.907	890.75
505.123	857.75
505.34	823.75
505.557	827.75
505.773	800.75
505.99	792.75
506.207	769.75
506.423	783.75
506.64	756.75
506.856	771.75
507.073	803.75
507.289	728.75
507.506	775.75
507.722	712.75
507.939	727.75
508.155	729.75
508.372	717.75
508.588	706.75
508.805	695.75
509.021	703.75
509.238	739.75
509.454	739.75
509.67	697.75
509.887	715.75
510.103	699.75
510.319	718.75
510.536	739.75
510.752	970.75
510.968	843.75
511.184	712.75
511.401	675.75
511.617	691.75
511.833	669.75
512.049	659.75
512.265	664.75
512.481	691.75
512.698	667.75
512.914	674.75
513.13	679.75
513.346	669.75
513.562	657.75
513.778	679.75
513.994	687.75
514.21	675.75
514.426	684.75
514.642	710.75
514.858	735.75
515.074	698.75
515.29	779.75
515.506	951.75
515.721	858.75
515.937	739.75
516.153	719.75
516.369	754.75
516.585	739.75
516.801	746.75
517.016	755.75
517.232	769.75
517.448	820.75
517.664	819.75
517.879	835.75
518.095	825.75
518.311	833.75
518.527	805.75
518.742	804.75
518.958	763.75
519.173	753.75
519.389	731.75
519.605	693.75
519.82	700.75
520.036	715.75
520.251	679.75
520.467	691.75
520.682	715.75
520.898	678.75
521.113	661.75
521.329	700.75
521.544	722.75
521.76	803.75
521.975	1040.75
522.19	1088.75
522.406	768.75
522.621	665.75
522.836	645.75
523.052	635.75
523.267	648.75
523.482	628.75
523.698	620.75
523.913	600.75
524.128	591.75
524.343	603.75
524.559	596.75
524.774	584.75
524.989	591.75
525.204	604.75
525.419	614.75
525.634	593.75
525.849	591.75
526.064	594.75
526.28	597.75
526.495	570.75
526.71	586.75
526.925	605.75
527.14	595.75
527.355	579.75
527.57	585.75
527.785	571.75
527.999	581.75
528.214	586.75
528.429	584.75
528.644	591.75
528.859	587.75
529.074	603.75
529.289	586.75
529.503	610.75
529.718	624.75
529.933	597.75
530.148	569.75
530.363	583.75
530.577	579.75
530.792	586.75
531.007	580.75
531.221	597.75
531.436	598.75
531.651	573.75
531.865	580.75
532.08	570.75
532.295	582.75
532.509	566.75
532.724	571.75
532.938	569.75
533.153	580.75
533.367	579.75
533.582	593.75
533.796	567.75
534.011	589.75
534.225	562.75
534.44	563.75
534.654	571.75
534.868	566.75
535.083	571.75
535.297	586.75
535.511	569.75
535.726	549.75
535.94	575.75
536.154	577.75
536.369	568.75
536.583	566.75
536.797	533.75
537.011	545.75
537.225	555.75
537.44	545.75
537.654	561.75
537.868	550.75
538.082	547.75
538.296	554.75
538.51	540.75
538.724	547.75
538.938	550.75
539.153	527.75
539.367	537.75
539.581	543.75
539.795	539.75
540.009	537.75
540.222	539.75
540.436	530.75
540.65	525.75
540.864	547.75
541.078	519.75
541.292	544.75
541.506	516.75
541.72	547.75
541.934	537.75
542.147	550.75
542.361	530.75
542.575	532.75
542.789	549.75
543.002	559.75
543.216	531.75
543.43	531.75
543.644	535.75
543.857	541.75
544.071	547.75
544.285	547.75
544.498	529.75
544.712	541.75
544.925	525.75
545.139	531.75
545.352	550.75
545.566	546.75
545.779	556.75
545.993	543.75
546.206	526.75
546.42	554.75
546.633	548.75
546.847	544.75
547.06	520.75
547.274	538.75
547.487	564.75
547.7	560.75
547.914	547.75
548.127	550.75
548.34	570.75
548.554	530.75
548.767	567.75
548.98	538.75
549.193	529.75
549.407	536.75
549.62	553.75
549.833	556.75
550.046	557.75
550.259	541.75
550.473	530.75
550.686	531.75
550.899	552.75
551.112	533.75
551.325	531.75
551.538	526.75
551.751	531.75
551.964	530.75
552.177	529.75
552.39	528.75
552.603	552.75
552.816	581.75
553.029	579.75
553.242	573.75
553.455	576.75
553.667	610.75
553.88	618.75
554.093	570.75
554.306	570.75
554.519	549.75
554.732	571.75
554.944	529.75
555.157	529.75
555.37	525.75
555.583	523.75
555.795	532.75
556.008	503.75
556.221	496.75
556.433	524.75
556.646	514.75
556.859	483.75
557.071	484.75
557.284	479.75
557.496	482.75
557.709	490.75
557.921	474.75
558.134	497.75
558.346	472.75
558.559	478.75
558.771	492.75
558.984	497.75
559.196	471.75
559.409	480.75
559.621	470.75
559.833	489.75
560.046	460.75
560.258	471.75
560.47	477.75
560.683	474.75
560.895	475.75
561.107	467.75
561.32	464.75
561.532	475.75
561.744	472.75
561.956	477.75
562.168	491.75
562.381	455.75
562.593	460.75
562.805	480.75
563.017	478.75
563.229	476.75
563.441	490.75
563.653	495.75
563.865	485.75
564.077	502.75
564.289	466.75
564.501	483.75
564.713	507.75
564.925	521.75
565.137	520.75
565.349	524.75
565.561	551.75
565.773	582.75
565.985	586.75
566.197	581.75
566.408	621.75
566.62	658.75
566.832	722.75
567.044	739.75
567.255	707.75
567.467	731.75
567.679	737.75
567.891	800.75
568.102	790.75
568.314	789.75
568.526	714.75
568.737	683.75
568.949	637.75
569.161	593.75
569.372	566.75
569.584	537.75
569.795	534.75
570.007	508.75
570.218	533.75
570.43	504.75
570.641	497.75
570.853	488.75
571.064	509.75
571.276	486.75
571.487	496.75
571.698	487.75
571.91	471.75
572.121	443.75
572.333	438.75
572.544	439.75
572.755	434.75
572.966	426.75
573.178	438.75
573.389	423.75
573.6	428.75
573.811	415.75
574.023	405.75
574.234	408.75
574.445	417.75
574.656	417.75
574.867	415.75
575.078	421.75
575.289	417.75
575.501	411.75
575.712	414.75
575.923	394.75
576.134	417.75
576.345	400.75
576.556	398.75
576.767	395.75
576.978	379.75
577.188	388.75
577.399	396.75
577.61	397.75
577.821	398.75
578.032	391.75
578.243	401.75
578.454	501.75
578.665	417.75
578.875	371.75
579.086	388.75
579.297	373.75
579.508	376.75
579.718	383.75
579.929	378.75
580.14	357.75
580.35	346.75
580.561	384.75
580.772	381.75
580.982	361.75
581.193	355.75
581.403	364.75
581.614	365.75
581.825	375.75
582.035	356.75
582.246	373.75
582.456	367.75
582.667	375.75
582.877	385.75
583.087	368.75
583.298	361.75
583.508	356.75
583.719	342.75
583.929	364.75
584.139	359.75
584.35	360.75
584.56	358.75
584.77	372.75
584.981	363.75
585.191	373.75
585.401	378.75
585.611	360.75
585.821	367.75
586.032	372.75
586.242	359.75
586.452	362.75
586.662	345.75
586.872	347.75
587.082	353.75
587.292	351.75
587.502	343.75
587.713	375.75
587.923	360.75
588.133	365.75
588.343	362.75
588.553	353.75
588.762	352.75
588.972	367.75
589.182	372.75
589.392	361.75
589.602	367.75
589.812	365.75
590.022	364.75
590.232	371.75
590.441	371.75
590.651	367.75
590.861	364.75
591.071	383.75
591.281	367.75
591.49	370.75
591.7	387.75
591.91	392.75
592.119	381.75
592.329	383.75
592.539	388.75
592.748	419.75
592.958	422.75
593.167	423.75
593.377	423.75
593.587	441.75
593.796	449.75
594.006	441.75
594.215	447.75
594.424	432.75
594.634	443.75
594.843	405.75
595.053	390.75
595.262	407.75
595.472	410.75
595.681	395.75
595.89	386.75
596.1	372.75
596.309	353.75
596.518	351.75
596.727	332.75
596.937	339.75
597.146	344.75
597.355	342.75
597.564	345.75
597.774	330.75
597.983	320.75
598.192	323.75
598.401	332.75
598.61	331.75
598.819	332.75
599.028	321.75
599.237	307.75
599.446	323.75
599.655	311.75
599.864	324.75
600.073	331.75
600.282	322.75
600.491	311.75
600.7	319.75
600.909	320.75
601.118	307.75
601.327	303.75
601.536	296.75
601.745	320.75
601.953	292.75
602.162	303.75
602.371	294.75
602.58	301.75
602.789	299.75
602.997	292.75
603.206	293.75
603.415	320.75
603.623	307.75
603.832	303.75
604.041	295.75
604.249	294.75
604.458	301.75
604.666	304.75
604.875	309.75
605.084	306.75
605.292	310.75
605.501	297.75
605.709	292.75
605.918	309.75
606.126	303.75
606.334	285.75
606.543	291.75
606.751	291.75
606.96	284.75
607.168	290.75
607.376	300.75
607.585	279.75
607.793	267.75
608.001	291.75
608.21	287.75
608.418	268.75
608.626	296.75
608.834	290.75
609.043	300.75
609.251	276.75
609.459	285.75
609.667	296.75
609.875	282.75
610.083	269.75
610.291	273.75
610.499	291.75
610.707	301.75
610.916	285.75
611.124	301.75
611.332	307.75
611.54	296.75
611.748	300.75
611.955	281.75
612.163	265.75
612.371	287.75
612.579	280.75
612.787	268.75
612.995	284.75
613.203	279.75
613.411	279.75
613.618	290.75
613.826	264.75
614.034	277.75
614.242	284.75
614.449	284.75
614.657	273.75
614.865	291.75
615.072	270.75
615.28	294.75
615.488	284.75
615.695	288.75
615.903	297.75
616.111	285.75
616.318	293.75
616.526	279.75
616.733	280.75
616.941	288.75
617.148	283.75
617.356	270.75
617.563	270.75
617.771	278.75
617.978	288.75
618.185	259.75
618.393	269.75
618.6	288.75
618.807	271.75
619.015	284.75
619.222	267.75
619.429	264.75
619.637	270.75
619.844	277.75
620.051	278.75
620.258	272.75
620.466	261.75
620.673	273.75
620.88	270.75
621.087	280.75
621.294	268.75
621.501	267.75
621.708	260.75
621.915	263.75
622.122	284.75
622.329	263.75
622.536	243.75
622.743	241.75
622.95	267.75
623.157	259.75
623.364	249.75
623.571	238.75
623.778	265.75
623.985	275.75
624.192	271.75
624.399	271.75
624.606	236.75
624.812	249.75
625.019	247.75
625.226	237.75
625.433	245.75
625.639	255.75
625.846	225.75
626.053	244.75
626.259	253.75
626.466	250.75
626.673	258.75
626.879	242.75
627.086	232.75
627.293	242.75
627.499	245.75
627.706	243.75
627.912	235.75
628.119	237.75
628.325	234.75
628.532	230.75
628.738	234.75
628.945	233.75
629.151	249.75
629.357	237.75
629.564	243.75
629.77	228.75
629.976	241.75
630.183	216.75
630.389	224.75
630.595	215.75
630.802	237.75
631.008	251.75
631.214	225.75
631.42	221.75
631.627	220.75
631.833	204.75
632.039	210.75
632.245	208.75
632.451	226.75
632.657	240.75
632.863	219.75
633.069	209.75
633.275	221.75
633.481	210.75
633.688	216.75
633.893	209.75
634.099	218.75
634.305	212.75
634.511	212.75
634.717	225.75
634.923	216.75
635.129	214.75
635.335	224.75
635.541	221.75
635.747	197.75
635.952	219.75
636.158	224.75
636.364	204.75
636.57	220.75
636.775	216.75
636.981	238.75
637.187	190.75
637.392	200.75
637.598	218.75
637.804	205.75
638.009	202.75
638.215	199.75
638.421	197.75
638.626	206.75
638.832	203.75
639.037	213.75
639.243	205.75
639.448	211.75
639.654	207.75
639.859	207.75
640.065	196.75
640.27	195.75
640.475	188.75
640.681	189.75
640.886	208.75
641.091	196.75
641.297	213.75
641.502	202.75
641.707	208.75
641.913	211.75
642.118	191.75
642.323	182.75
642.528	190.75
642.733	169.75
642.939	178.75
643.144	182.75
643.349	205.75
643.554	202.75
643.759	181.75
643.964	197.75
644.169	194.75
644.374	200.75
644.579	192.75
644.784	199.75
644.989	215.75
645.194	184.75
645.399	211.75
645.604	181.75
645.809	192.75
646.014	183.75
646.219	197.75
646.423	187.75
646.628	177.75
646.833	197.75
647.038	182.75
647.243	203.75
647.447	204.75
647.652	202.75
647.857	201.75
648.062	196.75
648.266	192.75
648.471	202.75
648.676	217.75
648.88	203.75
649.085	208.75
649.289	194.75
649.494	207.75
649.698	218.75
649.903	204.75
650.107	195.75
650.312	192.75
650.516	187.75
650.721	185.75
650.925	173.75
651.13	163.75
651.334	179.75
651.539	170.75
651.743	171.75
651.947	165.75
652.152	173.75
652.356	171.75
652.56	163.75
652.764	170.75
652.969	166.75
653.173	155.75
653.377	173.75
653.581	144.75
653.785	172.75
653.99	164.75
654.194	155.75
654.398	160.75
654.602	144.75
654.806	152.75
655.01	158.75
655.214	147.75
655.418	150.75
655.622	133.75
655.826	163.75
656.03	157.75
656.234	163.75
656.438	150.75
656.642	145.75
656.846	138.75
657.049	142.75
657.253	151.75
657.457	138.75
657.661	145.75
657.865	127.75
658.068	129.75
658.272	115.75
658.476	122.75
658.68	117.75
658.883	116.75
659.087	108.75
659.291	111.75
659.494	108.75
659.698	95.75
659.901	113.75
660.105	105.75
660.309	111.75
660.512	94.75
660.716	93.75
660.919	94.75
661.123	90.75
661.326	88.75
661.53	75.75
661.733	87.75
661.936	78.75
662.14	93.75
662.343	83.75
662.546	88.75
662.75	90.75
662.953	82.75
663.156	80.75
663.36	86.75
663.563	82.75
663.766	88.75
663.969	80.75
664.173	72.75
664.376	85.75
664.579	82.75
664.782	73.75
664.985	89.75
665.188	74.75
665.391	75.75
665.594	73.75
665.797	88.75
666	73.75
666.203	67.75
666.406	83.75
666.609	101.75
666.812	68.75
667.015	81.75
667.218	81.75
667.421	103.75
667.624	86.75
667.827	82.75
668.03	96.75
668.232	87.75
668.435	83.75
668.638	85.75
668.841	78.75
669.043	74.75
669.246	75.75
669.449	84.75
669.651	77.75
669.854	92.75
670.057	85.75
670.259	80.75
670.462	83.75
670.665	76.75
670.867	73.75
671.07	75.75
671.272	90.75
671.475	83.75
671.677	80.75
671.88	98.75
672.082	84.75
672.284	87.75
672.487	79.75
672.689	67.75
672.892	73.75
