Data from 1963.PennyLincolnUp.Lamp.En5.5.200Scan.071719.P1._HRD10591_14-00-26-064.txt Node
Date: Thu Jul 18 14:00:26 EDT 2019
User: cochatt
Spectrometer: HR+D1059
Trigger mode: 1
Integration Time (sec): 1.000000E-1
Scans to average: 1
Electric dark correction enabled: true
Nonlinearity correction enabled: false
Boxcar width: 0
XAxis mode: Wavelengths
Number of Pixels in Spectrum: 2048
>>>>>Begin Spectral Data<<<<<
223.165	-21.62
223.4	-21.62
223.635	-21.62
223.869	-19.62
224.104	-20.62
224.338	-29.62
224.573	-14.62
224.808	-4.62
225.042	2.38
225.277	0.38
225.511	4.38
225.746	0.38
225.98	-7.62
226.215	7.38
226.449	22.38
226.683	18.38
226.918	42.38
227.152	20.38
227.387	31.38
227.621	32.38
227.856	41.38
228.09	40.38
228.324	51.38
228.559	38.38
228.793	68.38
229.027	92.38
229.262	114.38
229.496	113.38
229.73	131.38
229.964	148.38
230.199	121.38
230.433	129.38
230.667	126.38
230.901	119.38
231.136	116.38
231.37	113.38
231.604	122.38
231.838	103.38
232.072	107.38
232.306	118.38
232.541	116.38
232.775	116.38
233.009	122.38
233.243	117.38
233.477	125.38
233.711	108.38
233.945	121.38
234.179	119.38
234.413	123.38
234.647	124.38
234.881	121.38
235.115	135.38
235.349	121.38
235.583	125.38
235.817	143.38
236.051	135.38
236.285	138.38
236.519	136.38
236.753	134.38
236.987	147.38
237.221	184.38
237.455	209.38
237.689	177.38
237.922	152.38
238.156	136.38
238.39	134.38
238.624	146.38
238.858	147.38
239.091	139.38
239.325	138.38
239.559	141.38
239.793	132.38
240.027	167.38
240.26	148.38
240.494	164.38
240.728	174.38
240.961	148.38
241.195	155.38
241.429	160.38
241.662	147.38
241.896	141.38
242.13	160.38
242.363	148.38
242.597	139.38
242.83	140.38
243.064	158.38
243.298	170.38
243.531	176.38
243.765	162.38
243.998	146.38
244.232	162.38
244.465	156.38
244.699	155.38
244.932	157.38
245.166	170.38
245.399	170.38
245.633	168.38
245.866	159.38
246.099	157.38
246.333	164.38
246.566	158.38
246.8	173.38
247.033	163.38
247.266	165.38
247.5	196.38
247.733	188.38
247.966	196.38
248.2	187.38
248.433	197.38
248.666	189.38
248.899	199.38
249.133	215.38
249.366	207.38
249.599	204.38
249.832	200.38
250.066	204.38
250.299	208.38
250.532	215.38
250.765	227.38
250.998	256.38
251.231	241.38
251.465	220.38
251.698	220.38
251.931	215.38
252.164	215.38
252.397	225.38
252.63	223.38
252.863	224.38
253.096	231.38
253.329	248.38
253.562	249.38
253.795	243.38
254.028	244.38
254.261	240.38
254.494	258.38
254.727	271.38
254.96	289.38
255.193	280.38
255.426	251.38
255.659	228.38
255.892	255.38
256.124	251.38
256.357	256.38
256.59	250.38
256.823	243.38
257.056	239.38
257.289	227.38
257.521	229.38
257.754	238.38
257.987	223.38
258.22	243.38
258.452	233.38
258.685	227.38
258.918	239.38
259.151	234.38
259.383	244.38
259.616	263.38
259.849	261.38
260.081	265.38
260.314	279.38
260.547	284.38
260.779	287.38
261.012	271.38
261.244	261.38
261.477	246.38
261.71	262.38
261.942	244.38
262.175	258.38
262.407	260.38
262.64	233.38
262.872	253.38
263.105	229.38
263.337	226.38
263.57	255.38
263.802	259.38
264.035	257.38
264.267	259.38
264.499	248.38
264.732	244.38
264.964	247.38
265.197	242.38
265.429	243.38
265.661	251.38
265.894	274.38
266.126	282.38
266.358	267.38
266.591	249.38
266.823	251.38
267.055	285.38
267.287	258.38
267.52	265.38
267.752	292.38
267.984	255.38
268.216	274.38
268.448	292.38
268.681	295.38
268.913	295.38
269.145	298.38
269.377	304.38
269.609	299.38
269.841	301.38
270.073	309.38
270.306	327.38
270.538	351.38
270.77	345.38
271.002	339.38
271.234	330.38
271.466	340.38
271.698	346.38
271.93	351.38
272.162	339.38
272.394	352.38
272.626	339.38
272.858	347.38
273.09	321.38
273.322	316.38
273.553	318.38
273.785	315.38
274.017	328.38
274.249	315.38
274.481	304.38
274.713	305.38
274.945	309.38
275.176	322.38
275.408	315.38
275.64	310.38
275.872	316.38
276.104	322.38
276.335	311.38
276.567	304.38
276.799	332.38
277.031	354.38
277.262	357.38
277.494	377.38
277.726	364.38
277.957	334.38
278.189	332.38
278.421	313.38
278.652	321.38
278.884	316.38
279.115	332.38
279.347	308.38
279.579	327.38
279.81	318.38
280.042	322.38
280.273	330.38
280.505	337.38
280.736	339.38
280.968	330.38
281.199	331.38
281.431	335.38
281.662	319.38
281.894	324.38
282.125	340.38
282.356	358.38
282.588	376.38
282.819	348.38
283.051	343.38
283.282	338.38
283.513	353.38
283.745	360.38
283.976	343.38
284.207	344.38
284.439	345.38
284.67	338.38
284.901	349.38
285.132	360.38
285.364	341.38
285.595	345.38
285.826	347.38
286.057	339.38
286.288	347.38
286.52	355.38
286.751	367.38
286.982	346.38
287.213	358.38
287.444	356.38
287.675	361.38
287.906	361.38
288.138	376.38
288.369	379.38
288.6	389.38
288.831	373.38
289.062	373.38
289.293	378.38
289.524	367.38
289.755	351.38
289.986	367.38
290.217	352.38
290.448	371.38
290.679	379.38
290.91	376.38
291.141	370.38
291.371	385.38
291.602	375.38
291.833	363.38
292.064	375.38
292.295	393.38
292.526	386.38
292.757	374.38
292.987	377.38
293.218	371.38
293.449	380.38
293.68	379.38
293.91	378.38
294.141	382.38
294.372	371.38
294.603	372.38
294.833	372.38
295.064	371.38
295.295	367.38
295.525	384.38
295.756	382.38
295.987	387.38
296.217	391.38
296.448	396.38
296.679	378.38
296.909	369.38
297.14	393.38
297.37	377.38
297.601	391.38
297.831	400.38
298.062	407.38
298.292	395.38
298.523	395.38
298.753	421.38
298.984	417.38
299.214	397.38
299.445	401.38
299.675	387.38
299.905	419.38
300.136	420.38
300.366	410.38
300.597	399.38
300.827	405.38
301.057	402.38
301.288	443.38
301.518	439.38
301.748	431.38
301.979	417.38
302.209	422.38
302.439	418.38
302.669	423.38
302.9	428.38
303.13	421.38
303.36	431.38
303.59	424.38
303.82	433.38
304.051	439.38
304.281	444.38
304.511	417.38
304.741	432.38
304.971	428.38
305.201	419.38
305.431	401.38
305.661	420.38
305.891	440.38
306.121	428.38
306.352	450.38
306.582	437.38
306.812	426.38
307.042	417.38
307.272	423.38
307.502	414.38
307.731	418.38
307.961	427.38
308.191	416.38
308.421	411.38
308.651	427.38
308.881	441.38
309.111	436.38
309.341	444.38
309.571	440.38
309.8	431.38
310.03	460.38
310.26	458.38
310.49	461.38
310.72	475.38
310.949	472.38
311.179	447.38
311.409	449.38
311.639	454.38
311.868	464.38
312.098	448.38
312.328	446.38
312.557	481.38
312.787	485.38
313.017	476.38
313.246	473.38
313.476	478.38
313.706	468.38
313.935	463.38
314.165	482.38
314.394	470.38
314.624	499.38
314.853	473.38
315.083	521.38
315.312	496.38
315.542	471.38
315.771	460.38
316.001	461.38
316.23	471.38
316.46	477.38
316.689	486.38
316.919	473.38
317.148	467.38
317.377	450.38
317.607	457.38
317.836	464.38
318.065	471.38
318.295	460.38
318.524	471.38
318.753	479.38
318.983	471.38
319.212	468.38
319.441	464.38
319.67	476.38
319.9	467.38
320.129	484.38
320.358	468.38
320.587	478.38
320.816	495.38
321.046	495.38
321.275	507.38
321.504	483.38
321.733	491.38
321.962	498.38
322.191	489.38
322.42	513.38
322.649	521.38
322.878	510.38
323.108	515.38
323.337	565.38
323.566	553.38
323.795	598.38
324.024	609.38
324.253	696.38
324.482	901.38
324.71	1300.38
324.939	1868.38
325.168	1655.38
325.397	923.38
325.626	676.38
325.855	593.38
326.084	570.38
326.313	543.38
326.542	572.38
326.77	604.38
326.999	669.38
327.228	815.38
327.457	1183.38
327.686	1441.38
327.914	1013.38
328.143	715.38
328.372	666.38
328.6	636.38
328.829	620.38
329.058	641.38
329.287	636.38
329.515	627.38
329.744	579.38
329.972	601.38
330.201	613.38
330.43	625.38
330.658	636.38
330.887	673.38
331.115	645.38
331.344	612.38
331.572	581.38
331.801	593.38
332.03	602.38
332.258	575.38
332.486	601.38
332.715	597.38
332.943	608.38
333.172	628.38
333.4	626.38
333.629	630.38
333.857	652.38
334.085	649.38
334.314	687.38
334.542	679.38
334.771	719.38
334.999	681.38
335.227	649.38
335.455	619.38
335.684	607.38
335.912	619.38
336.14	602.38
336.369	587.38
336.597	594.38
336.825	599.38
337.053	567.38
337.281	592.38
337.51	580.38
337.738	584.38
337.966	581.38
338.194	566.38
338.422	571.38
338.65	582.38
338.878	577.38
339.106	577.38
339.334	568.38
339.562	554.38
339.79	569.38
340.018	545.38
340.246	538.38
340.474	576.38
340.702	567.38
340.93	544.38
341.158	552.38
341.386	548.38
341.614	552.38
341.842	569.38
342.07	552.38
342.298	568.38
342.526	533.38
342.754	519.38
342.981	544.38
343.209	549.38
343.437	554.38
343.665	576.38
343.893	595.38
344.12	608.38
344.348	596.38
344.576	578.38
344.804	579.38
345.031	567.38
345.259	573.38
345.487	544.38
345.714	543.38
345.942	525.38
346.17	578.38
346.397	525.38
346.625	520.38
346.853	526.38
347.08	523.38
347.308	534.38
347.535	543.38
347.763	528.38
347.99	540.38
348.218	548.38
348.445	553.38
348.673	530.38
348.9	545.38
349.128	555.38
349.355	506.38
349.583	510.38
349.81	527.38
350.037	539.38
350.265	533.38
350.492	493.38
350.72	517.38
350.947	528.38
351.174	501.38
351.402	531.38
351.629	517.38
351.856	511.38
352.083	538.38
352.311	523.38
352.538	521.38
352.765	536.38
352.992	517.38
353.22	534.38
353.447	501.38
353.674	525.38
353.901	512.38
354.128	482.38
354.355	522.38
354.583	519.38
354.81	501.38
355.037	509.38
355.264	514.38
355.491	512.38
355.718	498.38
355.945	495.38
356.172	514.38
356.399	499.38
356.626	524.38
356.853	513.38
357.08	517.38
357.307	529.38
357.534	497.38
357.761	514.38
357.988	489.38
358.215	500.38
358.441	480.38
358.668	505.38
358.895	504.38
359.122	505.38
359.349	515.38
359.576	521.38
359.802	539.38
360.029	580.38
360.256	567.38
360.483	568.38
360.709	529.38
360.936	492.38
361.163	539.38
361.39	537.38
361.616	525.38
361.843	521.38
362.07	539.38
362.296	531.38
362.523	502.38
362.749	512.38
362.976	512.38
363.203	523.38
363.429	514.38
363.656	504.38
363.882	498.38
364.109	518.38
364.335	488.38
364.562	503.38
364.788	514.38
365.015	529.38
365.241	510.38
365.468	501.38
365.694	514.38
365.92	515.38
366.147	534.38
366.373	518.38
366.599	483.38
366.826	510.38
367.052	495.38
367.278	497.38
367.505	524.38
367.731	518.38
367.957	529.38
368.184	507.38
368.41	522.38
368.636	519.38
368.862	538.38
369.089	544.38
369.315	537.38
369.541	513.38
369.767	511.38
369.993	532.38
370.219	531.38
370.445	522.38
370.672	522.38
370.898	533.38
371.124	531.38
371.35	531.38
371.576	525.38
371.802	552.38
372.028	529.38
372.254	527.38
372.48	524.38
372.706	532.38
372.932	550.38
373.158	566.38
373.384	547.38
373.61	535.38
373.835	552.38
374.061	546.38
374.287	539.38
374.513	548.38
374.739	568.38
374.965	583.38
375.191	571.38
375.416	572.38
375.642	551.38
375.868	544.38
376.094	559.38
376.319	540.38
376.545	547.38
376.771	554.38
376.997	546.38
377.222	538.38
377.448	537.38
377.674	525.38
377.899	522.38
378.125	516.38
378.35	540.38
378.576	529.38
378.802	547.38
379.027	536.38
379.253	536.38
379.478	538.38
379.704	522.38
379.929	546.38
380.155	521.38
380.38	527.38
380.606	537.38
380.831	543.38
381.057	515.38
381.282	522.38
381.507	539.38
381.733	536.38
381.958	553.38
382.184	557.38
382.409	533.38
382.634	557.38
382.86	556.38
383.085	580.38
383.31	545.38
383.535	561.38
383.761	563.38
383.986	559.38
384.211	577.38
384.436	603.38
384.662	609.38
384.887	600.38
385.112	582.38
385.337	623.38
385.562	628.38
385.787	608.38
386.013	631.38
386.238	623.38
386.463	602.38
386.688	637.38
386.913	610.38
387.138	611.38
387.363	608.38
387.588	601.38
387.813	630.38
388.038	586.38
388.263	626.38
388.488	612.38
388.713	623.38
388.938	591.38
389.163	591.38
389.387	617.38
389.612	597.38
389.837	627.38
390.062	585.38
390.287	615.38
390.512	633.38
390.736	584.38
390.961	631.38
391.186	612.38
391.411	628.38
391.636	657.38
391.86	644.38
392.085	638.38
392.31	651.38
392.534	655.38
392.759	639.38
392.984	647.38
393.208	650.38
393.433	643.38
393.658	629.38
393.882	620.38
394.107	614.38
394.331	635.38
394.556	615.38
394.78	644.38
395.005	619.38
395.229	629.38
395.454	653.38
395.678	642.38
395.903	679.38
396.127	683.38
396.352	676.38
396.576	646.38
396.801	621.38
397.025	642.38
397.249	663.38
397.474	687.38
397.698	668.38
397.922	657.38
398.147	690.38
398.371	695.38
398.595	701.38
398.82	712.38
399.044	756.38
399.268	821.38
399.492	863.38
399.717	957.38
399.941	1008.38
400.165	973.38
400.389	909.38
400.613	854.38
400.837	779.38
401.062	746.38
401.286	755.38
401.51	741.38
401.734	727.38
401.958	707.38
402.182	747.38
402.406	760.38
402.63	744.38
402.854	773.38
403.078	800.38
403.302	781.38
403.526	787.38
403.75	794.38
403.974	805.38
404.198	793.38
404.422	819.38
404.645	779.38
404.869	807.38
405.093	834.38
405.317	865.38
405.541	892.38
405.765	823.38
405.988	808.38
406.212	801.38
406.436	836.38
406.66	833.38
406.883	819.38
407.107	866.38
407.331	928.38
407.555	1001.38
407.778	987.38
408.002	927.38
408.226	855.38
408.449	841.38
408.673	833.38
408.896	827.38
409.12	869.38
409.344	849.38
409.567	775.38
409.791	795.38
410.014	780.38
410.238	779.38
410.461	758.38
410.685	785.38
410.908	790.38
411.132	817.38
411.355	819.38
411.578	820.38
411.802	790.38
412.025	749.38
412.249	756.38
412.472	829.38
412.695	828.38
412.919	812.38
413.142	787.38
413.365	735.38
413.589	725.38
413.812	769.38
414.035	727.38
414.258	729.38
414.482	735.38
414.705	714.38
414.928	741.38
415.151	740.38
415.374	716.38
415.597	726.38
415.821	731.38
416.044	706.38
416.267	695.38
416.49	738.38
416.713	674.38
416.936	729.38
417.159	729.38
417.382	723.38
417.605	703.38
417.828	719.38
418.051	765.38
418.274	765.38
418.497	744.38
418.72	723.38
418.943	747.38
419.166	768.38
419.389	797.38
419.611	799.38
419.834	793.38
420.057	795.38
420.28	768.38
420.503	736.38
420.726	732.38
420.948	739.38
421.171	767.38
421.394	819.38
421.617	760.38
421.839	777.38
422.062	760.38
422.285	748.38
422.507	827.38
422.73	895.38
422.953	849.38
423.175	809.38
423.398	769.38
423.621	779.38
423.843	833.38
424.066	807.38
424.288	802.38
424.511	802.38
424.733	851.38
424.956	866.38
425.178	893.38
425.401	867.38
425.623	896.38
425.846	807.38
426.068	759.38
426.291	743.38
426.513	732.38
426.735	768.38
426.958	805.38
427.18	877.38
427.402	979.38
427.625	1024.38
427.847	916.38
428.069	840.38
428.292	775.38
428.514	746.38
428.736	709.38
428.958	701.38
429.181	682.38
429.403	675.38
429.625	716.38
429.847	721.38
430.069	759.38
430.292	778.38
430.514	728.38
430.736	682.38
430.958	693.38
431.18	680.38
431.402	670.38
431.624	687.38
431.846	680.38
432.068	685.38
432.29	697.38
432.512	694.38
432.734	695.38
432.956	664.38
433.178	687.38
433.4	707.38
433.622	697.38
433.844	683.38
434.066	675.38
434.287	683.38
434.509	703.38
434.731	718.38
434.953	722.38
435.175	770.38
435.397	751.38
435.618	748.38
435.84	755.38
436.062	859.38
436.284	929.38
436.505	785.38
436.727	711.38
436.949	712.38
437.17	703.38
437.392	685.38
437.614	695.38
437.835	743.38
438.057	793.38
438.278	893.38
438.5	865.38
438.721	952.38
438.943	914.38
439.165	787.38
439.386	726.38
439.608	738.38
439.829	737.38
440.05	756.38
440.272	769.38
440.493	779.38
440.715	737.38
440.936	681.38
441.158	721.38
441.379	739.38
441.6	764.38
441.822	747.38
442.043	793.38
442.264	885.38
442.486	895.38
442.707	799.38
442.928	786.38
443.149	787.38
443.371	792.38
443.592	818.38
443.813	925.38
444.034	969.38
444.255	856.38
444.476	819.38
444.698	828.38
444.919	855.38
445.14	921.38
445.361	862.38
445.582	821.38
445.803	845.38
446.024	925.38
446.245	922.38
446.466	817.38
446.687	771.38
446.908	737.38
447.129	685.38
447.35	678.38
447.571	663.38
447.792	677.38
448.013	671.38
448.234	681.38
448.455	733.38
448.675	842.38
448.896	928.38
449.117	790.38
449.338	772.38
449.559	883.38
449.779	947.38
450	793.38
450.221	709.38
450.442	680.38
450.662	665.38
450.883	646.38
451.104	670.38
451.324	667.38
451.545	653.38
451.766	639.38
451.986	605.38
452.207	616.38
452.428	605.38
452.648	632.38
452.869	605.38
453.089	617.38
453.31	652.38
453.53	619.38
453.751	602.38
453.971	616.38
454.192	614.38
454.412	602.38
454.633	590.38
454.853	616.38
455.073	610.38
455.294	621.38
455.514	678.38
455.734	661.38
455.955	592.38
456.175	590.38
456.395	574.38
456.616	563.38
456.836	583.38
457.056	580.38
457.276	559.38
457.497	596.38
457.717	607.38
457.937	605.38
458.157	600.38
458.377	604.38
458.598	615.38
458.818	692.38
459.038	775.38
459.258	801.38
459.478	729.38
459.698	709.38
459.918	682.38
460.138	709.38
460.358	737.38
460.578	744.38
460.798	733.38
461.018	743.38
461.238	715.38
461.458	736.38
461.678	718.38
461.898	738.38
462.118	747.38
462.338	785.38
462.558	781.38
462.777	827.38
462.997	864.38
463.217	884.38
463.437	907.38
463.657	857.38
463.876	835.38
464.096	840.38
464.316	816.38
464.536	805.38
464.755	823.38
464.975	805.38
465.195	825.38
465.414	819.38
465.634	751.38
465.854	722.38
466.073	682.38
466.293	661.38
466.512	673.38
466.732	655.38
466.951	631.38
467.171	631.38
467.391	647.38
467.61	690.38
467.829	656.38
468.049	676.38
468.268	644.38
468.488	625.38
468.707	630.38
468.927	613.38
469.146	615.38
469.365	612.38
469.585	620.38
469.804	644.38
470.023	647.38
470.243	658.38
470.462	686.38
470.681	707.38
470.901	695.38
471.12	684.38
471.339	659.38
471.558	648.38
471.777	637.38
471.997	601.38
472.216	637.38
472.435	695.38
472.654	666.38
472.873	636.38
473.092	627.38
473.311	632.38
473.53	619.38
473.749	635.38
473.968	668.38
474.187	765.38
474.406	754.38
474.625	683.38
474.844	654.38
475.063	639.38
475.282	637.38
475.501	644.38
475.72	646.38
475.939	654.38
476.158	675.38
476.377	640.38
476.596	639.38
476.814	671.38
477.033	666.38
477.252	669.38
477.471	671.38
477.69	695.38
477.908	695.38
478.127	706.38
478.346	736.38
478.564	744.38
478.783	771.38
479.002	775.38
479.22	784.38
479.439	769.38
479.658	791.38
479.876	775.38
480.095	824.38
480.313	859.38
480.532	844.38
480.751	833.38
480.969	843.38
481.188	865.38
481.406	903.38
481.624	817.38
481.843	794.38
482.061	741.38
482.28	762.38
482.498	779.38
482.717	771.38
482.935	762.38
483.153	738.38
483.372	735.38
483.59	757.38
483.808	740.38
484.027	744.38
484.245	767.38
484.463	748.38
484.681	775.38
484.9	780.38
485.118	774.38
485.336	759.38
485.554	795.38
485.772	795.38
485.99	788.38
486.209	748.38
486.427	760.38
486.645	795.38
486.863	817.38
487.081	812.38
487.299	791.38
487.517	810.38
487.735	793.38
487.953	794.38
488.171	781.38
488.389	824.38
488.607	793.38
488.825	791.38
489.043	778.38
489.261	821.38
489.479	821.38
489.696	808.38
489.914	810.38
490.132	821.38
490.35	809.38
490.568	831.38
490.786	834.38
491.003	861.38
491.221	848.38
491.439	878.38
491.657	881.38
491.874	872.38
492.092	888.38
492.31	893.38
492.527	895.38
492.745	899.38
492.963	907.38
493.18	904.38
493.398	936.38
493.615	947.38
493.833	947.38
494.05	941.38
494.268	943.38
494.485	938.38
494.703	913.38
494.92	947.38
495.138	931.38
495.355	923.38
495.573	892.38
495.79	947.38
496.008	951.38
496.225	952.38
496.442	940.38
496.66	963.38
496.877	963.38
497.094	963.38
497.312	945.38
497.529	966.38
497.746	986.38
497.963	1056.38
498.181	1071.38
498.398	1093.38
498.615	1116.38
498.832	1157.38
499.049	1223.38
499.267	1311.38
499.484	1356.38
499.701	1423.38
499.918	1543.38
500.135	1669.38
500.352	1833.38
500.569	1867.38
500.786	1864.38
501.003	1765.38
501.22	1656.38
501.437	1531.38
501.654	1484.38
501.871	1375.38
502.088	1275.38
502.305	1232.38
502.522	1184.38
502.739	1154.38
502.956	1090.38
503.172	1029.38
503.389	1021.38
503.606	1021.38
503.823	1007.38
504.04	987.38
504.256	1004.38
504.473	1012.38
504.69	1016.38
504.907	994.38
505.123	968.38
505.34	924.38
505.557	897.38
505.773	900.38
505.99	880.38
506.207	873.38
506.423	876.38
506.64	868.38
506.856	824.38
507.073	850.38
507.289	860.38
507.506	873.38
507.722	856.38
507.939	863.38
508.155	827.38
508.372	821.38
508.588	806.38
508.805	828.38
509.021	801.38
509.238	810.38
509.454	853.38
509.67	825.38
509.887	788.38
510.103	792.38
510.319	796.38
510.536	884.38
510.752	1319.38
510.968	1141.38
511.184	796.38
511.401	775.38
511.617	782.38
511.833	740.38
512.049	793.38
512.265	778.38
512.481	778.38
512.698	761.38
512.914	756.38
513.13	748.38
513.346	740.38
513.562	745.38
513.778	775.38
513.994	755.38
514.21	775.38
514.426	794.38
514.642	840.38
514.858	835.38
515.074	877.38
515.29	970.38
515.506	1335.38
515.721	1163.38
515.937	895.38
516.153	843.38
516.369	823.38
516.585	835.38
516.801	846.38
517.016	871.38
517.232	922.38
517.448	919.38
517.664	924.38
517.879	936.38
518.095	931.38
518.311	924.38
518.527	891.38
518.742	884.38
518.958	833.38
519.173	835.38
519.389	831.38
519.605	800.38
519.82	821.38
520.036	782.38
520.251	786.38
520.467	841.38
520.682	795.38
520.898	804.38
521.113	803.38
521.329	824.38
521.544	874.38
521.76	1058.38
521.975	1604.38
522.19	1649.38
522.406	965.38
522.621	787.38
522.836	756.38
523.052	736.38
523.267	738.38
523.482	700.38
523.698	697.38
523.913	698.38
524.128	697.38
524.343	695.38
524.559	696.38
524.774	677.38
524.989	670.38
525.204	680.38
525.419	692.38
525.634	667.38
525.849	658.38
526.064	644.38
526.28	650.38
526.495	669.38
526.71	633.38
526.925	649.38
527.14	646.38
527.355	659.38
527.57	655.38
527.785	651.38
527.999	676.38
528.214	652.38
528.429	630.38
528.644	634.38
528.859	632.38
529.074	640.38
529.289	662.38
529.503	731.38
529.718	696.38
529.933	639.38
530.148	664.38
530.363	663.38
530.577	640.38
530.792	663.38
531.007	621.38
531.221	630.38
531.436	647.38
531.651	657.38
531.865	641.38
532.08	649.38
532.295	629.38
532.509	598.38
532.724	637.38
532.938	618.38
533.153	645.38
533.367	649.38
533.582	638.38
533.796	636.38
534.011	629.38
534.225	641.38
534.44	633.38
534.654	641.38
534.868	624.38
535.083	623.38
535.297	628.38
535.511	641.38
535.726	632.38
535.94	630.38
536.154	607.38
536.369	613.38
536.583	618.38
536.797	613.38
537.011	594.38
537.225	568.38
537.44	611.38
537.654	603.38
537.868	610.38
538.082	575.38
538.296	609.38
538.51	611.38
538.724	606.38
538.938	597.38
539.153	582.38
539.367	593.38
539.581	588.38
539.795	587.38
540.009	596.38
540.222	605.38
540.436	601.38
540.65	586.38
540.864	601.38
541.078	597.38
541.292	593.38
541.506	571.38
541.72	608.38
541.934	583.38
542.147	599.38
542.361	585.38
542.575	576.38
542.789	605.38
543.002	557.38
543.216	588.38
543.43	582.38
543.644	583.38
543.857	597.38
544.071	593.38
544.285	602.38
544.498	583.38
544.712	597.38
544.925	600.38
545.139	577.38
545.352	597.38
545.566	590.38
545.779	608.38
545.993	593.38
546.206	597.38
546.42	614.38
546.633	580.38
546.847	609.38
547.06	586.38
547.274	584.38
547.487	567.38
547.7	581.38
547.914	598.38
548.127	599.38
548.34	583.38
548.554	594.38
548.767	583.38
548.98	588.38
549.193	608.38
549.407	581.38
549.62	611.38
549.833	608.38
550.046	594.38
550.259	600.38
550.473	591.38
550.686	570.38
550.899	594.38
551.112	584.38
551.325	583.38
551.538	604.38
551.751	581.38
551.964	601.38
552.177	581.38
552.39	614.38
552.603	575.38
552.816	613.38
553.029	616.38
553.242	636.38
553.455	626.38
553.667	625.38
553.88	643.38
554.093	611.38
554.306	625.38
554.519	625.38
554.732	585.38
554.944	585.38
555.157	595.38
555.37	592.38
555.583	569.38
555.795	541.38
556.008	557.38
556.221	533.38
556.433	547.38
556.646	547.38
556.859	537.38
557.071	542.38
557.284	517.38
557.496	514.38
557.709	504.38
557.921	525.38
558.134	519.38
558.346	523.38
558.559	483.38
558.771	489.38
558.984	517.38
559.196	527.38
559.409	490.38
559.621	520.38
559.833	481.38
560.046	507.38
560.258	500.38
560.47	489.38
560.683	495.38
560.895	519.38
561.107	518.38
561.32	501.38
561.532	503.38
561.744	515.38
561.956	512.38
562.168	524.38
562.381	512.38
562.593	517.38
562.805	517.38
563.017	500.38
563.229	512.38
563.441	516.38
563.653	521.38
563.865	532.38
564.077	525.38
564.289	552.38
564.501	544.38
564.713	532.38
564.925	552.38
565.137	575.38
565.349	567.38
565.561	585.38
565.773	595.38
565.985	602.38
566.197	635.38
566.408	657.38
566.62	700.38
566.832	750.38
567.044	771.38
567.255	777.38
567.467	792.38
567.679	808.38
567.891	836.38
568.102	856.38
568.314	845.38
568.526	751.38
568.737	726.38
568.949	643.38
569.161	635.38
569.372	612.38
569.584	592.38
569.795	588.38
570.007	561.38
570.218	592.38
570.43	557.38
570.641	531.38
570.853	523.38
571.064	519.38
571.276	547.38
571.487	543.38
571.698	504.38
571.91	506.38
572.121	479.38
572.333	455.38
572.544	471.38
572.755	457.38
572.966	461.38
573.178	454.38
573.389	459.38
573.6	443.38
573.811	464.38
574.023	440.38
574.234	456.38
574.445	434.38
574.656	466.38
574.867	435.38
575.078	444.38
575.289	453.38
575.501	432.38
575.712	421.38
575.923	411.38
576.134	439.38
576.345	435.38
576.556	428.38
576.767	437.38
576.978	421.38
577.188	420.38
577.399	429.38
577.61	444.38
577.821	428.38
578.032	427.38
578.243	443.38
578.454	603.38
578.665	508.38
578.875	409.38
579.086	402.38
579.297	409.38
579.508	396.38
579.718	429.38
579.929	418.38
580.14	396.38
580.35	394.38
580.561	399.38
580.772	386.38
580.982	392.38
581.193	388.38
581.403	381.38
581.614	403.38
581.825	396.38
582.035	376.38
582.246	375.38
582.456	374.38
582.667	382.38
582.877	379.38
583.087	372.38
583.298	373.38
583.508	379.38
583.719	391.38
583.929	395.38
584.139	395.38
584.35	396.38
584.56	383.38
584.77	411.38
584.981	393.38
585.191	395.38
585.401	382.38
585.611	383.38
585.821	379.38
586.032	381.38
586.242	380.38
586.452	391.38
586.662	375.38
586.872	378.38
587.082	397.38
587.292	392.38
587.502	371.38
587.713	364.38
587.923	359.38
588.133	389.38
588.343	374.38
588.553	365.38
588.762	380.38
588.972	374.38
589.182	384.38
589.392	398.38
589.602	397.38
589.812	394.38
590.022	381.38
590.232	380.38
590.441	378.38
590.651	367.38
590.861	396.38
591.071	403.38
591.281	393.38
591.49	403.38
591.7	408.38
591.91	414.38
592.119	394.38
592.329	417.38
592.539	416.38
592.748	415.38
592.958	444.38
593.167	458.38
593.377	445.38
593.587	459.38
593.796	468.38
594.006	468.38
594.215	461.38
594.424	473.38
594.634	421.38
594.843	443.38
595.053	423.38
595.262	422.38
595.472	402.38
595.681	398.38
595.89	383.38
596.1	374.38
596.309	371.38
596.518	398.38
596.727	363.38
596.937	367.38
597.146	345.38
597.355	354.38
597.564	347.38
597.774	341.38
597.983	360.38
598.192	345.38
598.401	342.38
598.61	341.38
598.819	337.38
599.028	340.38
599.237	337.38
599.446	321.38
599.655	323.38
599.864	314.38
600.073	326.38
600.282	321.38
600.491	334.38
600.7	344.38
600.909	332.38
601.118	323.38
601.327	338.38
601.536	338.38
601.745	320.38
601.953	315.38
602.162	318.38
602.371	313.38
602.58	295.38
602.789	300.38
602.997	320.38
603.206	310.38
603.415	324.38
603.623	330.38
603.832	316.38
604.041	307.38
604.249	337.38
604.458	327.38
604.666	307.38
604.875	292.38
605.084	311.38
605.292	297.38
605.501	294.38
605.709	304.38
605.918	296.38
606.126	297.38
606.334	301.38
606.543	307.38
606.751	303.38
606.96	312.38
607.168	297.38
607.376	311.38
607.585	309.38
607.793	294.38
608.001	305.38
608.21	305.38
608.418	288.38
608.626	303.38
608.834	317.38
609.043	286.38
609.251	299.38
609.459	291.38
609.667	272.38
609.875	292.38
610.083	278.38
610.291	300.38
610.499	297.38
610.707	293.38
610.916	307.38
611.124	296.38
611.332	297.38
611.54	314.38
611.748	293.38
611.955	292.38
612.163	303.38
612.371	316.38
612.579	294.38
612.787	291.38
612.995	287.38
613.203	305.38
613.411	316.38
613.618	298.38
613.826	295.38
614.034	296.38
614.242	304.38
614.449	291.38
614.657	293.38
614.865	286.38
615.072	290.38
615.28	309.38
615.488	301.38
615.695	278.38
615.903	283.38
616.111	290.38
616.318	297.38
616.526	269.38
616.733	298.38
616.941	289.38
617.148	284.38
617.356	288.38
617.563	300.38
617.771	303.38
617.978	274.38
618.185	285.38
618.393	283.38
618.6	291.38
618.807	303.38
619.015	291.38
619.222	282.38
619.429	290.38
619.637	287.38
619.844	265.38
620.051	288.38
620.258	273.38
620.466	276.38
620.673	261.38
620.88	280.38
621.087	266.38
621.294	261.38
621.501	266.38
621.708	287.38
621.915	262.38
622.122	281.38
622.329	268.38
622.536	273.38
622.743	269.38
622.95	279.38
623.157	273.38
623.364	268.38
623.571	281.38
623.778	271.38
623.985	275.38
624.192	276.38
624.399	262.38
624.606	255.38
624.812	253.38
625.019	255.38
625.226	259.38
625.433	263.38
625.639	264.38
625.846	248.38
626.053	250.38
626.259	273.38
626.466	235.38
626.673	254.38
626.879	255.38
627.086	261.38
627.293	259.38
627.499	241.38
627.706	243.38
627.912	251.38
628.119	242.38
628.325	254.38
628.532	239.38
628.738	244.38
628.945	228.38
629.151	234.38
629.357	232.38
629.564	249.38
629.77	245.38
629.976	218.38
630.183	223.38
630.389	231.38
630.595	239.38
630.802	232.38
631.008	232.38
631.214	229.38
631.42	233.38
631.627	239.38
631.833	230.38
632.039	225.38
632.245	217.38
632.451	245.38
632.657	234.38
632.863	215.38
633.069	235.38
633.275	239.38
633.481	231.38
633.688	220.38
633.893	227.38
634.099	235.38
634.305	227.38
634.511	216.38
634.717	209.38
634.923	206.38
635.129	215.38
635.335	214.38
635.541	219.38
635.747	209.38
635.952	209.38
636.158	220.38
636.364	236.38
636.57	225.38
636.775	235.38
636.981	230.38
637.187	224.38
637.392	209.38
637.598	223.38
637.804	201.38
638.009	211.38
638.215	229.38
638.421	223.38
638.626	213.38
638.832	211.38
639.037	201.38
639.243	212.38
639.448	201.38
639.654	213.38
639.859	199.38
640.065	209.38
640.27	199.38
640.475	203.38
640.681	204.38
640.886	213.38
641.091	196.38
641.297	213.38
641.502	185.38
641.707	199.38
641.913	217.38
642.118	199.38
642.323	191.38
642.528	188.38
642.733	190.38
642.939	195.38
643.144	197.38
643.349	195.38
643.554	220.38
643.759	193.38
643.964	187.38
644.169	194.38
644.374	202.38
644.579	190.38
644.784	200.38
644.989	191.38
645.194	184.38
645.399	190.38
645.604	192.38
645.809	205.38
646.014	181.38
646.219	193.38
646.423	224.38
646.628	197.38
646.833	196.38
647.038	186.38
647.243	196.38
647.447	197.38
647.652	175.38
647.857	191.38
648.062	203.38
648.266	199.38
648.471	203.38
648.676	208.38
648.88	209.38
649.085	215.38
649.289	195.38
649.494	195.38
649.698	216.38
649.903	207.38
650.107	187.38
650.312	202.38
650.516	199.38
650.721	184.38
650.925	183.38
651.13	181.38
651.334	173.38
651.539	175.38
651.743	175.38
651.947	156.38
652.152	161.38
652.356	167.38
652.56	170.38
652.764	164.38
652.969	152.38
653.173	161.38
653.377	161.38
653.581	149.38
653.785	145.38
653.99	179.38
654.194	162.38
654.398	165.38
654.602	171.38
654.806	144.38
655.01	151.38
655.214	167.38
655.418	162.38
655.622	145.38
655.826	153.38
656.03	161.38
656.234	162.38
656.438	154.38
656.642	145.38
656.846	150.38
657.049	155.38
657.253	129.38
657.457	138.38
657.661	122.38
657.865	113.38
658.068	121.38
658.272	123.38
658.476	114.38
658.68	131.38
658.883	119.38
659.087	95.38
659.291	93.38
659.494	107.38
659.698	103.38
659.901	100.38
660.105	100.38
660.309	95.38
660.512	88.38
660.716	102.38
660.919	100.38
661.123	104.38
661.326	83.38
661.53	88.38
661.733	80.38
661.936	94.38
662.14	89.38
662.343	93.38
662.546	94.38
662.75	75.38
662.953	101.38
663.156	98.38
663.36	80.38
663.563	86.38
663.766	91.38
663.969	73.38
664.173	93.38
664.376	91.38
664.579	82.38
664.782	79.38
664.985	78.38
665.188	72.38
665.391	79.38
665.594	76.38
665.797	83.38
666	81.38
666.203	69.38
666.406	75.38
666.609	90.38
666.812	84.38
667.015	86.38
667.218	89.38
667.421	73.38
667.624	85.38
667.827	83.38
668.03	81.38
668.232	82.38
668.435	94.38
668.638	88.38
668.841	79.38
669.043	80.38
669.246	83.38
669.449	75.38
669.651	85.38
669.854	81.38
670.057	84.38
670.259	75.38
670.462	81.38
670.665	69.38
670.867	73.38
671.07	90.38
671.272	84.38
671.475	74.38
671.677	77.38
671.88	75.38
672.082	77.38
672.284	86.38
672.487	75.38
672.689	91.38
672.892	81.38
