Data from 1963.PennyLincolnUp.Lamp.En5.5.200Scan.071719.P1._HRD10591_13-59-32-063.txt Node
Date: Thu Jul 18 13:59:32 EDT 2019
User: cochatt
Spectrometer: HR+D1059
Trigger mode: 1
Integration Time (sec): 1.000000E-1
Scans to average: 1
Electric dark correction enabled: true
Nonlinearity correction enabled: false
Boxcar width: 0
XAxis mode: Wavelengths
Number of Pixels in Spectrum: 2048
>>>>>Begin Spectral Data<<<<<
223.165	-4.31
223.4	-4.31
223.635	-4.31
223.869	-16.31
224.104	-22.31
224.338	-24.31
224.573	-8.31
224.808	-24.31
225.042	-10.31
225.277	-22.31
225.511	-6.31
225.746	8.69
225.98	12.69
226.215	17.69
226.449	12.69
226.683	23.69
226.918	31.69
227.152	31.69
227.387	31.69
227.621	39.69
227.856	42.69
228.09	44.69
228.324	47.69
228.559	57.69
228.793	75.69
229.027	91.69
229.262	84.69
229.496	117.69
229.73	116.69
229.964	139.69
230.199	135.69
230.433	112.69
230.667	121.69
230.901	126.69
231.136	117.69
231.37	117.69
231.604	117.69
231.838	106.69
232.072	104.69
232.306	122.69
232.541	118.69
232.775	123.69
233.009	120.69
233.243	110.69
233.477	122.69
233.711	138.69
233.945	117.69
234.179	127.69
234.413	117.69
234.647	128.69
234.881	128.69
235.115	117.69
235.349	130.69
235.583	140.69
235.817	115.69
236.051	131.69
236.285	127.69
236.519	130.69
236.753	129.69
236.987	136.69
237.221	163.69
237.455	225.69
237.689	164.69
237.922	134.69
238.156	151.69
238.39	137.69
238.624	122.69
238.858	138.69
239.091	131.69
239.325	148.69
239.559	131.69
239.793	124.69
240.027	141.69
240.26	141.69
240.494	171.69
240.728	154.69
240.961	167.69
241.195	162.69
241.429	163.69
241.662	139.69
241.896	157.69
242.13	149.69
242.363	150.69
242.597	133.69
242.83	155.69
243.064	147.69
243.298	144.69
243.531	149.69
243.765	157.69
243.998	161.69
244.232	161.69
244.465	172.69
244.699	142.69
244.932	159.69
245.166	162.69
245.399	158.69
245.633	168.69
245.866	162.69
246.099	158.69
246.333	166.69
246.566	168.69
246.8	180.69
247.033	170.69
247.266	177.69
247.5	169.69
247.733	187.69
247.966	191.69
248.2	181.69
248.433	186.69
248.666	192.69
248.899	196.69
249.133	197.69
249.366	221.69
249.599	220.69
249.832	203.69
250.066	189.69
250.299	196.69
250.532	199.69
250.765	212.69
250.998	249.69
251.231	246.69
251.465	228.69
251.698	230.69
251.931	215.69
252.164	213.69
252.397	224.69
252.63	209.69
252.863	236.69
253.096	228.69
253.329	229.69
253.562	237.69
253.795	229.69
254.028	237.69
254.261	240.69
254.494	240.69
254.727	245.69
254.96	261.69
255.193	270.69
255.426	266.69
255.659	243.69
255.892	244.69
256.124	255.69
256.357	257.69
256.59	240.69
256.823	214.69
257.056	235.69
257.289	237.69
257.521	209.69
257.754	232.69
257.987	239.69
258.22	228.69
258.452	227.69
258.685	243.69
258.918	226.69
259.151	255.69
259.383	239.69
259.616	239.69
259.849	240.69
260.081	265.69
260.314	268.69
260.547	277.69
260.779	275.69
261.012	255.69
261.244	244.69
261.477	243.69
261.71	244.69
261.942	249.69
262.175	258.69
262.407	262.69
262.64	240.69
262.872	242.69
263.105	245.69
263.337	216.69
263.57	235.69
263.802	217.69
264.035	223.69
264.267	239.69
264.499	239.69
264.732	256.69
264.964	251.69
265.197	252.69
265.429	240.69
265.661	256.69
265.894	244.69
266.126	255.69
266.358	257.69
266.591	257.69
266.823	251.69
267.055	265.69
267.287	261.69
267.52	257.69
267.752	246.69
267.984	259.69
268.216	262.69
268.448	260.69
268.681	268.69
268.913	292.69
269.145	289.69
269.377	305.69
269.609	295.69
269.841	320.69
270.073	293.69
270.306	308.69
270.538	323.69
270.77	320.69
271.002	322.69
271.234	312.69
271.466	316.69
271.698	333.69
271.93	333.69
272.162	326.69
272.394	327.69
272.626	335.69
272.858	323.69
273.09	331.69
273.322	307.69
273.553	306.69
273.785	308.69
274.017	307.69
274.249	317.69
274.481	307.69
274.713	292.69
274.945	284.69
275.176	313.69
275.408	303.69
275.64	304.69
275.872	297.69
276.104	318.69
276.335	303.69
276.567	310.69
276.799	336.69
277.031	343.69
277.262	337.69
277.494	352.69
277.726	341.69
277.957	329.69
278.189	331.69
278.421	329.69
278.652	322.69
278.884	305.69
279.115	302.69
279.347	319.69
279.579	316.69
279.81	317.69
280.042	311.69
280.273	331.69
280.505	330.69
280.736	320.69
280.968	300.69
281.199	322.69
281.431	312.69
281.662	318.69
281.894	340.69
282.125	312.69
282.356	339.69
282.588	353.69
282.819	357.69
283.051	343.69
283.282	333.69
283.513	344.69
283.745	341.69
283.976	329.69
284.207	347.69
284.439	340.69
284.67	353.69
284.901	333.69
285.132	340.69
285.364	345.69
285.595	327.69
285.826	325.69
286.057	343.69
286.288	368.69
286.52	339.69
286.751	337.69
286.982	350.69
287.213	361.69
287.444	348.69
287.675	335.69
287.906	347.69
288.138	354.69
288.369	379.69
288.6	370.69
288.831	362.69
289.062	367.69
289.293	355.69
289.524	347.69
289.755	345.69
289.986	339.69
290.217	354.69
290.448	359.69
290.679	367.69
290.91	369.69
291.141	368.69
291.371	348.69
291.602	348.69
291.833	369.69
292.064	378.69
292.295	371.69
292.526	366.69
292.757	360.69
292.987	348.69
293.218	365.69
293.449	356.69
293.68	360.69
293.91	373.69
294.141	361.69
294.372	385.69
294.603	383.69
294.833	377.69
295.064	387.69
295.295	368.69
295.525	355.69
295.756	373.69
295.987	359.69
296.217	376.69
296.448	403.69
296.679	402.69
296.909	373.69
297.14	389.69
297.37	387.69
297.601	376.69
297.831	380.69
298.062	409.69
298.292	386.69
298.523	384.69
298.753	408.69
298.984	371.69
299.214	393.69
299.445	381.69
299.675	400.69
299.905	407.69
300.136	387.69
300.366	408.69
300.597	395.69
300.827	413.69
301.057	420.69
301.288	425.69
301.518	416.69
301.748	408.69
301.979	439.69
302.209	428.69
302.439	408.69
302.669	433.69
302.9	422.69
303.13	427.69
303.36	414.69
303.59	431.69
303.82	438.69
304.051	435.69
304.281	420.69
304.511	413.69
304.741	426.69
304.971	437.69
305.201	414.69
305.431	405.69
305.661	397.69
305.891	411.69
306.121	405.69
306.352	427.69
306.582	417.69
306.812	421.69
307.042	403.69
307.272	427.69
307.502	419.69
307.731	418.69
307.961	414.69
308.191	439.69
308.421	411.69
308.651	424.69
308.881	428.69
309.111	426.69
309.341	429.69
309.571	430.69
309.8	439.69
310.03	445.69
310.26	444.69
310.49	418.69
310.72	449.69
310.949	446.69
311.179	464.69
311.409	451.69
311.639	453.69
311.868	442.69
312.098	441.69
312.328	450.69
312.557	483.69
312.787	480.69
313.017	481.69
313.246	461.69
313.476	453.69
313.706	449.69
313.935	474.69
314.165	488.69
314.394	475.69
314.624	477.69
314.853	488.69
315.083	468.69
315.312	464.69
315.542	442.69
315.771	450.69
316.001	448.69
316.23	431.69
316.46	446.69
316.689	451.69
316.919	484.69
317.148	465.69
317.377	453.69
317.607	461.69
317.836	443.69
318.065	467.69
318.295	468.69
318.524	445.69
318.753	459.69
318.983	457.69
319.212	447.69
319.441	453.69
319.67	467.69
319.9	457.69
320.129	453.69
320.358	449.69
320.587	495.69
320.816	469.69
321.046	471.69
321.275	491.69
321.504	468.69
321.733	479.69
321.962	496.69
322.191	463.69
322.42	468.69
322.649	500.69
322.878	500.69
323.108	503.69
323.337	518.69
323.566	540.69
323.795	554.69
324.024	581.69
324.253	653.69
324.482	829.69
324.71	1198.69
324.939	1724.69
325.168	1534.69
325.397	841.69
325.626	653.69
325.855	582.69
326.084	557.69
326.313	550.69
326.542	554.69
326.77	591.69
326.999	647.69
327.228	804.69
327.457	1143.69
327.686	1380.69
327.914	949.69
328.143	698.69
328.372	634.69
328.6	602.69
328.829	587.69
329.058	594.69
329.287	599.69
329.515	603.69
329.744	581.69
329.972	567.69
330.201	578.69
330.43	632.69
330.658	630.69
330.887	643.69
331.115	640.69
331.344	572.69
331.572	567.69
331.801	568.69
332.03	583.69
332.258	572.69
332.486	540.69
332.715	587.69
332.943	585.69
333.172	603.69
333.4	634.69
333.629	637.69
333.857	616.69
334.085	645.69
334.314	663.69
334.542	692.69
334.771	667.69
334.999	633.69
335.227	613.69
335.455	605.69
335.684	594.69
335.912	585.69
336.14	595.69
336.369	565.69
336.597	588.69
336.825	607.69
337.053	573.69
337.281	551.69
337.51	568.69
337.738	566.69
337.966	580.69
338.194	554.69
338.422	567.69
338.65	565.69
338.878	568.69
339.106	538.69
339.334	541.69
339.562	570.69
339.79	544.69
340.018	538.69
340.246	518.69
340.474	533.69
340.702	548.69
340.93	524.69
341.158	541.69
341.386	526.69
341.614	543.69
341.842	546.69
342.07	532.69
342.298	520.69
342.526	519.69
342.754	527.69
342.981	536.69
343.209	513.69
343.437	553.69
343.665	560.69
343.893	585.69
344.12	609.69
344.348	581.69
344.576	562.69
344.804	588.69
345.031	558.69
345.259	570.69
345.487	556.69
345.714	533.69
345.942	528.69
346.17	510.69
346.397	505.69
346.625	515.69
346.853	516.69
347.08	500.69
347.308	519.69
347.535	521.69
347.763	498.69
347.99	497.69
348.218	517.69
348.445	526.69
348.673	537.69
348.9	519.69
349.128	517.69
349.355	522.69
349.583	512.69
349.81	496.69
350.037	500.69
350.265	496.69
350.492	483.69
350.72	527.69
350.947	522.69
351.174	511.69
351.402	482.69
351.629	511.69
351.856	518.69
352.083	537.69
352.311	509.69
352.538	499.69
352.765	512.69
352.992	491.69
353.22	517.69
353.447	493.69
353.674	484.69
353.901	480.69
354.128	473.69
354.355	502.69
354.583	495.69
354.81	506.69
355.037	504.69
355.264	481.69
355.491	479.69
355.718	488.69
355.945	496.69
356.172	500.69
356.399	489.69
356.626	483.69
356.853	497.69
357.08	485.69
357.307	486.69
357.534	479.69
357.761	503.69
357.988	486.69
358.215	486.69
358.441	476.69
358.668	478.69
358.895	493.69
359.122	499.69
359.349	519.69
359.576	516.69
359.802	552.69
360.029	551.69
360.256	553.69
360.483	537.69
360.709	512.69
360.936	514.69
361.163	510.69
361.39	495.69
361.616	487.69
361.843	515.69
362.07	511.69
362.296	518.69
362.523	513.69
362.749	499.69
362.976	522.69
363.203	495.69
363.429	526.69
363.656	503.69
363.882	503.69
364.109	488.69
364.335	513.69
364.562	513.69
364.788	502.69
365.015	488.69
365.241	488.69
365.468	508.69
365.694	491.69
365.92	517.69
366.147	515.69
366.373	496.69
366.599	492.69
366.826	486.69
367.052	484.69
367.278	499.69
367.505	499.69
367.731	521.69
367.957	523.69
368.184	498.69
368.41	513.69
368.636	491.69
368.862	527.69
369.089	531.69
369.315	501.69
369.541	520.69
369.767	494.69
369.993	526.69
370.219	509.69
370.445	509.69
370.672	506.69
370.898	519.69
371.124	513.69
371.35	538.69
371.576	529.69
371.802	524.69
372.028	549.69
372.254	525.69
372.48	519.69
372.706	533.69
372.932	555.69
373.158	512.69
373.384	540.69
373.61	524.69
373.835	538.69
374.061	526.69
374.287	542.69
374.513	549.69
374.739	564.69
374.965	559.69
375.191	553.69
375.416	575.69
375.642	538.69
375.868	540.69
376.094	523.69
376.319	539.69
376.545	537.69
376.771	541.69
376.997	518.69
377.222	520.69
377.448	523.69
377.674	501.69
377.899	539.69
378.125	517.69
378.35	538.69
378.576	497.69
378.802	508.69
379.027	505.69
379.253	487.69
379.478	534.69
379.704	517.69
379.929	533.69
380.155	516.69
380.38	521.69
380.606	525.69
380.831	524.69
381.057	520.69
381.282	534.69
381.507	522.69
381.733	550.69
381.958	525.69
382.184	524.69
382.409	534.69
382.634	530.69
382.86	562.69
383.085	550.69
383.31	547.69
383.535	556.69
383.761	539.69
383.986	547.69
384.211	560.69
384.436	552.69
384.662	592.69
384.887	613.69
385.112	580.69
385.337	596.69
385.562	600.69
385.787	613.69
386.013	626.69
386.238	607.69
386.463	605.69
386.688	609.69
386.913	587.69
387.138	603.69
387.363	608.69
387.588	589.69
387.813	581.69
388.038	587.69
388.263	592.69
388.488	614.69
388.713	609.69
388.938	580.69
389.163	595.69
389.387	593.69
389.612	600.69
389.837	584.69
390.062	592.69
390.287	588.69
390.512	592.69
390.736	592.69
390.961	600.69
391.186	615.69
391.411	610.69
391.636	642.69
391.86	659.69
392.085	666.69
392.31	662.69
392.534	621.69
392.759	630.69
392.984	629.69
393.208	631.69
393.433	627.69
393.658	639.69
393.882	609.69
394.107	618.69
394.331	625.69
394.556	637.69
394.78	612.69
395.005	608.69
395.229	627.69
395.454	643.69
395.678	673.69
395.903	672.69
396.127	658.69
396.352	651.69
396.576	645.69
396.801	639.69
397.025	636.69
397.249	623.69
397.474	672.69
397.698	687.69
397.922	676.69
398.147	680.69
398.371	701.69
398.595	683.69
398.82	701.69
399.044	736.69
399.268	778.69
399.492	852.69
399.717	960.69
399.941	978.69
400.165	941.69
400.389	896.69
400.613	802.69
400.837	788.69
401.062	736.69
401.286	719.69
401.51	734.69
401.734	712.69
401.958	717.69
402.182	735.69
402.406	739.69
402.63	762.69
402.854	762.69
403.078	753.69
403.302	760.69
403.526	776.69
403.75	782.69
403.974	778.69
404.198	791.69
404.422	784.69
404.645	789.69
404.869	810.69
405.093	815.69
405.317	850.69
405.541	869.69
405.765	805.69
405.988	771.69
406.212	785.69
406.436	826.69
406.66	849.69
406.883	826.69
407.107	860.69
407.331	895.69
407.555	971.69
407.778	962.69
408.002	902.69
408.226	861.69
408.449	849.69
408.673	837.69
408.896	851.69
409.12	866.69
409.344	839.69
409.567	773.69
409.791	791.69
410.014	771.69
410.238	739.69
410.461	748.69
410.685	736.69
410.908	772.69
411.132	783.69
411.355	817.69
411.578	805.69
411.802	734.69
412.025	716.69
412.249	777.69
412.472	808.69
412.695	770.69
412.919	770.69
413.142	760.69
413.365	734.69
413.589	718.69
413.812	697.69
414.035	716.69
414.258	710.69
414.482	734.69
414.705	702.69
414.928	720.69
415.151	713.69
415.374	702.69
415.597	708.69
415.821	686.69
416.044	694.69
416.267	685.69
416.49	714.69
416.713	710.69
416.936	698.69
417.159	669.69
417.382	704.69
417.605	729.69
417.828	736.69
418.051	761.69
418.274	735.69
418.497	736.69
418.72	721.69
418.943	738.69
419.166	763.69
419.389	825.69
419.611	791.69
419.834	767.69
420.057	752.69
420.28	743.69
420.503	727.69
420.726	710.69
420.948	740.69
421.171	758.69
421.394	767.69
421.617	744.69
421.839	699.69
422.062	739.69
422.285	737.69
422.507	796.69
422.73	850.69
422.953	817.69
423.175	779.69
423.398	763.69
423.621	748.69
423.843	773.69
424.066	801.69
424.288	778.69
424.511	784.69
424.733	823.69
424.956	885.69
425.178	858.69
425.401	827.69
425.623	837.69
425.846	745.69
426.068	731.69
426.291	744.69
426.513	749.69
426.735	746.69
426.958	774.69
427.18	836.69
427.402	910.69
427.625	996.69
427.847	873.69
428.069	792.69
428.292	747.69
428.514	693.69
428.736	696.69
428.958	691.69
429.181	684.69
429.403	675.69
429.625	688.69
429.847	723.69
430.069	741.69
430.292	739.69
430.514	694.69
430.736	675.69
430.958	653.69
431.18	660.69
431.402	648.69
431.624	663.69
431.846	659.69
432.068	659.69
432.29	677.69
432.512	672.69
432.734	672.69
432.956	657.69
433.178	654.69
433.4	661.69
433.622	676.69
433.844	693.69
434.066	695.69
434.287	672.69
434.509	691.69
434.731	696.69
434.953	727.69
435.175	754.69
435.397	735.69
435.618	726.69
435.84	761.69
436.062	815.69
436.284	875.69
436.505	758.69
436.727	717.69
436.949	697.69
437.17	676.69
437.392	662.69
437.614	679.69
437.835	661.69
438.057	767.69
438.278	831.69
438.5	837.69
438.721	942.69
438.943	886.69
439.165	740.69
439.386	697.69
439.608	720.69
439.829	713.69
440.05	724.69
440.272	739.69
440.493	724.69
440.715	716.69
440.936	696.69
441.158	705.69
441.379	698.69
441.6	736.69
441.822	769.69
442.043	792.69
442.264	837.69
442.486	868.69
442.707	780.69
442.928	740.69
443.149	748.69
443.371	777.69
443.592	787.69
443.813	889.69
444.034	940.69
444.255	855.69
444.476	808.69
444.698	810.69
444.919	851.69
445.14	933.69
445.361	864.69
445.582	794.69
445.803	805.69
446.024	882.69
446.245	876.69
446.466	829.69
446.687	741.69
446.908	711.69
447.129	685.69
447.35	666.69
447.571	672.69
447.792	607.69
448.013	641.69
448.234	648.69
448.455	701.69
448.675	765.69
448.896	888.69
449.117	791.69
449.338	742.69
449.559	824.69
449.779	911.69
450	790.69
450.221	673.69
450.442	633.69
450.662	652.69
450.883	641.69
451.104	651.69
451.324	660.69
451.545	634.69
451.766	643.69
451.986	613.69
452.207	576.69
452.428	594.69
452.648	632.69
452.869	589.69
453.089	613.69
453.31	633.69
453.53	577.69
453.751	609.69
453.971	588.69
454.192	595.69
454.412	573.69
454.633	598.69
454.853	572.69
455.073	589.69
455.294	632.69
455.514	637.69
455.734	654.69
455.955	576.69
456.175	575.69
456.395	566.69
456.616	563.69
456.836	566.69
457.056	564.69
457.276	594.69
457.497	570.69
457.717	575.69
457.937	584.69
458.157	586.69
458.377	588.69
458.598	620.69
458.818	657.69
459.038	721.69
459.258	732.69
459.478	704.69
459.698	685.69
459.918	650.69
460.138	695.69
460.358	693.69
460.578	739.69
460.798	718.69
461.018	729.69
461.238	736.69
461.458	716.69
461.678	717.69
461.898	757.69
462.118	742.69
462.338	756.69
462.558	776.69
462.777	804.69
462.997	850.69
463.217	880.69
463.437	884.69
463.657	845.69
463.876	811.69
464.096	811.69
464.316	821.69
464.536	816.69
464.755	823.69
464.975	780.69
465.195	785.69
465.414	791.69
465.634	747.69
465.854	698.69
466.073	674.69
466.293	670.69
466.512	648.69
466.732	651.69
466.951	643.69
467.171	634.69
467.391	632.69
467.61	645.69
467.829	608.69
468.049	647.69
468.268	627.69
468.488	612.69
468.707	627.69
468.927	624.69
469.146	603.69
469.365	616.69
469.585	626.69
469.804	659.69
470.023	642.69
470.243	642.69
470.462	664.69
470.681	645.69
470.901	661.69
471.12	637.69
471.339	654.69
471.558	649.69
471.777	643.69
471.997	632.69
472.216	625.69
472.435	676.69
472.654	653.69
472.873	629.69
473.092	616.69
473.311	625.69
473.53	610.69
473.749	623.69
473.968	653.69
474.187	712.69
474.406	747.69
474.625	658.69
474.844	652.69
475.063	619.69
475.282	637.69
475.501	631.69
475.72	633.69
475.939	641.69
476.158	642.69
476.377	633.69
476.596	637.69
476.814	658.69
477.033	667.69
477.252	684.69
477.471	673.69
477.69	684.69
477.908	691.69
478.127	707.69
478.346	712.69
478.564	747.69
478.783	744.69
479.002	754.69
479.22	782.69
479.439	768.69
479.658	726.69
479.876	779.69
480.095	791.69
480.313	807.69
480.532	825.69
480.751	817.69
480.969	832.69
481.188	807.69
481.406	865.69
481.624	785.69
481.843	776.69
482.061	763.69
482.28	725.69
482.498	755.69
482.717	697.69
482.935	742.69
483.153	755.69
483.372	717.69
483.59	738.69
483.808	699.69
484.027	733.69
484.245	725.69
484.463	706.69
484.681	764.69
484.9	746.69
485.118	747.69
485.336	719.69
485.554	732.69
485.772	740.69
485.99	760.69
486.209	755.69
486.427	784.69
486.645	788.69
486.863	783.69
487.081	786.69
487.299	819.69
487.517	755.69
487.735	784.69
487.953	797.69
488.171	777.69
488.389	784.69
488.607	777.69
488.825	795.69
489.043	787.69
489.261	791.69
489.479	801.69
489.696	793.69
489.914	797.69
490.132	791.69
490.35	801.69
490.568	780.69
490.786	808.69
491.003	839.69
491.221	822.69
491.439	832.69
491.657	815.69
491.874	852.69
492.092	852.69
492.31	876.69
492.527	872.69
492.745	886.69
492.963	885.69
493.18	902.69
493.398	885.69
493.615	891.69
493.833	898.69
494.05	898.69
494.268	877.69
494.485	900.69
494.703	877.69
494.92	905.69
495.138	897.69
495.355	901.69
495.573	933.69
495.79	880.69
496.008	886.69
496.225	911.69
496.442	929.69
496.66	913.69
496.877	944.69
497.094	924.69
497.312	956.69
497.529	957.69
497.746	1000.69
497.963	993.69
498.181	1034.69
498.398	1044.69
498.615	1093.69
498.832	1176.69
499.049	1203.69
499.267	1236.69
499.484	1356.69
499.701	1433.69
499.918	1517.69
500.135	1639.69
500.352	1781.69
500.569	1856.69
500.786	1831.69
501.003	1800.69
501.22	1671.69
501.437	1526.69
501.654	1425.69
501.871	1344.69
502.088	1273.69
502.305	1203.69
502.522	1169.69
502.739	1091.69
502.956	1061.69
503.172	1024.69
503.389	1031.69
503.606	1017.69
503.823	982.69
504.04	996.69
504.256	955.69
504.473	1005.69
504.69	1015.69
504.907	991.69
505.123	958.69
505.34	910.69
505.557	872.69
505.773	874.69
505.99	867.69
506.207	860.69
506.423	859.69
506.64	847.69
506.856	836.69
507.073	841.69
507.289	831.69
507.506	781.69
507.722	819.69
507.939	815.69
508.155	795.69
508.372	825.69
508.588	787.69
508.805	780.69
509.021	799.69
509.238	812.69
509.454	780.69
509.67	776.69
509.887	794.69
510.103	787.69
510.319	805.69
510.536	849.69
510.752	1205.69
510.968	1037.69
511.184	789.69
511.401	769.69
511.617	759.69
511.833	735.69
512.049	738.69
512.265	756.69
512.481	743.69
512.698	765.69
512.914	728.69
513.13	715.69
513.346	731.69
513.562	753.69
513.778	751.69
513.994	745.69
514.21	742.69
514.426	778.69
514.642	774.69
514.858	795.69
515.074	831.69
515.29	914.69
515.506	1184.69
515.721	1091.69
515.937	854.69
516.153	806.69
516.369	823.69
516.585	810.69
516.801	829.69
517.016	860.69
517.232	883.69
517.448	885.69
517.664	885.69
517.879	914.69
518.095	908.69
518.311	899.69
518.527	870.69
518.742	863.69
518.958	838.69
519.173	795.69
519.389	783.69
519.605	776.69
519.82	782.69
520.036	755.69
520.251	752.69
520.467	784.69
520.682	779.69
520.898	751.69
521.113	772.69
521.329	780.69
521.544	861.69
521.76	948.69
521.975	1403.69
522.19	1418.69
522.406	901.69
522.621	777.69
522.836	731.69
523.052	701.69
523.267	707.69
523.482	690.69
523.698	681.69
523.913	693.69
524.128	695.69
524.343	682.69
524.559	656.69
524.774	669.69
524.989	637.69
525.204	651.69
525.419	677.69
525.634	650.69
525.849	647.69
526.064	632.69
526.28	641.69
526.495	633.69
526.71	641.69
526.925	654.69
527.14	633.69
527.355	631.69
527.57	634.69
527.785	646.69
527.999	661.69
528.214	642.69
528.429	627.69
528.644	624.69
528.859	642.69
529.074	618.69
529.289	645.69
529.503	683.69
529.718	684.69
529.933	658.69
530.148	638.69
530.363	648.69
530.577	634.69
530.792	619.69
531.007	614.69
531.221	621.69
531.436	655.69
531.651	617.69
531.865	625.69
532.08	619.69
532.295	626.69
532.509	635.69
532.724	604.69
532.938	627.69
533.153	621.69
533.367	615.69
533.582	629.69
533.796	625.69
534.011	616.69
534.225	604.69
534.44	608.69
534.654	605.69
534.868	634.69
535.083	623.69
535.297	603.69
535.511	629.69
535.726	599.69
535.94	620.69
536.154	589.69
536.369	590.69
536.583	573.69
536.797	590.69
537.011	602.69
537.225	585.69
537.44	602.69
537.654	584.69
537.868	583.69
538.082	585.69
538.296	601.69
538.51	574.69
538.724	595.69
538.938	576.69
539.153	591.69
539.367	598.69
539.581	591.69
539.795	583.69
540.009	590.69
540.222	548.69
540.436	587.69
540.65	581.69
540.864	574.69
541.078	602.69
541.292	610.69
541.506	589.69
541.72	585.69
541.934	576.69
542.147	599.69
542.361	585.69
542.575	548.69
542.789	569.69
543.002	577.69
543.216	594.69
543.43	572.69
543.644	568.69
543.857	575.69
544.071	577.69
544.285	595.69
544.498	599.69
544.712	604.69
544.925	588.69
545.139	563.69
545.352	571.69
545.566	586.69
545.779	584.69
545.993	584.69
546.206	583.69
546.42	595.69
546.633	569.69
546.847	588.69
547.06	588.69
547.274	573.69
547.487	582.69
547.7	580.69
547.914	587.69
548.127	601.69
548.34	588.69
548.554	564.69
548.767	588.69
548.98	584.69
549.193	595.69
549.407	588.69
549.62	610.69
549.833	575.69
550.046	588.69
550.259	601.69
550.473	573.69
550.686	577.69
550.899	560.69
551.112	544.69
551.325	564.69
551.538	588.69
551.751	585.69
551.964	566.69
552.177	577.69
552.39	577.69
552.603	611.69
552.816	616.69
553.029	604.69
553.242	611.69
553.455	639.69
553.667	640.69
553.88	640.69
554.093	615.69
554.306	584.69
554.519	586.69
554.732	593.69
554.944	569.69
555.157	579.69
555.37	566.69
555.583	572.69
555.795	552.69
556.008	523.69
556.221	520.69
556.433	532.69
556.646	536.69
556.859	546.69
557.071	511.69
557.284	515.69
557.496	521.69
557.709	523.69
557.921	504.69
558.134	527.69
558.346	501.69
558.559	521.69
558.771	503.69
558.984	516.69
559.196	488.69
559.409	495.69
559.621	519.69
559.833	479.69
560.046	491.69
560.258	516.69
560.47	504.69
560.683	505.69
560.895	485.69
561.107	496.69
561.32	501.69
561.532	520.69
561.744	500.69
561.956	480.69
562.168	492.69
562.381	501.69
562.593	501.69
562.805	519.69
563.017	512.69
563.229	514.69
563.441	540.69
563.653	515.69
563.865	484.69
564.077	516.69
564.289	519.69
564.501	527.69
564.713	535.69
564.925	529.69
565.137	571.69
565.349	578.69
565.561	587.69
565.773	607.69
565.985	615.69
566.197	634.69
566.408	673.69
566.62	718.69
566.832	716.69
567.044	736.69
567.255	761.69
567.467	763.69
567.679	795.69
567.891	847.69
568.102	848.69
568.314	831.69
568.526	765.69
568.737	716.69
568.949	666.69
569.161	639.69
569.372	585.69
569.584	568.69
569.795	571.69
570.007	568.69
570.218	570.69
570.43	557.69
570.641	525.69
570.853	500.69
571.064	537.69
571.276	524.69
571.487	516.69
571.698	484.69
571.91	482.69
572.121	461.69
572.333	487.69
572.544	471.69
572.755	463.69
572.966	435.69
573.178	463.69
573.389	436.69
573.6	435.69
573.811	454.69
574.023	448.69
574.234	442.69
574.445	449.69
574.656	436.69
574.867	428.69
575.078	434.69
575.289	437.69
575.501	425.69
575.712	434.69
575.923	449.69
576.134	428.69
576.345	421.69
576.556	435.69
576.767	411.69
576.978	425.69
577.188	420.69
577.399	396.69
577.61	410.69
577.821	411.69
578.032	407.69
578.243	434.69
578.454	557.69
578.665	492.69
578.875	408.69
579.086	412.69
579.297	419.69
579.508	408.69
579.718	395.69
579.929	401.69
580.14	404.69
580.35	383.69
580.561	386.69
580.772	403.69
580.982	405.69
581.193	398.69
581.403	407.69
581.614	386.69
581.825	405.69
582.035	399.69
582.246	391.69
582.456	380.69
582.667	377.69
582.877	372.69
583.087	386.69
583.298	377.69
583.508	387.69
583.719	378.69
583.929	386.69
584.139	395.69
584.35	393.69
584.56	390.69
584.77	377.69
584.981	382.69
585.191	355.69
585.401	376.69
585.611	389.69
585.821	388.69
586.032	392.69
586.242	383.69
586.452	381.69
586.662	357.69
586.872	362.69
587.082	391.69
587.292	377.69
587.502	373.69
587.713	385.69
587.923	386.69
588.133	377.69
588.343	384.69
588.553	384.69
588.762	379.69
588.972	386.69
589.182	377.69
589.392	379.69
589.602	382.69
589.812	370.69
590.022	384.69
590.232	358.69
590.441	364.69
590.651	383.69
590.861	385.69
591.071	379.69
591.281	379.69
591.49	399.69
591.7	388.69
591.91	389.69
592.119	407.69
592.329	391.69
592.539	407.69
592.748	425.69
592.958	427.69
593.167	450.69
593.377	468.69
593.587	452.69
593.796	457.69
594.006	468.69
594.215	479.69
594.424	465.69
594.634	452.69
594.843	437.69
595.053	438.69
595.262	412.69
595.472	394.69
595.681	379.69
595.89	391.69
596.1	381.69
596.309	380.69
596.518	371.69
596.727	370.69
596.937	357.69
597.146	356.69
597.355	353.69
597.564	346.69
597.774	353.69
597.983	356.69
598.192	361.69
598.401	354.69
598.61	316.69
598.819	334.69
599.028	348.69
599.237	323.69
599.446	349.69
599.655	337.69
599.864	324.69
600.073	319.69
600.282	349.69
600.491	318.69
600.7	324.69
600.909	345.69
601.118	316.69
601.327	320.69
601.536	320.69
601.745	305.69
601.953	340.69
602.162	316.69
602.371	321.69
602.58	328.69
602.789	296.69
602.997	308.69
603.206	311.69
603.415	312.69
603.623	308.69
603.832	312.69
604.041	320.69
604.249	328.69
604.458	319.69
604.666	302.69
604.875	314.69
605.084	307.69
605.292	324.69
605.501	313.69
605.709	292.69
605.918	305.69
606.126	299.69
606.334	289.69
606.543	305.69
606.751	287.69
606.96	289.69
607.168	289.69
607.376	297.69
607.585	293.69
607.793	304.69
608.001	291.69
608.21	281.69
608.418	294.69
608.626	290.69
608.834	291.69
609.043	280.69
609.251	303.69
609.459	317.69
609.667	282.69
609.875	279.69
610.083	301.69
610.291	305.69
610.499	295.69
610.707	299.69
610.916	290.69
611.124	294.69
611.332	291.69
611.54	291.69
611.748	328.69
611.955	306.69
612.163	293.69
612.371	283.69
612.579	298.69
612.787	296.69
612.995	307.69
613.203	277.69
613.411	292.69
613.618	272.69
613.826	303.69
614.034	303.69
614.242	285.69
614.449	300.69
614.657	294.69
614.865	279.69
615.072	308.69
615.28	295.69
615.488	298.69
615.695	286.69
615.903	275.69
616.111	305.69
616.318	286.69
616.526	296.69
616.733	312.69
616.941	286.69
617.148	269.69
617.356	289.69
617.563	282.69
617.771	292.69
617.978	292.69
618.185	303.69
618.393	289.69
618.6	282.69
618.807	275.69
619.015	281.69
619.222	278.69
619.429	279.69
619.637	308.69
619.844	275.69
620.051	290.69
620.258	268.69
620.466	281.69
620.673	266.69
620.88	275.69
621.087	262.69
621.294	282.69
621.501	287.69
621.708	271.69
621.915	281.69
622.122	275.69
622.329	283.69
622.536	269.69
622.743	268.69
622.95	283.69
623.157	250.69
623.364	273.69
623.571	282.69
623.778	272.69
623.985	261.69
624.192	258.69
624.399	268.69
624.606	263.69
624.812	262.69
625.019	256.69
625.226	269.69
625.433	259.69
625.639	258.69
625.846	242.69
626.053	237.69
626.259	265.69
626.466	259.69
626.673	240.69
626.879	259.69
627.086	246.69
627.293	255.69
627.499	263.69
627.706	255.69
627.912	249.69
628.119	260.69
628.325	234.69
628.532	248.69
628.738	242.69
628.945	240.69
629.151	232.69
629.357	248.69
629.564	227.69
629.77	221.69
629.976	233.69
630.183	233.69
630.389	232.69
630.595	223.69
630.802	228.69
631.008	239.69
631.214	223.69
631.42	245.69
631.627	240.69
631.833	236.69
632.039	250.69
632.245	230.69
632.451	231.69
632.657	236.69
632.863	222.69
633.069	223.69
633.275	197.69
633.481	225.69
633.688	214.69
633.893	226.69
634.099	225.69
634.305	218.69
634.511	214.69
634.717	217.69
634.923	216.69
635.129	222.69
635.335	214.69
635.541	208.69
635.747	195.69
635.952	204.69
636.158	225.69
636.364	214.69
636.57	235.69
636.775	231.69
636.981	215.69
637.187	215.69
637.392	205.69
637.598	208.69
637.804	228.69
638.009	211.69
638.215	203.69
638.421	223.69
638.626	205.69
638.832	203.69
639.037	192.69
639.243	197.69
639.448	205.69
639.654	224.69
639.859	211.69
640.065	206.69
640.27	208.69
640.475	192.69
640.681	195.69
640.886	186.69
641.091	200.69
641.297	199.69
641.502	201.69
641.707	203.69
641.913	192.69
642.118	205.69
642.323	193.69
642.528	202.69
642.733	195.69
642.939	198.69
643.144	182.69
643.349	186.69
643.554	188.69
643.759	191.69
643.964	192.69
644.169	209.69
644.374	198.69
644.579	188.69
644.784	191.69
644.989	193.69
645.194	212.69
645.399	197.69
645.604	195.69
645.809	202.69
646.014	192.69
646.219	200.69
646.423	201.69
646.628	212.69
646.833	187.69
647.038	204.69
647.243	192.69
647.447	191.69
647.652	197.69
647.857	193.69
648.062	197.69
648.266	202.69
648.471	193.69
648.676	210.69
648.88	193.69
649.085	219.69
649.289	204.69
649.494	223.69
649.698	186.69
649.903	203.69
650.107	176.69
650.312	203.69
650.516	177.69
650.721	183.69
650.925	180.69
651.13	184.69
651.334	179.69
651.539	170.69
651.743	178.69
651.947	153.69
652.152	170.69
652.356	167.69
652.56	158.69
652.764	180.69
652.969	167.69
653.173	176.69
653.377	139.69
653.581	151.69
653.785	159.69
653.99	161.69
654.194	163.69
654.398	161.69
654.602	159.69
654.806	156.69
655.01	161.69
655.214	164.69
655.418	157.69
655.622	155.69
655.826	170.69
656.03	144.69
656.234	163.69
656.438	163.69
656.642	141.69
656.846	150.69
657.049	145.69
657.253	140.69
657.457	153.69
657.661	121.69
657.865	131.69
658.068	117.69
658.272	120.69
658.476	115.69
658.68	109.69
658.883	121.69
659.087	121.69
659.291	105.69
659.494	98.69
659.698	100.69
659.901	106.69
660.105	90.69
660.309	89.69
660.512	77.69
660.716	85.69
660.919	91.69
661.123	101.69
661.326	95.69
661.53	88.69
661.733	94.69
661.936	87.69
662.14	89.69
662.343	84.69
662.546	71.69
662.75	94.69
662.953	98.69
663.156	84.69
663.36	85.69
663.563	81.69
663.766	83.69
663.969	91.69
664.173	77.69
664.376	76.69
664.579	76.69
664.782	96.69
664.985	84.69
665.188	90.69
665.391	101.69
665.594	90.69
665.797	76.69
666	85.69
666.203	81.69
666.406	95.69
666.609	85.69
666.812	91.69
667.015	81.69
667.218	86.69
667.421	74.69
667.624	84.69
667.827	105.69
668.03	90.69
668.232	77.69
668.435	89.69
668.638	84.69
668.841	75.69
669.043	87.69
669.246	83.69
669.449	82.69
669.651	75.69
669.854	69.69
670.057	82.69
670.259	94.69
670.462	85.69
670.665	87.69
670.867	81.69
671.07	79.69
671.272	88.69
671.475	96.69
671.677	79.69
671.88	57.69
672.082	99.69
672.284	71.69
672.487	83.69
672.689	91.69
672.892	81.69
