Data from 1963.PennyLincolnUp.Lamp.En5.5.200Scan.071719.P1._HRD10591_13-58-23-063.txt Node
Date: Thu Jul 18 13:58:23 EDT 2019
User: cochatt
Spectrometer: HR+D1059
Trigger mode: 1
Integration Time (sec): 1.000000E-1
Scans to average: 1
Electric dark correction enabled: true
Nonlinearity correction enabled: false
Boxcar width: 0
XAxis mode: Wavelengths
Number of Pixels in Spectrum: 2048
>>>>>Begin Spectral Data<<<<<
223.165	-2.31
223.4	-2.31
223.635	-2.31
223.869	-21.31
224.104	-22.31
224.338	-4.31
224.573	-16.31
224.808	-12.31
225.042	-12.31
225.277	-8.31
225.511	-16.31
225.746	5.69
225.98	18.69
226.215	15.69
226.449	10.69
226.683	5.69
226.918	33.69
227.152	25.69
227.387	27.69
227.621	38.69
227.856	34.69
228.09	41.69
228.324	48.69
228.559	70.69
228.793	75.69
229.027	86.69
229.262	87.69
229.496	102.69
229.73	107.69
229.964	135.69
230.199	119.69
230.433	104.69
230.667	120.69
230.901	116.69
231.136	101.69
231.37	106.69
231.604	112.69
231.838	103.69
232.072	114.69
232.306	98.69
232.541	131.69
232.775	113.69
233.009	135.69
233.243	122.69
233.477	117.69
233.711	112.69
233.945	115.69
234.179	131.69
234.413	112.69
234.647	118.69
234.881	120.69
235.115	129.69
235.349	130.69
235.583	125.69
235.817	125.69
236.051	121.69
236.285	122.69
236.519	109.69
236.753	143.69
236.987	139.69
237.221	170.69
237.455	190.69
237.689	189.69
237.922	153.69
238.156	130.69
238.39	139.69
238.624	121.69
238.858	146.69
239.091	137.69
239.325	128.69
239.559	150.69
239.793	140.69
240.027	142.69
240.26	148.69
240.494	161.69
240.728	151.69
240.961	158.69
241.195	139.69
241.429	145.69
241.662	160.69
241.896	122.69
242.13	147.69
242.363	146.69
242.597	144.69
242.83	148.69
243.064	143.69
243.298	153.69
243.531	148.69
243.765	156.69
243.998	164.69
244.232	145.69
244.465	159.69
244.699	155.69
244.932	149.69
245.166	149.69
245.399	154.69
245.633	165.69
245.866	160.69
246.099	156.69
246.333	173.69
246.566	161.69
246.8	163.69
247.033	166.69
247.266	158.69
247.5	164.69
247.733	166.69
247.966	178.69
248.2	185.69
248.433	176.69
248.666	183.69
248.899	199.69
249.133	206.69
249.366	214.69
249.599	186.69
249.832	208.69
250.066	194.69
250.299	195.69
250.532	207.69
250.765	195.69
250.998	203.69
251.231	224.69
251.465	219.69
251.698	217.69
251.931	200.69
252.164	214.69
252.397	209.69
252.63	221.69
252.863	203.69
253.096	233.69
253.329	226.69
253.562	222.69
253.795	232.69
254.028	223.69
254.261	226.69
254.494	241.69
254.727	235.69
254.96	278.69
255.193	253.69
255.426	234.69
255.659	250.69
255.892	225.69
256.124	223.69
256.357	263.69
256.59	222.69
256.823	205.69
257.056	218.69
257.289	230.69
257.521	214.69
257.754	228.69
257.987	231.69
258.22	238.69
258.452	229.69
258.685	214.69
258.918	227.69
259.151	219.69
259.383	226.69
259.616	225.69
259.849	238.69
260.081	248.69
260.314	260.69
260.547	265.69
260.779	245.69
261.012	262.69
261.244	237.69
261.477	232.69
261.71	238.69
261.942	244.69
262.175	244.69
262.407	239.69
262.64	235.69
262.872	247.69
263.105	210.69
263.337	234.69
263.57	227.69
263.802	238.69
264.035	242.69
264.267	256.69
264.499	233.69
264.732	242.69
264.964	238.69
265.197	245.69
265.429	241.69
265.661	222.69
265.894	232.69
266.126	258.69
266.358	255.69
266.591	264.69
266.823	258.69
267.055	254.69
267.287	256.69
267.52	274.69
267.752	260.69
267.984	250.69
268.216	231.69
268.448	245.69
268.681	268.69
268.913	276.69
269.145	275.69
269.377	302.69
269.609	295.69
269.841	294.69
270.073	297.69
270.306	310.69
270.538	294.69
270.77	294.69
271.002	330.69
271.234	305.69
271.466	321.69
271.698	326.69
271.93	327.69
272.162	338.69
272.394	323.69
272.626	314.69
272.858	310.69
273.09	302.69
273.322	320.69
273.553	288.69
273.785	302.69
274.017	304.69
274.249	299.69
274.481	303.69
274.713	278.69
274.945	304.69
275.176	285.69
275.408	288.69
275.64	301.69
275.872	290.69
276.104	281.69
276.335	295.69
276.567	312.69
276.799	305.69
277.031	323.69
277.262	340.69
277.494	327.69
277.726	345.69
277.957	323.69
278.189	325.69
278.421	292.69
278.652	318.69
278.884	330.69
279.115	318.69
279.347	327.69
279.579	305.69
279.81	309.69
280.042	313.69
280.273	319.69
280.505	320.69
280.736	312.69
280.968	308.69
281.199	328.69
281.431	300.69
281.662	311.69
281.894	314.69
282.125	296.69
282.356	354.69
282.588	335.69
282.819	337.69
283.051	338.69
283.282	332.69
283.513	320.69
283.745	328.69
283.976	321.69
284.207	326.69
284.439	330.69
284.67	321.69
284.901	341.69
285.132	333.69
285.364	319.69
285.595	323.69
285.826	335.69
286.057	333.69
286.288	343.69
286.52	328.69
286.751	330.69
286.982	330.69
287.213	318.69
287.444	323.69
287.675	335.69
287.906	348.69
288.138	361.69
288.369	339.69
288.6	348.69
288.831	353.69
289.062	361.69
289.293	332.69
289.524	343.69
289.755	324.69
289.986	366.69
290.217	359.69
290.448	351.69
290.679	346.69
290.91	360.69
291.141	344.69
291.371	352.69
291.602	346.69
291.833	351.69
292.064	350.69
292.295	350.69
292.526	343.69
292.757	375.69
292.987	359.69
293.218	369.69
293.449	344.69
293.68	350.69
293.91	370.69
294.141	347.69
294.372	358.69
294.603	351.69
294.833	354.69
295.064	366.69
295.295	360.69
295.525	361.69
295.756	358.69
295.987	363.69
296.217	375.69
296.448	375.69
296.679	359.69
296.909	379.69
297.14	369.69
297.37	372.69
297.601	371.69
297.831	353.69
298.062	375.69
298.292	370.69
298.523	389.69
298.753	369.69
298.984	399.69
299.214	381.69
299.445	377.69
299.675	391.69
299.905	389.69
300.136	386.69
300.366	411.69
300.597	394.69
300.827	390.69
301.057	415.69
301.288	406.69
301.518	397.69
301.748	406.69
301.979	392.69
302.209	392.69
302.439	406.69
302.669	402.69
302.9	408.69
303.13	402.69
303.36	404.69
303.59	410.69
303.82	420.69
304.051	399.69
304.281	405.69
304.511	399.69
304.741	392.69
304.971	393.69
305.201	407.69
305.431	421.69
305.661	404.69
305.891	407.69
306.121	399.69
306.352	411.69
306.582	401.69
306.812	409.69
307.042	406.69
307.272	377.69
307.502	410.69
307.731	412.69
307.961	399.69
308.191	402.69
308.421	391.69
308.651	399.69
308.881	408.69
309.111	406.69
309.341	423.69
309.571	442.69
309.8	421.69
310.03	406.69
310.26	411.69
310.49	414.69
310.72	444.69
310.949	424.69
311.179	455.69
311.409	416.69
311.639	439.69
311.868	439.69
312.098	442.69
312.328	455.69
312.557	440.69
312.787	456.69
313.017	446.69
313.246	435.69
313.476	456.69
313.706	439.69
313.935	440.69
314.165	447.69
314.394	437.69
314.624	465.69
314.853	462.69
315.083	449.69
315.312	438.69
315.542	429.69
315.771	458.69
316.001	454.69
316.23	442.69
316.46	441.69
316.689	445.69
316.919	451.69
317.148	445.69
317.377	456.69
317.607	459.69
317.836	455.69
318.065	445.69
318.295	434.69
318.524	429.69
318.753	433.69
318.983	457.69
319.212	440.69
319.441	441.69
319.67	457.69
319.9	444.69
320.129	448.69
320.358	461.69
320.587	466.69
320.816	474.69
321.046	450.69
321.275	479.69
321.504	458.69
321.733	459.69
321.962	470.69
322.191	492.69
322.42	467.69
322.649	486.69
322.878	475.69
323.108	482.69
323.337	504.69
323.566	514.69
323.795	539.69
324.024	539.69
324.253	603.69
324.482	799.69
324.71	1119.69
324.939	1561.69
325.168	1375.69
325.397	744.69
325.626	587.69
325.855	559.69
326.084	550.69
326.313	550.69
326.542	525.69
326.77	565.69
326.999	597.69
327.228	750.69
327.457	1029.69
327.686	1223.69
327.914	878.69
328.143	639.69
328.372	591.69
328.6	587.69
328.829	555.69
329.058	575.69
329.287	577.69
329.515	548.69
329.744	554.69
329.972	543.69
330.201	566.69
330.43	561.69
330.658	594.69
330.887	603.69
331.115	598.69
331.344	573.69
331.572	542.69
331.801	551.69
332.03	541.69
332.258	569.69
332.486	579.69
332.715	559.69
332.943	569.69
333.172	573.69
333.4	607.69
333.629	614.69
333.857	635.69
334.085	599.69
334.314	641.69
334.542	626.69
334.771	641.69
334.999	615.69
335.227	600.69
335.455	588.69
335.684	578.69
335.912	573.69
336.14	574.69
336.369	581.69
336.597	582.69
336.825	585.69
337.053	549.69
337.281	549.69
337.51	540.69
337.738	550.69
337.966	531.69
338.194	530.69
338.422	549.69
338.65	553.69
338.878	549.69
339.106	526.69
339.334	546.69
339.562	515.69
339.79	531.69
340.018	521.69
340.246	517.69
340.474	509.69
340.702	528.69
340.93	533.69
341.158	510.69
341.386	517.69
341.614	515.69
341.842	502.69
342.07	512.69
342.298	530.69
342.526	501.69
342.754	511.69
342.981	489.69
343.209	499.69
343.437	504.69
343.665	559.69
343.893	563.69
344.12	583.69
344.348	587.69
344.576	561.69
344.804	546.69
345.031	548.69
345.259	542.69
345.487	524.69
345.714	517.69
345.942	517.69
346.17	523.69
346.397	511.69
346.625	490.69
346.853	483.69
347.08	506.69
347.308	493.69
347.535	484.69
347.763	517.69
347.99	509.69
348.218	509.69
348.445	479.69
348.673	502.69
348.9	494.69
349.128	495.69
349.355	496.69
349.583	495.69
349.81	489.69
350.037	466.69
350.265	483.69
350.492	478.69
350.72	478.69
350.947	479.69
351.174	486.69
351.402	513.69
351.629	505.69
351.856	499.69
352.083	497.69
352.311	479.69
352.538	490.69
352.765	491.69
352.992	485.69
353.22	489.69
353.447	491.69
353.674	481.69
353.901	461.69
354.128	479.69
354.355	479.69
354.583	467.69
354.81	472.69
355.037	479.69
355.264	482.69
355.491	481.69
355.718	482.69
355.945	491.69
356.172	491.69
356.399	459.69
356.626	481.69
356.853	488.69
357.08	448.69
357.307	485.69
357.534	466.69
357.761	491.69
357.988	487.69
358.215	479.69
358.441	479.69
358.668	473.69
358.895	478.69
359.122	465.69
359.349	491.69
359.576	488.69
359.802	488.69
360.029	528.69
360.256	510.69
360.483	516.69
360.709	480.69
360.936	469.69
361.163	521.69
361.39	505.69
361.616	510.69
361.843	499.69
362.07	493.69
362.296	498.69
362.523	483.69
362.749	501.69
362.976	459.69
363.203	485.69
363.429	484.69
363.656	487.69
363.882	509.69
364.109	480.69
364.335	484.69
364.562	473.69
364.788	463.69
365.015	495.69
365.241	469.69
365.468	481.69
365.694	475.69
365.92	479.69
366.147	479.69
366.373	520.69
366.599	477.69
366.826	473.69
367.052	468.69
367.278	472.69
367.505	477.69
367.731	500.69
367.957	502.69
368.184	487.69
368.41	476.69
368.636	500.69
368.862	494.69
369.089	511.69
369.315	481.69
369.541	493.69
369.767	481.69
369.993	501.69
370.219	515.69
370.445	511.69
370.672	497.69
370.898	496.69
371.124	497.69
371.35	485.69
371.576	487.69
371.802	525.69
372.028	487.69
372.254	491.69
372.48	504.69
372.706	525.69
372.932	515.69
373.158	498.69
373.384	511.69
373.61	510.69
373.835	535.69
374.061	506.69
374.287	531.69
374.513	534.69
374.739	531.69
374.965	542.69
375.191	544.69
375.416	529.69
375.642	527.69
375.868	512.69
376.094	535.69
376.319	529.69
376.545	516.69
376.771	511.69
376.997	495.69
377.222	519.69
377.448	498.69
377.674	521.69
377.899	507.69
378.125	514.69
378.35	517.69
378.576	484.69
378.802	507.69
379.027	497.69
379.253	508.69
379.478	505.69
379.704	503.69
379.929	512.69
380.155	509.69
380.38	520.69
380.606	502.69
380.831	497.69
381.057	530.69
381.282	529.69
381.507	521.69
381.733	506.69
381.958	511.69
382.184	517.69
382.409	507.69
382.634	527.69
382.86	503.69
383.085	531.69
383.31	535.69
383.535	547.69
383.761	531.69
383.986	567.69
384.211	562.69
384.436	587.69
384.662	573.69
384.887	571.69
385.112	575.69
385.337	576.69
385.562	570.69
385.787	562.69
386.013	603.69
386.238	591.69
386.463	595.69
386.688	597.69
386.913	603.69
387.138	584.69
387.363	597.69
387.588	565.69
387.813	559.69
388.038	580.69
388.263	588.69
388.488	596.69
388.713	581.69
388.938	587.69
389.163	581.69
389.387	576.69
389.612	578.69
389.837	576.69
390.062	555.69
390.287	576.69
390.512	576.69
390.736	598.69
390.961	587.69
391.186	613.69
391.411	589.69
391.636	626.69
391.86	645.69
392.085	647.69
392.31	623.69
392.534	633.69
392.759	627.69
392.984	606.69
393.208	598.69
393.433	599.69
393.658	610.69
393.882	595.69
394.107	606.69
394.331	604.69
394.556	610.69
394.78	594.69
395.005	602.69
395.229	615.69
395.454	617.69
395.678	651.69
395.903	648.69
396.127	659.69
396.352	647.69
396.576	622.69
396.801	603.69
397.025	626.69
397.249	626.69
397.474	639.69
397.698	630.69
397.922	656.69
398.147	642.69
398.371	666.69
398.595	677.69
398.82	686.69
399.044	732.69
399.268	774.69
399.492	865.69
399.717	917.69
399.941	929.69
400.165	913.69
400.389	871.69
400.613	762.69
400.837	757.69
401.062	715.69
401.286	722.69
401.51	724.69
401.734	694.69
401.958	697.69
402.182	721.69
402.406	740.69
402.63	738.69
402.854	744.69
403.078	725.69
403.302	738.69
403.526	757.69
403.75	760.69
403.974	791.69
404.198	768.69
404.422	763.69
404.645	757.69
404.869	768.69
405.093	808.69
405.317	823.69
405.541	832.69
405.765	777.69
405.988	768.69
406.212	769.69
406.436	784.69
406.66	803.69
406.883	792.69
407.107	818.69
407.331	853.69
407.555	925.69
407.778	935.69
408.002	889.69
408.226	847.69
408.449	845.69
408.673	793.69
408.896	815.69
409.12	826.69
409.344	799.69
409.567	739.69
409.791	765.69
410.014	769.69
410.238	750.69
410.461	743.69
410.685	746.69
410.908	762.69
411.132	754.69
411.355	776.69
411.578	789.69
411.802	730.69
412.025	725.69
412.249	730.69
412.472	760.69
412.695	776.69
412.919	744.69
413.142	702.69
413.365	703.69
413.589	707.69
413.812	699.69
414.035	689.69
414.258	716.69
414.482	711.69
414.705	701.69
414.928	675.69
415.151	711.69
415.374	689.69
415.597	689.69
415.821	697.69
416.044	690.69
416.267	687.69
416.49	664.69
416.713	685.69
416.936	683.69
417.159	681.69
417.382	697.69
417.605	674.69
417.828	710.69
418.051	718.69
418.274	721.69
418.497	702.69
418.72	704.69
418.943	726.69
419.166	749.69
419.389	779.69
419.611	775.69
419.834	683.69
420.057	722.69
420.28	749.69
420.503	705.69
420.726	678.69
420.948	711.69
421.171	735.69
421.394	763.69
421.617	710.69
421.839	702.69
422.062	682.69
422.285	686.69
422.507	786.69
422.73	810.69
422.953	797.69
423.175	726.69
423.398	736.69
423.621	724.69
423.843	751.69
424.066	757.69
424.288	722.69
424.511	775.69
424.733	765.69
424.956	836.69
425.178	825.69
425.401	804.69
425.623	829.69
425.846	760.69
426.068	734.69
426.291	701.69
426.513	700.69
426.735	719.69
426.958	737.69
427.18	768.69
427.402	865.69
427.625	947.69
427.847	834.69
428.069	759.69
428.292	713.69
428.514	681.69
428.736	633.69
428.958	673.69
429.181	634.69
429.403	647.69
429.625	666.69
429.847	704.69
430.069	716.69
430.292	752.69
430.514	653.69
430.736	626.69
430.958	663.69
431.18	646.69
431.402	649.69
431.624	615.69
431.846	614.69
432.068	641.69
432.29	672.69
432.512	616.69
432.734	645.69
432.956	646.69
433.178	608.69
433.4	657.69
433.622	634.69
433.844	634.69
434.066	646.69
434.287	658.69
434.509	657.69
434.731	681.69
434.953	708.69
435.175	697.69
435.397	713.69
435.618	706.69
435.84	714.69
436.062	800.69
436.284	826.69
436.505	742.69
436.727	698.69
436.949	674.69
437.17	671.69
437.392	631.69
437.614	659.69
437.835	669.69
438.057	725.69
438.278	813.69
438.5	811.69
438.721	870.69
438.943	840.69
439.165	709.69
439.386	693.69
439.608	681.69
439.829	702.69
440.05	690.69
440.272	712.69
440.493	687.69
440.715	685.69
440.936	675.69
441.158	671.69
441.379	709.69
441.6	704.69
441.822	721.69
442.043	761.69
442.264	785.69
442.486	829.69
442.707	765.69
442.928	707.69
443.149	715.69
443.371	726.69
443.592	785.69
443.813	831.69
444.034	921.69
444.255	806.69
444.476	779.69
444.698	784.69
444.919	805.69
445.14	923.69
445.361	818.69
445.582	773.69
445.803	781.69
446.024	864.69
446.245	861.69
446.466	783.69
446.687	726.69
446.908	689.69
447.129	644.69
447.35	665.69
447.571	634.69
447.792	635.69
448.013	650.69
448.234	624.69
448.455	680.69
448.675	768.69
448.896	856.69
449.117	743.69
449.338	701.69
449.559	795.69
449.779	881.69
450	752.69
450.221	661.69
450.442	629.69
450.662	622.69
450.883	600.69
451.104	633.69
451.324	622.69
451.545	612.69
451.766	590.69
451.986	593.69
452.207	589.69
452.428	575.69
452.648	572.69
452.869	586.69
453.089	591.69
453.31	597.69
453.53	581.69
453.751	609.69
453.971	587.69
454.192	574.69
454.412	560.69
454.633	565.69
454.853	583.69
455.073	558.69
455.294	573.69
455.514	622.69
455.734	616.69
455.955	575.69
456.175	561.69
456.395	544.69
456.616	542.69
456.836	561.69
457.056	534.69
457.276	541.69
457.497	534.69
457.717	562.69
457.937	557.69
458.157	575.69
458.377	587.69
458.598	590.69
458.818	625.69
459.038	691.69
459.258	722.69
459.478	678.69
459.698	669.69
459.918	684.69
460.138	677.69
460.358	701.69
460.578	674.69
460.798	737.69
461.018	722.69
461.238	712.69
461.458	691.69
461.678	708.69
461.898	705.69
462.118	701.69
462.338	722.69
462.558	719.69
462.777	751.69
462.997	820.69
463.217	863.69
463.437	857.69
463.657	819.69
463.876	787.69
464.096	794.69
464.316	798.69
464.536	798.69
464.755	794.69
464.975	734.69
465.195	767.69
465.414	740.69
465.634	707.69
465.854	682.69
466.073	655.69
466.293	652.69
466.512	633.69
466.732	601.69
466.951	618.69
467.171	613.69
467.391	613.69
467.61	619.69
467.829	615.69
468.049	604.69
468.268	608.69
468.488	608.69
468.707	596.69
468.927	595.69
469.146	586.69
469.365	605.69
469.585	618.69
469.804	627.69
470.023	626.69
470.243	598.69
470.462	633.69
470.681	655.69
470.901	662.69
471.12	626.69
471.339	662.69
471.558	624.69
471.777	584.69
471.997	609.69
472.216	614.69
472.435	629.69
472.654	639.69
472.873	598.69
473.092	604.69
473.311	611.69
473.53	626.69
473.749	618.69
473.968	603.69
474.187	695.69
474.406	714.69
474.625	660.69
474.844	615.69
475.063	607.69
475.282	604.69
475.501	607.69
475.72	602.69
475.939	612.69
476.158	621.69
476.377	642.69
476.596	635.69
476.814	641.69
477.033	638.69
477.252	635.69
477.471	643.69
477.69	670.69
477.908	674.69
478.127	695.69
478.346	667.69
478.564	675.69
478.783	713.69
479.002	726.69
479.22	715.69
479.439	750.69
479.658	755.69
479.876	751.69
480.095	747.69
480.313	819.69
480.532	780.69
480.751	793.69
480.969	797.69
481.188	799.69
481.406	826.69
481.624	767.69
481.843	724.69
482.061	751.69
482.28	724.69
482.498	705.69
482.717	694.69
482.935	692.69
483.153	750.69
483.372	693.69
483.59	705.69
483.808	717.69
484.027	713.69
484.245	711.69
484.463	698.69
484.681	722.69
484.9	709.69
485.118	707.69
485.336	701.69
485.554	719.69
485.772	765.69
485.99	730.69
486.209	750.69
486.427	739.69
486.645	745.69
486.863	734.69
487.081	763.69
487.299	753.69
487.517	768.69
487.735	726.69
487.953	744.69
488.171	752.69
488.389	770.69
488.607	773.69
488.825	768.69
489.043	779.69
489.261	763.69
489.479	777.69
489.696	781.69
489.914	742.69
490.132	778.69
490.35	758.69
490.568	766.69
490.786	786.69
491.003	791.69
491.221	783.69
491.439	823.69
491.657	772.69
491.874	819.69
492.092	834.69
492.31	822.69
492.527	821.69
492.745	839.69
492.963	835.69
493.18	838.69
493.398	849.69
493.615	865.69
493.833	863.69
494.05	841.69
494.268	867.69
494.485	862.69
494.703	862.69
494.92	864.69
495.138	871.69
495.355	880.69
495.573	850.69
495.79	859.69
496.008	890.69
496.225	851.69
496.442	862.69
496.66	918.69
496.877	883.69
497.094	882.69
497.312	900.69
497.529	935.69
497.746	972.69
497.963	965.69
498.181	978.69
498.398	989.69
498.615	1058.69
498.832	1130.69
499.049	1189.69
499.267	1235.69
499.484	1282.69
499.701	1359.69
499.918	1467.69
500.135	1604.69
500.352	1717.69
500.569	1765.69
500.786	1765.69
501.003	1730.69
501.22	1607.69
501.437	1448.69
501.654	1361.69
501.871	1298.69
502.088	1217.69
502.305	1157.69
502.522	1110.69
502.739	1083.69
502.956	1049.69
503.172	1015.69
503.389	971.69
503.606	957.69
503.823	947.69
504.04	933.69
504.256	976.69
504.473	953.69
504.69	963.69
504.907	953.69
505.123	882.69
505.34	872.69
505.557	856.69
505.773	825.69
505.99	838.69
506.207	858.69
506.423	836.69
506.64	815.69
506.856	785.69
507.073	770.69
507.289	790.69
507.506	783.69
507.722	821.69
507.939	801.69
508.155	791.69
508.372	767.69
508.588	753.69
508.805	775.69
509.021	740.69
509.238	754.69
509.454	749.69
509.67	777.69
509.887	754.69
510.103	755.69
510.319	737.69
510.536	807.69
510.752	1153.69
510.968	991.69
511.184	744.69
511.401	742.69
511.617	761.69
511.833	715.69
512.049	711.69
512.265	701.69
512.481	720.69
512.698	730.69
512.914	717.69
513.13	711.69
513.346	697.69
513.562	725.69
513.778	729.69
513.994	698.69
514.21	734.69
514.426	743.69
514.642	772.69
514.858	775.69
515.074	768.69
515.29	856.69
515.506	1167.69
515.721	1060.69
515.937	803.69
516.153	797.69
516.369	783.69
516.585	774.69
516.801	783.69
517.016	840.69
517.232	849.69
517.448	870.69
517.664	850.69
517.879	875.69
518.095	870.69
518.311	867.69
518.527	850.69
518.742	825.69
518.958	815.69
519.173	797.69
519.389	761.69
519.605	739.69
519.82	754.69
520.036	734.69
520.251	733.69
520.467	751.69
520.682	753.69
520.898	725.69
521.113	757.69
521.329	777.69
521.544	793.69
521.76	918.69
521.975	1345.69
522.19	1391.69
522.406	890.69
522.621	729.69
522.836	723.69
523.052	681.69
523.267	673.69
523.482	652.69
523.698	659.69
523.913	656.69
524.128	659.69
524.343	651.69
524.559	655.69
524.774	621.69
524.989	623.69
525.204	638.69
525.419	635.69
525.634	623.69
525.849	640.69
526.064	641.69
526.28	629.69
526.495	601.69
526.71	619.69
526.925	606.69
527.14	613.69
527.355	600.69
527.57	615.69
527.785	587.69
527.999	614.69
528.214	606.69
528.429	604.69
528.644	618.69
528.859	621.69
529.074	631.69
529.289	629.69
529.503	674.69
529.718	649.69
529.933	625.69
530.148	633.69
530.363	616.69
530.577	631.69
530.792	606.69
531.007	600.69
531.221	600.69
531.436	615.69
531.651	610.69
531.865	620.69
532.08	567.69
532.295	606.69
532.509	604.69
532.724	618.69
532.938	590.69
533.153	608.69
533.367	590.69
533.582	594.69
533.796	617.69
534.011	604.69
534.225	595.69
534.44	583.69
534.654	600.69
534.868	599.69
535.083	586.69
535.297	595.69
535.511	607.69
535.726	588.69
535.94	605.69
536.154	588.69
536.369	606.69
536.583	574.69
536.797	572.69
537.011	557.69
537.225	577.69
537.44	583.69
537.654	580.69
537.868	567.69
538.082	569.69
538.296	598.69
538.51	593.69
538.724	588.69
538.938	558.69
539.153	573.69
539.367	565.69
539.581	567.69
539.795	566.69
540.009	563.69
540.222	576.69
540.436	554.69
540.65	561.69
540.864	555.69
541.078	557.69
541.292	549.69
541.506	553.69
541.72	573.69
541.934	559.69
542.147	586.69
542.361	531.69
542.575	546.69
542.789	563.69
543.002	585.69
543.216	574.69
543.43	549.69
543.644	570.69
543.857	573.69
544.071	543.69
544.285	544.69
544.498	535.69
544.712	575.69
544.925	564.69
545.139	577.69
545.352	563.69
545.566	561.69
545.779	573.69
545.993	561.69
546.206	568.69
546.42	568.69
546.633	571.69
546.847	554.69
547.06	567.69
547.274	550.69
547.487	579.69
547.7	552.69
547.914	580.69
548.127	569.69
548.34	570.69
548.554	583.69
548.767	561.69
548.98	570.69
549.193	575.69
549.407	609.69
549.62	590.69
549.833	584.69
550.046	557.69
550.259	552.69
550.473	541.69
550.686	544.69
550.899	554.69
551.112	561.69
551.325	542.69
551.538	567.69
551.751	555.69
551.964	568.69
552.177	561.69
552.39	548.69
552.603	591.69
552.816	598.69
553.029	598.69
553.242	581.69
553.455	612.69
553.667	622.69
553.88	609.69
554.093	608.69
554.306	587.69
554.519	546.69
554.732	562.69
554.944	553.69
555.157	564.69
555.37	553.69
555.583	545.69
555.795	540.69
556.008	517.69
556.221	517.69
556.433	506.69
556.646	495.69
556.859	518.69
557.071	507.69
557.284	513.69
557.496	504.69
557.709	503.69
557.921	497.69
558.134	485.69
558.346	517.69
558.559	501.69
558.771	475.69
558.984	491.69
559.196	482.69
559.409	482.69
559.621	488.69
559.833	487.69
560.046	500.69
560.258	482.69
560.47	479.69
560.683	491.69
560.895	497.69
561.107	461.69
561.32	484.69
561.532	467.69
561.744	500.69
561.956	494.69
562.168	469.69
562.381	472.69
562.593	510.69
562.805	489.69
563.017	512.69
563.229	474.69
563.441	497.69
563.653	494.69
563.865	503.69
564.077	513.69
564.289	501.69
564.501	526.69
564.713	520.69
564.925	529.69
565.137	530.69
565.349	535.69
565.561	570.69
565.773	587.69
565.985	589.69
566.197	597.69
566.408	642.69
566.62	699.69
566.832	718.69
567.044	732.69
567.255	752.69
567.467	741.69
567.679	788.69
567.891	828.69
568.102	813.69
568.314	806.69
568.526	724.69
568.737	691.69
568.949	663.69
569.161	600.69
569.372	579.69
569.584	572.69
569.795	550.69
570.007	530.69
570.218	543.69
570.43	537.69
570.641	522.69
570.853	513.69
571.064	533.69
571.276	521.69
571.487	486.69
571.698	469.69
571.91	481.69
572.121	461.69
572.333	461.69
572.544	467.69
572.755	461.69
572.966	433.69
573.178	439.69
573.389	433.69
573.6	424.69
573.811	411.69
574.023	409.69
574.234	435.69
574.445	430.69
574.656	440.69
574.867	425.69
575.078	431.69
575.289	407.69
575.501	422.69
575.712	425.69
575.923	393.69
576.134	418.69
576.345	413.69
576.556	399.69
576.767	389.69
576.978	409.69
577.188	418.69
577.399	425.69
577.61	406.69
577.821	389.69
578.032	405.69
578.243	418.69
578.454	543.69
578.665	461.69
578.875	404.69
579.086	407.69
579.297	382.69
579.508	379.69
579.718	391.69
579.929	399.69
580.14	387.69
580.35	401.69
580.561	367.69
580.772	392.69
580.982	386.69
581.193	373.69
581.403	393.69
581.614	386.69
581.825	384.69
582.035	370.69
582.246	374.69
582.456	395.69
582.667	367.69
582.877	375.69
583.087	374.69
583.298	372.69
583.508	387.69
583.719	391.69
583.929	344.69
584.139	365.69
584.35	357.69
584.56	359.69
584.77	367.69
584.981	384.69
585.191	356.69
585.401	361.69
585.611	362.69
585.821	366.69
586.032	377.69
586.242	368.69
586.452	372.69
586.662	350.69
586.872	352.69
587.082	355.69
587.292	390.69
587.502	383.69
587.713	372.69
587.923	362.69
588.133	385.69
588.343	372.69
588.553	367.69
588.762	368.69
588.972	376.69
589.182	370.69
589.392	375.69
589.602	379.69
589.812	380.69
590.022	369.69
590.232	349.69
590.441	365.69
590.651	370.69
590.861	372.69
591.071	392.69
591.281	380.69
591.49	390.69
591.7	398.69
591.91	409.69
592.119	418.69
592.329	404.69
592.539	391.69
592.748	399.69
592.958	434.69
593.167	416.69
593.377	431.69
593.587	466.69
593.796	457.69
594.006	435.69
594.215	444.69
594.424	445.69
594.634	448.69
594.843	430.69
595.053	447.69
595.262	394.69
595.472	380.69
595.681	401.69
595.89	386.69
596.1	372.69
596.309	369.69
596.518	380.69
596.727	379.69
596.937	342.69
597.146	352.69
597.355	339.69
597.564	338.69
597.774	341.69
597.983	336.69
598.192	316.69
598.401	309.69
598.61	345.69
598.819	343.69
599.028	328.69
599.237	329.69
599.446	322.69
599.655	328.69
599.864	310.69
600.073	320.69
600.282	312.69
600.491	320.69
600.7	318.69
600.909	313.69
601.118	315.69
601.327	317.69
601.536	295.69
601.745	293.69
601.953	307.69
602.162	294.69
602.371	307.69
602.58	315.69
602.789	314.69
602.997	315.69
603.206	319.69
603.415	296.69
603.623	309.69
603.832	305.69
604.041	310.69
604.249	285.69
604.458	309.69
604.666	304.69
604.875	281.69
605.084	293.69
605.292	287.69
605.501	319.69
605.709	309.69
605.918	296.69
606.126	288.69
606.334	307.69
606.543	302.69
606.751	288.69
606.96	289.69
607.168	304.69
607.376	285.69
607.585	293.69
607.793	285.69
608.001	298.69
608.21	282.69
608.418	305.69
608.626	294.69
608.834	284.69
609.043	300.69
609.251	279.69
609.459	287.69
609.667	296.69
609.875	285.69
610.083	285.69
610.291	292.69
610.499	285.69
610.707	284.69
610.916	287.69
611.124	301.69
611.332	297.69
611.54	285.69
611.748	293.69
611.955	273.69
612.163	292.69
612.371	277.69
612.579	268.69
612.787	290.69
612.995	287.69
613.203	295.69
613.411	281.69
613.618	284.69
613.826	272.69
614.034	284.69
614.242	278.69
614.449	263.69
614.657	274.69
614.865	276.69
615.072	285.69
615.28	290.69
615.488	294.69
615.695	283.69
615.903	294.69
616.111	290.69
616.318	288.69
616.526	303.69
616.733	292.69
616.941	293.69
617.148	281.69
617.356	289.69
617.563	288.69
617.771	274.69
617.978	267.69
618.185	280.69
618.393	276.69
618.6	292.69
618.807	293.69
619.015	273.69
619.222	278.69
619.429	298.69
619.637	285.69
619.844	299.69
620.051	280.69
620.258	276.69
620.466	271.69
620.673	258.69
620.88	270.69
621.087	264.69
621.294	253.69
621.501	275.69
621.708	257.69
621.915	275.69
622.122	259.69
622.329	267.69
622.536	258.69
622.743	280.69
622.95	265.69
623.157	264.69
623.364	259.69
623.571	245.69
623.778	243.69
623.985	279.69
624.192	273.69
624.399	259.69
624.606	272.69
624.812	258.69
625.019	257.69
625.226	251.69
625.433	267.69
625.639	258.69
625.846	234.69
626.053	244.69
626.259	244.69
626.466	247.69
626.673	249.69
626.879	215.69
627.086	246.69
627.293	243.69
627.499	250.69
627.706	246.69
627.912	234.69
628.119	243.69
628.325	231.69
628.532	237.69
628.738	239.69
628.945	261.69
629.151	245.69
629.357	250.69
629.564	243.69
629.77	245.69
629.976	237.69
630.183	231.69
630.389	241.69
630.595	225.69
630.802	215.69
631.008	232.69
631.214	244.69
631.42	232.69
631.627	229.69
631.833	221.69
632.039	216.69
632.245	217.69
632.451	232.69
632.657	232.69
632.863	226.69
633.069	212.69
633.275	201.69
633.481	205.69
633.688	211.69
633.893	218.69
634.099	209.69
634.305	224.69
634.511	210.69
634.717	226.69
634.923	205.69
635.129	213.69
635.335	202.69
635.541	219.69
635.747	223.69
635.952	209.69
636.158	221.69
636.364	222.69
636.57	213.69
636.775	221.69
636.981	226.69
637.187	197.69
637.392	202.69
637.598	199.69
637.804	210.69
638.009	203.69
638.215	206.69
638.421	208.69
638.626	215.69
638.832	225.69
639.037	208.69
639.243	210.69
639.448	186.69
639.654	198.69
639.859	199.69
640.065	201.69
640.27	192.69
640.475	201.69
640.681	207.69
640.886	208.69
641.091	208.69
641.297	207.69
641.502	183.69
641.707	191.69
641.913	197.69
642.118	181.69
642.323	172.69
642.528	184.69
642.733	184.69
642.939	200.69
643.144	195.69
643.349	191.69
643.554	184.69
643.759	182.69
643.964	211.69
644.169	176.69
644.374	202.69
644.579	200.69
644.784	191.69
644.989	182.69
645.194	199.69
645.399	185.69
645.604	203.69
645.809	201.69
646.014	197.69
646.219	183.69
646.423	199.69
646.628	190.69
646.833	209.69
647.038	194.69
647.243	201.69
647.447	186.69
647.652	191.69
647.857	198.69
648.062	198.69
648.266	198.69
648.471	203.69
648.676	201.69
648.88	211.69
649.085	210.69
649.289	201.69
649.494	193.69
649.698	204.69
649.903	211.69
650.107	198.69
650.312	191.69
650.516	195.69
650.721	185.69
650.925	168.69
651.13	175.69
651.334	184.69
651.539	171.69
651.743	170.69
651.947	176.69
652.152	176.69
652.356	165.69
652.56	161.69
652.764	158.69
652.969	143.69
653.173	156.69
653.377	148.69
653.581	163.69
653.785	151.69
653.99	174.69
654.194	164.69
654.398	159.69
654.602	154.69
654.806	139.69
655.01	154.69
655.214	143.69
655.418	154.69
655.622	149.69
655.826	158.69
656.03	137.69
656.234	163.69
656.438	163.69
656.642	147.69
656.846	149.69
657.049	148.69
657.253	145.69
657.457	140.69
657.661	132.69
657.865	126.69
658.068	128.69
658.272	123.69
658.476	102.69
658.68	121.69
658.883	89.69
659.087	114.69
659.291	119.69
659.494	104.69
659.698	111.69
659.901	88.69
660.105	95.69
660.309	80.69
660.512	98.69
660.716	102.69
660.919	90.69
661.123	100.69
661.326	103.69
661.53	80.69
661.733	91.69
661.936	76.69
662.14	91.69
662.343	94.69
662.546	91.69
662.75	91.69
662.953	90.69
663.156	81.69
663.36	79.69
663.563	92.69
663.766	82.69
663.969	88.69
664.173	82.69
664.376	80.69
664.579	73.69
664.782	78.69
664.985	83.69
665.188	88.69
665.391	82.69
665.594	79.69
665.797	87.69
666	75.69
666.203	81.69
666.406	77.69
666.609	88.69
666.812	76.69
667.015	71.69
667.218	84.69
667.421	81.69
667.624	86.69
667.827	92.69
668.03	91.69
668.232	101.69
668.435	76.69
668.638	69.69
668.841	89.69
669.043	87.69
669.246	92.69
669.449	78.69
669.651	78.69
669.854	82.69
670.057	89.69
670.259	78.69
670.462	89.69
670.665	78.69
670.867	69.69
671.07	87.69
671.272	97.69
671.475	82.69
671.677	83.69
671.88	74.69
672.082	83.69
672.284	67.69
672.487	87.69
672.689	67.69
672.892	73.69
