Data from 1963.PennyLincolnUp.Lamp.En5.5.200Scan.071719.P1._HRD10591_14-00-18-063.txt Node
Date: Thu Jul 18 14:00:18 EDT 2019
User: cochatt
Spectrometer: HR+D1059
Trigger mode: 1
Integration Time (sec): 1.000000E-1
Scans to average: 1
Electric dark correction enabled: true
Nonlinearity correction enabled: false
Boxcar width: 0
XAxis mode: Wavelengths
Number of Pixels in Spectrum: 2048
>>>>>Begin Spectral Data<<<<<
223.165	-2.31
223.4	-2.31
223.635	-2.31
223.869	-22.31
224.104	-15.31
224.338	-16.31
224.573	0.69
224.808	-14.31
225.042	-1.31
225.277	-6.31
225.511	0.69
225.746	0.69
225.98	1.69
226.215	8.69
226.449	5.69
226.683	11.69
226.918	16.69
227.152	31.69
227.387	39.69
227.621	16.69
227.856	26.69
228.09	33.69
228.324	46.69
228.559	51.69
228.793	61.69
229.027	86.69
229.262	92.69
229.496	112.69
229.73	122.69
229.964	149.69
230.199	131.69
230.433	123.69
230.667	109.69
230.901	111.69
231.136	124.69
231.37	114.69
231.604	122.69
231.838	118.69
232.072	114.69
232.306	102.69
232.541	127.69
232.775	119.69
233.009	132.69
233.243	138.69
233.477	127.69
233.711	111.69
233.945	114.69
234.179	109.69
234.413	130.69
234.647	118.69
234.881	121.69
235.115	118.69
235.349	129.69
235.583	127.69
235.817	125.69
236.051	123.69
236.285	132.69
236.519	135.69
236.753	144.69
236.987	134.69
237.221	173.69
237.455	207.69
237.689	204.69
237.922	142.69
238.156	145.69
238.39	140.69
238.624	129.69
238.858	146.69
239.091	134.69
239.325	137.69
239.559	148.69
239.793	153.69
240.027	159.69
240.26	147.69
240.494	175.69
240.728	161.69
240.961	153.69
241.195	149.69
241.429	161.69
241.662	150.69
241.896	140.69
242.13	152.69
242.363	138.69
242.597	161.69
242.83	154.69
243.064	149.69
243.298	158.69
243.531	143.69
243.765	157.69
243.998	150.69
244.232	151.69
244.465	155.69
244.699	169.69
244.932	152.69
245.166	151.69
245.399	152.69
245.633	163.69
245.866	171.69
246.099	150.69
246.333	170.69
246.566	170.69
246.8	164.69
247.033	166.69
247.266	177.69
247.5	180.69
247.733	186.69
247.966	190.69
248.2	202.69
248.433	189.69
248.666	179.69
248.899	205.69
249.133	204.69
249.366	221.69
249.599	209.69
249.832	190.69
250.066	195.69
250.299	207.69
250.532	208.69
250.765	227.69
250.998	241.69
251.231	244.69
251.465	229.69
251.698	238.69
251.931	217.69
252.164	215.69
252.397	208.69
252.63	219.69
252.863	242.69
253.096	224.69
253.329	255.69
253.562	253.69
253.795	241.69
254.028	225.69
254.261	242.69
254.494	248.69
254.727	272.69
254.96	290.69
255.193	276.69
255.426	265.69
255.659	246.69
255.892	254.69
256.124	243.69
256.357	237.69
256.59	265.69
256.823	245.69
257.056	227.69
257.289	244.69
257.521	257.69
257.754	234.69
257.987	248.69
258.22	244.69
258.452	222.69
258.685	227.69
258.918	229.69
259.151	247.69
259.383	249.69
259.616	234.69
259.849	242.69
260.081	257.69
260.314	280.69
260.547	278.69
260.779	279.69
261.012	281.69
261.244	255.69
261.477	252.69
261.71	251.69
261.942	259.69
262.175	265.69
262.407	247.69
262.64	254.69
262.872	247.69
263.105	264.69
263.337	245.69
263.57	254.69
263.802	244.69
264.035	257.69
264.267	255.69
264.499	242.69
264.732	253.69
264.964	257.69
265.197	245.69
265.429	251.69
265.661	255.69
265.894	262.69
266.126	269.69
266.358	246.69
266.591	260.69
266.823	255.69
267.055	271.69
267.287	276.69
267.52	272.69
267.752	259.69
267.984	269.69
268.216	277.69
268.448	286.69
268.681	269.69
268.913	297.69
269.145	304.69
269.377	305.69
269.609	310.69
269.841	315.69
270.073	309.69
270.306	347.69
270.538	339.69
270.77	351.69
271.002	330.69
271.234	322.69
271.466	327.69
271.698	330.69
271.93	350.69
272.162	343.69
272.394	350.69
272.626	342.69
272.858	330.69
273.09	309.69
273.322	311.69
273.553	318.69
273.785	294.69
274.017	307.69
274.249	313.69
274.481	309.69
274.713	304.69
274.945	318.69
275.176	327.69
275.408	297.69
275.64	303.69
275.872	292.69
276.104	317.69
276.335	313.69
276.567	312.69
276.799	328.69
277.031	355.69
277.262	349.69
277.494	350.69
277.726	341.69
277.957	327.69
278.189	355.69
278.421	324.69
278.652	311.69
278.884	329.69
279.115	338.69
279.347	331.69
279.579	323.69
279.81	332.69
280.042	317.69
280.273	328.69
280.505	316.69
280.736	302.69
280.968	327.69
281.199	304.69
281.431	348.69
281.662	339.69
281.894	342.69
282.125	338.69
282.356	335.69
282.588	347.69
282.819	349.69
283.051	341.69
283.282	321.69
283.513	332.69
283.745	327.69
283.976	336.69
284.207	337.69
284.439	349.69
284.67	365.69
284.901	338.69
285.132	329.69
285.364	333.69
285.595	342.69
285.826	336.69
286.057	354.69
286.288	359.69
286.52	340.69
286.751	340.69
286.982	361.69
287.213	352.69
287.444	363.69
287.675	371.69
287.906	362.69
288.138	375.69
288.369	362.69
288.6	371.69
288.831	379.69
289.062	377.69
289.293	374.69
289.524	366.69
289.755	366.69
289.986	362.69
290.217	373.69
290.448	361.69
290.679	363.69
290.91	356.69
291.141	374.69
291.371	356.69
291.602	363.69
291.833	358.69
292.064	363.69
292.295	365.69
292.526	374.69
292.757	385.69
292.987	374.69
293.218	395.69
293.449	381.69
293.68	369.69
293.91	361.69
294.141	362.69
294.372	373.69
294.603	386.69
294.833	380.69
295.064	385.69
295.295	363.69
295.525	377.69
295.756	372.69
295.987	394.69
296.217	429.69
296.448	414.69
296.679	388.69
296.909	384.69
297.14	389.69
297.37	381.69
297.601	383.69
297.831	365.69
298.062	400.69
298.292	392.69
298.523	399.69
298.753	396.69
298.984	395.69
299.214	405.69
299.445	378.69
299.675	396.69
299.905	419.69
300.136	407.69
300.366	386.69
300.597	397.69
300.827	414.69
301.057	404.69
301.288	417.69
301.518	431.69
301.748	405.69
301.979	414.69
302.209	408.69
302.439	413.69
302.669	429.69
302.9	414.69
303.13	429.69
303.36	424.69
303.59	426.69
303.82	433.69
304.051	410.69
304.281	427.69
304.511	414.69
304.741	432.69
304.971	435.69
305.201	412.69
305.431	424.69
305.661	406.69
305.891	424.69
306.121	409.69
306.352	445.69
306.582	440.69
306.812	431.69
307.042	403.69
307.272	417.69
307.502	421.69
307.731	406.69
307.961	426.69
308.191	414.69
308.421	430.69
308.651	430.69
308.881	436.69
309.111	427.69
309.341	436.69
309.571	430.69
309.8	459.69
310.03	465.69
310.26	438.69
310.49	450.69
310.72	447.69
310.949	441.69
311.179	480.69
311.409	453.69
311.639	463.69
311.868	478.69
312.098	460.69
312.328	458.69
312.557	474.69
312.787	471.69
313.017	480.69
313.246	491.69
313.476	445.69
313.706	483.69
313.935	467.69
314.165	501.69
314.394	493.69
314.624	464.69
314.853	475.69
315.083	461.69
315.312	463.69
315.542	450.69
315.771	455.69
316.001	480.69
316.23	461.69
316.46	460.69
316.689	469.69
316.919	434.69
317.148	464.69
317.377	476.69
317.607	472.69
317.836	472.69
318.065	482.69
318.295	462.69
318.524	458.69
318.753	453.69
318.983	460.69
319.212	466.69
319.441	483.69
319.67	485.69
319.9	463.69
320.129	494.69
320.358	446.69
320.587	482.69
320.816	476.69
321.046	475.69
321.275	486.69
321.504	480.69
321.733	474.69
321.962	490.69
322.191	494.69
322.42	490.69
322.649	534.69
322.878	523.69
323.108	514.69
323.337	546.69
323.566	560.69
323.795	580.69
324.024	605.69
324.253	676.69
324.482	872.69
324.71	1285.69
324.939	1834.69
325.168	1617.69
325.397	881.69
325.626	657.69
325.855	587.69
326.084	576.69
326.313	561.69
326.542	562.69
326.77	598.69
326.999	640.69
327.228	851.69
327.457	1217.69
327.686	1493.69
327.914	1026.69
328.143	710.69
328.372	661.69
328.6	637.69
328.829	606.69
329.058	645.69
329.287	659.69
329.515	610.69
329.744	583.69
329.972	576.69
330.201	605.69
330.43	627.69
330.658	639.69
330.887	675.69
331.115	659.69
331.344	613.69
331.572	555.69
331.801	608.69
332.03	593.69
332.258	591.69
332.486	614.69
332.715	575.69
332.943	609.69
333.172	612.69
333.4	643.69
333.629	648.69
333.857	655.69
334.085	643.69
334.314	669.69
334.542	680.69
334.771	697.69
334.999	657.69
335.227	630.69
335.455	615.69
335.684	611.69
335.912	597.69
336.14	581.69
336.369	601.69
336.597	612.69
336.825	597.69
337.053	595.69
337.281	606.69
337.51	585.69
337.738	575.69
337.966	577.69
338.194	568.69
338.422	573.69
338.65	569.69
338.878	554.69
339.106	531.69
339.334	545.69
339.562	563.69
339.79	548.69
340.018	541.69
340.246	543.69
340.474	540.69
340.702	526.69
340.93	537.69
341.158	537.69
341.386	533.69
341.614	550.69
341.842	553.69
342.07	549.69
342.298	535.69
342.526	539.69
342.754	547.69
342.981	518.69
343.209	539.69
343.437	565.69
343.665	567.69
343.893	576.69
344.12	632.69
344.348	618.69
344.576	595.69
344.804	564.69
345.031	569.69
345.259	555.69
345.487	569.69
345.714	541.69
345.942	526.69
346.17	541.69
346.397	511.69
346.625	518.69
346.853	526.69
347.08	521.69
347.308	527.69
347.535	520.69
347.763	539.69
347.99	547.69
348.218	527.69
348.445	516.69
348.673	523.69
348.9	523.69
349.128	540.69
349.355	525.69
349.583	493.69
349.81	509.69
350.037	518.69
350.265	521.69
350.492	513.69
350.72	499.69
350.947	498.69
351.174	512.69
351.402	522.69
351.629	523.69
351.856	535.69
352.083	525.69
352.311	536.69
352.538	525.69
352.765	525.69
352.992	514.69
353.22	519.69
353.447	509.69
353.674	511.69
353.901	506.69
354.128	505.69
354.355	494.69
354.583	502.69
354.81	487.69
355.037	519.69
355.264	496.69
355.491	481.69
355.718	491.69
355.945	492.69
356.172	489.69
356.399	498.69
356.626	495.69
356.853	494.69
357.08	480.69
357.307	471.69
357.534	477.69
357.761	515.69
357.988	490.69
358.215	501.69
358.441	498.69
358.668	518.69
358.895	498.69
359.122	521.69
359.349	514.69
359.576	529.69
359.802	541.69
360.029	554.69
360.256	539.69
360.483	544.69
360.709	523.69
360.936	542.69
361.163	538.69
361.39	530.69
361.616	533.69
361.843	539.69
362.07	494.69
362.296	501.69
362.523	509.69
362.749	527.69
362.976	503.69
363.203	501.69
363.429	510.69
363.656	530.69
363.882	523.69
364.109	490.69
364.335	507.69
364.562	517.69
364.788	505.69
365.015	512.69
365.241	533.69
365.468	503.69
365.694	517.69
365.92	503.69
366.147	496.69
366.373	493.69
366.599	497.69
366.826	495.69
367.052	502.69
367.278	502.69
367.505	513.69
367.731	506.69
367.957	513.69
368.184	511.69
368.41	523.69
368.636	524.69
368.862	511.69
369.089	501.69
369.315	516.69
369.541	537.69
369.767	510.69
369.993	521.69
370.219	529.69
370.445	525.69
370.672	526.69
370.898	544.69
371.124	529.69
371.35	534.69
371.576	533.69
371.802	517.69
372.028	520.69
372.254	528.69
372.48	525.69
372.706	550.69
372.932	539.69
373.158	518.69
373.384	522.69
373.61	531.69
373.835	546.69
374.061	541.69
374.287	521.69
374.513	561.69
374.739	554.69
374.965	533.69
375.191	570.69
375.416	577.69
375.642	543.69
375.868	553.69
376.094	530.69
376.319	513.69
376.545	555.69
376.771	554.69
376.997	549.69
377.222	490.69
377.448	516.69
377.674	526.69
377.899	540.69
378.125	517.69
378.35	529.69
378.576	523.69
378.802	511.69
379.027	529.69
379.253	542.69
379.478	541.69
379.704	527.69
379.929	534.69
380.155	522.69
380.38	523.69
380.606	531.69
380.831	513.69
381.057	538.69
381.282	537.69
381.507	529.69
381.733	523.69
381.958	524.69
382.184	529.69
382.409	561.69
382.634	547.69
382.86	560.69
383.085	559.69
383.31	566.69
383.535	572.69
383.761	576.69
383.986	564.69
384.211	584.69
384.436	593.69
384.662	573.69
384.887	597.69
385.112	623.69
385.337	598.69
385.562	587.69
385.787	608.69
386.013	614.69
386.238	609.69
386.463	626.69
386.688	607.69
386.913	611.69
387.138	599.69
387.363	604.69
387.588	593.69
387.813	597.69
388.038	595.69
388.263	599.69
388.488	592.69
388.713	600.69
388.938	624.69
389.163	599.69
389.387	606.69
389.612	592.69
389.837	622.69
390.062	598.69
390.287	602.69
390.512	602.69
390.736	601.69
390.961	633.69
391.186	625.69
391.411	634.69
391.636	631.69
391.86	648.69
392.085	641.69
392.31	647.69
392.534	631.69
392.759	647.69
392.984	633.69
393.208	625.69
393.433	604.69
393.658	634.69
393.882	607.69
394.107	632.69
394.331	625.69
394.556	645.69
394.78	614.69
395.005	641.69
395.229	626.69
395.454	649.69
395.678	651.69
395.903	645.69
396.127	657.69
396.352	677.69
396.576	649.69
396.801	633.69
397.025	641.69
397.249	675.69
397.474	666.69
397.698	648.69
397.922	701.69
398.147	697.69
398.371	695.69
398.595	698.69
398.82	723.69
399.044	741.69
399.268	833.69
399.492	881.69
399.717	952.69
399.941	977.69
400.165	916.69
400.389	905.69
400.613	821.69
400.837	774.69
401.062	738.69
401.286	753.69
401.51	741.69
401.734	717.69
401.958	755.69
402.182	726.69
402.406	746.69
402.63	768.69
402.854	785.69
403.078	774.69
403.302	788.69
403.526	803.69
403.75	801.69
403.974	808.69
404.198	783.69
404.422	804.69
404.645	804.69
404.869	805.69
405.093	848.69
405.317	858.69
405.541	872.69
405.765	811.69
405.988	775.69
406.212	800.69
406.436	823.69
406.66	829.69
406.883	820.69
407.107	870.69
407.331	931.69
407.555	995.69
407.778	975.69
408.002	903.69
408.226	877.69
408.449	839.69
408.673	813.69
408.896	835.69
409.12	879.69
409.344	861.69
409.567	801.69
409.791	808.69
410.014	784.69
410.238	760.69
410.461	786.69
410.685	761.69
410.908	797.69
411.132	790.69
411.355	819.69
411.578	797.69
411.802	764.69
412.025	738.69
412.249	773.69
412.472	792.69
412.695	816.69
412.919	789.69
413.142	739.69
413.365	757.69
413.589	741.69
413.812	749.69
414.035	724.69
414.258	718.69
414.482	717.69
414.705	708.69
414.928	713.69
415.151	718.69
415.374	723.69
415.597	706.69
415.821	712.69
416.044	706.69
416.267	702.69
416.49	716.69
416.713	704.69
416.936	731.69
417.159	701.69
417.382	750.69
417.605	709.69
417.828	733.69
418.051	744.69
418.274	750.69
418.497	719.69
418.72	741.69
418.943	733.69
419.166	770.69
419.389	799.69
419.611	769.69
419.834	765.69
420.057	760.69
420.28	755.69
420.503	767.69
420.726	730.69
420.948	763.69
421.171	766.69
421.394	812.69
421.617	749.69
421.839	762.69
422.062	731.69
422.285	751.69
422.507	793.69
422.73	862.69
422.953	858.69
423.175	810.69
423.398	773.69
423.621	762.69
423.843	761.69
424.066	802.69
424.288	775.69
424.511	793.69
424.733	861.69
424.956	903.69
425.178	850.69
425.401	870.69
425.623	874.69
425.846	811.69
426.068	779.69
426.291	727.69
426.513	756.69
426.735	773.69
426.958	770.69
427.18	850.69
427.402	957.69
427.625	1074.69
427.847	909.69
428.069	810.69
428.292	781.69
428.514	698.69
428.736	701.69
428.958	677.69
429.181	666.69
429.403	674.69
429.625	696.69
429.847	722.69
430.069	777.69
430.292	761.69
430.514	685.69
430.736	700.69
430.958	693.69
431.18	681.69
431.402	665.69
431.624	647.69
431.846	673.69
432.068	664.69
432.29	670.69
432.512	654.69
432.734	651.69
432.956	683.69
433.178	700.69
433.4	674.69
433.622	666.69
433.844	658.69
434.066	690.69
434.287	667.69
434.509	685.69
434.731	702.69
434.953	716.69
435.175	756.69
435.397	760.69
435.618	763.69
435.84	765.69
436.062	840.69
436.284	902.69
436.505	776.69
436.727	745.69
436.949	697.69
437.17	678.69
437.392	689.69
437.614	689.69
437.835	702.69
438.057	813.69
438.278	864.69
438.5	865.69
438.721	954.69
438.943	917.69
439.165	753.69
439.386	729.69
439.608	745.69
439.829	745.69
440.05	756.69
440.272	795.69
440.493	752.69
440.715	731.69
440.936	714.69
441.158	701.69
441.379	707.69
441.6	714.69
441.822	768.69
442.043	807.69
442.264	852.69
442.486	880.69
442.707	787.69
442.928	741.69
443.149	789.69
443.371	801.69
443.592	843.69
443.813	901.69
444.034	978.69
444.255	844.69
444.476	814.69
444.698	810.69
444.919	850.69
445.14	919.69
445.361	844.69
445.582	807.69
445.803	821.69
446.024	930.69
446.245	885.69
446.466	840.69
446.687	746.69
446.908	730.69
447.129	719.69
447.35	652.69
447.571	695.69
447.792	667.69
448.013	647.69
448.234	697.69
448.455	716.69
448.675	791.69
448.896	914.69
449.117	776.69
449.338	773.69
449.559	858.69
449.779	950.69
450	799.69
450.221	696.69
450.442	680.69
450.662	654.69
450.883	644.69
451.104	689.69
451.324	656.69
451.545	633.69
451.766	635.69
451.986	585.69
452.207	618.69
452.428	600.69
452.648	618.69
452.869	610.69
453.089	595.69
453.31	634.69
453.53	633.69
453.751	598.69
453.971	599.69
454.192	632.69
454.412	615.69
454.633	608.69
454.853	594.69
455.073	590.69
455.294	610.69
455.514	687.69
455.734	668.69
455.955	609.69
456.175	603.69
456.395	593.69
456.616	573.69
456.836	590.69
457.056	589.69
457.276	569.69
457.497	592.69
457.717	569.69
457.937	619.69
458.157	592.69
458.377	591.69
458.598	638.69
458.818	674.69
459.038	726.69
459.258	779.69
459.478	680.69
459.698	691.69
459.918	684.69
460.138	693.69
460.358	721.69
460.578	751.69
460.798	744.69
461.018	735.69
461.238	742.69
461.458	730.69
461.678	735.69
461.898	719.69
462.118	732.69
462.338	765.69
462.558	802.69
462.777	804.69
462.997	840.69
463.217	877.69
463.437	891.69
463.657	834.69
463.876	791.69
464.096	788.69
464.316	797.69
464.536	804.69
464.755	803.69
464.975	794.69
465.195	805.69
465.414	827.69
465.634	738.69
465.854	694.69
466.073	708.69
466.293	647.69
466.512	650.69
466.732	638.69
466.951	655.69
467.171	646.69
467.391	647.69
467.61	667.69
467.829	653.69
468.049	642.69
468.268	633.69
468.488	613.69
468.707	617.69
468.927	638.69
469.146	603.69
469.365	622.69
469.585	633.69
469.804	650.69
470.023	671.69
470.243	664.69
470.462	658.69
470.681	663.69
470.901	660.69
471.12	659.69
471.339	649.69
471.558	647.69
471.777	669.69
471.997	650.69
472.216	641.69
472.435	679.69
472.654	634.69
472.873	625.69
473.092	629.69
473.311	630.69
473.53	619.69
473.749	648.69
473.968	672.69
474.187	733.69
474.406	753.69
474.625	678.69
474.844	643.69
475.063	632.69
475.282	645.69
475.501	617.69
475.72	634.69
475.939	660.69
476.158	654.69
476.377	655.69
476.596	649.69
476.814	681.69
477.033	679.69
477.252	663.69
477.471	675.69
477.69	713.69
477.908	673.69
478.127	725.69
478.346	715.69
478.564	736.69
478.783	735.69
479.002	777.69
479.22	774.69
479.439	779.69
479.658	772.69
479.876	784.69
480.095	790.69
480.313	850.69
480.532	841.69
480.751	818.69
480.969	830.69
481.188	853.69
481.406	899.69
481.624	813.69
481.843	759.69
482.061	734.69
482.28	739.69
482.498	746.69
482.717	729.69
482.935	745.69
483.153	755.69
483.372	723.69
483.59	745.69
483.808	752.69
484.027	744.69
484.245	774.69
484.463	758.69
484.681	757.69
484.9	753.69
485.118	753.69
485.336	752.69
485.554	758.69
485.772	771.69
485.99	789.69
486.209	782.69
486.427	770.69
486.645	779.69
486.863	818.69
487.081	792.69
487.299	803.69
487.517	778.69
487.735	784.69
487.953	785.69
488.171	774.69
488.389	797.69
488.607	794.69
488.825	796.69
489.043	765.69
489.261	778.69
489.479	815.69
489.696	812.69
489.914	818.69
490.132	808.69
490.35	814.69
490.568	811.69
490.786	823.69
491.003	843.69
491.221	843.69
491.439	881.69
491.657	851.69
491.874	889.69
492.092	898.69
492.31	890.69
492.527	913.69
492.745	908.69
492.963	921.69
493.18	908.69
493.398	901.69
493.615	916.69
493.833	926.69
494.05	925.69
494.268	919.69
494.485	957.69
494.703	938.69
494.92	939.69
495.138	923.69
495.355	920.69
495.573	915.69
495.79	913.69
496.008	951.69
496.225	927.69
496.442	931.69
496.66	914.69
496.877	950.69
497.094	948.69
497.312	989.69
497.529	960.69
497.746	965.69
497.963	1030.69
498.181	1046.69
498.398	1073.69
498.615	1118.69
498.832	1167.69
499.049	1207.69
499.267	1276.69
499.484	1369.69
499.701	1472.69
499.918	1547.69
500.135	1671.69
500.352	1823.69
500.569	1846.69
500.786	1864.69
501.003	1774.69
501.22	1631.69
501.437	1553.69
501.654	1433.69
501.871	1381.69
502.088	1297.69
502.305	1257.69
502.522	1159.69
502.739	1155.69
502.956	1088.69
503.172	1026.69
503.389	1017.69
503.606	1019.69
503.823	989.69
504.04	1017.69
504.256	979.69
504.473	1012.69
504.69	989.69
504.907	996.69
505.123	958.69
505.34	933.69
505.557	913.69
505.773	886.69
505.99	890.69
506.207	883.69
506.423	885.69
506.64	881.69
506.856	852.69
507.073	815.69
507.289	847.69
507.506	834.69
507.722	856.69
507.939	847.69
508.155	835.69
508.372	799.69
508.588	789.69
508.805	788.69
509.021	814.69
509.238	809.69
509.454	805.69
509.67	795.69
509.887	790.69
510.103	794.69
510.319	787.69
510.536	888.69
510.752	1336.69
510.968	1090.69
511.184	795.69
511.401	790.69
511.617	747.69
511.833	757.69
512.049	766.69
512.265	739.69
512.481	759.69
512.698	761.69
512.914	746.69
513.13	757.69
513.346	752.69
513.562	768.69
513.778	767.69
513.994	757.69
514.21	739.69
514.426	788.69
514.642	815.69
514.858	847.69
515.074	868.69
515.29	964.69
515.506	1331.69
515.721	1177.69
515.937	856.69
516.153	861.69
516.369	833.69
516.585	843.69
516.801	833.69
517.016	875.69
517.232	897.69
517.448	882.69
517.664	925.69
517.879	902.69
518.095	908.69
518.311	920.69
518.527	878.69
518.742	865.69
518.958	832.69
519.173	808.69
519.389	794.69
519.605	778.69
519.82	793.69
520.036	778.69
520.251	807.69
520.467	804.69
520.682	772.69
520.898	784.69
521.113	806.69
521.329	813.69
521.544	882.69
521.76	1043.69
521.975	1591.69
522.19	1650.69
522.406	999.69
522.621	805.69
522.836	774.69
523.052	729.69
523.267	716.69
523.482	686.69
523.698	701.69
523.913	681.69
524.128	693.69
524.343	663.69
524.559	665.69
524.774	690.69
524.989	668.69
525.204	658.69
525.419	669.69
525.634	666.69
525.849	652.69
526.064	664.69
526.28	667.69
526.495	629.69
526.71	643.69
526.925	639.69
527.14	627.69
527.355	635.69
527.57	616.69
527.785	607.69
527.999	637.69
528.214	633.69
528.429	642.69
528.644	650.69
528.859	630.69
529.074	658.69
529.289	659.69
529.503	698.69
529.718	702.69
529.933	642.69
530.148	643.69
530.363	675.69
530.577	651.69
530.792	634.69
531.007	624.69
531.221	649.69
531.436	643.69
531.651	634.69
531.865	614.69
532.08	619.69
532.295	625.69
532.509	640.69
532.724	632.69
532.938	637.69
533.153	635.69
533.367	611.69
533.582	636.69
533.796	627.69
534.011	610.69
534.225	631.69
534.44	597.69
534.654	639.69
534.868	630.69
535.083	626.69
535.297	618.69
535.511	609.69
535.726	647.69
535.94	629.69
536.154	625.69
536.369	606.69
536.583	631.69
536.797	585.69
537.011	579.69
537.225	599.69
537.44	606.69
537.654	595.69
537.868	606.69
538.082	596.69
538.296	589.69
538.51	591.69
538.724	590.69
538.938	588.69
539.153	587.69
539.367	602.69
539.581	600.69
539.795	591.69
540.009	594.69
540.222	585.69
540.436	584.69
540.65	590.69
540.864	593.69
541.078	593.69
541.292	571.69
541.506	589.69
541.72	590.69
541.934	574.69
542.147	583.69
542.361	593.69
542.575	553.69
542.789	567.69
543.002	573.69
543.216	575.69
543.43	592.69
543.644	575.69
543.857	586.69
544.071	588.69
544.285	588.69
544.498	574.69
544.712	593.69
544.925	593.69
545.139	586.69
545.352	585.69
545.566	585.69
545.779	592.69
545.993	607.69
546.206	600.69
546.42	583.69
546.633	585.69
546.847	586.69
547.06	574.69
547.274	577.69
547.487	580.69
547.7	596.69
547.914	579.69
548.127	595.69
548.34	597.69
548.554	577.69
548.767	595.69
548.98	574.69
549.193	601.69
549.407	582.69
549.62	575.69
549.833	608.69
550.046	575.69
550.259	577.69
550.473	577.69
550.686	567.69
550.899	591.69
551.112	561.69
551.325	564.69
551.538	567.69
551.751	569.69
551.964	582.69
552.177	607.69
552.39	606.69
552.603	608.69
552.816	619.69
553.029	631.69
553.242	626.69
553.455	631.69
553.667	637.69
553.88	636.69
554.093	616.69
554.306	616.69
554.519	617.69
554.732	599.69
554.944	579.69
555.157	587.69
555.37	567.69
555.583	558.69
555.795	546.69
556.008	533.69
556.221	544.69
556.433	528.69
556.646	540.69
556.859	542.69
557.071	505.69
557.284	525.69
557.496	521.69
557.709	511.69
557.921	507.69
558.134	499.69
558.346	499.69
558.559	513.69
558.771	502.69
558.984	509.69
559.196	487.69
559.409	470.69
559.621	485.69
559.833	506.69
560.046	495.69
560.258	498.69
560.47	489.69
560.683	511.69
560.895	505.69
561.107	511.69
561.32	485.69
561.532	502.69
561.744	487.69
561.956	499.69
562.168	501.69
562.381	511.69
562.593	524.69
562.805	501.69
563.017	510.69
563.229	517.69
563.441	500.69
563.653	517.69
563.865	512.69
564.077	525.69
564.289	530.69
564.501	527.69
564.713	538.69
564.925	547.69
565.137	561.69
565.349	563.69
565.561	557.69
565.773	575.69
565.985	638.69
566.197	629.69
566.408	656.69
566.62	696.69
566.832	721.69
567.044	745.69
567.255	737.69
567.467	743.69
567.679	794.69
567.891	826.69
568.102	827.69
568.314	809.69
568.526	759.69
568.737	701.69
568.949	687.69
569.161	633.69
569.372	607.69
569.584	577.69
569.795	550.69
570.007	549.69
570.218	576.69
570.43	581.69
570.641	538.69
570.853	523.69
571.064	533.69
571.276	549.69
571.487	525.69
571.698	500.69
571.91	495.69
572.121	474.69
572.333	457.69
572.544	466.69
572.755	455.69
572.966	449.69
573.178	464.69
573.389	444.69
573.6	450.69
573.811	444.69
574.023	440.69
574.234	431.69
574.445	453.69
574.656	435.69
574.867	454.69
575.078	445.69
575.289	436.69
575.501	433.69
575.712	418.69
575.923	418.69
576.134	429.69
576.345	444.69
576.556	413.69
576.767	394.69
576.978	413.69
577.188	437.69
577.399	426.69
577.61	423.69
577.821	414.69
578.032	416.69
578.243	442.69
578.454	631.69
578.665	505.69
578.875	420.69
579.086	406.69
579.297	411.69
579.508	402.69
579.718	413.69
579.929	387.69
580.14	387.69
580.35	393.69
580.561	390.69
580.772	376.69
580.982	391.69
581.193	399.69
581.403	395.69
581.614	383.69
581.825	394.69
582.035	381.69
582.246	387.69
582.456	391.69
582.667	383.69
582.877	383.69
583.087	373.69
583.298	377.69
583.508	387.69
583.719	381.69
583.929	381.69
584.139	389.69
584.35	376.69
584.56	376.69
584.77	367.69
584.981	370.69
585.191	366.69
585.401	382.69
585.611	372.69
585.821	361.69
586.032	388.69
586.242	373.69
586.452	377.69
586.662	393.69
586.872	367.69
587.082	370.69
587.292	379.69
587.502	380.69
587.713	373.69
587.923	377.69
588.133	377.69
588.343	394.69
588.553	397.69
588.762	379.69
588.972	367.69
589.182	377.69
589.392	390.69
589.602	378.69
589.812	365.69
590.022	362.69
590.232	387.69
590.441	375.69
590.651	378.69
590.861	390.69
591.071	384.69
591.281	401.69
591.49	403.69
591.7	397.69
591.91	431.69
592.119	411.69
592.329	406.69
592.539	413.69
592.748	435.69
592.958	431.69
593.167	455.69
593.377	439.69
593.587	459.69
593.796	471.69
594.006	451.69
594.215	457.69
594.424	459.69
594.634	429.69
594.843	431.69
595.053	413.69
595.262	407.69
595.472	403.69
595.681	394.69
595.89	391.69
596.1	384.69
596.309	376.69
596.518	369.69
596.727	359.69
596.937	366.69
597.146	365.69
597.355	363.69
597.564	346.69
597.774	354.69
597.983	323.69
598.192	347.69
598.401	331.69
598.61	339.69
598.819	344.69
599.028	341.69
599.237	335.69
599.446	350.69
599.655	337.69
599.864	339.69
600.073	334.69
600.282	327.69
600.491	328.69
600.7	329.69
600.909	315.69
601.118	319.69
601.327	310.69
601.536	327.69
601.745	333.69
601.953	319.69
602.162	307.69
602.371	323.69
602.58	303.69
602.789	301.69
602.997	314.69
603.206	315.69
603.415	291.69
603.623	303.69
603.832	313.69
604.041	313.69
604.249	334.69
604.458	327.69
604.666	316.69
604.875	307.69
605.084	297.69
605.292	299.69
605.501	311.69
605.709	309.69
605.918	300.69
606.126	303.69
606.334	313.69
606.543	298.69
606.751	309.69
606.96	293.69
607.168	323.69
607.376	285.69
607.585	311.69
607.793	294.69
608.001	301.69
608.21	299.69
608.418	299.69
608.626	318.69
608.834	298.69
609.043	296.69
609.251	312.69
609.459	299.69
609.667	296.69
609.875	301.69
610.083	278.69
610.291	294.69
610.499	303.69
610.707	305.69
610.916	298.69
611.124	294.69
611.332	298.69
611.54	305.69
611.748	292.69
611.955	282.69
612.163	314.69
612.371	292.69
612.579	294.69
612.787	286.69
612.995	298.69
613.203	298.69
613.411	286.69
613.618	299.69
613.826	297.69
614.034	303.69
614.242	283.69
614.449	297.69
614.657	290.69
614.865	287.69
615.072	294.69
615.28	287.69
615.488	296.69
615.695	304.69
615.903	288.69
616.111	289.69
616.318	297.69
616.526	303.69
616.733	301.69
616.941	291.69
617.148	295.69
617.356	282.69
617.563	270.69
617.771	295.69
617.978	289.69
618.185	296.69
618.393	285.69
618.6	285.69
618.807	287.69
619.015	323.69
619.222	274.69
619.429	289.69
619.637	289.69
619.844	286.69
620.051	285.69
620.258	277.69
620.466	259.69
620.673	273.69
620.88	285.69
621.087	274.69
621.294	258.69
621.501	295.69
621.708	283.69
621.915	275.69
622.122	281.69
622.329	281.69
622.536	277.69
622.743	265.69
622.95	286.69
623.157	260.69
623.364	270.69
623.571	279.69
623.778	278.69
623.985	264.69
624.192	250.69
624.399	267.69
624.606	254.69
624.812	257.69
625.019	261.69
625.226	265.69
625.433	245.69
625.639	246.69
625.846	255.69
626.053	253.69
626.259	240.69
626.466	267.69
626.673	266.69
626.879	255.69
627.086	250.69
627.293	249.69
627.499	246.69
627.706	249.69
627.912	237.69
628.119	236.69
628.325	242.69
628.532	243.69
628.738	266.69
628.945	242.69
629.151	241.69
629.357	246.69
629.564	250.69
629.77	246.69
629.976	249.69
630.183	238.69
630.389	232.69
630.595	244.69
630.802	234.69
631.008	235.69
631.214	231.69
631.42	239.69
631.627	237.69
631.833	226.69
632.039	227.69
632.245	225.69
632.451	217.69
632.657	215.69
632.863	234.69
633.069	218.69
633.275	203.69
633.481	205.69
633.688	202.69
633.893	223.69
634.099	203.69
634.305	204.69
634.511	223.69
634.717	213.69
634.923	231.69
635.129	225.69
635.335	218.69
635.541	214.69
635.747	220.69
635.952	221.69
636.158	227.69
636.364	213.69
636.57	217.69
636.775	233.69
636.981	213.69
637.187	229.69
637.392	213.69
637.598	216.69
637.804	210.69
638.009	200.69
638.215	225.69
638.421	206.69
638.626	216.69
638.832	215.69
639.037	201.69
639.243	200.69
639.448	196.69
639.654	207.69
639.859	217.69
640.065	219.69
640.27	211.69
640.475	189.69
640.681	186.69
640.886	210.69
641.091	198.69
641.297	205.69
641.502	203.69
641.707	196.69
641.913	201.69
642.118	202.69
642.323	187.69
642.528	185.69
642.733	197.69
642.939	202.69
643.144	189.69
643.349	195.69
643.554	189.69
643.759	197.69
643.964	180.69
644.169	189.69
644.374	187.69
644.579	195.69
644.784	205.69
644.989	196.69
645.194	182.69
645.399	201.69
645.604	192.69
645.809	200.69
646.014	194.69
646.219	190.69
646.423	198.69
646.628	195.69
646.833	188.69
647.038	198.69
647.243	217.69
647.447	197.69
647.652	202.69
647.857	187.69
648.062	219.69
648.266	195.69
648.471	214.69
648.676	218.69
648.88	207.69
649.085	195.69
649.289	203.69
649.494	199.69
649.698	216.69
649.903	203.69
650.107	173.69
650.312	182.69
650.516	183.69
650.721	178.69
650.925	170.69
651.13	159.69
651.334	188.69
651.539	182.69
651.743	172.69
651.947	169.69
652.152	173.69
652.356	160.69
652.56	158.69
652.764	152.69
652.969	167.69
653.173	147.69
653.377	145.69
653.581	155.69
653.785	163.69
653.99	147.69
654.194	163.69
654.398	151.69
654.602	149.69
654.806	151.69
655.01	144.69
655.214	147.69
655.418	137.69
655.622	153.69
655.826	148.69
656.03	160.69
656.234	153.69
656.438	143.69
656.642	150.69
656.846	147.69
657.049	141.69
657.253	135.69
657.457	128.69
657.661	128.69
657.865	123.69
658.068	132.69
658.272	118.69
658.476	128.69
658.68	121.69
658.883	102.69
659.087	105.69
659.291	103.69
659.494	104.69
659.698	100.69
659.901	101.69
660.105	114.69
660.309	104.69
660.512	106.69
660.716	85.69
660.919	81.69
661.123	90.69
661.326	99.69
661.53	82.69
661.733	95.69
661.936	85.69
662.14	95.69
662.343	80.69
662.546	74.69
662.75	82.69
662.953	84.69
663.156	90.69
663.36	79.69
663.563	79.69
663.766	70.69
663.969	81.69
664.173	77.69
664.376	84.69
664.579	80.69
664.782	94.69
664.985	79.69
665.188	88.69
665.391	80.69
665.594	70.69
665.797	71.69
666	83.69
666.203	79.69
666.406	71.69
666.609	71.69
666.812	76.69
667.015	74.69
667.218	92.69
667.421	86.69
667.624	73.69
667.827	86.69
668.03	71.69
668.232	76.69
668.435	72.69
668.638	77.69
668.841	93.69
669.043	80.69
669.246	89.69
669.449	82.69
669.651	80.69
669.854	79.69
670.057	69.69
670.259	64.69
670.462	82.69
670.665	76.69
670.867	72.69
671.07	90.69
671.272	86.69
671.475	73.69
671.677	70.69
671.88	83.69
672.082	81.69
672.284	81.69
672.487	86.69
672.689	88.69
672.892	74.69
