Data from 1963.PennyLincolnUp.Lamp.En5.5.200Scan.071719.P1._HRD10591_13-58-58-063.txt Node
Date: Thu Jul 18 13:58:58 EDT 2019
User: cochatt
Spectrometer: HR+D1059
Trigger mode: 1
Integration Time (sec): 1.000000E-1
Scans to average: 1
Electric dark correction enabled: true
Nonlinearity correction enabled: false
Boxcar width: 0
XAxis mode: Wavelengths
Number of Pixels in Spectrum: 2048
>>>>>Begin Spectral Data<<<<<
223.165	-4.5
223.4	-4.5
223.635	-4.5
223.869	-21.5
224.104	-21.5
224.338	-16.5
224.573	-14.5
224.808	-14.5
225.042	-13.5
225.277	-15.5
225.511	-0.5
225.746	0.5
225.98	5.5
226.215	3.5
226.449	20.5
226.683	22.5
226.918	36.5
227.152	33.5
227.387	36.5
227.621	40.5
227.856	46.5
228.09	41.5
228.324	57.5
228.559	59.5
228.793	83.5
229.027	101.5
229.262	99.5
229.496	90.5
229.73	130.5
229.964	136.5
230.199	121.5
230.433	118.5
230.667	111.5
230.901	116.5
231.136	122.5
231.37	110.5
231.604	118.5
231.838	123.5
232.072	115.5
232.306	116.5
232.541	116.5
232.775	125.5
233.009	119.5
233.243	124.5
233.477	130.5
233.711	118.5
233.945	126.5
234.179	125.5
234.413	123.5
234.647	125.5
234.881	122.5
235.115	108.5
235.349	106.5
235.583	103.5
235.817	133.5
236.051	128.5
236.285	139.5
236.519	105.5
236.753	139.5
236.987	136.5
237.221	166.5
237.455	204.5
237.689	167.5
237.922	142.5
238.156	149.5
238.39	124.5
238.624	117.5
238.858	125.5
239.091	139.5
239.325	134.5
239.559	134.5
239.793	131.5
240.027	132.5
240.26	142.5
240.494	151.5
240.728	164.5
240.961	164.5
241.195	147.5
241.429	131.5
241.662	154.5
241.896	149.5
242.13	154.5
242.363	158.5
242.597	150.5
242.83	156.5
243.064	168.5
243.298	155.5
243.531	147.5
243.765	159.5
243.998	167.5
244.232	139.5
244.465	156.5
244.699	153.5
244.932	160.5
245.166	163.5
245.399	165.5
245.633	172.5
245.866	167.5
246.099	145.5
246.333	166.5
246.566	164.5
246.8	167.5
247.033	162.5
247.266	176.5
247.5	188.5
247.733	196.5
247.966	182.5
248.2	189.5
248.433	196.5
248.666	190.5
248.899	184.5
249.133	200.5
249.366	195.5
249.599	198.5
249.832	203.5
250.066	202.5
250.299	202.5
250.532	199.5
250.765	209.5
250.998	217.5
251.231	237.5
251.465	204.5
251.698	217.5
251.931	223.5
252.164	210.5
252.397	217.5
252.63	215.5
252.863	227.5
253.096	221.5
253.329	231.5
253.562	236.5
253.795	232.5
254.028	237.5
254.261	235.5
254.494	250.5
254.727	251.5
254.96	277.5
255.193	267.5
255.426	251.5
255.659	236.5
255.892	222.5
256.124	234.5
256.357	249.5
256.59	250.5
256.823	227.5
257.056	235.5
257.289	229.5
257.521	221.5
257.754	231.5
257.987	238.5
258.22	233.5
258.452	230.5
258.685	225.5
258.918	226.5
259.151	242.5
259.383	250.5
259.616	236.5
259.849	254.5
260.081	243.5
260.314	251.5
260.547	253.5
260.779	248.5
261.012	247.5
261.244	245.5
261.477	264.5
261.71	238.5
261.942	246.5
262.175	248.5
262.407	240.5
262.64	236.5
262.872	238.5
263.105	242.5
263.337	234.5
263.57	255.5
263.802	254.5
264.035	234.5
264.267	250.5
264.499	244.5
264.732	244.5
264.964	259.5
265.197	248.5
265.429	244.5
265.661	242.5
265.894	259.5
266.126	217.5
266.358	247.5
266.591	247.5
266.823	252.5
267.055	250.5
267.287	252.5
267.52	267.5
267.752	264.5
267.984	271.5
268.216	267.5
268.448	260.5
268.681	266.5
268.913	266.5
269.145	278.5
269.377	287.5
269.609	280.5
269.841	287.5
270.073	295.5
270.306	291.5
270.538	328.5
270.77	326.5
271.002	311.5
271.234	300.5
271.466	341.5
271.698	328.5
271.93	327.5
272.162	327.5
272.394	323.5
272.626	319.5
272.858	290.5
273.09	302.5
273.322	296.5
273.553	295.5
273.785	293.5
274.017	291.5
274.249	299.5
274.481	297.5
274.713	290.5
274.945	301.5
275.176	305.5
275.408	291.5
275.64	293.5
275.872	306.5
276.104	310.5
276.335	309.5
276.567	322.5
276.799	303.5
277.031	331.5
277.262	358.5
277.494	369.5
277.726	332.5
277.957	328.5
278.189	319.5
278.421	325.5
278.652	302.5
278.884	329.5
279.115	301.5
279.347	312.5
279.579	319.5
279.81	304.5
280.042	307.5
280.273	312.5
280.505	336.5
280.736	323.5
280.968	310.5
281.199	316.5
281.431	327.5
281.662	330.5
281.894	315.5
282.125	310.5
282.356	325.5
282.588	349.5
282.819	335.5
283.051	336.5
283.282	313.5
283.513	323.5
283.745	334.5
283.976	326.5
284.207	335.5
284.439	339.5
284.67	328.5
284.901	359.5
285.132	323.5
285.364	323.5
285.595	332.5
285.826	329.5
286.057	340.5
286.288	335.5
286.52	331.5
286.751	335.5
286.982	325.5
287.213	337.5
287.444	339.5
287.675	329.5
287.906	357.5
288.138	348.5
288.369	365.5
288.6	355.5
288.831	349.5
289.062	367.5
289.293	350.5
289.524	343.5
289.755	347.5
289.986	347.5
290.217	358.5
290.448	347.5
290.679	350.5
290.91	338.5
291.141	360.5
291.371	364.5
291.602	357.5
291.833	347.5
292.064	364.5
292.295	364.5
292.526	347.5
292.757	362.5
292.987	354.5
293.218	375.5
293.449	366.5
293.68	361.5
293.91	338.5
294.141	362.5
294.372	355.5
294.603	374.5
294.833	370.5
295.064	373.5
295.295	376.5
295.525	368.5
295.756	360.5
295.987	363.5
296.217	397.5
296.448	394.5
296.679	392.5
296.909	369.5
297.14	370.5
297.37	368.5
297.601	383.5
297.831	360.5
298.062	378.5
298.292	390.5
298.523	393.5
298.753	388.5
298.984	376.5
299.214	374.5
299.445	377.5
299.675	404.5
299.905	394.5
300.136	390.5
300.366	377.5
300.597	392.5
300.827	396.5
301.057	392.5
301.288	419.5
301.518	410.5
301.748	411.5
301.979	399.5
302.209	421.5
302.439	414.5
302.669	415.5
302.9	398.5
303.13	400.5
303.36	401.5
303.59	420.5
303.82	404.5
304.051	412.5
304.281	405.5
304.511	408.5
304.741	410.5
304.971	396.5
305.201	389.5
305.431	396.5
305.661	422.5
305.891	404.5
306.121	401.5
306.352	412.5
306.582	398.5
306.812	401.5
307.042	400.5
307.272	384.5
307.502	386.5
307.731	392.5
307.961	413.5
308.191	436.5
308.421	420.5
308.651	392.5
308.881	413.5
309.111	419.5
309.341	403.5
309.571	414.5
309.8	411.5
310.03	402.5
310.26	413.5
310.49	430.5
310.72	432.5
310.949	438.5
311.179	450.5
311.409	444.5
311.639	426.5
311.868	419.5
312.098	451.5
312.328	441.5
312.557	450.5
312.787	445.5
313.017	442.5
313.246	451.5
313.476	451.5
313.706	459.5
313.935	446.5
314.165	444.5
314.394	450.5
314.624	455.5
314.853	461.5
315.083	454.5
315.312	448.5
315.542	458.5
315.771	434.5
316.001	464.5
316.23	449.5
316.46	453.5
316.689	463.5
316.919	429.5
317.148	460.5
317.377	468.5
317.607	438.5
317.836	436.5
318.065	434.5
318.295	446.5
318.524	451.5
318.753	441.5
318.983	444.5
319.212	424.5
319.441	428.5
319.67	465.5
319.9	443.5
320.129	460.5
320.358	426.5
320.587	446.5
320.816	455.5
321.046	467.5
321.275	492.5
321.504	460.5
321.733	484.5
321.962	478.5
322.191	472.5
322.42	474.5
322.649	472.5
322.878	476.5
323.108	502.5
323.337	511.5
323.566	525.5
323.795	537.5
324.024	574.5
324.253	645.5
324.482	802.5
324.71	1192.5
324.939	1605.5
325.168	1411.5
325.397	828.5
325.626	628.5
325.855	555.5
326.084	555.5
326.313	517.5
326.542	548.5
326.77	561.5
326.999	614.5
327.228	765.5
327.457	1101.5
327.686	1268.5
327.914	895.5
328.143	671.5
328.372	613.5
328.6	606.5
328.829	578.5
329.058	570.5
329.287	615.5
329.515	566.5
329.744	557.5
329.972	538.5
330.201	568.5
330.43	591.5
330.658	593.5
330.887	626.5
331.115	613.5
331.344	562.5
331.572	558.5
331.801	555.5
332.03	541.5
332.258	556.5
332.486	570.5
332.715	570.5
332.943	584.5
333.172	589.5
333.4	581.5
333.629	598.5
333.857	598.5
334.085	614.5
334.314	638.5
334.542	659.5
334.771	654.5
334.999	620.5
335.227	604.5
335.455	604.5
335.684	574.5
335.912	575.5
336.14	562.5
336.369	572.5
336.597	584.5
336.825	552.5
337.053	562.5
337.281	556.5
337.51	570.5
337.738	560.5
337.966	559.5
338.194	554.5
338.422	536.5
338.65	559.5
338.878	523.5
339.106	528.5
339.334	527.5
339.562	525.5
339.79	517.5
340.018	504.5
340.246	537.5
340.474	544.5
340.702	521.5
340.93	521.5
341.158	523.5
341.386	522.5
341.614	500.5
341.842	515.5
342.07	515.5
342.298	520.5
342.526	539.5
342.754	527.5
342.981	501.5
343.209	525.5
343.437	535.5
343.665	529.5
343.893	574.5
344.12	589.5
344.348	567.5
344.576	556.5
344.804	552.5
345.031	548.5
345.259	576.5
345.487	541.5
345.714	531.5
345.942	498.5
346.17	490.5
346.397	499.5
346.625	492.5
346.853	520.5
347.08	520.5
347.308	505.5
347.535	494.5
347.763	506.5
347.99	509.5
348.218	523.5
348.445	491.5
348.673	501.5
348.9	496.5
349.128	510.5
349.355	478.5
349.583	506.5
349.81	475.5
350.037	496.5
350.265	495.5
350.492	488.5
350.72	505.5
350.947	498.5
351.174	491.5
351.402	480.5
351.629	490.5
351.856	465.5
352.083	474.5
352.311	500.5
352.538	524.5
352.765	493.5
352.992	483.5
353.22	490.5
353.447	482.5
353.674	483.5
353.901	501.5
354.128	477.5
354.355	485.5
354.583	452.5
354.81	483.5
355.037	479.5
355.264	473.5
355.491	486.5
355.718	482.5
355.945	476.5
356.172	486.5
356.399	471.5
356.626	465.5
356.853	482.5
357.08	463.5
357.307	463.5
357.534	481.5
357.761	477.5
357.988	472.5
358.215	476.5
358.441	483.5
358.668	479.5
358.895	472.5
359.122	476.5
359.349	495.5
359.576	515.5
359.802	508.5
360.029	525.5
360.256	527.5
360.483	486.5
360.709	503.5
360.936	516.5
361.163	496.5
361.39	507.5
361.616	471.5
361.843	483.5
362.07	499.5
362.296	490.5
362.523	488.5
362.749	504.5
362.976	477.5
363.203	482.5
363.429	476.5
363.656	476.5
363.882	467.5
364.109	485.5
364.335	489.5
364.562	495.5
364.788	486.5
365.015	494.5
365.241	490.5
365.468	500.5
365.694	493.5
365.92	500.5
366.147	491.5
366.373	480.5
366.599	486.5
366.826	490.5
367.052	483.5
367.278	494.5
367.505	490.5
367.731	491.5
367.957	472.5
368.184	493.5
368.41	510.5
368.636	493.5
368.862	512.5
369.089	500.5
369.315	508.5
369.541	480.5
369.767	493.5
369.993	487.5
370.219	500.5
370.445	502.5
370.672	503.5
370.898	502.5
371.124	502.5
371.35	511.5
371.576	505.5
371.802	527.5
372.028	510.5
372.254	532.5
372.48	534.5
372.706	502.5
372.932	529.5
373.158	535.5
373.384	510.5
373.61	510.5
373.835	528.5
374.061	515.5
374.287	535.5
374.513	524.5
374.739	564.5
374.965	552.5
375.191	564.5
375.416	575.5
375.642	555.5
375.868	538.5
376.094	547.5
376.319	529.5
376.545	522.5
376.771	517.5
376.997	512.5
377.222	524.5
377.448	499.5
377.674	525.5
377.899	510.5
378.125	519.5
378.35	496.5
378.576	500.5
378.802	493.5
379.027	506.5
379.253	496.5
379.478	495.5
379.704	503.5
379.929	508.5
380.155	512.5
380.38	521.5
380.606	510.5
380.831	514.5
381.057	514.5
381.282	511.5
381.507	515.5
381.733	540.5
381.958	539.5
382.184	531.5
382.409	519.5
382.634	526.5
382.86	542.5
383.085	537.5
383.31	533.5
383.535	531.5
383.761	574.5
383.986	566.5
384.211	558.5
384.436	555.5
384.662	551.5
384.887	567.5
385.112	575.5
385.337	566.5
385.562	569.5
385.787	584.5
386.013	580.5
386.238	597.5
386.463	584.5
386.688	578.5
386.913	576.5
387.138	557.5
387.363	585.5
387.588	578.5
387.813	586.5
388.038	590.5
388.263	578.5
388.488	599.5
388.713	576.5
388.938	586.5
389.163	597.5
389.387	588.5
389.612	596.5
389.837	580.5
390.062	582.5
390.287	576.5
390.512	607.5
390.736	580.5
390.961	583.5
391.186	589.5
391.411	600.5
391.636	619.5
391.86	629.5
392.085	636.5
392.31	607.5
392.534	631.5
392.759	616.5
392.984	622.5
393.208	608.5
393.433	615.5
393.658	634.5
393.882	612.5
394.107	616.5
394.331	619.5
394.556	604.5
394.78	597.5
395.005	604.5
395.229	617.5
395.454	621.5
395.678	625.5
395.903	624.5
396.127	642.5
396.352	618.5
396.576	633.5
396.801	590.5
397.025	619.5
397.249	626.5
397.474	627.5
397.698	647.5
397.922	675.5
398.147	654.5
398.371	665.5
398.595	663.5
398.82	719.5
399.044	736.5
399.268	788.5
399.492	846.5
399.717	941.5
399.941	957.5
400.165	918.5
400.389	894.5
400.613	810.5
400.837	770.5
401.062	736.5
401.286	722.5
401.51	720.5
401.734	705.5
401.958	696.5
402.182	704.5
402.406	733.5
402.63	713.5
402.854	726.5
403.078	716.5
403.302	738.5
403.526	762.5
403.75	730.5
403.974	784.5
404.198	739.5
404.422	734.5
404.645	762.5
404.869	802.5
405.093	794.5
405.317	818.5
405.541	875.5
405.765	807.5
405.988	775.5
406.212	775.5
406.436	814.5
406.66	814.5
406.883	770.5
407.107	848.5
407.331	871.5
407.555	939.5
407.778	952.5
408.002	880.5
408.226	846.5
408.449	829.5
408.673	836.5
408.896	824.5
409.12	854.5
409.344	807.5
409.567	760.5
409.791	758.5
410.014	740.5
410.238	732.5
410.461	726.5
410.685	742.5
410.908	745.5
411.132	751.5
411.355	781.5
411.578	787.5
411.802	727.5
412.025	744.5
412.249	759.5
412.472	755.5
412.695	779.5
412.919	772.5
413.142	730.5
413.365	700.5
413.589	719.5
413.812	696.5
414.035	688.5
414.258	712.5
414.482	708.5
414.705	682.5
414.928	705.5
415.151	701.5
415.374	708.5
415.597	709.5
415.821	695.5
416.044	668.5
416.267	698.5
416.49	692.5
416.713	663.5
416.936	696.5
417.159	660.5
417.382	695.5
417.605	682.5
417.828	692.5
418.051	703.5
418.274	728.5
418.497	709.5
418.72	703.5
418.943	702.5
419.166	741.5
419.389	770.5
419.611	752.5
419.834	736.5
420.057	742.5
420.28	733.5
420.503	701.5
420.726	713.5
420.948	715.5
421.171	740.5
421.394	779.5
421.617	709.5
421.839	695.5
422.062	712.5
422.285	714.5
422.507	765.5
422.73	808.5
422.953	803.5
423.175	743.5
423.398	711.5
423.621	721.5
423.843	743.5
424.066	750.5
424.288	737.5
424.511	775.5
424.733	802.5
424.956	859.5
425.178	807.5
425.401	823.5
425.623	828.5
425.846	747.5
426.068	717.5
426.291	727.5
426.513	695.5
426.735	706.5
426.958	743.5
427.18	796.5
427.402	919.5
427.625	969.5
427.847	876.5
428.069	765.5
428.292	730.5
428.514	690.5
428.736	671.5
428.958	656.5
429.181	649.5
429.403	668.5
429.625	662.5
429.847	676.5
430.069	732.5
430.292	746.5
430.514	650.5
430.736	660.5
430.958	651.5
431.18	623.5
431.402	648.5
431.624	618.5
431.846	609.5
432.068	648.5
432.29	666.5
432.512	638.5
432.734	652.5
432.956	643.5
433.178	656.5
433.4	655.5
433.622	655.5
433.844	639.5
434.066	650.5
434.287	657.5
434.509	648.5
434.731	695.5
434.953	682.5
435.175	707.5
435.397	721.5
435.618	715.5
435.84	726.5
436.062	804.5
436.284	831.5
436.505	737.5
436.727	685.5
436.949	681.5
437.17	678.5
437.392	633.5
437.614	651.5
437.835	669.5
438.057	770.5
438.278	829.5
438.5	819.5
438.721	879.5
438.943	863.5
439.165	726.5
439.386	702.5
439.608	696.5
439.829	692.5
440.05	721.5
440.272	743.5
440.493	727.5
440.715	678.5
440.936	690.5
441.158	659.5
441.379	683.5
441.6	698.5
441.822	730.5
442.043	751.5
442.264	812.5
442.486	847.5
442.707	775.5
442.928	736.5
443.149	761.5
443.371	735.5
443.592	790.5
443.813	872.5
444.034	900.5
444.255	816.5
444.476	779.5
444.698	780.5
444.919	795.5
445.14	930.5
445.361	860.5
445.582	765.5
445.803	804.5
446.024	870.5
446.245	847.5
446.466	802.5
446.687	745.5
446.908	713.5
447.129	671.5
447.35	656.5
447.571	660.5
447.792	624.5
448.013	648.5
448.234	653.5
448.455	686.5
448.675	790.5
448.896	884.5
449.117	765.5
449.338	706.5
449.559	776.5
449.779	876.5
450	733.5
450.221	669.5
450.442	623.5
450.662	639.5
450.883	603.5
451.104	624.5
451.324	616.5
451.545	591.5
451.766	587.5
451.986	584.5
452.207	591.5
452.428	578.5
452.648	587.5
452.869	579.5
453.089	586.5
453.31	602.5
453.53	605.5
453.751	565.5
453.971	565.5
454.192	581.5
454.412	582.5
454.633	576.5
454.853	566.5
455.073	567.5
455.294	599.5
455.514	628.5
455.734	634.5
455.955	572.5
456.175	583.5
456.395	546.5
456.616	559.5
456.836	557.5
457.056	584.5
457.276	555.5
457.497	548.5
457.717	562.5
457.937	568.5
458.157	560.5
458.377	580.5
458.598	590.5
458.818	663.5
459.038	713.5
459.258	716.5
459.478	669.5
459.698	666.5
459.918	648.5
460.138	678.5
460.358	692.5
460.578	692.5
460.798	744.5
461.018	714.5
461.238	711.5
461.458	692.5
461.678	674.5
461.898	680.5
462.118	722.5
462.338	761.5
462.558	752.5
462.777	788.5
462.997	804.5
463.217	862.5
463.437	873.5
463.657	817.5
463.876	802.5
464.096	802.5
464.316	786.5
464.536	785.5
464.755	793.5
464.975	777.5
465.195	771.5
465.414	790.5
465.634	720.5
465.854	664.5
466.073	664.5
466.293	649.5
466.512	622.5
466.732	628.5
466.951	628.5
467.171	630.5
467.391	624.5
467.61	610.5
467.829	611.5
468.049	598.5
468.268	607.5
468.488	609.5
468.707	595.5
468.927	614.5
469.146	600.5
469.365	600.5
469.585	626.5
469.804	612.5
470.023	635.5
470.243	638.5
470.462	638.5
470.681	638.5
470.901	659.5
471.12	618.5
471.339	625.5
471.558	632.5
471.777	635.5
471.997	602.5
472.216	602.5
472.435	629.5
472.654	631.5
472.873	602.5
473.092	603.5
473.311	595.5
473.53	596.5
473.749	607.5
473.968	652.5
474.187	678.5
474.406	696.5
474.625	646.5
474.844	613.5
475.063	626.5
475.282	590.5
475.501	614.5
475.72	606.5
475.939	612.5
476.158	604.5
476.377	631.5
476.596	625.5
476.814	642.5
477.033	627.5
477.252	642.5
477.471	664.5
477.69	666.5
477.908	673.5
478.127	680.5
478.346	678.5
478.564	721.5
478.783	742.5
479.002	736.5
479.22	730.5
479.439	728.5
479.658	755.5
479.876	750.5
480.095	806.5
480.313	759.5
480.532	792.5
480.751	801.5
480.969	765.5
481.188	780.5
481.406	834.5
481.624	772.5
481.843	750.5
482.061	736.5
482.28	735.5
482.498	704.5
482.717	711.5
482.935	715.5
483.153	731.5
483.372	723.5
483.59	703.5
483.808	727.5
484.027	701.5
484.245	716.5
484.463	697.5
484.681	742.5
484.9	726.5
485.118	716.5
485.336	722.5
485.554	731.5
485.772	765.5
485.99	754.5
486.209	749.5
486.427	749.5
486.645	746.5
486.863	749.5
487.081	781.5
487.299	737.5
487.517	752.5
487.735	757.5
487.953	784.5
488.171	774.5
488.389	763.5
488.607	765.5
488.825	750.5
489.043	724.5
489.261	744.5
489.479	758.5
489.696	774.5
489.914	770.5
490.132	754.5
490.35	792.5
490.568	762.5
490.786	787.5
491.003	808.5
491.221	811.5
491.439	823.5
491.657	806.5
491.874	834.5
492.092	835.5
492.31	804.5
492.527	840.5
492.745	839.5
492.963	872.5
493.18	845.5
493.398	874.5
493.615	877.5
493.833	897.5
494.05	885.5
494.268	859.5
494.485	886.5
494.703	866.5
494.92	861.5
495.138	875.5
495.355	885.5
495.573	874.5
495.79	887.5
496.008	854.5
496.225	861.5
496.442	868.5
496.66	892.5
496.877	900.5
497.094	920.5
497.312	918.5
497.529	928.5
497.746	962.5
497.963	975.5
498.181	1000.5
498.398	1038.5
498.615	1068.5
498.832	1116.5
499.049	1170.5
499.267	1179.5
499.484	1296.5
499.701	1368.5
499.918	1458.5
500.135	1634.5
500.352	1748.5
500.569	1766.5
500.786	1797.5
501.003	1706.5
501.22	1611.5
501.437	1492.5
501.654	1416.5
501.871	1293.5
502.088	1256.5
502.305	1166.5
502.522	1115.5
502.739	1066.5
502.956	1020.5
503.172	1038.5
503.389	964.5
503.606	977.5
503.823	966.5
504.04	947.5
504.256	924.5
504.473	951.5
504.69	962.5
504.907	966.5
505.123	917.5
505.34	880.5
505.557	866.5
505.773	857.5
505.99	844.5
506.207	802.5
506.423	822.5
506.64	818.5
506.856	818.5
507.073	796.5
507.289	811.5
507.506	786.5
507.722	815.5
507.939	802.5
508.155	792.5
508.372	780.5
508.588	747.5
508.805	752.5
509.021	788.5
509.238	772.5
509.454	759.5
509.67	780.5
509.887	778.5
510.103	766.5
510.319	747.5
510.536	806.5
510.752	1200.5
510.968	1018.5
511.184	763.5
511.401	748.5
511.617	724.5
511.833	744.5
512.049	735.5
512.265	721.5
512.481	735.5
512.698	709.5
512.914	710.5
513.13	708.5
513.346	722.5
513.562	710.5
513.778	707.5
513.994	708.5
514.21	744.5
514.426	740.5
514.642	754.5
514.858	773.5
515.074	820.5
515.29	894.5
515.506	1158.5
515.721	1049.5
515.937	828.5
516.153	756.5
516.369	779.5
516.585	788.5
516.801	798.5
517.016	834.5
517.232	834.5
517.448	845.5
517.664	885.5
517.879	887.5
518.095	888.5
518.311	868.5
518.527	860.5
518.742	828.5
518.958	812.5
519.173	805.5
519.389	764.5
519.605	773.5
519.82	758.5
520.036	735.5
520.251	749.5
520.467	771.5
520.682	776.5
520.898	761.5
521.113	756.5
521.329	780.5
521.544	814.5
521.76	938.5
521.975	1394.5
522.19	1422.5
522.406	874.5
522.621	735.5
522.836	728.5
523.052	678.5
523.267	660.5
523.482	667.5
523.698	646.5
523.913	664.5
524.128	643.5
524.343	652.5
524.559	666.5
524.774	651.5
524.989	651.5
525.204	660.5
525.419	642.5
525.634	647.5
525.849	630.5
526.064	638.5
526.28	627.5
526.495	604.5
526.71	620.5
526.925	627.5
527.14	614.5
527.355	604.5
527.57	634.5
527.785	638.5
527.999	630.5
528.214	613.5
528.429	616.5
528.644	625.5
528.859	621.5
529.074	623.5
529.289	626.5
529.503	658.5
529.718	659.5
529.933	656.5
530.148	626.5
530.363	614.5
530.577	614.5
530.792	621.5
531.007	611.5
531.221	603.5
531.436	608.5
531.651	618.5
531.865	621.5
532.08	592.5
532.295	592.5
532.509	595.5
532.724	610.5
532.938	594.5
533.153	598.5
533.367	599.5
533.582	607.5
533.796	603.5
534.011	584.5
534.225	602.5
534.44	598.5
534.654	583.5
534.868	586.5
535.083	601.5
535.297	597.5
535.511	610.5
535.726	588.5
535.94	574.5
536.154	572.5
536.369	563.5
536.583	599.5
536.797	551.5
537.011	568.5
537.225	579.5
537.44	585.5
537.654	593.5
537.868	566.5
538.082	549.5
538.296	564.5
538.51	576.5
538.724	580.5
538.938	585.5
539.153	575.5
539.367	567.5
539.581	558.5
539.795	571.5
540.009	572.5
540.222	572.5
540.436	567.5
540.65	568.5
540.864	568.5
541.078	579.5
541.292	559.5
541.506	572.5
541.72	564.5
541.934	581.5
542.147	570.5
542.361	555.5
542.575	522.5
542.789	545.5
543.002	566.5
543.216	557.5
543.43	562.5
543.644	558.5
543.857	570.5
544.071	564.5
544.285	556.5
544.498	555.5
544.712	581.5
544.925	573.5
545.139	559.5
545.352	580.5
545.566	568.5
545.779	529.5
545.993	580.5
546.206	578.5
546.42	590.5
546.633	567.5
546.847	573.5
547.06	551.5
547.274	570.5
547.487	566.5
547.7	558.5
547.914	566.5
548.127	564.5
548.34	573.5
548.554	546.5
548.767	556.5
548.98	548.5
549.193	571.5
549.407	578.5
549.62	575.5
549.833	562.5
550.046	578.5
550.259	568.5
550.473	556.5
550.686	559.5
550.899	576.5
551.112	578.5
551.325	550.5
551.538	551.5
551.751	541.5
551.964	583.5
552.177	586.5
552.39	568.5
552.603	591.5
552.816	586.5
553.029	591.5
553.242	597.5
553.455	615.5
553.667	595.5
553.88	614.5
554.093	601.5
554.306	580.5
554.519	556.5
554.732	579.5
554.944	574.5
555.157	544.5
555.37	534.5
555.583	548.5
555.795	548.5
556.008	544.5
556.221	545.5
556.433	534.5
556.646	524.5
556.859	498.5
557.071	489.5
557.284	498.5
557.496	516.5
557.709	500.5
557.921	493.5
558.134	483.5
558.346	498.5
558.559	498.5
558.771	507.5
558.984	487.5
559.196	493.5
559.409	475.5
559.621	481.5
559.833	490.5
560.046	478.5
560.258	498.5
560.47	496.5
560.683	503.5
560.895	493.5
561.107	477.5
561.32	488.5
561.532	499.5
561.744	483.5
561.956	484.5
562.168	507.5
562.381	480.5
562.593	498.5
562.805	494.5
563.017	498.5
563.229	506.5
563.441	502.5
563.653	513.5
563.865	508.5
564.077	496.5
564.289	488.5
564.501	499.5
564.713	515.5
564.925	530.5
565.137	534.5
565.349	543.5
565.561	573.5
565.773	582.5
565.985	573.5
566.197	618.5
566.408	655.5
566.62	676.5
566.832	695.5
567.044	747.5
567.255	748.5
567.467	753.5
567.679	774.5
567.891	783.5
568.102	837.5
568.314	801.5
568.526	736.5
568.737	688.5
568.949	650.5
569.161	609.5
569.372	600.5
569.584	558.5
569.795	560.5
570.007	527.5
570.218	547.5
570.43	552.5
570.641	517.5
570.853	514.5
571.064	500.5
571.276	507.5
571.487	494.5
571.698	474.5
571.91	464.5
572.121	478.5
572.333	463.5
572.544	446.5
572.755	453.5
572.966	447.5
573.178	446.5
573.389	422.5
573.6	430.5
573.811	416.5
574.023	418.5
574.234	429.5
574.445	455.5
574.656	416.5
574.867	434.5
575.078	428.5
575.289	417.5
575.501	435.5
575.712	414.5
575.923	434.5
576.134	415.5
576.345	432.5
576.556	411.5
576.767	427.5
576.978	426.5
577.188	389.5
577.399	423.5
577.61	410.5
577.821	421.5
578.032	399.5
578.243	426.5
578.454	596.5
578.665	456.5
578.875	397.5
579.086	392.5
579.297	394.5
579.508	409.5
579.718	387.5
579.929	386.5
580.14	376.5
580.35	380.5
580.561	405.5
580.772	378.5
580.982	380.5
581.193	381.5
581.403	366.5
581.614	388.5
581.825	374.5
582.035	378.5
582.246	385.5
582.456	396.5
582.667	400.5
582.877	385.5
583.087	374.5
583.298	361.5
583.508	381.5
583.719	372.5
583.929	369.5
584.139	379.5
584.35	363.5
584.56	373.5
584.77	356.5
584.981	368.5
585.191	363.5
585.401	359.5
585.611	392.5
585.821	369.5
586.032	378.5
586.242	362.5
586.452	355.5
586.662	371.5
586.872	366.5
587.082	352.5
587.292	373.5
587.502	357.5
587.713	365.5
587.923	344.5
588.133	374.5
588.343	347.5
588.553	366.5
588.762	365.5
588.972	374.5
589.182	364.5
589.392	390.5
589.602	364.5
589.812	375.5
590.022	376.5
590.232	359.5
590.441	384.5
590.651	376.5
590.861	363.5
591.071	378.5
591.281	382.5
591.49	373.5
591.7	387.5
591.91	390.5
592.119	384.5
592.329	400.5
592.539	404.5
592.748	407.5
592.958	423.5
593.167	437.5
593.377	452.5
593.587	432.5
593.796	439.5
594.006	432.5
594.215	423.5
594.424	423.5
594.634	432.5
594.843	418.5
595.053	430.5
595.262	412.5
595.472	401.5
595.681	389.5
595.89	408.5
596.1	396.5
596.309	385.5
596.518	381.5
596.727	336.5
596.937	351.5
597.146	357.5
597.355	340.5
597.564	356.5
597.774	346.5
597.983	332.5
598.192	338.5
598.401	353.5
598.61	335.5
598.819	325.5
599.028	323.5
599.237	312.5
599.446	325.5
599.655	325.5
599.864	326.5
600.073	323.5
600.282	310.5
600.491	314.5
600.7	315.5
600.909	312.5
601.118	303.5
601.327	303.5
601.536	307.5
601.745	340.5
601.953	308.5
602.162	307.5
602.371	319.5
602.58	296.5
602.789	315.5
602.997	296.5
603.206	302.5
603.415	295.5
603.623	310.5
603.832	310.5
604.041	311.5
604.249	292.5
604.458	295.5
604.666	306.5
604.875	292.5
605.084	300.5
605.292	296.5
605.501	294.5
605.709	317.5
605.918	310.5
606.126	301.5
606.334	290.5
606.543	307.5
606.751	298.5
606.96	306.5
607.168	291.5
607.376	291.5
607.585	279.5
607.793	310.5
608.001	294.5
608.21	302.5
608.418	311.5
608.626	294.5
608.834	293.5
609.043	296.5
609.251	290.5
609.459	290.5
609.667	309.5
609.875	278.5
610.083	286.5
610.291	298.5
610.499	304.5
610.707	296.5
610.916	290.5
611.124	271.5
611.332	309.5
611.54	300.5
611.748	303.5
611.955	294.5
612.163	279.5
612.371	290.5
612.579	287.5
612.787	291.5
612.995	298.5
613.203	298.5
613.411	286.5
613.618	280.5
613.826	275.5
614.034	292.5
614.242	285.5
614.449	269.5
614.657	292.5
614.865	278.5
615.072	277.5
615.28	283.5
615.488	274.5
615.695	287.5
615.903	279.5
616.111	297.5
616.318	288.5
616.526	287.5
616.733	281.5
616.941	285.5
617.148	273.5
617.356	292.5
617.563	297.5
617.771	292.5
617.978	277.5
618.185	287.5
618.393	265.5
618.6	292.5
618.807	277.5
619.015	285.5
619.222	271.5
619.429	289.5
619.637	280.5
619.844	263.5
620.051	277.5
620.258	291.5
620.466	272.5
620.673	263.5
620.88	262.5
621.087	278.5
621.294	276.5
621.501	269.5
621.708	270.5
621.915	261.5
622.122	273.5
622.329	283.5
622.536	252.5
622.743	264.5
622.95	269.5
623.157	273.5
623.364	243.5
623.571	260.5
623.778	245.5
623.985	247.5
624.192	255.5
624.399	248.5
624.606	252.5
624.812	240.5
625.019	270.5
625.226	271.5
625.433	280.5
625.639	267.5
625.846	258.5
626.053	242.5
626.259	237.5
626.466	242.5
626.673	260.5
626.879	238.5
627.086	256.5
627.293	260.5
627.499	238.5
627.706	236.5
627.912	270.5
628.119	227.5
628.325	218.5
628.532	236.5
628.738	254.5
628.945	244.5
629.151	248.5
629.357	230.5
629.564	218.5
629.77	235.5
629.976	234.5
630.183	245.5
630.389	226.5
630.595	234.5
630.802	227.5
631.008	232.5
631.214	223.5
631.42	214.5
631.627	231.5
631.833	228.5
632.039	215.5
632.245	235.5
632.451	234.5
632.657	233.5
632.863	221.5
633.069	218.5
633.275	239.5
633.481	220.5
633.688	210.5
633.893	228.5
634.099	226.5
634.305	214.5
634.511	212.5
634.717	232.5
634.923	213.5
635.129	219.5
635.335	207.5
635.541	206.5
635.747	213.5
635.952	204.5
636.158	212.5
636.364	224.5
636.57	219.5
636.775	221.5
636.981	213.5
637.187	214.5
637.392	206.5
637.598	211.5
637.804	216.5
638.009	213.5
638.215	214.5
638.421	224.5
638.626	191.5
638.832	205.5
639.037	191.5
639.243	215.5
639.448	205.5
639.654	201.5
639.859	209.5
640.065	207.5
640.27	203.5
640.475	184.5
640.681	187.5
640.886	191.5
641.091	203.5
641.297	209.5
641.502	198.5
641.707	207.5
641.913	208.5
642.118	204.5
642.323	200.5
642.528	192.5
642.733	212.5
642.939	203.5
643.144	203.5
643.349	206.5
643.554	184.5
643.759	172.5
643.964	210.5
644.169	196.5
644.374	187.5
644.579	194.5
644.784	189.5
644.989	189.5
645.194	203.5
645.399	178.5
645.604	181.5
645.809	207.5
646.014	194.5
646.219	193.5
646.423	204.5
646.628	190.5
646.833	194.5
647.038	185.5
647.243	198.5
647.447	186.5
647.652	182.5
647.857	190.5
648.062	204.5
648.266	189.5
648.471	208.5
648.676	208.5
648.88	213.5
649.085	212.5
649.289	204.5
649.494	196.5
649.698	211.5
649.903	204.5
650.107	195.5
650.312	196.5
650.516	185.5
650.721	190.5
650.925	178.5
651.13	192.5
651.334	184.5
651.539	181.5
651.743	182.5
651.947	157.5
652.152	157.5
652.356	166.5
652.56	170.5
652.764	188.5
652.969	170.5
653.173	157.5
653.377	165.5
653.581	151.5
653.785	174.5
653.99	164.5
654.194	138.5
654.398	142.5
654.602	151.5
654.806	154.5
655.01	144.5
655.214	160.5
655.418	149.5
655.622	157.5
655.826	152.5
656.03	157.5
656.234	154.5
656.438	145.5
656.642	160.5
656.846	142.5
657.049	149.5
657.253	142.5
657.457	126.5
657.661	130.5
657.865	128.5
658.068	126.5
658.272	118.5
658.476	123.5
658.68	126.5
658.883	124.5
659.087	108.5
659.291	105.5
659.494	116.5
659.698	108.5
659.901	110.5
660.105	98.5
660.309	95.5
660.512	102.5
660.716	93.5
660.919	85.5
661.123	92.5
661.326	103.5
661.53	103.5
661.733	89.5
661.936	95.5
662.14	87.5
662.343	88.5
662.546	92.5
662.75	83.5
662.953	91.5
663.156	81.5
663.36	101.5
663.563	87.5
663.766	68.5
663.969	90.5
664.173	88.5
664.376	89.5
664.579	86.5
664.782	99.5
664.985	83.5
665.188	93.5
665.391	77.5
665.594	86.5
665.797	74.5
666	81.5
666.203	92.5
666.406	73.5
666.609	95.5
666.812	89.5
667.015	87.5
667.218	82.5
667.421	92.5
667.624	79.5
667.827	96.5
668.03	90.5
668.232	80.5
668.435	76.5
668.638	78.5
668.841	84.5
669.043	76.5
669.246	85.5
669.449	74.5
669.651	82.5
669.854	97.5
670.057	89.5
670.259	78.5
670.462	91.5
670.665	88.5
670.867	77.5
671.07	105.5
671.272	77.5
671.475	92.5
671.677	86.5
671.88	92.5
672.082	86.5
672.284	87.5
672.487	80.5
672.689	79.5
672.892	91.5
