Data from 1963.PennyLincolnUp.Lamp.En5.5.200Scan.071719.P1._HRD10591_13-58-22-063.txt Node
Date: Thu Jul 18 13:58:22 EDT 2019
User: cochatt
Spectrometer: HR+D1059
Trigger mode: 1
Integration Time (sec): 1.000000E-1
Scans to average: 1
Electric dark correction enabled: true
Nonlinearity correction enabled: false
Boxcar width: 0
XAxis mode: Wavelengths
Number of Pixels in Spectrum: 2048
>>>>>Begin Spectral Data<<<<<
223.165	-18.62
223.4	-18.62
223.635	-18.62
223.869	-27.62
224.104	-18.62
224.338	-12.62
224.573	-7.62
224.808	3.38
225.042	-0.62
225.277	-13.62
225.511	4.38
225.746	6.38
225.98	4.38
226.215	9.38
226.449	1.38
226.683	29.38
226.918	19.38
227.152	21.38
227.387	25.38
227.621	40.38
227.856	28.38
228.09	27.38
228.324	40.38
228.559	38.38
228.793	73.38
229.027	89.38
229.262	96.38
229.496	106.38
229.73	116.38
229.964	129.38
230.199	115.38
230.433	116.38
230.667	104.38
230.901	105.38
231.136	112.38
231.37	120.38
231.604	121.38
231.838	108.38
232.072	123.38
232.306	113.38
232.541	99.38
232.775	119.38
233.009	123.38
233.243	117.38
233.477	103.38
233.711	111.38
233.945	94.38
234.179	129.38
234.413	112.38
234.647	110.38
234.881	117.38
235.115	109.38
235.349	117.38
235.583	133.38
235.817	124.38
236.051	125.38
236.285	126.38
236.519	127.38
236.753	130.38
236.987	140.38
237.221	157.38
237.455	187.38
237.689	163.38
237.922	138.38
238.156	128.38
238.39	144.38
238.624	129.38
238.858	113.38
239.091	126.38
239.325	125.38
239.559	134.38
239.793	119.38
240.027	140.38
240.26	139.38
240.494	147.38
240.728	154.38
240.961	142.38
241.195	157.38
241.429	150.38
241.662	149.38
241.896	138.38
242.13	137.38
242.363	130.38
242.597	141.38
242.83	144.38
243.064	153.38
243.298	152.38
243.531	155.38
243.765	142.38
243.998	142.38
244.232	150.38
244.465	160.38
244.699	139.38
244.932	162.38
245.166	159.38
245.399	152.38
245.633	151.38
245.866	159.38
246.099	163.38
246.333	157.38
246.566	155.38
246.8	149.38
247.033	174.38
247.266	168.38
247.5	149.38
247.733	174.38
247.966	168.38
248.2	189.38
248.433	168.38
248.666	164.38
248.899	203.38
249.133	182.38
249.366	212.38
249.599	192.38
249.832	185.38
250.066	173.38
250.299	182.38
250.532	184.38
250.765	214.38
250.998	213.38
251.231	233.38
251.465	201.38
251.698	208.38
251.931	217.38
252.164	197.38
252.397	212.38
252.63	200.38
252.863	234.38
253.096	226.38
253.329	222.38
253.562	231.38
253.795	231.38
254.028	201.38
254.261	209.38
254.494	243.38
254.727	260.38
254.96	259.38
255.193	255.38
255.426	245.38
255.659	245.38
255.892	244.38
256.124	249.38
256.357	240.38
256.59	242.38
256.823	232.38
257.056	229.38
257.289	213.38
257.521	218.38
257.754	233.38
257.987	229.38
258.22	212.38
258.452	222.38
258.685	215.38
258.918	220.38
259.151	239.38
259.383	213.38
259.616	241.38
259.849	249.38
260.081	240.38
260.314	260.38
260.547	251.38
260.779	247.38
261.012	223.38
261.244	254.38
261.477	226.38
261.71	236.38
261.942	234.38
262.175	226.38
262.407	228.38
262.64	241.38
262.872	238.38
263.105	229.38
263.337	235.38
263.57	224.38
263.802	212.38
264.035	231.38
264.267	234.38
264.499	228.38
264.732	232.38
264.964	222.38
265.197	232.38
265.429	231.38
265.661	244.38
265.894	247.38
266.126	226.38
266.358	248.38
266.591	249.38
266.823	249.38
267.055	253.38
267.287	269.38
267.52	239.38
267.752	267.38
267.984	260.38
268.216	246.38
268.448	272.38
268.681	265.38
268.913	247.38
269.145	285.38
269.377	270.38
269.609	301.38
269.841	274.38
270.073	282.38
270.306	304.38
270.538	322.38
270.77	319.38
271.002	303.38
271.234	302.38
271.466	305.38
271.698	332.38
271.93	310.38
272.162	322.38
272.394	307.38
272.626	310.38
272.858	307.38
273.09	287.38
273.322	298.38
273.553	278.38
273.785	288.38
274.017	300.38
274.249	278.38
274.481	297.38
274.713	291.38
274.945	294.38
275.176	290.38
275.408	282.38
275.64	284.38
275.872	286.38
276.104	280.38
276.335	284.38
276.567	303.38
276.799	297.38
277.031	305.38
277.262	327.38
277.494	331.38
277.726	334.38
277.957	302.38
278.189	310.38
278.421	310.38
278.652	326.38
278.884	314.38
279.115	291.38
279.347	286.38
279.579	318.38
279.81	314.38
280.042	295.38
280.273	291.38
280.505	305.38
280.736	309.38
280.968	311.38
281.199	319.38
281.431	311.38
281.662	298.38
281.894	320.38
282.125	310.38
282.356	330.38
282.588	332.38
282.819	331.38
283.051	348.38
283.282	342.38
283.513	327.38
283.745	332.38
283.976	330.38
284.207	329.38
284.439	323.38
284.67	322.38
284.901	323.38
285.132	343.38
285.364	307.38
285.595	324.38
285.826	321.38
286.057	326.38
286.288	331.38
286.52	330.38
286.751	327.38
286.982	351.38
287.213	353.38
287.444	332.38
287.675	354.38
287.906	352.38
288.138	371.38
288.369	351.38
288.6	330.38
288.831	345.38
289.062	352.38
289.293	344.38
289.524	365.38
289.755	343.38
289.986	348.38
290.217	357.38
290.448	356.38
290.679	345.38
290.91	343.38
291.141	356.38
291.371	343.38
291.602	349.38
291.833	349.38
292.064	361.38
292.295	358.38
292.526	359.38
292.757	358.38
292.987	338.38
293.218	332.38
293.449	354.38
293.68	360.38
293.91	339.38
294.141	336.38
294.372	350.38
294.603	360.38
294.833	361.38
295.064	373.38
295.295	341.38
295.525	351.38
295.756	354.38
295.987	358.38
296.217	394.38
296.448	373.38
296.679	375.38
296.909	362.38
297.14	399.38
297.37	375.38
297.601	385.38
297.831	354.38
298.062	354.38
298.292	358.38
298.523	362.38
298.753	377.38
298.984	377.38
299.214	366.38
299.445	386.38
299.675	404.38
299.905	359.38
300.136	381.38
300.366	369.38
300.597	405.38
300.827	389.38
301.057	403.38
301.288	399.38
301.518	412.38
301.748	402.38
301.979	410.38
302.209	417.38
302.439	407.38
302.669	410.38
302.9	411.38
303.13	395.38
303.36	383.38
303.59	396.38
303.82	401.38
304.051	411.38
304.281	430.38
304.511	403.38
304.741	401.38
304.971	400.38
305.201	409.38
305.431	408.38
305.661	406.38
305.891	403.38
306.121	400.38
306.352	399.38
306.582	395.38
306.812	403.38
307.042	400.38
307.272	378.38
307.502	375.38
307.731	398.38
307.961	384.38
308.191	395.38
308.421	413.38
308.651	421.38
308.881	390.38
309.111	382.38
309.341	402.38
309.571	422.38
309.8	423.38
310.03	410.38
310.26	416.38
310.49	420.38
310.72	411.38
310.949	433.38
311.179	428.38
311.409	420.38
311.639	435.38
311.868	449.38
312.098	442.38
312.328	433.38
312.557	415.38
312.787	448.38
313.017	433.38
313.246	443.38
313.476	451.38
313.706	442.38
313.935	443.38
314.165	465.38
314.394	466.38
314.624	474.38
314.853	438.38
315.083	436.38
315.312	440.38
315.542	450.38
315.771	443.38
316.001	442.38
316.23	443.38
316.46	431.38
316.689	437.38
316.919	449.38
317.148	441.38
317.377	440.38
317.607	439.38
317.836	429.38
318.065	430.38
318.295	453.38
318.524	454.38
318.753	447.38
318.983	449.38
319.212	426.38
319.441	425.38
319.67	422.38
319.9	456.38
320.129	455.38
320.358	469.38
320.587	448.38
320.816	454.38
321.046	452.38
321.275	469.38
321.504	463.38
321.733	465.38
321.962	457.38
322.191	479.38
322.42	460.38
322.649	495.38
322.878	465.38
323.108	472.38
323.337	482.38
323.566	494.38
323.795	520.38
324.024	517.38
324.253	585.38
324.482	742.38
324.71	1059.38
324.939	1484.38
325.168	1322.38
325.397	772.38
325.626	586.38
325.855	521.38
326.084	501.38
326.313	507.38
326.542	521.38
326.77	550.38
326.999	606.38
327.228	729.38
327.457	997.38
327.686	1222.38
327.914	863.38
328.143	643.38
328.372	584.38
328.6	579.38
328.829	535.38
329.058	541.38
329.287	575.38
329.515	561.38
329.744	536.38
329.972	541.38
330.201	549.38
330.43	551.38
330.658	574.38
330.887	600.38
331.115	596.38
331.344	562.38
331.572	560.38
331.801	545.38
332.03	548.38
332.258	540.38
332.486	554.38
332.715	549.38
332.943	568.38
333.172	603.38
333.4	597.38
333.629	630.38
333.857	616.38
334.085	606.38
334.314	610.38
334.542	635.38
334.771	669.38
334.999	597.38
335.227	585.38
335.455	542.38
335.684	563.38
335.912	545.38
336.14	550.38
336.369	548.38
336.597	562.38
336.825	537.38
337.053	565.38
337.281	540.38
337.51	554.38
337.738	545.38
337.966	540.38
338.194	528.38
338.422	537.38
338.65	541.38
338.878	538.38
339.106	517.38
339.334	521.38
339.562	494.38
339.79	511.38
340.018	511.38
340.246	517.38
340.474	529.38
340.702	505.38
340.93	535.38
341.158	509.38
341.386	493.38
341.614	502.38
341.842	521.38
342.07	485.38
342.298	486.38
342.526	512.38
342.754	519.38
342.981	506.38
343.209	489.38
343.437	523.38
343.665	525.38
343.893	565.38
344.12	586.38
344.348	569.38
344.576	534.38
344.804	513.38
345.031	529.38
345.259	538.38
345.487	502.38
345.714	498.38
345.942	488.38
346.17	501.38
346.397	502.38
346.625	486.38
346.853	477.38
347.08	492.38
347.308	478.38
347.535	497.38
347.763	469.38
347.99	497.38
348.218	526.38
348.445	480.38
348.673	461.38
348.9	483.38
349.128	484.38
349.355	476.38
349.583	503.38
349.81	450.38
350.037	469.38
350.265	486.38
350.492	489.38
350.72	496.38
350.947	495.38
351.174	475.38
351.402	489.38
351.629	487.38
351.856	465.38
352.083	511.38
352.311	501.38
352.538	511.38
352.765	493.38
352.992	472.38
353.22	479.38
353.447	463.38
353.674	483.38
353.901	493.38
354.128	477.38
354.355	458.38
354.583	458.38
354.81	458.38
355.037	470.38
355.264	486.38
355.491	478.38
355.718	471.38
355.945	483.38
356.172	481.38
356.399	494.38
356.626	469.38
356.853	471.38
357.08	450.38
357.307	464.38
357.534	461.38
357.761	490.38
357.988	473.38
358.215	457.38
358.441	476.38
358.668	471.38
358.895	486.38
359.122	498.38
359.349	502.38
359.576	516.38
359.802	482.38
360.029	526.38
360.256	516.38
360.483	498.38
360.709	493.38
360.936	497.38
361.163	479.38
361.39	479.38
361.616	497.38
361.843	487.38
362.07	483.38
362.296	498.38
362.523	484.38
362.749	463.38
362.976	495.38
363.203	494.38
363.429	480.38
363.656	485.38
363.882	475.38
364.109	478.38
364.335	477.38
364.562	470.38
364.788	474.38
365.015	490.38
365.241	477.38
365.468	493.38
365.694	489.38
365.92	445.38
366.147	479.38
366.373	478.38
366.599	478.38
366.826	469.38
367.052	487.38
367.278	495.38
367.505	481.38
367.731	482.38
367.957	474.38
368.184	487.38
368.41	469.38
368.636	494.38
368.862	497.38
369.089	512.38
369.315	493.38
369.541	481.38
369.767	497.38
369.993	486.38
370.219	469.38
370.445	489.38
370.672	509.38
370.898	493.38
371.124	500.38
371.35	492.38
371.576	481.38
371.802	515.38
372.028	493.38
372.254	502.38
372.48	513.38
372.706	511.38
372.932	516.38
373.158	534.38
373.384	512.38
373.61	510.38
373.835	534.38
374.061	514.38
374.287	531.38
374.513	531.38
374.739	521.38
374.965	521.38
375.191	544.38
375.416	533.38
375.642	517.38
375.868	535.38
376.094	540.38
376.319	516.38
376.545	513.38
376.771	515.38
376.997	505.38
377.222	515.38
377.448	517.38
377.674	489.38
377.899	506.38
378.125	499.38
378.35	501.38
378.576	509.38
378.802	505.38
379.027	509.38
379.253	496.38
379.478	476.38
379.704	486.38
379.929	478.38
380.155	500.38
380.38	479.38
380.606	493.38
380.831	526.38
381.057	491.38
381.282	495.38
381.507	491.38
381.733	516.38
381.958	520.38
382.184	504.38
382.409	511.38
382.634	529.38
382.86	517.38
383.085	537.38
383.31	541.38
383.535	527.38
383.761	523.38
383.986	533.38
384.211	550.38
384.436	555.38
384.662	549.38
384.887	577.38
385.112	577.38
385.337	574.38
385.562	577.38
385.787	593.38
386.013	589.38
386.238	600.38
386.463	571.38
386.688	577.38
386.913	569.38
387.138	551.38
387.363	576.38
387.588	564.38
387.813	567.38
388.038	596.38
388.263	569.38
388.488	554.38
388.713	560.38
388.938	573.38
389.163	575.38
389.387	562.38
389.612	574.38
389.837	544.38
390.062	558.38
390.287	576.38
390.512	563.38
390.736	568.38
390.961	571.38
391.186	586.38
391.411	616.38
391.636	618.38
391.86	623.38
392.085	626.38
392.31	620.38
392.534	603.38
392.759	622.38
392.984	605.38
393.208	589.38
393.433	613.38
393.658	610.38
393.882	577.38
394.107	616.38
394.331	582.38
394.556	601.38
394.78	607.38
395.005	591.38
395.229	599.38
395.454	628.38
395.678	633.38
395.903	647.38
396.127	643.38
396.352	604.38
396.576	613.38
396.801	631.38
397.025	626.38
397.249	619.38
397.474	623.38
397.698	630.38
397.922	641.38
398.147	660.38
398.371	671.38
398.595	645.38
398.82	689.38
399.044	753.38
399.268	780.38
399.492	865.38
399.717	944.38
399.941	957.38
400.165	885.38
400.389	855.38
400.613	771.38
400.837	730.38
401.062	711.38
401.286	693.38
401.51	704.38
401.734	669.38
401.958	687.38
402.182	701.38
402.406	708.38
402.63	733.38
402.854	736.38
403.078	739.38
403.302	726.38
403.526	759.38
403.75	773.38
403.974	784.38
404.198	746.38
404.422	765.38
404.645	792.38
404.869	771.38
405.093	776.38
405.317	816.38
405.541	829.38
405.765	774.38
405.988	733.38
406.212	776.38
406.436	763.38
406.66	791.38
406.883	785.38
407.107	801.38
407.331	877.38
407.555	933.38
407.778	928.38
408.002	863.38
408.226	831.38
408.449	818.38
408.673	781.38
408.896	801.38
409.12	803.38
409.344	790.38
409.567	761.38
409.791	742.38
410.014	761.38
410.238	728.38
410.461	737.38
410.685	727.38
410.908	731.38
411.132	745.38
411.355	767.38
411.578	739.38
411.802	733.38
412.025	719.38
412.249	727.38
412.472	746.38
412.695	776.38
412.919	751.38
413.142	701.38
413.365	698.38
413.589	712.38
413.812	681.38
414.035	695.38
414.258	677.38
414.482	706.38
414.705	705.38
414.928	681.38
415.151	691.38
415.374	698.38
415.597	664.38
415.821	676.38
416.044	663.38
416.267	681.38
416.49	634.38
416.713	667.38
416.936	704.38
417.159	685.38
417.382	674.38
417.605	670.38
417.828	682.38
418.051	708.38
418.274	705.38
418.497	686.38
418.72	689.38
418.943	688.38
419.166	720.38
419.389	760.38
419.611	727.38
419.834	721.38
420.057	747.38
420.28	691.38
420.503	690.38
420.726	678.38
420.948	682.38
421.171	726.38
421.394	741.38
421.617	704.38
421.839	689.38
422.062	686.38
422.285	701.38
422.507	746.38
422.73	803.38
422.953	769.38
423.175	724.38
423.398	726.38
423.621	733.38
423.843	750.38
424.066	763.38
424.288	741.38
424.511	738.38
424.733	783.38
424.956	822.38
425.178	804.38
425.401	804.38
425.623	814.38
425.846	754.38
426.068	726.38
426.291	669.38
426.513	698.38
426.735	716.38
426.958	737.38
427.18	779.38
427.402	862.38
427.625	925.38
427.847	832.38
428.069	749.38
428.292	710.38
428.514	659.38
428.736	670.38
428.958	660.38
429.181	651.38
429.403	634.38
429.625	648.38
429.847	687.38
430.069	732.38
430.292	703.38
430.514	642.38
430.736	635.38
430.958	635.38
431.18	643.38
431.402	614.38
431.624	618.38
431.846	623.38
432.068	643.38
432.29	641.38
432.512	638.38
432.734	669.38
432.956	633.38
433.178	661.38
433.4	647.38
433.622	638.38
433.844	631.38
434.066	647.38
434.287	632.38
434.509	630.38
434.731	662.38
434.953	686.38
435.175	712.38
435.397	741.38
435.618	685.38
435.84	711.38
436.062	769.38
436.284	807.38
436.505	730.38
436.727	670.38
436.949	654.38
437.17	644.38
437.392	642.38
437.614	649.38
437.835	646.38
438.057	715.38
438.278	798.38
438.5	786.38
438.721	865.38
438.943	851.38
439.165	698.38
439.386	673.38
439.608	679.38
439.829	685.38
440.05	696.38
440.272	734.38
440.493	685.38
440.715	686.38
440.936	671.38
441.158	685.38
441.379	670.38
441.6	691.38
441.822	717.38
442.043	720.38
442.264	784.38
442.486	806.38
442.707	765.38
442.928	700.38
443.149	719.38
443.371	721.38
443.592	754.38
443.813	823.38
444.034	890.38
444.255	805.38
444.476	750.38
444.698	790.38
444.919	807.38
445.14	899.38
445.361	802.38
445.582	762.38
445.803	794.38
446.024	846.38
446.245	841.38
446.466	773.38
446.687	707.38
446.908	665.38
447.129	669.38
447.35	647.38
447.571	627.38
447.792	626.38
448.013	634.38
448.234	636.38
448.455	654.38
448.675	742.38
448.896	838.38
449.117	749.38
449.338	721.38
449.559	791.38
449.779	855.38
450	726.38
450.221	633.38
450.442	628.38
450.662	621.38
450.883	599.38
451.104	610.38
451.324	602.38
451.545	596.38
451.766	579.38
451.986	571.38
452.207	566.38
452.428	555.38
452.648	590.38
452.869	597.38
453.089	553.38
453.31	592.38
453.53	591.38
453.751	562.38
453.971	569.38
454.192	571.38
454.412	564.38
454.633	565.38
454.853	560.38
455.073	564.38
455.294	555.38
455.514	623.38
455.734	591.38
455.955	575.38
456.175	530.38
456.395	559.38
456.616	558.38
456.836	565.38
457.056	517.38
457.276	545.38
457.497	535.38
457.717	554.38
457.937	552.38
458.157	567.38
458.377	567.38
458.598	580.38
458.818	619.38
459.038	708.38
459.258	722.38
459.478	676.38
459.698	662.38
459.918	637.38
460.138	661.38
460.358	683.38
460.578	694.38
460.798	682.38
461.018	708.38
461.238	681.38
461.458	682.38
461.678	694.38
461.898	725.38
462.118	684.38
462.338	728.38
462.558	746.38
462.777	765.38
462.997	809.38
463.217	843.38
463.437	854.38
463.657	809.38
463.876	745.38
464.096	778.38
464.316	790.38
464.536	771.38
464.755	773.38
464.975	757.38
465.195	751.38
465.414	784.38
465.634	712.38
465.854	667.38
466.073	661.38
466.293	642.38
466.512	623.38
466.732	616.38
466.951	601.38
467.171	621.38
467.391	606.38
467.61	627.38
467.829	614.38
468.049	601.38
468.268	592.38
468.488	583.38
468.707	588.38
468.927	590.38
469.146	594.38
469.365	599.38
469.585	595.38
469.804	609.38
470.023	623.38
470.243	616.38
470.462	606.38
470.681	646.38
470.901	634.38
471.12	625.38
471.339	594.38
471.558	602.38
471.777	611.38
471.997	606.38
472.216	602.38
472.435	618.38
472.654	614.38
472.873	585.38
473.092	594.38
473.311	586.38
473.53	578.38
473.749	595.38
473.968	625.38
474.187	672.38
474.406	705.38
474.625	630.38
474.844	593.38
475.063	584.38
475.282	589.38
475.501	586.38
475.72	606.38
475.939	610.38
476.158	622.38
476.377	599.38
476.596	615.38
476.814	625.38
477.033	640.38
477.252	618.38
477.471	659.38
477.69	650.38
477.908	662.38
478.127	680.38
478.346	683.38
478.564	702.38
478.783	723.38
479.002	707.38
479.22	729.38
479.439	714.38
479.658	751.38
479.876	746.38
480.095	736.38
480.313	786.38
480.532	808.38
480.751	793.38
480.969	759.38
481.188	793.38
481.406	817.38
481.624	746.38
481.843	740.38
482.061	710.38
482.28	727.38
482.498	674.38
482.717	691.38
482.935	692.38
483.153	691.38
483.372	703.38
483.59	690.38
483.808	696.38
484.027	731.38
484.245	710.38
484.463	737.38
484.681	714.38
484.9	716.38
485.118	714.38
485.336	714.38
485.554	722.38
485.772	721.38
485.99	745.38
486.209	746.38
486.427	729.38
486.645	766.38
486.863	745.38
487.081	729.38
487.299	748.38
487.517	742.38
487.735	741.38
487.953	766.38
488.171	720.38
488.389	742.38
488.607	733.38
488.825	762.38
489.043	749.38
489.261	765.38
489.479	753.38
489.696	738.38
489.914	735.38
490.132	745.38
490.35	771.38
490.568	789.38
490.786	797.38
491.003	774.38
491.221	806.38
491.439	807.38
491.657	806.38
491.874	810.38
492.092	791.38
492.31	790.38
492.527	827.38
492.745	838.38
492.963	827.38
493.18	815.38
493.398	838.38
493.615	878.38
493.833	872.38
494.05	853.38
494.268	846.38
494.485	860.38
494.703	859.38
494.92	846.38
495.138	850.38
495.355	864.38
495.573	845.38
495.79	838.38
496.008	872.38
496.225	868.38
496.442	855.38
496.66	882.38
496.877	881.38
497.094	905.38
497.312	898.38
497.529	908.38
497.746	930.38
497.963	971.38
498.181	980.38
498.398	998.38
498.615	1041.38
498.832	1115.38
499.049	1127.38
499.267	1193.38
499.484	1283.38
499.701	1391.38
499.918	1447.38
500.135	1575.38
500.352	1727.38
500.569	1771.38
500.786	1745.38
501.003	1713.38
501.22	1607.38
501.437	1489.38
501.654	1363.38
501.871	1304.38
502.088	1244.38
502.305	1136.38
502.522	1117.38
502.739	1093.38
502.956	1028.38
503.172	994.38
503.389	970.38
503.606	945.38
503.823	932.38
504.04	946.38
504.256	960.38
504.473	950.38
504.69	915.38
504.907	919.38
505.123	887.38
505.34	881.38
505.557	835.38
505.773	857.38
505.99	815.38
506.207	812.38
506.423	813.38
506.64	799.38
506.856	811.38
507.073	761.38
507.289	789.38
507.506	767.38
507.722	765.38
507.939	777.38
508.155	771.38
508.372	744.38
508.588	775.38
508.805	774.38
509.021	708.38
509.238	758.38
509.454	751.38
509.67	763.38
509.887	759.38
510.103	741.38
510.319	756.38
510.536	793.38
510.752	1113.38
510.968	977.38
511.184	752.38
511.401	722.38
511.617	734.38
511.833	708.38
512.049	710.38
512.265	713.38
512.481	708.38
512.698	726.38
512.914	680.38
513.13	705.38
513.346	714.38
513.562	706.38
513.778	709.38
513.994	693.38
514.21	711.38
514.426	737.38
514.642	735.38
514.858	757.38
515.074	789.38
515.29	852.38
515.506	1123.38
515.721	1012.38
515.937	799.38
516.153	758.38
516.369	769.38
516.585	781.38
516.801	811.38
517.016	819.38
517.232	813.38
517.448	861.38
517.664	888.38
517.879	897.38
518.095	869.38
518.311	887.38
518.527	823.38
518.742	779.38
518.958	783.38
519.173	777.38
519.389	751.38
519.605	754.38
519.82	728.38
520.036	753.38
520.251	756.38
520.467	749.38
520.682	752.38
520.898	742.38
521.113	734.38
521.329	771.38
521.544	782.38
521.76	869.38
521.975	1283.38
522.19	1349.38
522.406	877.38
522.621	706.38
522.836	692.38
523.052	671.38
523.267	660.38
523.482	635.38
523.698	661.38
523.913	630.38
524.128	645.38
524.343	658.38
524.559	646.38
524.774	615.38
524.989	621.38
525.204	639.38
525.419	630.38
525.634	611.38
525.849	613.38
526.064	616.38
526.28	604.38
526.495	643.38
526.71	609.38
526.925	614.38
527.14	600.38
527.355	575.38
527.57	625.38
527.785	610.38
527.999	603.38
528.214	611.38
528.429	600.38
528.644	607.38
528.859	632.38
529.074	618.38
529.289	619.38
529.503	645.38
529.718	630.38
529.933	624.38
530.148	618.38
530.363	621.38
530.577	583.38
530.792	615.38
531.007	615.38
531.221	608.38
531.436	607.38
531.651	618.38
531.865	588.38
532.08	584.38
532.295	591.38
532.509	587.38
532.724	609.38
532.938	593.38
533.153	586.38
533.367	595.38
533.582	585.38
533.796	581.38
534.011	598.38
534.225	574.38
534.44	581.38
534.654	594.38
534.868	588.38
535.083	607.38
535.297	583.38
535.511	594.38
535.726	605.38
535.94	589.38
536.154	573.38
536.369	582.38
536.583	582.38
536.797	551.38
537.011	563.38
537.225	585.38
537.44	550.38
537.654	553.38
537.868	563.38
538.082	566.38
538.296	557.38
538.51	569.38
538.724	562.38
538.938	548.38
539.153	575.38
539.367	585.38
539.581	580.38
539.795	554.38
540.009	559.38
540.222	554.38
540.436	559.38
540.65	551.38
540.864	557.38
541.078	564.38
541.292	540.38
541.506	555.38
541.72	581.38
541.934	549.38
542.147	562.38
542.361	547.38
542.575	544.38
542.789	553.38
543.002	529.38
543.216	535.38
543.43	584.38
543.644	531.38
543.857	566.38
544.071	550.38
544.285	543.38
544.498	566.38
544.712	545.38
544.925	542.38
545.139	567.38
545.352	564.38
545.566	547.38
545.779	571.38
545.993	547.38
546.206	565.38
546.42	544.38
546.633	549.38
546.847	560.38
547.06	554.38
547.274	555.38
547.487	570.38
547.7	560.38
547.914	563.38
548.127	559.38
548.34	564.38
548.554	576.38
548.767	581.38
548.98	562.38
549.193	562.38
549.407	554.38
549.62	573.38
549.833	570.38
550.046	568.38
550.259	576.38
550.473	515.38
550.686	530.38
550.899	560.38
551.112	566.38
551.325	544.38
551.538	545.38
551.751	564.38
551.964	541.38
552.177	575.38
552.39	580.38
552.603	577.38
552.816	573.38
553.029	608.38
553.242	604.38
553.455	601.38
553.667	608.38
553.88	607.38
554.093	595.38
554.306	590.38
554.519	571.38
554.732	585.38
554.944	564.38
555.157	551.38
555.37	548.38
555.583	540.38
555.795	541.38
556.008	522.38
556.221	516.38
556.433	532.38
556.646	507.38
556.859	504.38
557.071	506.38
557.284	513.38
557.496	484.38
557.709	481.38
557.921	509.38
558.134	495.38
558.346	491.38
558.559	473.38
558.771	472.38
558.984	469.38
559.196	478.38
559.409	461.38
559.621	463.38
559.833	484.38
560.046	496.38
560.258	481.38
560.47	478.38
560.683	458.38
560.895	458.38
561.107	486.38
561.32	494.38
561.532	491.38
561.744	480.38
561.956	475.38
562.168	481.38
562.381	493.38
562.593	471.38
562.805	499.38
563.017	493.38
563.229	470.38
563.441	485.38
563.653	492.38
563.865	529.38
564.077	495.38
564.289	502.38
564.501	490.38
564.713	519.38
564.925	520.38
565.137	539.38
565.349	534.38
565.561	524.38
565.773	574.38
565.985	593.38
566.197	614.38
566.408	627.38
566.62	688.38
566.832	705.38
567.044	721.38
567.255	726.38
567.467	729.38
567.679	773.38
567.891	813.38
568.102	803.38
568.314	769.38
568.526	730.38
568.737	693.38
568.949	629.38
569.161	591.38
569.372	576.38
569.584	561.38
569.795	540.38
570.007	531.38
570.218	549.38
570.43	543.38
570.641	534.38
570.853	508.38
571.064	501.38
571.276	509.38
571.487	502.38
571.698	465.38
571.91	472.38
572.121	453.38
572.333	464.38
572.544	473.38
572.755	440.38
572.966	433.38
573.178	440.38
573.389	433.38
573.6	434.38
573.811	421.38
574.023	418.38
574.234	405.38
574.445	399.38
574.656	424.38
574.867	438.38
575.078	417.38
575.289	420.38
575.501	427.38
575.712	418.38
575.923	395.38
576.134	416.38
576.345	404.38
576.556	406.38
576.767	391.38
576.978	392.38
577.188	411.38
577.399	412.38
577.61	401.38
577.821	391.38
578.032	403.38
578.243	417.38
578.454	573.38
578.665	472.38
578.875	393.38
579.086	383.38
579.297	380.38
579.508	399.38
579.718	385.38
579.929	379.38
580.14	394.38
580.35	372.38
580.561	390.38
580.772	390.38
580.982	375.38
581.193	375.38
581.403	385.38
581.614	391.38
581.825	355.38
582.035	367.38
582.246	367.38
582.456	366.38
582.667	371.38
582.877	353.38
583.087	375.38
583.298	379.38
583.508	384.38
583.719	363.38
583.929	379.38
584.139	361.38
584.35	369.38
584.56	371.38
584.77	375.38
584.981	361.38
585.191	379.38
585.401	377.38
585.611	367.38
585.821	373.38
586.032	373.38
586.242	374.38
586.452	346.38
586.662	345.38
586.872	348.38
587.082	353.38
587.292	372.38
587.502	365.38
587.713	372.38
587.923	361.38
588.133	362.38
588.343	371.38
588.553	360.38
588.762	360.38
588.972	360.38
589.182	366.38
589.392	364.38
589.602	369.38
589.812	363.38
590.022	357.38
590.232	362.38
590.441	365.38
590.651	360.38
590.861	356.38
591.071	383.38
591.281	373.38
591.49	381.38
591.7	378.38
591.91	389.38
592.119	393.38
592.329	398.38
592.539	393.38
592.748	395.38
592.958	408.38
593.167	433.38
593.377	429.38
593.587	459.38
593.796	458.38
594.006	429.38
594.215	439.38
594.424	473.38
594.634	437.38
594.843	417.38
595.053	406.38
595.262	389.38
595.472	375.38
595.681	374.38
595.89	374.38
596.1	366.38
596.309	361.38
596.518	373.38
596.727	348.38
596.937	348.38
597.146	346.38
597.355	327.38
597.564	331.38
597.774	330.38
597.983	330.38
598.192	339.38
598.401	326.38
598.61	323.38
598.819	327.38
599.028	332.38
599.237	323.38
599.446	322.38
599.655	319.38
599.864	325.38
600.073	304.38
600.282	321.38
600.491	310.38
600.7	318.38
600.909	313.38
601.118	323.38
601.327	332.38
601.536	309.38
601.745	307.38
601.953	284.38
602.162	302.38
602.371	304.38
602.58	305.38
602.789	297.38
602.997	310.38
603.206	321.38
603.415	301.38
603.623	300.38
603.832	294.38
604.041	304.38
604.249	293.38
604.458	292.38
604.666	277.38
604.875	289.38
605.084	276.38
605.292	295.38
605.501	301.38
605.709	287.38
605.918	298.38
606.126	273.38
606.334	305.38
606.543	293.38
606.751	302.38
606.96	301.38
607.168	285.38
607.376	292.38
607.585	284.38
607.793	282.38
608.001	292.38
608.21	277.38
608.418	282.38
608.626	304.38
608.834	291.38
609.043	293.38
609.251	285.38
609.459	287.38
609.667	289.38
609.875	274.38
610.083	287.38
610.291	284.38
610.499	275.38
610.707	279.38
610.916	292.38
611.124	288.38
611.332	293.38
611.54	285.38
611.748	292.38
611.955	299.38
612.163	295.38
612.371	286.38
612.579	282.38
612.787	287.38
612.995	285.38
613.203	295.38
613.411	271.38
613.618	283.38
613.826	278.38
614.034	279.38
614.242	283.38
614.449	278.38
614.657	285.38
614.865	276.38
615.072	286.38
615.28	290.38
615.488	278.38
615.695	287.38
615.903	277.38
616.111	289.38
616.318	282.38
616.526	302.38
616.733	287.38
616.941	287.38
617.148	295.38
617.356	299.38
617.563	279.38
617.771	288.38
617.978	273.38
618.185	279.38
618.393	281.38
618.6	273.38
618.807	275.38
619.015	280.38
619.222	282.38
619.429	283.38
619.637	265.38
619.844	271.38
620.051	271.38
620.258	273.38
620.466	265.38
620.673	273.38
620.88	255.38
621.087	241.38
621.294	256.38
621.501	262.38
621.708	265.38
621.915	272.38
622.122	283.38
622.329	258.38
622.536	258.38
622.743	247.38
622.95	255.38
623.157	241.38
623.364	258.38
623.571	256.38
623.778	271.38
623.985	264.38
624.192	259.38
624.399	258.38
624.606	269.38
624.812	259.38
625.019	265.38
625.226	263.38
625.433	238.38
625.639	240.38
625.846	257.38
626.053	260.38
626.259	238.38
626.466	270.38
626.673	246.38
626.879	238.38
627.086	250.38
627.293	243.38
627.499	235.38
627.706	245.38
627.912	232.38
628.119	217.38
628.325	232.38
628.532	244.38
628.738	232.38
628.945	229.38
629.151	238.38
629.357	218.38
629.564	222.38
629.77	242.38
629.976	231.38
630.183	223.38
630.389	231.38
630.595	234.38
630.802	231.38
631.008	218.38
631.214	221.38
631.42	232.38
631.627	221.38
631.833	240.38
632.039	230.38
632.245	223.38
632.451	238.38
632.657	217.38
632.863	215.38
633.069	207.38
633.275	211.38
633.481	229.38
633.688	223.38
633.893	226.38
634.099	230.38
634.305	213.38
634.511	202.38
634.717	202.38
634.923	220.38
635.129	211.38
635.335	203.38
635.541	204.38
635.747	224.38
635.952	216.38
636.158	226.38
636.364	206.38
636.57	229.38
636.775	221.38
636.981	232.38
637.187	211.38
637.392	209.38
637.598	190.38
637.804	207.38
638.009	205.38
638.215	209.38
638.421	209.38
638.626	193.38
638.832	210.38
639.037	204.38
639.243	196.38
639.448	194.38
639.654	202.38
639.859	183.38
640.065	196.38
640.27	210.38
640.475	215.38
640.681	209.38
640.886	206.38
641.091	213.38
641.297	215.38
641.502	199.38
641.707	199.38
641.913	191.38
642.118	190.38
642.323	185.38
642.528	186.38
642.733	200.38
642.939	194.38
643.144	190.38
643.349	185.38
643.554	193.38
643.759	191.38
643.964	192.38
644.169	195.38
644.374	183.38
644.579	196.38
644.784	196.38
644.989	201.38
645.194	186.38
645.399	197.38
645.604	196.38
645.809	206.38
646.014	191.38
646.219	194.38
646.423	187.38
646.628	179.38
646.833	187.38
647.038	167.38
647.243	179.38
647.447	189.38
647.652	182.38
647.857	187.38
648.062	202.38
648.266	209.38
648.471	200.38
648.676	210.38
648.88	202.38
649.085	195.38
649.289	193.38
649.494	191.38
649.698	195.38
649.903	209.38
650.107	189.38
650.312	197.38
650.516	198.38
650.721	184.38
650.925	199.38
651.13	167.38
651.334	159.38
651.539	166.38
651.743	167.38
651.947	176.38
652.152	185.38
652.356	173.38
652.56	161.38
652.764	168.38
652.969	153.38
653.173	157.38
653.377	152.38
653.581	159.38
653.785	155.38
653.99	144.38
654.194	154.38
654.398	150.38
654.602	154.38
654.806	143.38
655.01	161.38
655.214	148.38
655.418	133.38
655.622	165.38
655.826	153.38
656.03	157.38
656.234	155.38
656.438	151.38
656.642	147.38
656.846	143.38
657.049	148.38
657.253	131.38
657.457	132.38
657.661	123.38
657.865	136.38
658.068	135.38
658.272	109.38
658.476	104.38
658.68	110.38
658.883	105.38
659.087	116.38
659.291	101.38
659.494	101.38
659.698	97.38
659.901	98.38
660.105	102.38
660.309	102.38
660.512	93.38
660.716	91.38
660.919	84.38
661.123	93.38
661.326	100.38
661.53	93.38
661.733	102.38
661.936	93.38
662.14	71.38
662.343	88.38
662.546	94.38
662.75	81.38
662.953	76.38
663.156	79.38
663.36	82.38
663.563	71.38
663.766	91.38
663.969	84.38
664.173	73.38
664.376	75.38
664.579	81.38
664.782	75.38
664.985	70.38
665.188	78.38
665.391	90.38
665.594	83.38
665.797	82.38
666	87.38
666.203	76.38
666.406	91.38
666.609	82.38
666.812	76.38
667.015	65.38
667.218	70.38
667.421	90.38
667.624	94.38
667.827	82.38
668.03	73.38
668.232	87.38
668.435	75.38
668.638	84.38
668.841	75.38
669.043	86.38
669.246	77.38
669.449	80.38
669.651	81.38
669.854	75.38
670.057	78.38
670.259	88.38
670.462	77.38
670.665	82.38
670.867	81.38
671.07	83.38
671.272	92.38
671.475	71.38
671.677	84.38
671.88	91.38
672.082	84.38
672.284	86.38
672.487	79.38
672.689	77.38
672.892	87.38
