Data from 1963.PennyLincolnUp.Lamp.En5.5.200Scan.071719.P1._HRD10591_14-00-13-064.txt Node
Date: Thu Jul 18 14:00:13 EDT 2019
User: cochatt
Spectrometer: HR+D1059
Trigger mode: 1
Integration Time (sec): 1.000000E-1
Scans to average: 1
Electric dark correction enabled: true
Nonlinearity correction enabled: false
Boxcar width: 0
XAxis mode: Wavelengths
Number of Pixels in Spectrum: 2048
>>>>>Begin Spectral Data<<<<<
223.165	-29.19
223.4	-29.19
223.635	-29.19
223.869	-15.19
224.104	-11.19
224.338	-8.19
224.573	-14.19
224.808	-15.19
225.042	-10.19
225.277	-5.19
225.511	-1.19
225.746	4.81
225.98	3.81
226.215	14.81
226.449	14.81
226.683	22.81
226.918	28.81
227.152	19.81
227.387	40.81
227.621	31.81
227.856	35.81
228.09	43.81
228.324	50.81
228.559	55.81
228.793	61.81
229.027	88.81
229.262	99.81
229.496	116.81
229.73	102.81
229.964	143.81
230.199	121.81
230.433	121.81
230.667	121.81
230.901	123.81
231.136	113.81
231.37	120.81
231.604	119.81
231.838	102.81
232.072	116.81
232.306	116.81
232.541	118.81
232.775	117.81
233.009	126.81
233.243	137.81
233.477	129.81
233.711	124.81
233.945	133.81
234.179	112.81
234.413	118.81
234.647	131.81
234.881	127.81
235.115	112.81
235.349	114.81
235.583	141.81
235.817	132.81
236.051	134.81
236.285	119.81
236.519	105.81
236.753	138.81
236.987	136.81
237.221	163.81
237.455	211.81
237.689	165.81
237.922	143.81
238.156	129.81
238.39	118.81
238.624	129.81
238.858	128.81
239.091	140.81
239.325	125.81
239.559	140.81
239.793	140.81
240.027	137.81
240.26	136.81
240.494	163.81
240.728	137.81
240.961	149.81
241.195	162.81
241.429	166.81
241.662	135.81
241.896	148.81
242.13	150.81
242.363	140.81
242.597	145.81
242.83	164.81
243.064	156.81
243.298	148.81
243.531	163.81
243.765	145.81
243.998	164.81
244.232	152.81
244.465	154.81
244.699	153.81
244.932	151.81
245.166	162.81
245.399	160.81
245.633	158.81
245.866	164.81
246.099	152.81
246.333	150.81
246.566	173.81
246.8	185.81
247.033	182.81
247.266	178.81
247.5	170.81
247.733	185.81
247.966	181.81
248.2	190.81
248.433	167.81
248.666	189.81
248.899	194.81
249.133	209.81
249.366	233.81
249.599	214.81
249.832	198.81
250.066	202.81
250.299	218.81
250.532	196.81
250.765	224.81
250.998	234.81
251.231	256.81
251.465	213.81
251.698	207.81
251.931	222.81
252.164	211.81
252.397	215.81
252.63	214.81
252.863	215.81
253.096	230.81
253.329	243.81
253.562	232.81
253.795	236.81
254.028	218.81
254.261	230.81
254.494	244.81
254.727	266.81
254.96	266.81
255.193	252.81
255.426	260.81
255.659	243.81
255.892	244.81
256.124	237.81
256.357	259.81
256.59	243.81
256.823	227.81
257.056	233.81
257.289	230.81
257.521	234.81
257.754	234.81
257.987	234.81
258.22	224.81
258.452	219.81
258.685	235.81
258.918	216.81
259.151	236.81
259.383	231.81
259.616	234.81
259.849	255.81
260.081	245.81
260.314	279.81
260.547	274.81
260.779	265.81
261.012	266.81
261.244	244.81
261.477	259.81
261.71	239.81
261.942	249.81
262.175	261.81
262.407	256.81
262.64	237.81
262.872	235.81
263.105	253.81
263.337	242.81
263.57	223.81
263.802	237.81
264.035	256.81
264.267	236.81
264.499	239.81
264.732	249.81
264.964	258.81
265.197	259.81
265.429	236.81
265.661	253.81
265.894	249.81
266.126	237.81
266.358	251.81
266.591	238.81
266.823	253.81
267.055	248.81
267.287	247.81
267.52	256.81
267.752	267.81
267.984	269.81
268.216	264.81
268.448	260.81
268.681	276.81
268.913	282.81
269.145	290.81
269.377	294.81
269.609	296.81
269.841	278.81
270.073	300.81
270.306	304.81
270.538	307.81
270.77	340.81
271.002	310.81
271.234	313.81
271.466	315.81
271.698	313.81
271.93	328.81
272.162	338.81
272.394	350.81
272.626	307.81
272.858	321.81
273.09	313.81
273.322	298.81
273.553	293.81
273.785	312.81
274.017	300.81
274.249	288.81
274.481	290.81
274.713	286.81
274.945	304.81
275.176	287.81
275.408	298.81
275.64	316.81
275.872	293.81
276.104	314.81
276.335	314.81
276.567	313.81
276.799	320.81
277.031	349.81
277.262	359.81
277.494	354.81
277.726	337.81
277.957	336.81
278.189	314.81
278.421	317.81
278.652	321.81
278.884	306.81
279.115	308.81
279.347	320.81
279.579	315.81
279.81	323.81
280.042	313.81
280.273	323.81
280.505	326.81
280.736	299.81
280.968	317.81
281.199	329.81
281.431	308.81
281.662	317.81
281.894	321.81
282.125	325.81
282.356	326.81
282.588	339.81
282.819	329.81
283.051	334.81
283.282	314.81
283.513	345.81
283.745	340.81
283.976	322.81
284.207	334.81
284.439	335.81
284.67	344.81
284.901	332.81
285.132	357.81
285.364	332.81
285.595	328.81
285.826	340.81
286.057	334.81
286.288	340.81
286.52	346.81
286.751	324.81
286.982	352.81
287.213	320.81
287.444	336.81
287.675	327.81
287.906	338.81
288.138	388.81
288.369	360.81
288.6	357.81
288.831	381.81
289.062	344.81
289.293	345.81
289.524	348.81
289.755	346.81
289.986	346.81
290.217	368.81
290.448	348.81
290.679	364.81
290.91	371.81
291.141	371.81
291.371	358.81
291.602	370.81
291.833	368.81
292.064	363.81
292.295	358.81
292.526	366.81
292.757	342.81
292.987	356.81
293.218	390.81
293.449	352.81
293.68	359.81
293.91	342.81
294.141	361.81
294.372	380.81
294.603	382.81
294.833	379.81
295.064	361.81
295.295	366.81
295.525	376.81
295.756	382.81
295.987	375.81
296.217	369.81
296.448	382.81
296.679	371.81
296.909	364.81
297.14	388.81
297.37	350.81
297.601	382.81
297.831	376.81
298.062	384.81
298.292	382.81
298.523	397.81
298.753	405.81
298.984	363.81
299.214	388.81
299.445	368.81
299.675	397.81
299.905	363.81
300.136	392.81
300.366	388.81
300.597	397.81
300.827	405.81
301.057	386.81
301.288	415.81
301.518	410.81
301.748	415.81
301.979	403.81
302.209	412.81
302.439	424.81
302.669	429.81
302.9	414.81
303.13	410.81
303.36	430.81
303.59	404.81
303.82	418.81
304.051	409.81
304.281	417.81
304.511	388.81
304.741	408.81
304.971	424.81
305.201	421.81
305.431	397.81
305.661	408.81
305.891	402.81
306.121	394.81
306.352	409.81
306.582	412.81
306.812	409.81
307.042	404.81
307.272	421.81
307.502	401.81
307.731	402.81
307.961	410.81
308.191	399.81
308.421	410.81
308.651	426.81
308.881	400.81
309.111	434.81
309.341	415.81
309.571	439.81
309.8	433.81
310.03	407.81
310.26	419.81
310.49	439.81
310.72	448.81
310.949	455.81
311.179	463.81
311.409	467.81
311.639	458.81
311.868	452.81
312.098	453.81
312.328	429.81
312.557	458.81
312.787	466.81
313.017	478.81
313.246	475.81
313.476	459.81
313.706	440.81
313.935	467.81
314.165	470.81
314.394	478.81
314.624	488.81
314.853	470.81
315.083	463.81
315.312	458.81
315.542	452.81
315.771	447.81
316.001	457.81
316.23	452.81
316.46	452.81
316.689	451.81
316.919	449.81
317.148	459.81
317.377	469.81
317.607	464.81
317.836	484.81
318.065	453.81
318.295	450.81
318.524	444.81
318.753	451.81
318.983	455.81
319.212	451.81
319.441	456.81
319.67	480.81
319.9	465.81
320.129	473.81
320.358	449.81
320.587	467.81
320.816	477.81
321.046	464.81
321.275	466.81
321.504	485.81
321.733	473.81
321.962	462.81
322.191	480.81
322.42	504.81
322.649	498.81
322.878	511.81
323.108	483.81
323.337	513.81
323.566	516.81
323.795	559.81
324.024	565.81
324.253	638.81
324.482	839.81
324.71	1232.81
324.939	1758.81
325.168	1520.81
325.397	858.81
325.626	630.81
325.855	581.81
326.084	572.81
326.313	538.81
326.542	573.81
326.77	562.81
326.999	660.81
327.228	804.81
327.457	1122.81
327.686	1379.81
327.914	952.81
328.143	684.81
328.372	620.81
328.6	603.81
328.829	580.81
329.058	610.81
329.287	608.81
329.515	580.81
329.744	558.81
329.972	560.81
330.201	589.81
330.43	589.81
330.658	610.81
330.887	638.81
331.115	636.81
331.344	616.81
331.572	571.81
331.801	576.81
332.03	568.81
332.258	576.81
332.486	564.81
332.715	582.81
332.943	597.81
333.172	592.81
333.4	621.81
333.629	608.81
333.857	617.81
334.085	636.81
334.314	648.81
334.542	639.81
334.771	664.81
334.999	661.81
335.227	619.81
335.455	631.81
335.684	596.81
335.912	584.81
336.14	549.81
336.369	566.81
336.597	564.81
336.825	595.81
337.053	576.81
337.281	563.81
337.51	553.81
337.738	552.81
337.966	552.81
338.194	554.81
338.422	566.81
338.65	572.81
338.878	565.81
339.106	550.81
339.334	539.81
339.562	542.81
339.79	545.81
340.018	538.81
340.246	521.81
340.474	520.81
340.702	533.81
340.93	544.81
341.158	515.81
341.386	516.81
341.614	527.81
341.842	557.81
342.07	522.81
342.298	523.81
342.526	509.81
342.754	531.81
342.981	531.81
343.209	537.81
343.437	561.81
343.665	572.81
343.893	585.81
344.12	603.81
344.348	581.81
344.576	585.81
344.804	562.81
345.031	557.81
345.259	546.81
345.487	533.81
345.714	551.81
345.942	504.81
346.17	506.81
346.397	514.81
346.625	519.81
346.853	488.81
347.08	493.81
347.308	513.81
347.535	532.81
347.763	512.81
347.99	520.81
348.218	502.81
348.445	517.81
348.673	507.81
348.9	516.81
349.128	514.81
349.355	492.81
349.583	491.81
349.81	518.81
350.037	498.81
350.265	500.81
350.492	481.81
350.72	510.81
350.947	485.81
351.174	530.81
351.402	506.81
351.629	504.81
351.856	474.81
352.083	520.81
352.311	524.81
352.538	509.81
352.765	526.81
352.992	511.81
353.22	490.81
353.447	488.81
353.674	493.81
353.901	480.81
354.128	489.81
354.355	478.81
354.583	468.81
354.81	485.81
355.037	490.81
355.264	469.81
355.491	484.81
355.718	494.81
355.945	505.81
356.172	487.81
356.399	484.81
356.626	486.81
356.853	487.81
357.08	487.81
357.307	484.81
357.534	477.81
357.761	487.81
357.988	490.81
358.215	496.81
358.441	491.81
358.668	487.81
358.895	481.81
359.122	481.81
359.349	496.81
359.576	487.81
359.802	498.81
360.029	525.81
360.256	526.81
360.483	534.81
360.709	511.81
360.936	512.81
361.163	520.81
361.39	500.81
361.616	495.81
361.843	497.81
362.07	498.81
362.296	504.81
362.523	498.81
362.749	505.81
362.976	497.81
363.203	509.81
363.429	480.81
363.656	488.81
363.882	493.81
364.109	486.81
364.335	476.81
364.562	522.81
364.788	493.81
365.015	510.81
365.241	472.81
365.468	513.81
365.694	513.81
365.92	483.81
366.147	493.81
366.373	469.81
366.599	476.81
366.826	498.81
367.052	483.81
367.278	486.81
367.505	496.81
367.731	485.81
367.957	498.81
368.184	498.81
368.41	514.81
368.636	491.81
368.862	518.81
369.089	515.81
369.315	491.81
369.541	534.81
369.767	504.81
369.993	520.81
370.219	503.81
370.445	498.81
370.672	512.81
370.898	502.81
371.124	516.81
371.35	536.81
371.576	497.81
371.802	521.81
372.028	510.81
372.254	499.81
372.48	514.81
372.706	507.81
372.932	521.81
373.158	525.81
373.384	533.81
373.61	533.81
373.835	529.81
374.061	517.81
374.287	544.81
374.513	529.81
374.739	534.81
374.965	540.81
375.191	535.81
375.416	525.81
375.642	531.81
375.868	515.81
376.094	532.81
376.319	523.81
376.545	524.81
376.771	520.81
376.997	527.81
377.222	511.81
377.448	536.81
377.674	499.81
377.899	519.81
378.125	494.81
378.35	516.81
378.576	498.81
378.802	520.81
379.027	517.81
379.253	503.81
379.478	502.81
379.704	512.81
379.929	532.81
380.155	502.81
380.38	523.81
380.606	548.81
380.831	505.81
381.057	506.81
381.282	510.81
381.507	531.81
381.733	509.81
381.958	511.81
382.184	514.81
382.409	531.81
382.634	530.81
382.86	540.81
383.085	530.81
383.31	575.81
383.535	550.81
383.761	558.81
383.986	542.81
384.211	576.81
384.436	552.81
384.662	564.81
384.887	578.81
385.112	563.81
385.337	570.81
385.562	600.81
385.787	583.81
386.013	615.81
386.238	614.81
386.463	594.81
386.688	590.81
386.913	610.81
387.138	593.81
387.363	592.81
387.588	576.81
387.813	570.81
388.038	586.81
388.263	583.81
388.488	596.81
388.713	600.81
388.938	583.81
389.163	598.81
389.387	599.81
389.612	587.81
389.837	602.81
390.062	574.81
390.287	597.81
390.512	592.81
390.736	596.81
390.961	592.81
391.186	621.81
391.411	626.81
391.636	610.81
391.86	646.81
392.085	654.81
392.31	640.81
392.534	619.81
392.759	652.81
392.984	604.81
393.208	610.81
393.433	615.81
393.658	626.81
393.882	610.81
394.107	601.81
394.331	601.81
394.556	615.81
394.78	610.81
395.005	600.81
395.229	638.81
395.454	636.81
395.678	649.81
395.903	644.81
396.127	648.81
396.352	640.81
396.576	643.81
396.801	631.81
397.025	606.81
397.249	637.81
397.474	630.81
397.698	636.81
397.922	666.81
398.147	673.81
398.371	662.81
398.595	678.81
398.82	737.81
399.044	735.81
399.268	773.81
399.492	856.81
399.717	940.81
399.941	950.81
400.165	932.81
400.389	894.81
400.613	824.81
400.837	755.81
401.062	744.81
401.286	720.81
401.51	704.81
401.734	693.81
401.958	732.81
402.182	715.81
402.406	714.81
402.63	758.81
402.854	734.81
403.078	753.81
403.302	757.81
403.526	774.81
403.75	761.81
403.974	770.81
404.198	776.81
404.422	797.81
404.645	796.81
404.869	795.81
405.093	811.81
405.317	855.81
405.541	843.81
405.765	782.81
405.988	774.81
406.212	783.81
406.436	806.81
406.66	819.81
406.883	776.81
407.107	851.81
407.331	915.81
407.555	955.81
407.778	940.81
408.002	872.81
408.226	840.81
408.449	830.81
408.673	813.81
408.896	839.81
409.12	845.81
409.344	820.81
409.567	775.81
409.791	760.81
410.014	782.81
410.238	740.81
410.461	717.81
410.685	754.81
410.908	763.81
411.132	771.81
411.355	781.81
411.578	762.81
411.802	728.81
412.025	730.81
412.249	773.81
412.472	756.81
412.695	789.81
412.919	785.81
413.142	755.81
413.365	699.81
413.589	722.81
413.812	738.81
414.035	686.81
414.258	715.81
414.482	696.81
414.705	698.81
414.928	700.81
415.151	707.81
415.374	695.81
415.597	684.81
415.821	705.81
416.044	706.81
416.267	686.81
416.49	681.81
416.713	688.81
416.936	684.81
417.159	694.81
417.382	688.81
417.605	723.81
417.828	714.81
418.051	714.81
418.274	703.81
418.497	696.81
418.72	714.81
418.943	681.81
419.166	754.81
419.389	786.81
419.611	777.81
419.834	749.81
420.057	734.81
420.28	737.81
420.503	750.81
420.726	708.81
420.948	726.81
421.171	762.81
421.394	782.81
421.617	711.81
421.839	709.81
422.062	722.81
422.285	739.81
422.507	790.81
422.73	844.81
422.953	828.81
423.175	753.81
423.398	756.81
423.621	727.81
423.843	754.81
424.066	782.81
424.288	781.81
424.511	772.81
424.733	814.81
424.956	851.81
425.178	854.81
425.401	808.81
425.623	841.81
425.846	783.81
426.068	742.81
426.291	722.81
426.513	722.81
426.735	731.81
426.958	743.81
427.18	813.81
427.402	928.81
427.625	969.81
427.847	862.81
428.069	790.81
428.292	732.81
428.514	685.81
428.736	659.81
428.958	662.81
429.181	657.81
429.403	680.81
429.625	670.81
429.847	676.81
430.069	766.81
430.292	747.81
430.514	650.81
430.736	654.81
430.958	661.81
431.18	659.81
431.402	654.81
431.624	645.81
431.846	646.81
432.068	643.81
432.29	654.81
432.512	655.81
432.734	666.81
432.956	625.81
433.178	651.81
433.4	668.81
433.622	645.81
433.844	644.81
434.066	678.81
434.287	671.81
434.509	644.81
434.731	706.81
434.953	696.81
435.175	714.81
435.397	709.81
435.618	761.81
435.84	760.81
436.062	808.81
436.284	847.81
436.505	752.81
436.727	704.81
436.949	678.81
437.17	663.81
437.392	669.81
437.614	662.81
437.835	692.81
438.057	736.81
438.278	846.81
438.5	856.81
438.721	910.81
438.943	870.81
439.165	738.81
439.386	685.81
439.608	736.81
439.829	716.81
440.05	727.81
440.272	756.81
440.493	717.81
440.715	686.81
440.936	660.81
441.158	695.81
441.379	688.81
441.6	696.81
441.822	750.81
442.043	772.81
442.264	801.81
442.486	857.81
442.707	772.81
442.928	709.81
443.149	741.81
443.371	776.81
443.592	790.81
443.813	865.81
444.034	902.81
444.255	810.81
444.476	791.81
444.698	782.81
444.919	811.81
445.14	882.81
445.361	826.81
445.582	810.81
445.803	816.81
446.024	853.81
446.245	896.81
446.466	822.81
446.687	743.81
446.908	691.81
447.129	681.81
447.35	660.81
447.571	646.81
447.792	652.81
448.013	632.81
448.234	645.81
448.455	660.81
448.675	764.81
448.896	882.81
449.117	760.81
449.338	731.81
449.559	806.81
449.779	898.81
450	741.81
450.221	665.81
450.442	654.81
450.662	652.81
450.883	622.81
451.104	649.81
451.324	660.81
451.545	633.81
451.766	594.81
451.986	594.81
452.207	569.81
452.428	598.81
452.648	605.81
452.869	590.81
453.089	592.81
453.31	590.81
453.53	620.81
453.751	593.81
453.971	590.81
454.192	612.81
454.412	598.81
454.633	596.81
454.853	594.81
455.073	568.81
455.294	605.81
455.514	655.81
455.734	640.81
455.955	578.81
456.175	563.81
456.395	561.81
456.616	578.81
456.836	569.81
457.056	549.81
457.276	542.81
457.497	567.81
457.717	554.81
457.937	575.81
458.157	571.81
458.377	561.81
458.598	604.81
458.818	653.81
459.038	708.81
459.258	728.81
459.478	673.81
459.698	663.81
459.918	670.81
460.138	694.81
460.358	692.81
460.578	708.81
460.798	728.81
461.018	719.81
461.238	711.81
461.458	722.81
461.678	709.81
461.898	700.81
462.118	717.81
462.338	756.81
462.558	754.81
462.777	782.81
462.997	833.81
463.217	875.81
463.437	904.81
463.657	832.81
463.876	800.81
464.096	787.81
464.316	802.81
464.536	805.81
464.755	789.81
464.975	769.81
465.195	778.81
465.414	801.81
465.634	721.81
465.854	708.81
466.073	669.81
466.293	656.81
466.512	650.81
466.732	632.81
466.951	630.81
467.171	616.81
467.391	598.81
467.61	602.81
467.829	587.81
468.049	648.81
468.268	638.81
468.488	619.81
468.707	608.81
468.927	603.81
469.146	595.81
469.365	634.81
469.585	600.81
469.804	618.81
470.023	634.81
470.243	636.81
470.462	638.81
470.681	653.81
470.901	668.81
471.12	629.81
471.339	646.81
471.558	643.81
471.777	621.81
471.997	628.81
472.216	610.81
472.435	646.81
472.654	637.81
472.873	614.81
473.092	630.81
473.311	622.81
473.53	602.81
473.749	631.81
473.968	659.81
474.187	725.81
474.406	731.81
474.625	633.81
474.844	614.81
475.063	588.81
475.282	610.81
475.501	617.81
475.72	644.81
475.939	658.81
476.158	609.81
476.377	634.81
476.596	630.81
476.814	646.81
477.033	635.81
477.252	664.81
477.471	677.81
477.69	656.81
477.908	668.81
478.127	698.81
478.346	712.81
478.564	719.81
478.783	754.81
479.002	729.81
479.22	736.81
479.439	758.81
479.658	733.81
479.876	758.81
480.095	744.81
480.313	800.81
480.532	806.81
480.751	819.81
480.969	798.81
481.188	832.81
481.406	855.81
481.624	790.81
481.843	740.81
482.061	746.81
482.28	712.81
482.498	720.81
482.717	711.81
482.935	708.81
483.153	704.81
483.372	692.81
483.59	712.81
483.808	706.81
484.027	722.81
484.245	733.81
484.463	742.81
484.681	741.81
484.9	755.81
485.118	744.81
485.336	733.81
485.554	741.81
485.772	752.81
485.99	717.81
486.209	736.81
486.427	759.81
486.645	767.81
486.863	754.81
487.081	782.81
487.299	752.81
487.517	781.81
487.735	780.81
487.953	733.81
488.171	772.81
488.389	759.81
488.607	780.81
488.825	752.81
489.043	770.81
489.261	771.81
489.479	784.81
489.696	768.81
489.914	756.81
490.132	796.81
490.35	789.81
490.568	793.81
490.786	819.81
491.003	838.81
491.221	816.81
491.439	846.81
491.657	845.81
491.874	851.81
492.092	849.81
492.31	852.81
492.527	853.81
492.745	870.81
492.963	859.81
493.18	877.81
493.398	883.81
493.615	882.81
493.833	867.81
494.05	867.81
494.268	892.81
494.485	880.81
494.703	888.81
494.92	895.81
495.138	905.81
495.355	891.81
495.573	904.81
495.79	892.81
496.008	914.81
496.225	891.81
496.442	924.81
496.66	929.81
496.877	908.81
497.094	917.81
497.312	924.81
497.529	946.81
497.746	973.81
497.963	977.81
498.181	1011.81
498.398	1049.81
498.615	1062.81
498.832	1144.81
499.049	1188.81
499.267	1240.81
499.484	1305.81
499.701	1380.81
499.918	1483.81
500.135	1632.81
500.352	1737.81
500.569	1783.81
500.786	1808.81
501.003	1750.81
501.22	1629.81
501.437	1534.81
501.654	1435.81
501.871	1328.81
502.088	1242.81
502.305	1176.81
502.522	1132.81
502.739	1110.81
502.956	1073.81
503.172	1039.81
503.389	999.81
503.606	956.81
503.823	976.81
504.04	969.81
504.256	929.81
504.473	955.81
504.69	969.81
504.907	970.81
505.123	964.81
505.34	882.81
505.557	865.81
505.773	843.81
505.99	848.81
506.207	833.81
506.423	852.81
506.64	842.81
506.856	836.81
507.073	815.81
507.289	790.81
507.506	809.81
507.722	806.81
507.939	813.81
508.155	795.81
508.372	767.81
508.588	757.81
508.805	776.81
509.021	765.81
509.238	800.81
509.454	794.81
509.67	767.81
509.887	766.81
510.103	746.81
510.319	784.81
510.536	844.81
510.752	1221.81
510.968	1045.81
511.184	791.81
511.401	765.81
511.617	729.81
511.833	766.81
512.049	734.81
512.265	727.81
512.481	755.81
512.698	737.81
512.914	745.81
513.13	733.81
513.346	695.81
513.562	719.81
513.778	734.81
513.994	718.81
514.21	757.81
514.426	749.81
514.642	792.81
514.858	796.81
515.074	829.81
515.29	923.81
515.506	1245.81
515.721	1102.81
515.937	832.81
516.153	807.81
516.369	830.81
516.585	789.81
516.801	821.81
517.016	852.81
517.232	868.81
517.448	903.81
517.664	888.81
517.879	899.81
518.095	924.81
518.311	862.81
518.527	834.81
518.742	836.81
518.958	837.81
519.173	797.81
519.389	783.81
519.605	779.81
519.82	786.81
520.036	778.81
520.251	761.81
520.467	798.81
520.682	774.81
520.898	776.81
521.113	761.81
521.329	802.81
521.544	854.81
521.76	955.81
521.975	1428.81
522.19	1493.81
522.406	917.81
522.621	792.81
522.836	728.81
523.052	709.81
523.267	696.81
523.482	669.81
523.698	654.81
523.913	643.81
524.128	681.81
524.343	638.81
524.559	649.81
524.774	634.81
524.989	633.81
525.204	654.81
525.419	658.81
525.634	619.81
525.849	627.81
526.064	638.81
526.28	638.81
526.495	636.81
526.71	644.81
526.925	605.81
527.14	626.81
527.355	609.81
527.57	633.81
527.785	617.81
527.999	622.81
528.214	635.81
528.429	618.81
528.644	634.81
528.859	619.81
529.074	597.81
529.289	631.81
529.503	702.81
529.718	672.81
529.933	647.81
530.148	629.81
530.363	640.81
530.577	635.81
530.792	624.81
531.007	600.81
531.221	640.81
531.436	637.81
531.651	610.81
531.865	624.81
532.08	600.81
532.295	626.81
532.509	618.81
532.724	615.81
532.938	617.81
533.153	615.81
533.367	597.81
533.582	626.81
533.796	621.81
534.011	606.81
534.225	607.81
534.44	577.81
534.654	629.81
534.868	610.81
535.083	608.81
535.297	611.81
535.511	608.81
535.726	623.81
535.94	595.81
536.154	604.81
536.369	597.81
536.583	590.81
536.797	588.81
537.011	580.81
537.225	587.81
537.44	575.81
537.654	601.81
537.868	576.81
538.082	562.81
538.296	591.81
538.51	589.81
538.724	578.81
538.938	554.81
539.153	560.81
539.367	582.81
539.581	568.81
539.795	560.81
540.009	566.81
540.222	572.81
540.436	586.81
540.65	562.81
540.864	556.81
541.078	579.81
541.292	577.81
541.506	574.81
541.72	560.81
541.934	577.81
542.147	576.81
542.361	567.81
542.575	532.81
542.789	575.81
543.002	557.81
543.216	564.81
543.43	588.81
543.644	566.81
543.857	573.81
544.071	564.81
544.285	576.81
544.498	562.81
544.712	587.81
544.925	576.81
545.139	563.81
545.352	565.81
545.566	568.81
545.779	566.81
545.993	576.81
546.206	591.81
546.42	600.81
546.633	582.81
546.847	578.81
547.06	577.81
547.274	568.81
547.487	558.81
547.7	558.81
547.914	572.81
548.127	583.81
548.34	574.81
548.554	588.81
548.767	579.81
548.98	570.81
549.193	580.81
549.407	565.81
549.62	587.81
549.833	563.81
550.046	566.81
550.259	544.81
550.473	586.81
550.686	562.81
550.899	560.81
551.112	547.81
551.325	550.81
551.538	558.81
551.751	555.81
551.964	565.81
552.177	564.81
552.39	600.81
552.603	593.81
552.816	621.81
553.029	605.81
553.242	619.81
553.455	603.81
553.667	631.81
553.88	626.81
554.093	610.81
554.306	618.81
554.519	580.81
554.732	578.81
554.944	588.81
555.157	550.81
555.37	555.81
555.583	554.81
555.795	543.81
556.008	522.81
556.221	552.81
556.433	536.81
556.646	524.81
556.859	521.81
557.071	546.81
557.284	508.81
557.496	526.81
557.709	490.81
557.921	501.81
558.134	487.81
558.346	500.81
558.559	502.81
558.771	493.81
558.984	498.81
559.196	504.81
559.409	479.81
559.621	483.81
559.833	491.81
560.046	482.81
560.258	469.81
560.47	481.81
560.683	492.81
560.895	497.81
561.107	488.81
561.32	493.81
561.532	499.81
561.744	505.81
561.956	496.81
562.168	483.81
562.381	485.81
562.593	498.81
562.805	500.81
563.017	503.81
563.229	517.81
563.441	502.81
563.653	498.81
563.865	499.81
564.077	511.81
564.289	505.81
564.501	536.81
564.713	528.81
564.925	536.81
565.137	534.81
565.349	542.81
565.561	552.81
565.773	573.81
565.985	596.81
566.197	621.81
566.408	671.81
566.62	680.81
566.832	726.81
567.044	733.81
567.255	706.81
567.467	753.81
567.679	779.81
567.891	814.81
568.102	837.81
568.314	788.81
568.526	733.81
568.737	702.81
568.949	666.81
569.161	609.81
569.372	587.81
569.584	574.81
569.795	546.81
570.007	537.81
570.218	570.81
570.43	551.81
570.641	525.81
570.853	513.81
571.064	537.81
571.276	536.81
571.487	492.81
571.698	494.81
571.91	500.81
572.121	470.81
572.333	455.81
572.544	462.81
572.755	452.81
572.966	433.81
573.178	450.81
573.389	453.81
573.6	453.81
573.811	423.81
574.023	452.81
574.234	430.81
574.445	418.81
574.656	435.81
574.867	436.81
575.078	426.81
575.289	430.81
575.501	426.81
575.712	418.81
575.923	410.81
576.134	417.81
576.345	426.81
576.556	414.81
576.767	392.81
576.978	400.81
577.188	411.81
577.399	406.81
577.61	390.81
577.821	408.81
578.032	413.81
578.243	448.81
578.454	574.81
578.665	489.81
578.875	396.81
579.086	398.81
579.297	399.81
579.508	377.81
579.718	386.81
579.929	381.81
580.14	393.81
580.35	384.81
580.561	369.81
580.772	376.81
580.982	371.81
581.193	384.81
581.403	393.81
581.614	392.81
581.825	381.81
582.035	370.81
582.246	368.81
582.456	383.81
582.667	380.81
582.877	396.81
583.087	387.81
583.298	389.81
583.508	382.81
583.719	380.81
583.929	371.81
584.139	387.81
584.35	375.81
584.56	373.81
584.77	370.81
584.981	377.81
585.191	389.81
585.401	378.81
585.611	378.81
585.821	377.81
586.032	377.81
586.242	375.81
586.452	365.81
586.662	364.81
586.872	361.81
587.082	359.81
587.292	374.81
587.502	366.81
587.713	372.81
587.923	382.81
588.133	350.81
588.343	379.81
588.553	376.81
588.762	381.81
588.972	374.81
589.182	355.81
589.392	371.81
589.602	366.81
589.812	384.81
590.022	380.81
590.232	356.81
590.441	363.81
590.651	374.81
590.861	376.81
591.071	388.81
591.281	387.81
591.49	401.81
591.7	408.81
591.91	406.81
592.119	394.81
592.329	410.81
592.539	423.81
592.748	421.81
592.958	414.81
593.167	440.81
593.377	434.81
593.587	456.81
593.796	464.81
594.006	463.81
594.215	452.81
594.424	445.81
594.634	436.81
594.843	421.81
595.053	408.81
595.262	374.81
595.472	393.81
595.681	390.81
595.89	380.81
596.1	368.81
596.309	372.81
596.518	363.81
596.727	364.81
596.937	364.81
597.146	340.81
597.355	341.81
597.564	343.81
597.774	351.81
597.983	339.81
598.192	340.81
598.401	334.81
598.61	340.81
598.819	339.81
599.028	320.81
599.237	324.81
599.446	339.81
599.655	340.81
599.864	337.81
600.073	312.81
600.282	350.81
600.491	317.81
600.7	310.81
600.909	312.81
601.118	318.81
601.327	313.81
601.536	308.81
601.745	314.81
601.953	331.81
602.162	318.81
602.371	313.81
602.58	299.81
602.789	327.81
602.997	324.81
603.206	312.81
603.415	292.81
603.623	301.81
603.832	301.81
604.041	304.81
604.249	310.81
604.458	302.81
604.666	288.81
604.875	295.81
605.084	292.81
605.292	278.81
605.501	284.81
605.709	321.81
605.918	299.81
606.126	316.81
606.334	310.81
606.543	307.81
606.751	293.81
606.96	304.81
607.168	302.81
607.376	286.81
607.585	280.81
607.793	305.81
608.001	292.81
608.21	298.81
608.418	282.81
608.626	297.81
608.834	296.81
609.043	302.81
609.251	302.81
609.459	286.81
609.667	288.81
609.875	299.81
610.083	272.81
610.291	303.81
610.499	289.81
610.707	296.81
610.916	299.81
611.124	301.81
611.332	294.81
611.54	277.81
611.748	284.81
611.955	294.81
612.163	289.81
612.371	280.81
612.579	280.81
612.787	301.81
612.995	298.81
613.203	282.81
613.411	288.81
613.618	277.81
613.826	286.81
614.034	282.81
614.242	292.81
614.449	288.81
614.657	285.81
614.865	282.81
615.072	298.81
615.28	282.81
615.488	276.81
615.695	290.81
615.903	284.81
616.111	288.81
616.318	302.81
616.526	282.81
616.733	287.81
616.941	289.81
617.148	289.81
617.356	276.81
617.563	306.81
617.771	283.81
617.978	270.81
618.185	292.81
618.393	281.81
618.6	278.81
618.807	272.81
619.015	262.81
619.222	276.81
619.429	290.81
619.637	287.81
619.844	290.81
620.051	288.81
620.258	266.81
620.466	265.81
620.673	267.81
620.88	262.81
621.087	273.81
621.294	288.81
621.501	261.81
621.708	264.81
621.915	273.81
622.122	297.81
622.329	279.81
622.536	286.81
622.743	253.81
622.95	269.81
623.157	250.81
623.364	282.81
623.571	254.81
623.778	254.81
623.985	259.81
624.192	262.81
624.399	243.81
624.606	245.81
624.812	270.81
625.019	249.81
625.226	270.81
625.433	250.81
625.639	245.81
625.846	251.81
626.053	237.81
626.259	245.81
626.466	253.81
626.673	245.81
626.879	261.81
627.086	256.81
627.293	266.81
627.499	253.81
627.706	239.81
627.912	252.81
628.119	232.81
628.325	243.81
628.532	250.81
628.738	221.81
628.945	242.81
629.151	218.81
629.357	222.81
629.564	244.81
629.77	239.81
629.976	218.81
630.183	231.81
630.389	235.81
630.595	220.81
630.802	229.81
631.008	232.81
631.214	208.81
631.42	247.81
631.627	230.81
631.833	245.81
632.039	226.81
632.245	224.81
632.451	222.81
632.657	209.81
632.863	206.81
633.069	231.81
633.275	230.81
633.481	226.81
633.688	226.81
633.893	218.81
634.099	234.81
634.305	220.81
634.511	225.81
634.717	212.81
634.923	211.81
635.129	221.81
635.335	223.81
635.541	220.81
635.747	219.81
635.952	217.81
636.158	216.81
636.364	225.81
636.57	220.81
636.775	212.81
636.981	212.81
637.187	200.81
637.392	206.81
637.598	216.81
637.804	224.81
638.009	227.81
638.215	212.81
638.421	215.81
638.626	207.81
638.832	216.81
639.037	204.81
639.243	214.81
639.448	207.81
639.654	224.81
639.859	198.81
640.065	193.81
640.27	230.81
640.475	210.81
640.681	197.81
640.886	214.81
641.091	204.81
641.297	200.81
641.502	202.81
641.707	197.81
641.913	204.81
642.118	206.81
642.323	182.81
642.528	200.81
642.733	183.81
642.939	196.81
643.144	193.81
643.349	207.81
643.554	201.81
643.759	182.81
643.964	191.81
644.169	195.81
644.374	178.81
644.579	190.81
644.784	192.81
644.989	174.81
645.194	188.81
645.399	186.81
645.604	196.81
645.809	200.81
646.014	202.81
646.219	188.81
646.423	182.81
646.628	179.81
646.833	173.81
647.038	202.81
647.243	194.81
647.447	205.81
647.652	189.81
647.857	192.81
648.062	197.81
648.266	198.81
648.471	209.81
648.676	208.81
648.88	203.81
649.085	189.81
649.289	189.81
649.494	210.81
649.698	229.81
649.903	207.81
650.107	188.81
650.312	180.81
650.516	184.81
650.721	176.81
650.925	166.81
651.13	189.81
651.334	180.81
651.539	169.81
651.743	169.81
651.947	176.81
652.152	168.81
652.356	157.81
652.56	163.81
652.764	169.81
652.969	173.81
653.173	157.81
653.377	158.81
653.581	151.81
653.785	168.81
653.99	170.81
654.194	168.81
654.398	162.81
654.602	139.81
654.806	148.81
655.01	152.81
655.214	177.81
655.418	159.81
655.622	152.81
655.826	140.81
656.03	156.81
656.234	142.81
656.438	147.81
656.642	151.81
656.846	157.81
657.049	146.81
657.253	145.81
657.457	136.81
657.661	128.81
657.865	136.81
658.068	110.81
658.272	113.81
658.476	114.81
658.68	103.81
658.883	106.81
659.087	97.81
659.291	125.81
659.494	114.81
659.698	106.81
659.901	108.81
660.105	99.81
660.309	100.81
660.512	92.81
660.716	109.81
660.919	98.81
661.123	104.81
661.326	97.81
661.53	97.81
661.733	82.81
661.936	96.81
662.14	92.81
662.343	89.81
662.546	84.81
662.75	88.81
662.953	97.81
663.156	70.81
663.36	92.81
663.563	87.81
663.766	86.81
663.969	74.81
664.173	85.81
664.376	80.81
664.579	77.81
664.782	88.81
664.985	85.81
665.188	84.81
665.391	95.81
665.594	67.81
665.797	93.81
666	87.81
666.203	83.81
666.406	89.81
666.609	81.81
666.812	81.81
667.015	73.81
667.218	78.81
667.421	86.81
667.624	72.81
667.827	78.81
668.03	88.81
668.232	90.81
668.435	81.81
668.638	75.81
668.841	78.81
669.043	88.81
669.246	81.81
669.449	75.81
669.651	87.81
669.854	94.81
670.057	81.81
670.259	70.81
670.462	80.81
670.665	73.81
670.867	78.81
671.07	86.81
671.272	76.81
671.475	97.81
671.677	77.81
671.88	69.81
672.082	68.81
672.284	78.81
672.487	92.81
672.689	89.81
672.892	84.81
