Data from 1963.PennyLincolnUp.Lamp.En5.5.200Scan.071719.P1._HRD10591_13-59-03-063.txt Node
Date: Thu Jul 18 13:59:03 EDT 2019
User: cochatt
Spectrometer: HR+D1059
Trigger mode: 1
Integration Time (sec): 1.000000E-1
Scans to average: 1
Electric dark correction enabled: true
Nonlinearity correction enabled: false
Boxcar width: 0
XAxis mode: Wavelengths
Number of Pixels in Spectrum: 2048
>>>>>Begin Spectral Data<<<<<
223.165	-21.94
223.4	-21.94
223.635	-21.94
223.869	-25.94
224.104	-25.94
224.338	-10.94
224.573	-23.94
224.808	-9.94
225.042	-0.94
225.277	0.06
225.511	-3.94
225.746	4.06
225.98	-1.94
226.215	13.06
226.449	16.06
226.683	31.06
226.918	24.06
227.152	37.06
227.387	32.06
227.621	43.06
227.856	42.06
228.09	38.06
228.324	42.06
228.559	57.06
228.793	69.06
229.027	103.06
229.262	103.06
229.496	100.06
229.73	130.06
229.964	143.06
230.199	117.06
230.433	107.06
230.667	125.06
230.901	124.06
231.136	120.06
231.37	118.06
231.604	110.06
231.838	109.06
232.072	111.06
232.306	115.06
232.541	127.06
232.775	130.06
233.009	122.06
233.243	132.06
233.477	138.06
233.711	140.06
233.945	127.06
234.179	124.06
234.413	124.06
234.647	122.06
234.881	123.06
235.115	131.06
235.349	123.06
235.583	129.06
235.817	124.06
236.051	122.06
236.285	118.06
236.519	126.06
236.753	143.06
236.987	151.06
237.221	166.06
237.455	208.06
237.689	164.06
237.922	138.06
238.156	129.06
238.39	132.06
238.624	125.06
238.858	119.06
239.091	133.06
239.325	124.06
239.559	132.06
239.793	138.06
240.027	142.06
240.26	153.06
240.494	165.06
240.728	152.06
240.961	145.06
241.195	151.06
241.429	148.06
241.662	150.06
241.896	140.06
242.13	138.06
242.363	148.06
242.597	151.06
242.83	152.06
243.064	155.06
243.298	162.06
243.531	157.06
243.765	147.06
243.998	172.06
244.232	154.06
244.465	148.06
244.699	158.06
244.932	164.06
245.166	167.06
245.399	156.06
245.633	160.06
245.866	162.06
246.099	160.06
246.333	185.06
246.566	166.06
246.8	165.06
247.033	170.06
247.266	154.06
247.5	172.06
247.733	181.06
247.966	179.06
248.2	183.06
248.433	194.06
248.666	193.06
248.899	181.06
249.133	196.06
249.366	212.06
249.599	204.06
249.832	185.06
250.066	178.06
250.299	191.06
250.532	207.06
250.765	212.06
250.998	213.06
251.231	242.06
251.465	231.06
251.698	231.06
251.931	214.06
252.164	210.06
252.397	216.06
252.63	222.06
252.863	212.06
253.096	223.06
253.329	214.06
253.562	234.06
253.795	222.06
254.028	230.06
254.261	231.06
254.494	230.06
254.727	262.06
254.96	276.06
255.193	258.06
255.426	258.06
255.659	239.06
255.892	248.06
256.124	235.06
256.357	249.06
256.59	235.06
256.823	233.06
257.056	231.06
257.289	229.06
257.521	229.06
257.754	230.06
257.987	219.06
258.22	231.06
258.452	240.06
258.685	229.06
258.918	232.06
259.151	237.06
259.383	240.06
259.616	240.06
259.849	230.06
260.081	246.06
260.314	266.06
260.547	270.06
260.779	271.06
261.012	260.06
261.244	252.06
261.477	252.06
261.71	246.06
261.942	260.06
262.175	245.06
262.407	243.06
262.64	234.06
262.872	236.06
263.105	232.06
263.337	236.06
263.57	239.06
263.802	235.06
264.035	222.06
264.267	241.06
264.499	244.06
264.732	262.06
264.964	234.06
265.197	242.06
265.429	250.06
265.661	227.06
265.894	254.06
266.126	247.06
266.358	260.06
266.591	241.06
266.823	268.06
267.055	247.06
267.287	254.06
267.52	253.06
267.752	262.06
267.984	263.06
268.216	260.06
268.448	264.06
268.681	264.06
268.913	262.06
269.145	275.06
269.377	282.06
269.609	305.06
269.841	284.06
270.073	293.06
270.306	302.06
270.538	339.06
270.77	325.06
271.002	332.06
271.234	314.06
271.466	320.06
271.698	329.06
271.93	324.06
272.162	330.06
272.394	335.06
272.626	315.06
272.858	324.06
273.09	302.06
273.322	309.06
273.553	317.06
273.785	299.06
274.017	311.06
274.249	303.06
274.481	295.06
274.713	301.06
274.945	302.06
275.176	310.06
275.408	279.06
275.64	310.06
275.872	327.06
276.104	310.06
276.335	306.06
276.567	309.06
276.799	341.06
277.031	346.06
277.262	342.06
277.494	367.06
277.726	324.06
277.957	329.06
278.189	307.06
278.421	312.06
278.652	316.06
278.884	314.06
279.115	312.06
279.347	315.06
279.579	303.06
279.81	323.06
280.042	330.06
280.273	308.06
280.505	311.06
280.736	318.06
280.968	312.06
281.199	319.06
281.431	329.06
281.662	296.06
281.894	315.06
282.125	324.06
282.356	333.06
282.588	358.06
282.819	344.06
283.051	332.06
283.282	328.06
283.513	330.06
283.745	326.06
283.976	349.06
284.207	336.06
284.439	329.06
284.67	328.06
284.901	336.06
285.132	351.06
285.364	350.06
285.595	352.06
285.826	350.06
286.057	335.06
286.288	341.06
286.52	347.06
286.751	358.06
286.982	347.06
287.213	336.06
287.444	362.06
287.675	345.06
287.906	350.06
288.138	370.06
288.369	350.06
288.6	380.06
288.831	365.06
289.062	357.06
289.293	357.06
289.524	374.06
289.755	346.06
289.986	348.06
290.217	370.06
290.448	345.06
290.679	354.06
290.91	341.06
291.141	358.06
291.371	382.06
291.602	355.06
291.833	358.06
292.064	363.06
292.295	365.06
292.526	364.06
292.757	354.06
292.987	363.06
293.218	370.06
293.449	364.06
293.68	353.06
293.91	366.06
294.141	356.06
294.372	365.06
294.603	375.06
294.833	363.06
295.064	365.06
295.295	375.06
295.525	372.06
295.756	377.06
295.987	359.06
296.217	387.06
296.448	387.06
296.679	384.06
296.909	375.06
297.14	376.06
297.37	402.06
297.601	385.06
297.831	387.06
298.062	373.06
298.292	401.06
298.523	393.06
298.753	423.06
298.984	416.06
299.214	379.06
299.445	394.06
299.675	390.06
299.905	411.06
300.136	398.06
300.366	396.06
300.597	387.06
300.827	420.06
301.057	415.06
301.288	422.06
301.518	398.06
301.748	416.06
301.979	430.06
302.209	411.06
302.439	426.06
302.669	411.06
302.9	398.06
303.13	392.06
303.36	419.06
303.59	426.06
303.82	444.06
304.051	421.06
304.281	418.06
304.511	413.06
304.741	416.06
304.971	404.06
305.201	413.06
305.431	428.06
305.661	416.06
305.891	408.06
306.121	415.06
306.352	426.06
306.582	415.06
306.812	426.06
307.042	415.06
307.272	400.06
307.502	408.06
307.731	404.06
307.961	425.06
308.191	413.06
308.421	408.06
308.651	424.06
308.881	432.06
309.111	425.06
309.341	417.06
309.571	428.06
309.8	413.06
310.03	437.06
310.26	431.06
310.49	434.06
310.72	450.06
310.949	445.06
311.179	442.06
311.409	446.06
311.639	464.06
311.868	428.06
312.098	440.06
312.328	443.06
312.557	437.06
312.787	454.06
313.017	467.06
313.246	461.06
313.476	441.06
313.706	441.06
313.935	448.06
314.165	470.06
314.394	450.06
314.624	450.06
314.853	458.06
315.083	430.06
315.312	453.06
315.542	482.06
315.771	461.06
316.001	470.06
316.23	474.06
316.46	454.06
316.689	474.06
316.919	457.06
317.148	457.06
317.377	479.06
317.607	467.06
317.836	459.06
318.065	467.06
318.295	438.06
318.524	460.06
318.753	448.06
318.983	439.06
319.212	445.06
319.441	452.06
319.67	441.06
319.9	462.06
320.129	466.06
320.358	473.06
320.587	447.06
320.816	435.06
321.046	477.06
321.275	473.06
321.504	472.06
321.733	462.06
321.962	482.06
322.191	486.06
322.42	484.06
322.649	479.06
322.878	503.06
323.108	507.06
323.337	504.06
323.566	500.06
323.795	534.06
324.024	566.06
324.253	647.06
324.482	826.06
324.71	1152.06
324.939	1655.06
325.168	1446.06
325.397	825.06
325.626	601.06
325.855	571.06
326.084	539.06
326.313	528.06
326.542	534.06
326.77	576.06
326.999	634.06
327.228	786.06
327.457	1086.06
327.686	1339.06
327.914	926.06
328.143	666.06
328.372	634.06
328.6	602.06
328.829	591.06
329.058	598.06
329.287	579.06
329.515	567.06
329.744	567.06
329.972	552.06
330.201	576.06
330.43	615.06
330.658	624.06
330.887	619.06
331.115	599.06
331.344	571.06
331.572	573.06
331.801	568.06
332.03	580.06
332.258	564.06
332.486	577.06
332.715	582.06
332.943	591.06
333.172	603.06
333.4	610.06
333.629	617.06
333.857	635.06
334.085	644.06
334.314	644.06
334.542	685.06
334.771	674.06
334.999	626.06
335.227	599.06
335.455	606.06
335.684	595.06
335.912	575.06
336.14	590.06
336.369	579.06
336.597	579.06
336.825	569.06
337.053	604.06
337.281	555.06
337.51	554.06
337.738	555.06
337.966	544.06
338.194	553.06
338.422	568.06
338.65	543.06
338.878	547.06
339.106	543.06
339.334	564.06
339.562	544.06
339.79	558.06
340.018	528.06
340.246	508.06
340.474	512.06
340.702	528.06
340.93	537.06
341.158	520.06
341.386	530.06
341.614	540.06
341.842	529.06
342.07	524.06
342.298	513.06
342.526	526.06
342.754	504.06
342.981	539.06
343.209	518.06
343.437	549.06
343.665	564.06
343.893	589.06
344.12	588.06
344.348	565.06
344.576	564.06
344.804	586.06
345.031	541.06
345.259	553.06
345.487	523.06
345.714	511.06
345.942	504.06
346.17	527.06
346.397	499.06
346.625	518.06
346.853	492.06
347.08	502.06
347.308	506.06
347.535	521.06
347.763	508.06
347.99	490.06
348.218	522.06
348.445	531.06
348.673	484.06
348.9	488.06
349.128	495.06
349.355	507.06
349.583	490.06
349.81	490.06
350.037	529.06
350.265	487.06
350.492	493.06
350.72	500.06
350.947	493.06
351.174	490.06
351.402	498.06
351.629	503.06
351.856	484.06
352.083	520.06
352.311	526.06
352.538	518.06
352.765	524.06
352.992	517.06
353.22	500.06
353.447	477.06
353.674	492.06
353.901	521.06
354.128	483.06
354.355	491.06
354.583	502.06
354.81	472.06
355.037	476.06
355.264	495.06
355.491	490.06
355.718	486.06
355.945	489.06
356.172	488.06
356.399	477.06
356.626	492.06
356.853	494.06
357.08	480.06
357.307	482.06
357.534	477.06
357.761	471.06
357.988	479.06
358.215	490.06
358.441	506.06
358.668	491.06
358.895	490.06
359.122	499.06
359.349	490.06
359.576	504.06
359.802	529.06
360.029	548.06
360.256	539.06
360.483	528.06
360.709	524.06
360.936	506.06
361.163	506.06
361.39	509.06
361.616	527.06
361.843	502.06
362.07	499.06
362.296	516.06
362.523	480.06
362.749	500.06
362.976	487.06
363.203	514.06
363.429	486.06
363.656	500.06
363.882	491.06
364.109	485.06
364.335	491.06
364.562	485.06
364.788	490.06
365.015	518.06
365.241	511.06
365.468	498.06
365.694	469.06
365.92	518.06
366.147	515.06
366.373	508.06
366.599	468.06
366.826	487.06
367.052	509.06
367.278	496.06
367.505	493.06
367.731	507.06
367.957	488.06
368.184	495.06
368.41	506.06
368.636	493.06
368.862	522.06
369.089	518.06
369.315	515.06
369.541	514.06
369.767	498.06
369.993	507.06
370.219	489.06
370.445	502.06
370.672	503.06
370.898	507.06
371.124	501.06
371.35	490.06
371.576	516.06
371.802	537.06
372.028	520.06
372.254	494.06
372.48	499.06
372.706	518.06
372.932	525.06
373.158	534.06
373.384	532.06
373.61	509.06
373.835	519.06
374.061	517.06
374.287	521.06
374.513	525.06
374.739	540.06
374.965	538.06
375.191	569.06
375.416	544.06
375.642	548.06
375.868	512.06
376.094	526.06
376.319	538.06
376.545	521.06
376.771	518.06
376.997	520.06
377.222	528.06
377.448	497.06
377.674	514.06
377.899	526.06
378.125	519.06
378.35	498.06
378.576	495.06
378.802	508.06
379.027	512.06
379.253	542.06
379.478	503.06
379.704	519.06
379.929	514.06
380.155	501.06
380.38	502.06
380.606	504.06
380.831	523.06
381.057	526.06
381.282	512.06
381.507	533.06
381.733	510.06
381.958	517.06
382.184	500.06
382.409	523.06
382.634	517.06
382.86	540.06
383.085	533.06
383.31	524.06
383.535	554.06
383.761	557.06
383.986	550.06
384.211	578.06
384.436	590.06
384.662	577.06
384.887	577.06
385.112	594.06
385.337	579.06
385.562	598.06
385.787	597.06
386.013	598.06
386.238	588.06
386.463	596.06
386.688	593.06
386.913	592.06
387.138	596.06
387.363	589.06
387.588	562.06
387.813	576.06
388.038	586.06
388.263	600.06
388.488	612.06
388.713	607.06
388.938	576.06
389.163	568.06
389.387	567.06
389.612	627.06
389.837	589.06
390.062	600.06
390.287	577.06
390.512	588.06
390.736	613.06
390.961	596.06
391.186	607.06
391.411	628.06
391.636	627.06
391.86	630.06
392.085	646.06
392.31	642.06
392.534	621.06
392.759	640.06
392.984	610.06
393.208	604.06
393.433	631.06
393.658	600.06
393.882	591.06
394.107	621.06
394.331	599.06
394.556	614.06
394.78	608.06
395.005	602.06
395.229	630.06
395.454	635.06
395.678	664.06
395.903	662.06
396.127	663.06
396.352	663.06
396.576	633.06
396.801	610.06
397.025	614.06
397.249	622.06
397.474	670.06
397.698	662.06
397.922	663.06
398.147	661.06
398.371	694.06
398.595	685.06
398.82	703.06
399.044	728.06
399.268	784.06
399.492	867.06
399.717	946.06
399.941	981.06
400.165	923.06
400.389	875.06
400.613	816.06
400.837	754.06
401.062	749.06
401.286	698.06
401.51	734.06
401.734	729.06
401.958	736.06
402.182	731.06
402.406	732.06
402.63	736.06
402.854	728.06
403.078	751.06
403.302	748.06
403.526	750.06
403.75	756.06
403.974	776.06
404.198	772.06
404.422	787.06
404.645	796.06
404.869	796.06
405.093	794.06
405.317	832.06
405.541	859.06
405.765	804.06
405.988	775.06
406.212	790.06
406.436	809.06
406.66	816.06
406.883	803.06
407.107	838.06
407.331	912.06
407.555	966.06
407.778	956.06
408.002	895.06
408.226	844.06
408.449	838.06
408.673	811.06
408.896	843.06
409.12	851.06
409.344	806.06
409.567	762.06
409.791	776.06
410.014	751.06
410.238	760.06
410.461	782.06
410.685	773.06
410.908	747.06
411.132	756.06
411.355	808.06
411.578	768.06
411.802	751.06
412.025	768.06
412.249	759.06
412.472	778.06
412.695	783.06
412.919	791.06
413.142	713.06
413.365	715.06
413.589	683.06
413.812	703.06
414.035	696.06
414.258	710.06
414.482	703.06
414.705	724.06
414.928	716.06
415.151	692.06
415.374	704.06
415.597	677.06
415.821	688.06
416.044	726.06
416.267	717.06
416.49	699.06
416.713	684.06
416.936	678.06
417.159	680.06
417.382	670.06
417.605	683.06
417.828	698.06
418.051	730.06
418.274	741.06
418.497	698.06
418.72	702.06
418.943	716.06
419.166	761.06
419.389	786.06
419.611	771.06
419.834	738.06
420.057	714.06
420.28	733.06
420.503	696.06
420.726	724.06
420.948	721.06
421.171	760.06
421.394	770.06
421.617	729.06
421.839	730.06
422.062	727.06
422.285	732.06
422.507	791.06
422.73	803.06
422.953	803.06
423.175	764.06
423.398	735.06
423.621	739.06
423.843	771.06
424.066	766.06
424.288	757.06
424.511	781.06
424.733	832.06
424.956	865.06
425.178	834.06
425.401	828.06
425.623	854.06
425.846	764.06
426.068	740.06
426.291	743.06
426.513	727.06
426.735	711.06
426.958	735.06
427.18	829.06
427.402	903.06
427.625	972.06
427.847	889.06
428.069	788.06
428.292	722.06
428.514	706.06
428.736	674.06
428.958	675.06
429.181	668.06
429.403	668.06
429.625	658.06
429.847	687.06
430.069	724.06
430.292	749.06
430.514	672.06
430.736	685.06
430.958	644.06
431.18	639.06
431.402	648.06
431.624	644.06
431.846	642.06
432.068	652.06
432.29	665.06
432.512	652.06
432.734	670.06
432.956	663.06
433.178	663.06
433.4	666.06
433.622	640.06
433.844	665.06
434.066	654.06
434.287	663.06
434.509	676.06
434.731	687.06
434.953	716.06
435.175	727.06
435.397	733.06
435.618	716.06
435.84	744.06
436.062	814.06
436.284	841.06
436.505	762.06
436.727	711.06
436.949	692.06
437.17	666.06
437.392	665.06
437.614	649.06
437.835	672.06
438.057	735.06
438.278	829.06
438.5	819.06
438.721	895.06
438.943	877.06
439.165	754.06
439.386	694.06
439.608	714.06
439.829	697.06
440.05	705.06
440.272	737.06
440.493	722.06
440.715	701.06
440.936	698.06
441.158	668.06
441.379	692.06
441.6	724.06
441.822	730.06
442.043	749.06
442.264	832.06
442.486	851.06
442.707	769.06
442.928	759.06
443.149	734.06
443.371	766.06
443.592	778.06
443.813	873.06
444.034	935.06
444.255	810.06
444.476	801.06
444.698	792.06
444.919	805.06
445.14	934.06
445.361	868.06
445.582	784.06
445.803	816.06
446.024	847.06
446.245	849.06
446.466	797.06
446.687	734.06
446.908	704.06
447.129	677.06
447.35	644.06
447.571	669.06
447.792	630.06
448.013	645.06
448.234	637.06
448.455	660.06
448.675	754.06
448.896	875.06
449.117	751.06
449.338	729.06
449.559	813.06
449.779	918.06
450	781.06
450.221	658.06
450.442	643.06
450.662	626.06
450.883	624.06
451.104	640.06
451.324	633.06
451.545	638.06
451.766	620.06
451.986	604.06
452.207	602.06
452.428	588.06
452.648	599.06
452.869	595.06
453.089	603.06
453.31	606.06
453.53	600.06
453.751	592.06
453.971	600.06
454.192	612.06
454.412	598.06
454.633	591.06
454.853	584.06
455.073	586.06
455.294	595.06
455.514	656.06
455.734	632.06
455.955	576.06
456.175	567.06
456.395	550.06
456.616	551.06
456.836	577.06
457.056	552.06
457.276	556.06
457.497	567.06
457.717	570.06
457.937	591.06
458.157	587.06
458.377	571.06
458.598	596.06
458.818	622.06
459.038	705.06
459.258	772.06
459.478	668.06
459.698	670.06
459.918	692.06
460.138	691.06
460.358	690.06
460.578	705.06
460.798	694.06
461.018	725.06
461.238	711.06
461.458	712.06
461.678	715.06
461.898	723.06
462.118	718.06
462.338	746.06
462.558	769.06
462.777	778.06
462.997	821.06
463.217	891.06
463.437	859.06
463.657	831.06
463.876	792.06
464.096	804.06
464.316	779.06
464.536	813.06
464.755	788.06
464.975	778.06
465.195	783.06
465.414	775.06
465.634	719.06
465.854	653.06
466.073	663.06
466.293	661.06
466.512	633.06
466.732	632.06
466.951	630.06
467.171	636.06
467.391	602.06
467.61	619.06
467.829	652.06
468.049	612.06
468.268	625.06
468.488	620.06
468.707	621.06
468.927	613.06
469.146	595.06
469.365	611.06
469.585	628.06
469.804	640.06
470.023	651.06
470.243	647.06
470.462	640.06
470.681	678.06
470.901	664.06
471.12	645.06
471.339	628.06
471.558	632.06
471.777	641.06
471.997	633.06
472.216	623.06
472.435	676.06
472.654	638.06
472.873	606.06
473.092	602.06
473.311	612.06
473.53	608.06
473.749	590.06
473.968	663.06
474.187	734.06
474.406	726.06
474.625	655.06
474.844	612.06
475.063	639.06
475.282	622.06
475.501	620.06
475.72	646.06
475.939	633.06
476.158	643.06
476.377	633.06
476.596	618.06
476.814	633.06
477.033	651.06
477.252	677.06
477.471	660.06
477.69	681.06
477.908	676.06
478.127	706.06
478.346	720.06
478.564	712.06
478.783	723.06
479.002	734.06
479.22	720.06
479.439	747.06
479.658	743.06
479.876	757.06
480.095	784.06
480.313	794.06
480.532	820.06
480.751	840.06
480.969	778.06
481.188	846.06
481.406	835.06
481.624	778.06
481.843	750.06
482.061	741.06
482.28	751.06
482.498	716.06
482.717	684.06
482.935	720.06
483.153	700.06
483.372	705.06
483.59	726.06
483.808	717.06
484.027	735.06
484.245	726.06
484.463	724.06
484.681	717.06
484.9	731.06
485.118	733.06
485.336	728.06
485.554	772.06
485.772	752.06
485.99	746.06
486.209	750.06
486.427	746.06
486.645	742.06
486.863	785.06
487.081	758.06
487.299	778.06
487.517	772.06
487.735	751.06
487.953	749.06
488.171	784.06
488.389	783.06
488.607	789.06
488.825	767.06
489.043	752.06
489.261	757.06
489.479	775.06
489.696	780.06
489.914	794.06
490.132	757.06
490.35	790.06
490.568	820.06
490.786	822.06
491.003	800.06
491.221	813.06
491.439	841.06
491.657	838.06
491.874	837.06
492.092	855.06
492.31	863.06
492.527	861.06
492.745	842.06
492.963	894.06
493.18	877.06
493.398	859.06
493.615	864.06
493.833	893.06
494.05	885.06
494.268	876.06
494.485	903.06
494.703	905.06
494.92	888.06
495.138	887.06
495.355	907.06
495.573	890.06
495.79	872.06
496.008	887.06
496.225	892.06
496.442	897.06
496.66	920.06
496.877	899.06
497.094	939.06
497.312	923.06
497.529	950.06
497.746	932.06
497.963	976.06
498.181	1012.06
498.398	1043.06
498.615	1085.06
498.832	1140.06
499.049	1160.06
499.267	1225.06
499.484	1344.06
499.701	1399.06
499.918	1500.06
500.135	1615.06
500.352	1795.06
500.569	1846.06
500.786	1798.06
501.003	1744.06
501.22	1664.06
501.437	1515.06
501.654	1418.06
501.871	1345.06
502.088	1231.06
502.305	1171.06
502.522	1109.06
502.739	1101.06
502.956	1069.06
503.172	1014.06
503.389	994.06
503.606	963.06
503.823	975.06
504.04	940.06
504.256	969.06
504.473	984.06
504.69	956.06
504.907	964.06
505.123	941.06
505.34	901.06
505.557	887.06
505.773	846.06
505.99	852.06
506.207	837.06
506.423	843.06
506.64	821.06
506.856	816.06
507.073	822.06
507.289	807.06
507.506	806.06
507.722	816.06
507.939	820.06
508.155	823.06
508.372	772.06
508.588	766.06
508.805	743.06
509.021	777.06
509.238	786.06
509.454	761.06
509.67	772.06
509.887	783.06
510.103	788.06
510.319	781.06
510.536	822.06
510.752	1209.06
510.968	1001.06
511.184	767.06
511.401	760.06
511.617	716.06
511.833	743.06
512.049	716.06
512.265	752.06
512.481	738.06
512.698	739.06
512.914	720.06
513.13	715.06
513.346	722.06
513.562	735.06
513.778	742.06
513.994	739.06
514.21	738.06
514.426	746.06
514.642	763.06
514.858	758.06
515.074	812.06
515.29	885.06
515.506	1162.06
515.721	1056.06
515.937	840.06
516.153	826.06
516.369	810.06
516.585	811.06
516.801	830.06
517.016	855.06
517.232	855.06
517.448	912.06
517.664	881.06
517.879	886.06
518.095	896.06
518.311	868.06
518.527	857.06
518.742	832.06
518.958	835.06
519.173	805.06
519.389	775.06
519.605	796.06
519.82	757.06
520.036	754.06
520.251	761.06
520.467	798.06
520.682	782.06
520.898	766.06
521.113	750.06
521.329	786.06
521.544	842.06
521.76	937.06
521.975	1356.06
522.19	1431.06
522.406	880.06
522.621	770.06
522.836	731.06
523.052	698.06
523.267	697.06
523.482	681.06
523.698	671.06
523.913	652.06
524.128	687.06
524.343	668.06
524.559	666.06
524.774	647.06
524.989	663.06
525.204	630.06
525.419	630.06
525.634	631.06
525.849	636.06
526.064	636.06
526.28	647.06
526.495	632.06
526.71	640.06
526.925	623.06
527.14	618.06
527.355	650.06
527.57	626.06
527.785	602.06
527.999	619.06
528.214	634.06
528.429	639.06
528.644	623.06
528.859	639.06
529.074	616.06
529.289	635.06
529.503	675.06
529.718	685.06
529.933	644.06
530.148	616.06
530.363	622.06
530.577	617.06
530.792	607.06
531.007	623.06
531.221	604.06
531.436	636.06
531.651	628.06
531.865	617.06
532.08	604.06
532.295	611.06
532.509	606.06
532.724	604.06
532.938	611.06
533.153	623.06
533.367	627.06
533.582	610.06
533.796	614.06
534.011	604.06
534.225	606.06
534.44	603.06
534.654	603.06
534.868	624.06
535.083	590.06
535.297	614.06
535.511	589.06
535.726	630.06
535.94	599.06
536.154	596.06
536.369	581.06
536.583	604.06
536.797	609.06
537.011	605.06
537.225	584.06
537.44	579.06
537.654	581.06
537.868	589.06
538.082	578.06
538.296	571.06
538.51	572.06
538.724	574.06
538.938	559.06
539.153	564.06
539.367	576.06
539.581	571.06
539.795	579.06
540.009	557.06
540.222	592.06
540.436	578.06
540.65	587.06
540.864	582.06
541.078	584.06
541.292	598.06
541.506	578.06
541.72	584.06
541.934	563.06
542.147	585.06
542.361	573.06
542.575	583.06
542.789	569.06
543.002	580.06
543.216	576.06
543.43	595.06
543.644	549.06
543.857	574.06
544.071	574.06
544.285	581.06
544.498	560.06
544.712	567.06
544.925	576.06
545.139	574.06
545.352	575.06
545.566	569.06
545.779	570.06
545.993	584.06
546.206	583.06
546.42	583.06
546.633	592.06
546.847	575.06
547.06	562.06
547.274	557.06
547.487	564.06
547.7	568.06
547.914	566.06
548.127	546.06
548.34	566.06
548.554	569.06
548.767	569.06
548.98	581.06
549.193	574.06
549.407	589.06
549.62	590.06
549.833	583.06
550.046	562.06
550.259	588.06
550.473	566.06
550.686	589.06
550.899	558.06
551.112	542.06
551.325	559.06
551.538	575.06
551.751	558.06
551.964	568.06
552.177	568.06
552.39	580.06
552.603	583.06
552.816	613.06
553.029	618.06
553.242	615.06
553.455	611.06
553.667	621.06
553.88	624.06
554.093	591.06
554.306	582.06
554.519	594.06
554.732	578.06
554.944	585.06
555.157	542.06
555.37	541.06
555.583	554.06
555.795	559.06
556.008	560.06
556.221	533.06
556.433	530.06
556.646	500.06
556.859	507.06
557.071	506.06
557.284	491.06
557.496	520.06
557.709	499.06
557.921	488.06
558.134	502.06
558.346	502.06
558.559	523.06
558.771	500.06
558.984	514.06
559.196	495.06
559.409	506.06
559.621	483.06
559.833	486.06
560.046	502.06
560.258	500.06
560.47	475.06
560.683	475.06
560.895	481.06
561.107	500.06
561.32	494.06
561.532	483.06
561.744	491.06
561.956	495.06
562.168	493.06
562.381	475.06
562.593	488.06
562.805	516.06
563.017	478.06
563.229	498.06
563.441	512.06
563.653	522.06
563.865	507.06
564.077	533.06
564.289	518.06
564.501	527.06
564.713	540.06
564.925	544.06
565.137	543.06
565.349	559.06
565.561	576.06
565.773	564.06
565.985	602.06
566.197	602.06
566.408	649.06
566.62	674.06
566.832	695.06
567.044	744.06
567.255	770.06
567.467	801.06
567.679	795.06
567.891	826.06
568.102	839.06
568.314	811.06
568.526	734.06
568.737	689.06
568.949	651.06
569.161	616.06
569.372	588.06
569.584	563.06
569.795	553.06
570.007	556.06
570.218	572.06
570.43	518.06
570.641	538.06
570.853	517.06
571.064	524.06
571.276	527.06
571.487	500.06
571.698	500.06
571.91	480.06
572.121	474.06
572.333	462.06
572.544	450.06
572.755	459.06
572.966	460.06
573.178	439.06
573.389	431.06
573.6	444.06
573.811	444.06
574.023	433.06
574.234	431.06
574.445	422.06
574.656	447.06
574.867	440.06
575.078	445.06
575.289	408.06
575.501	411.06
575.712	424.06
575.923	434.06
576.134	419.06
576.345	407.06
576.556	432.06
576.767	420.06
576.978	402.06
577.188	416.06
577.399	416.06
577.61	412.06
577.821	412.06
578.032	375.06
578.243	434.06
578.454	599.06
578.665	484.06
578.875	400.06
579.086	391.06
579.297	411.06
579.508	402.06
579.718	380.06
579.929	381.06
580.14	418.06
580.35	392.06
580.561	394.06
580.772	379.06
580.982	380.06
581.193	381.06
581.403	394.06
581.614	399.06
581.825	393.06
582.035	371.06
582.246	377.06
582.456	394.06
582.667	374.06
582.877	370.06
583.087	378.06
583.298	376.06
583.508	378.06
583.719	378.06
583.929	409.06
584.139	392.06
584.35	392.06
584.56	381.06
584.77	374.06
584.981	375.06
585.191	381.06
585.401	378.06
585.611	376.06
585.821	383.06
586.032	364.06
586.242	364.06
586.452	359.06
586.662	366.06
586.872	359.06
587.082	361.06
587.292	356.06
587.502	370.06
587.713	352.06
587.923	378.06
588.133	392.06
588.343	371.06
588.553	359.06
588.762	380.06
588.972	374.06
589.182	378.06
589.392	381.06
589.602	388.06
589.812	378.06
590.022	397.06
590.232	379.06
590.441	387.06
590.651	374.06
590.861	347.06
591.071	364.06
591.281	384.06
591.49	402.06
591.7	400.06
591.91	402.06
592.119	394.06
592.329	413.06
592.539	398.06
592.748	436.06
592.958	436.06
593.167	428.06
593.377	444.06
593.587	464.06
593.796	448.06
594.006	464.06
594.215	449.06
594.424	450.06
594.634	456.06
594.843	420.06
595.053	404.06
595.262	394.06
595.472	395.06
595.681	398.06
595.89	400.06
596.1	374.06
596.309	387.06
596.518	359.06
596.727	352.06
596.937	347.06
597.146	346.06
597.355	353.06
597.564	344.06
597.774	355.06
597.983	332.06
598.192	334.06
598.401	331.06
598.61	341.06
598.819	346.06
599.028	325.06
599.237	342.06
599.446	332.06
599.655	336.06
599.864	332.06
600.073	326.06
600.282	335.06
600.491	312.06
600.7	313.06
600.909	311.06
601.118	312.06
601.327	342.06
601.536	312.06
601.745	302.06
601.953	327.06
602.162	317.06
602.371	321.06
602.58	316.06
602.789	315.06
602.997	310.06
603.206	303.06
603.415	308.06
603.623	311.06
603.832	313.06
604.041	315.06
604.249	298.06
604.458	296.06
604.666	291.06
604.875	274.06
605.084	307.06
605.292	306.06
605.501	303.06
605.709	312.06
605.918	302.06
606.126	299.06
606.334	316.06
606.543	299.06
606.751	318.06
606.96	309.06
607.168	308.06
607.376	299.06
607.585	292.06
607.793	300.06
608.001	287.06
608.21	304.06
608.418	307.06
608.626	285.06
608.834	308.06
609.043	284.06
609.251	295.06
609.459	290.06
609.667	283.06
609.875	310.06
610.083	294.06
610.291	301.06
610.499	294.06
610.707	291.06
610.916	306.06
611.124	289.06
611.332	310.06
611.54	295.06
611.748	286.06
611.955	290.06
612.163	296.06
612.371	285.06
612.579	272.06
612.787	282.06
612.995	279.06
613.203	284.06
613.411	280.06
613.618	271.06
613.826	288.06
614.034	291.06
614.242	289.06
614.449	292.06
614.657	287.06
614.865	300.06
615.072	291.06
615.28	295.06
615.488	291.06
615.695	279.06
615.903	281.06
616.111	288.06
616.318	288.06
616.526	284.06
616.733	286.06
616.941	273.06
617.148	289.06
617.356	276.06
617.563	276.06
617.771	278.06
617.978	291.06
618.185	286.06
618.393	288.06
618.6	280.06
618.807	277.06
619.015	278.06
619.222	283.06
619.429	282.06
619.637	277.06
619.844	264.06
620.051	273.06
620.258	269.06
620.466	271.06
620.673	274.06
620.88	276.06
621.087	272.06
621.294	258.06
621.501	252.06
621.708	252.06
621.915	264.06
622.122	279.06
622.329	277.06
622.536	283.06
622.743	278.06
622.95	280.06
623.157	271.06
623.364	269.06
623.571	273.06
623.778	286.06
623.985	283.06
624.192	251.06
624.399	256.06
624.606	254.06
624.812	241.06
625.019	260.06
625.226	269.06
625.433	252.06
625.639	268.06
625.846	251.06
626.053	268.06
626.259	253.06
626.466	265.06
626.673	229.06
626.879	249.06
627.086	262.06
627.293	251.06
627.499	244.06
627.706	239.06
627.912	256.06
628.119	251.06
628.325	262.06
628.532	244.06
628.738	251.06
628.945	243.06
629.151	230.06
629.357	244.06
629.564	242.06
629.77	245.06
629.976	239.06
630.183	230.06
630.389	238.06
630.595	237.06
630.802	237.06
631.008	242.06
631.214	243.06
631.42	251.06
631.627	256.06
631.833	232.06
632.039	217.06
632.245	235.06
632.451	226.06
632.657	231.06
632.863	231.06
633.069	230.06
633.275	230.06
633.481	224.06
633.688	233.06
633.893	208.06
634.099	221.06
634.305	226.06
634.511	211.06
634.717	223.06
634.923	206.06
635.129	210.06
635.335	216.06
635.541	214.06
635.747	193.06
635.952	222.06
636.158	216.06
636.364	220.06
636.57	239.06
636.775	221.06
636.981	211.06
637.187	215.06
637.392	209.06
637.598	224.06
637.804	208.06
638.009	209.06
638.215	210.06
638.421	216.06
638.626	208.06
638.832	215.06
639.037	186.06
639.243	212.06
639.448	195.06
639.654	190.06
639.859	199.06
640.065	196.06
640.27	225.06
640.475	208.06
640.681	192.06
640.886	199.06
641.091	224.06
641.297	199.06
641.502	210.06
641.707	192.06
641.913	207.06
642.118	202.06
642.323	195.06
642.528	195.06
642.733	193.06
642.939	210.06
643.144	210.06
643.349	194.06
643.554	194.06
643.759	193.06
643.964	186.06
644.169	190.06
644.374	198.06
644.579	187.06
644.784	198.06
644.989	176.06
645.194	190.06
645.399	193.06
645.604	187.06
645.809	200.06
646.014	189.06
646.219	192.06
646.423	201.06
646.628	215.06
646.833	210.06
647.038	195.06
647.243	182.06
647.447	186.06
647.652	215.06
647.857	208.06
648.062	207.06
648.266	208.06
648.471	212.06
648.676	209.06
648.88	203.06
649.085	210.06
649.289	194.06
649.494	192.06
649.698	229.06
649.903	209.06
650.107	194.06
650.312	188.06
650.516	190.06
650.721	183.06
650.925	183.06
651.13	179.06
651.334	166.06
651.539	168.06
651.743	164.06
651.947	170.06
652.152	167.06
652.356	146.06
652.56	165.06
652.764	161.06
652.969	160.06
653.173	167.06
653.377	165.06
653.581	147.06
653.785	155.06
653.99	166.06
654.194	151.06
654.398	162.06
654.602	157.06
654.806	163.06
655.01	154.06
655.214	147.06
655.418	152.06
655.622	156.06
655.826	160.06
656.03	149.06
656.234	160.06
656.438	164.06
656.642	162.06
656.846	152.06
657.049	168.06
657.253	150.06
657.457	142.06
657.661	130.06
657.865	111.06
658.068	124.06
658.272	116.06
658.476	120.06
658.68	127.06
658.883	127.06
659.087	113.06
659.291	103.06
659.494	111.06
659.698	104.06
659.901	107.06
660.105	96.06
660.309	100.06
660.512	108.06
660.716	98.06
660.919	108.06
661.123	101.06
661.326	96.06
661.53	93.06
661.733	102.06
661.936	94.06
662.14	92.06
662.343	83.06
662.546	82.06
662.75	82.06
662.953	87.06
663.156	86.06
663.36	79.06
663.563	78.06
663.766	81.06
663.969	100.06
664.173	85.06
664.376	90.06
664.579	82.06
664.782	82.06
664.985	82.06
665.188	96.06
665.391	78.06
665.594	95.06
665.797	80.06
666	87.06
666.203	87.06
666.406	98.06
666.609	85.06
666.812	98.06
667.015	65.06
667.218	81.06
667.421	78.06
667.624	82.06
667.827	95.06
668.03	77.06
668.232	75.06
668.435	83.06
668.638	83.06
668.841	85.06
669.043	88.06
669.246	99.06
669.449	88.06
669.651	92.06
669.854	76.06
670.057	79.06
670.259	90.06
670.462	92.06
670.665	95.06
670.867	88.06
671.07	82.06
671.272	92.06
671.475	98.06
671.677	91.06
671.88	98.06
672.082	89.06
672.284	64.06
672.487	79.06
672.689	76.06
672.892	83.06
