Data from 1963.PennyLincolnUp.Lamp.En5.5.200Scan.071719.P1._HRD10591_13-58-06-063.txt Node
Date: Thu Jul 18 13:58:06 EDT 2019
User: cochatt
Spectrometer: HR+D1059
Trigger mode: 1
Integration Time (sec): 1.000000E-1
Scans to average: 1
Electric dark correction enabled: true
Nonlinearity correction enabled: false
Boxcar width: 0
XAxis mode: Wavelengths
Number of Pixels in Spectrum: 2048
>>>>>Begin Spectral Data<<<<<
223.165	-14.62
223.4	-14.62
223.635	-14.62
223.869	-20.62
224.104	-20.62
224.338	0.38
224.573	-10.62
224.808	-13.62
225.042	-2.62
225.277	-10.62
225.511	-7.62
225.746	-5.62
225.98	3.38
226.215	15.38
226.449	8.38
226.683	24.38
226.918	27.38
227.152	27.38
227.387	32.38
227.621	37.38
227.856	45.38
228.09	52.38
228.324	38.38
228.559	52.38
228.793	65.38
229.027	97.38
229.262	112.38
229.496	125.38
229.73	127.38
229.964	132.38
230.199	104.38
230.433	101.38
230.667	115.38
230.901	107.38
231.136	98.38
231.37	115.38
231.604	128.38
231.838	117.38
232.072	120.38
232.306	109.38
232.541	111.38
232.775	108.38
233.009	115.38
233.243	121.38
233.477	124.38
233.711	132.38
233.945	121.38
234.179	136.38
234.413	114.38
234.647	112.38
234.881	128.38
235.115	119.38
235.349	133.38
235.583	131.38
235.817	130.38
236.051	132.38
236.285	128.38
236.519	122.38
236.753	132.38
236.987	128.38
237.221	159.38
237.455	187.38
237.689	174.38
237.922	134.38
238.156	137.38
238.39	141.38
238.624	142.38
238.858	132.38
239.091	133.38
239.325	137.38
239.559	129.38
239.793	145.38
240.027	144.38
240.26	149.38
240.494	162.38
240.728	132.38
240.961	153.38
241.195	146.38
241.429	145.38
241.662	135.38
241.896	151.38
242.13	160.38
242.363	165.38
242.597	152.38
242.83	139.38
243.064	169.38
243.298	142.38
243.531	141.38
243.765	143.38
243.998	167.38
244.232	157.38
244.465	148.38
244.699	158.38
244.932	160.38
245.166	164.38
245.399	157.38
245.633	164.38
245.866	164.38
246.099	166.38
246.333	179.38
246.566	164.38
246.8	169.38
247.033	164.38
247.266	171.38
247.5	187.38
247.733	178.38
247.966	164.38
248.2	184.38
248.433	192.38
248.666	182.38
248.899	192.38
249.133	197.38
249.366	218.38
249.599	192.38
249.832	182.38
250.066	180.38
250.299	196.38
250.532	196.38
250.765	202.38
250.998	222.38
251.231	231.38
251.465	237.38
251.698	211.38
251.931	209.38
252.164	219.38
252.397	222.38
252.63	225.38
252.863	193.38
253.096	210.38
253.329	219.38
253.562	237.38
253.795	220.38
254.028	226.38
254.261	220.38
254.494	233.38
254.727	250.38
254.96	275.38
255.193	262.38
255.426	260.38
255.659	243.38
255.892	241.38
256.124	248.38
256.357	261.38
256.59	229.38
256.823	235.38
257.056	229.38
257.289	208.38
257.521	229.38
257.754	209.38
257.987	222.38
258.22	228.38
258.452	225.38
258.685	230.38
258.918	241.38
259.151	235.38
259.383	230.38
259.616	240.38
259.849	244.38
260.081	235.38
260.314	256.38
260.547	246.38
260.779	265.38
261.012	226.38
261.244	238.38
261.477	236.38
261.71	240.38
261.942	244.38
262.175	218.38
262.407	249.38
262.64	234.38
262.872	242.38
263.105	236.38
263.337	224.38
263.57	229.38
263.802	229.38
264.035	218.38
264.267	236.38
264.499	231.38
264.732	238.38
264.964	247.38
265.197	246.38
265.429	238.38
265.661	227.38
265.894	252.38
266.126	242.38
266.358	236.38
266.591	233.38
266.823	254.38
267.055	236.38
267.287	249.38
267.52	250.38
267.752	268.38
267.984	261.38
268.216	268.38
268.448	255.38
268.681	267.38
268.913	267.38
269.145	273.38
269.377	290.38
269.609	291.38
269.841	294.38
270.073	290.38
270.306	309.38
270.538	320.38
270.77	313.38
271.002	312.38
271.234	301.38
271.466	299.38
271.698	310.38
271.93	320.38
272.162	329.38
272.394	335.38
272.626	318.38
272.858	303.38
273.09	303.38
273.322	316.38
273.553	291.38
273.785	281.38
274.017	292.38
274.249	276.38
274.481	292.38
274.713	269.38
274.945	284.38
275.176	315.38
275.408	296.38
275.64	290.38
275.872	304.38
276.104	292.38
276.335	284.38
276.567	293.38
276.799	310.38
277.031	319.38
277.262	345.38
277.494	316.38
277.726	322.38
277.957	321.38
278.189	325.38
278.421	296.38
278.652	295.38
278.884	312.38
279.115	296.38
279.347	305.38
279.579	312.38
279.81	309.38
280.042	317.38
280.273	325.38
280.505	316.38
280.736	320.38
280.968	295.38
281.199	310.38
281.431	320.38
281.662	324.38
281.894	343.38
282.125	322.38
282.356	316.38
282.588	344.38
282.819	345.38
283.051	343.38
283.282	325.38
283.513	341.38
283.745	319.38
283.976	339.38
284.207	338.38
284.439	325.38
284.67	343.38
284.901	340.38
285.132	340.38
285.364	335.38
285.595	341.38
285.826	346.38
286.057	328.38
286.288	330.38
286.52	335.38
286.751	352.38
286.982	337.38
287.213	340.38
287.444	342.38
287.675	328.38
287.906	362.38
288.138	356.38
288.369	345.38
288.6	357.38
288.831	351.38
289.062	339.38
289.293	363.38
289.524	346.38
289.755	361.38
289.986	371.38
290.217	341.38
290.448	357.38
290.679	348.38
290.91	342.38
291.141	361.38
291.371	352.38
291.602	376.38
291.833	337.38
292.064	357.38
292.295	361.38
292.526	353.38
292.757	377.38
292.987	359.38
293.218	344.38
293.449	345.38
293.68	361.38
293.91	359.38
294.141	358.38
294.372	349.38
294.603	362.38
294.833	345.38
295.064	347.38
295.295	380.38
295.525	342.38
295.756	355.38
295.987	359.38
296.217	380.38
296.448	380.38
296.679	385.38
296.909	375.38
297.14	390.38
297.37	377.38
297.601	379.38
297.831	369.38
298.062	390.38
298.292	390.38
298.523	409.38
298.753	399.38
298.984	384.38
299.214	379.38
299.445	390.38
299.675	399.38
299.905	395.38
300.136	382.38
300.366	369.38
300.597	378.38
300.827	405.38
301.057	409.38
301.288	416.38
301.518	414.38
301.748	389.38
301.979	402.38
302.209	427.38
302.439	421.38
302.669	417.38
302.9	412.38
303.13	404.38
303.36	422.38
303.59	419.38
303.82	404.38
304.051	413.38
304.281	401.38
304.511	404.38
304.741	408.38
304.971	410.38
305.201	409.38
305.431	409.38
305.661	397.38
305.891	383.38
306.121	417.38
306.352	404.38
306.582	394.38
306.812	388.38
307.042	420.38
307.272	386.38
307.502	403.38
307.731	388.38
307.961	378.38
308.191	413.38
308.421	411.38
308.651	403.38
308.881	401.38
309.111	402.38
309.341	398.38
309.571	422.38
309.8	426.38
310.03	412.38
310.26	436.38
310.49	421.38
310.72	432.38
310.949	450.38
311.179	436.38
311.409	416.38
311.639	452.38
311.868	425.38
312.098	448.38
312.328	444.38
312.557	454.38
312.787	465.38
313.017	460.38
313.246	461.38
313.476	454.38
313.706	447.38
313.935	439.38
314.165	448.38
314.394	472.38
314.624	458.38
314.853	440.38
315.083	460.38
315.312	442.38
315.542	432.38
315.771	450.38
316.001	438.38
316.23	454.38
316.46	447.38
316.689	423.38
316.919	445.38
317.148	454.38
317.377	452.38
317.607	461.38
317.836	450.38
318.065	454.38
318.295	459.38
318.524	455.38
318.753	454.38
318.983	443.38
319.212	418.38
319.441	462.38
319.67	464.38
319.9	472.38
320.129	469.38
320.358	438.38
320.587	444.38
320.816	454.38
321.046	445.38
321.275	430.38
321.504	477.38
321.733	467.38
321.962	452.38
322.191	465.38
322.42	456.38
322.649	483.38
322.878	469.38
323.108	473.38
323.337	488.38
323.566	508.38
323.795	525.38
324.024	527.38
324.253	616.38
324.482	780.38
324.71	1083.38
324.939	1542.38
325.168	1342.38
325.397	774.38
325.626	589.38
325.855	539.38
326.084	538.38
326.313	518.38
326.542	535.38
326.77	546.38
326.999	594.38
327.228	736.38
327.457	1025.38
327.686	1256.38
327.914	855.38
328.143	646.38
328.372	584.38
328.6	562.38
328.829	562.38
329.058	588.38
329.287	566.38
329.515	568.38
329.744	542.38
329.972	558.38
330.201	578.38
330.43	587.38
330.658	621.38
330.887	628.38
331.115	593.38
331.344	548.38
331.572	560.38
331.801	551.38
332.03	560.38
332.258	556.38
332.486	551.38
332.715	557.38
332.943	577.38
333.172	583.38
333.4	620.38
333.629	628.38
333.857	624.38
334.085	624.38
334.314	639.38
334.542	654.38
334.771	667.38
334.999	635.38
335.227	606.38
335.455	581.38
335.684	584.38
335.912	579.38
336.14	586.38
336.369	576.38
336.597	568.38
336.825	567.38
337.053	550.38
337.281	553.38
337.51	547.38
337.738	550.38
337.966	551.38
338.194	570.38
338.422	546.38
338.65	542.38
338.878	528.38
339.106	521.38
339.334	528.38
339.562	532.38
339.79	534.38
340.018	533.38
340.246	505.38
340.474	523.38
340.702	520.38
340.93	515.38
341.158	532.38
341.386	513.38
341.614	512.38
341.842	502.38
342.07	508.38
342.298	533.38
342.526	495.38
342.754	507.38
342.981	503.38
343.209	522.38
343.437	544.38
343.665	562.38
343.893	595.38
344.12	548.38
344.348	584.38
344.576	575.38
344.804	552.38
345.031	515.38
345.259	518.38
345.487	513.38
345.714	517.38
345.942	506.38
346.17	506.38
346.397	507.38
346.625	484.38
346.853	492.38
347.08	487.38
347.308	499.38
347.535	512.38
347.763	518.38
347.99	500.38
348.218	516.38
348.445	504.38
348.673	491.38
348.9	516.38
349.128	505.38
349.355	482.38
349.583	485.38
349.81	485.38
350.037	491.38
350.265	476.38
350.492	492.38
350.72	487.38
350.947	494.38
351.174	506.38
351.402	491.38
351.629	501.38
351.856	483.38
352.083	486.38
352.311	484.38
352.538	515.38
352.765	506.38
352.992	481.38
353.22	484.38
353.447	484.38
353.674	484.38
353.901	472.38
354.128	485.38
354.355	465.38
354.583	473.38
354.81	502.38
355.037	483.38
355.264	491.38
355.491	478.38
355.718	479.38
355.945	474.38
356.172	482.38
356.399	480.38
356.626	472.38
356.853	488.38
357.08	467.38
357.307	476.38
357.534	469.38
357.761	462.38
357.988	493.38
358.215	505.38
358.441	489.38
358.668	473.38
358.895	476.38
359.122	472.38
359.349	502.38
359.576	472.38
359.802	512.38
360.029	525.38
360.256	525.38
360.483	502.38
360.709	476.38
360.936	498.38
361.163	512.38
361.39	501.38
361.616	487.38
361.843	503.38
362.07	473.38
362.296	510.38
362.523	498.38
362.749	502.38
362.976	494.38
363.203	484.38
363.429	493.38
363.656	476.38
363.882	481.38
364.109	499.38
364.335	475.38
364.562	491.38
364.788	474.38
365.015	495.38
365.241	486.38
365.468	504.38
365.694	488.38
365.92	504.38
366.147	489.38
366.373	491.38
366.599	466.38
366.826	480.38
367.052	474.38
367.278	500.38
367.505	498.38
367.731	496.38
367.957	495.38
368.184	495.38
368.41	490.38
368.636	484.38
368.862	485.38
369.089	487.38
369.315	486.38
369.541	486.38
369.767	498.38
369.993	509.38
370.219	500.38
370.445	514.38
370.672	493.38
370.898	522.38
371.124	500.38
371.35	525.38
371.576	492.38
371.802	516.38
372.028	502.38
372.254	507.38
372.48	492.38
372.706	524.38
372.932	530.38
373.158	514.38
373.384	547.38
373.61	516.38
373.835	519.38
374.061	516.38
374.287	508.38
374.513	527.38
374.739	541.38
374.965	552.38
375.191	556.38
375.416	538.38
375.642	563.38
375.868	512.38
376.094	505.38
376.319	503.38
376.545	524.38
376.771	507.38
376.997	505.38
377.222	534.38
377.448	518.38
377.674	499.38
377.899	516.38
378.125	503.38
378.35	505.38
378.576	498.38
378.802	502.38
379.027	524.38
379.253	481.38
379.478	510.38
379.704	488.38
379.929	509.38
380.155	528.38
380.38	512.38
380.606	514.38
380.831	533.38
381.057	523.38
381.282	494.38
381.507	514.38
381.733	514.38
381.958	513.38
382.184	509.38
382.409	508.38
382.634	537.38
382.86	520.38
383.085	514.38
383.31	540.38
383.535	517.38
383.761	538.38
383.986	560.38
384.211	554.38
384.436	543.38
384.662	569.38
384.887	564.38
385.112	581.38
385.337	598.38
385.562	593.38
385.787	584.38
386.013	597.38
386.238	619.38
386.463	601.38
386.688	588.38
386.913	588.38
387.138	594.38
387.363	596.38
387.588	585.38
387.813	598.38
388.038	568.38
388.263	584.38
388.488	586.38
388.713	593.38
388.938	581.38
389.163	582.38
389.387	595.38
389.612	575.38
389.837	583.38
390.062	600.38
390.287	579.38
390.512	559.38
390.736	585.38
390.961	584.38
391.186	600.38
391.411	607.38
391.636	626.38
391.86	628.38
392.085	636.38
392.31	627.38
392.534	638.38
392.759	635.38
392.984	606.38
393.208	621.38
393.433	586.38
393.658	614.38
393.882	631.38
394.107	588.38
394.331	621.38
394.556	591.38
394.78	616.38
395.005	618.38
395.229	602.38
395.454	619.38
395.678	652.38
395.903	632.38
396.127	627.38
396.352	663.38
396.576	626.38
396.801	612.38
397.025	632.38
397.249	624.38
397.474	634.38
397.698	660.38
397.922	647.38
398.147	656.38
398.371	662.38
398.595	672.38
398.82	702.38
399.044	712.38
399.268	766.38
399.492	844.38
399.717	907.38
399.941	922.38
400.165	906.38
400.389	862.38
400.613	804.38
400.837	746.38
401.062	712.38
401.286	729.38
401.51	703.38
401.734	696.38
401.958	713.38
402.182	731.38
402.406	712.38
402.63	720.38
402.854	740.38
403.078	731.38
403.302	754.38
403.526	770.38
403.75	768.38
403.974	775.38
404.198	777.38
404.422	790.38
404.645	774.38
404.869	789.38
405.093	803.38
405.317	842.38
405.541	860.38
405.765	800.38
405.988	774.38
406.212	780.38
406.436	781.38
406.66	820.38
406.883	790.38
407.107	823.38
407.331	888.38
407.555	942.38
407.778	930.38
408.002	871.38
408.226	844.38
408.449	832.38
408.673	838.38
408.896	838.38
409.12	831.38
409.344	801.38
409.567	780.38
409.791	766.38
410.014	724.38
410.238	730.38
410.461	758.38
410.685	750.38
410.908	757.38
411.132	767.38
411.355	790.38
411.578	759.38
411.802	732.38
412.025	726.38
412.249	750.38
412.472	765.38
412.695	786.38
412.919	752.38
413.142	753.38
413.365	714.38
413.589	716.38
413.812	717.38
414.035	705.38
414.258	692.38
414.482	675.38
414.705	706.38
414.928	706.38
415.151	709.38
415.374	699.38
415.597	714.38
415.821	701.38
416.044	690.38
416.267	668.38
416.49	700.38
416.713	672.38
416.936	668.38
417.159	688.38
417.382	676.38
417.605	689.38
417.828	694.38
418.051	737.38
418.274	714.38
418.497	698.38
418.72	701.38
418.943	709.38
419.166	708.38
419.389	770.38
419.611	744.38
419.834	720.38
420.057	729.38
420.28	696.38
420.503	700.38
420.726	724.38
420.948	721.38
421.171	709.38
421.394	746.38
421.617	713.38
421.839	701.38
422.062	709.38
422.285	689.38
422.507	755.38
422.73	810.38
422.953	802.38
423.175	741.38
423.398	743.38
423.621	727.38
423.843	769.38
424.066	774.38
424.288	759.38
424.511	775.38
424.733	793.38
424.956	846.38
425.178	816.38
425.401	817.38
425.623	824.38
425.846	742.38
426.068	737.38
426.291	726.38
426.513	714.38
426.735	707.38
426.958	720.38
427.18	786.38
427.402	906.38
427.625	921.38
427.847	838.38
428.069	772.38
428.292	726.38
428.514	681.38
428.736	664.38
428.958	662.38
429.181	647.38
429.403	662.38
429.625	642.38
429.847	677.38
430.069	729.38
430.292	719.38
430.514	660.38
430.736	675.38
430.958	633.38
431.18	632.38
431.402	622.38
431.624	619.38
431.846	647.38
432.068	650.38
432.29	654.38
432.512	633.38
432.734	641.38
432.956	619.38
433.178	636.38
433.4	655.38
433.622	652.38
433.844	651.38
434.066	645.38
434.287	668.38
434.509	638.38
434.731	685.38
434.953	674.38
435.175	743.38
435.397	734.38
435.618	739.38
435.84	730.38
436.062	805.38
436.284	814.38
436.505	739.38
436.727	685.38
436.949	648.38
437.17	636.38
437.392	646.38
437.614	676.38
437.835	693.38
438.057	752.38
438.278	780.38
438.5	785.38
438.721	873.38
438.943	856.38
439.165	720.38
439.386	699.38
439.608	714.38
439.829	701.38
440.05	700.38
440.272	736.38
440.493	704.38
440.715	704.38
440.936	691.38
441.158	681.38
441.379	667.38
441.6	699.38
441.822	721.38
442.043	739.38
442.264	764.38
442.486	819.38
442.707	747.38
442.928	716.38
443.149	741.38
443.371	755.38
443.592	791.38
443.813	846.38
444.034	916.38
444.255	788.38
444.476	762.38
444.698	788.38
444.919	812.38
445.14	908.38
445.361	837.38
445.582	762.38
445.803	773.38
446.024	873.38
446.245	866.38
446.466	778.38
446.687	721.38
446.908	680.38
447.129	669.38
447.35	631.38
447.571	636.38
447.792	638.38
448.013	628.38
448.234	653.38
448.455	667.38
448.675	749.38
448.896	850.38
449.117	719.38
449.338	732.38
449.559	786.38
449.779	867.38
450	743.38
450.221	664.38
450.442	621.38
450.662	599.38
450.883	621.38
451.104	622.38
451.324	612.38
451.545	630.38
451.766	613.38
451.986	591.38
452.207	605.38
452.428	584.38
452.648	573.38
452.869	600.38
453.089	586.38
453.31	598.38
453.53	568.38
453.751	580.38
453.971	592.38
454.192	579.38
454.412	574.38
454.633	579.38
454.853	572.38
455.073	593.38
455.294	592.38
455.514	620.38
455.734	625.38
455.955	574.38
456.175	551.38
456.395	568.38
456.616	550.38
456.836	563.38
457.056	549.38
457.276	519.38
457.497	549.38
457.717	539.38
457.937	577.38
458.157	584.38
458.377	588.38
458.598	591.38
458.818	648.38
459.038	699.38
459.258	721.38
459.478	675.38
459.698	659.38
459.918	661.38
460.138	705.38
460.358	703.38
460.578	714.38
460.798	728.38
461.018	742.38
461.238	682.38
461.458	689.38
461.678	710.38
461.898	716.38
462.118	709.38
462.338	747.38
462.558	750.38
462.777	783.38
462.997	792.38
463.217	841.38
463.437	869.38
463.657	805.38
463.876	772.38
464.096	795.38
464.316	789.38
464.536	806.38
464.755	756.38
464.975	752.38
465.195	756.38
465.414	743.38
465.634	698.38
465.854	681.38
466.073	645.38
466.293	647.38
466.512	636.38
466.732	642.38
466.951	600.38
467.171	622.38
467.391	586.38
467.61	615.38
467.829	622.38
468.049	618.38
468.268	618.38
468.488	581.38
468.707	600.38
468.927	584.38
469.146	587.38
469.365	590.38
469.585	611.38
469.804	608.38
470.023	630.38
470.243	642.38
470.462	635.38
470.681	659.38
470.901	660.38
471.12	646.38
471.339	610.38
471.558	604.38
471.777	639.38
471.997	604.38
472.216	608.38
472.435	637.38
472.654	633.38
472.873	605.38
473.092	591.38
473.311	609.38
473.53	607.38
473.749	594.38
473.968	629.38
474.187	694.38
474.406	708.38
474.625	654.38
474.844	599.38
475.063	632.38
475.282	608.38
475.501	611.38
475.72	612.38
475.939	622.38
476.158	624.38
476.377	624.38
476.596	621.38
476.814	657.38
477.033	658.38
477.252	625.38
477.471	645.38
477.69	661.38
477.908	693.38
478.127	691.38
478.346	720.38
478.564	716.38
478.783	700.38
479.002	737.38
479.22	729.38
479.439	736.38
479.658	787.38
479.876	773.38
480.095	765.38
480.313	780.38
480.532	805.38
480.751	782.38
480.969	800.38
481.188	804.38
481.406	820.38
481.624	765.38
481.843	733.38
482.061	742.38
482.28	698.38
482.498	688.38
482.717	717.38
482.935	677.38
483.153	699.38
483.372	678.38
483.59	720.38
483.808	709.38
484.027	700.38
484.245	690.38
484.463	705.38
484.681	716.38
484.9	722.38
485.118	731.38
485.336	726.38
485.554	729.38
485.772	734.38
485.99	719.38
486.209	735.38
486.427	742.38
486.645	753.38
486.863	752.38
487.081	757.38
487.299	746.38
487.517	772.38
487.735	766.38
487.953	781.38
488.171	754.38
488.389	738.38
488.607	760.38
488.825	738.38
489.043	725.38
489.261	736.38
489.479	781.38
489.696	761.38
489.914	744.38
490.132	767.38
490.35	792.38
490.568	795.38
490.786	807.38
491.003	793.38
491.221	822.38
491.439	841.38
491.657	802.38
491.874	819.38
492.092	826.38
492.31	865.38
492.527	881.38
492.745	857.38
492.963	842.38
493.18	851.38
493.398	864.38
493.615	852.38
493.833	859.38
494.05	856.38
494.268	858.38
494.485	878.38
494.703	880.38
494.92	878.38
495.138	874.38
495.355	899.38
495.573	862.38
495.79	876.38
496.008	884.38
496.225	864.38
496.442	880.38
496.66	916.38
496.877	931.38
497.094	921.38
497.312	922.38
497.529	925.38
497.746	973.38
497.963	996.38
498.181	1032.38
498.398	1036.38
498.615	1062.38
498.832	1105.38
499.049	1175.38
499.267	1209.38
499.484	1282.38
499.701	1355.38
499.918	1453.38
500.135	1600.38
500.352	1723.38
500.569	1811.38
500.786	1832.38
501.003	1792.38
501.22	1594.38
501.437	1484.38
501.654	1415.38
501.871	1315.38
502.088	1259.38
502.305	1139.38
502.522	1136.38
502.739	1090.38
502.956	1040.38
503.172	997.38
503.389	963.38
503.606	964.38
503.823	948.38
504.04	953.38
504.256	933.38
504.473	927.38
504.69	972.38
504.907	963.38
505.123	936.38
505.34	867.38
505.557	857.38
505.773	860.38
505.99	825.38
506.207	822.38
506.423	844.38
506.64	799.38
506.856	809.38
507.073	816.38
507.289	800.38
507.506	796.38
507.722	795.38
507.939	824.38
508.155	760.38
508.372	752.38
508.588	765.38
508.805	749.38
509.021	720.38
509.238	774.38
509.454	759.38
509.67	778.38
509.887	733.38
510.103	744.38
510.319	747.38
510.536	816.38
510.752	1147.38
510.968	990.38
511.184	746.38
511.401	713.38
511.617	706.38
511.833	706.38
512.049	720.38
512.265	726.38
512.481	724.38
512.698	733.38
512.914	705.38
513.13	711.38
513.346	724.38
513.562	726.38
513.778	723.38
513.994	722.38
514.21	733.38
514.426	712.38
514.642	760.38
514.858	749.38
515.074	805.38
515.29	855.38
515.506	1142.38
515.721	1031.38
515.937	828.38
516.153	778.38
516.369	765.38
516.585	811.38
516.801	786.38
517.016	825.38
517.232	849.38
517.448	860.38
517.664	893.38
517.879	836.38
518.095	892.38
518.311	853.38
518.527	868.38
518.742	862.38
518.958	801.38
519.173	792.38
519.389	773.38
519.605	776.38
519.82	738.38
520.036	745.38
520.251	747.38
520.467	781.38
520.682	757.38
520.898	737.38
521.113	743.38
521.329	757.38
521.544	814.38
521.76	907.38
521.975	1311.38
522.19	1401.38
522.406	886.38
522.621	775.38
522.836	684.38
523.052	663.38
523.267	666.38
523.482	666.38
523.698	628.38
523.913	644.38
524.128	662.38
524.343	670.38
524.559	640.38
524.774	630.38
524.989	644.38
525.204	652.38
525.419	648.38
525.634	619.38
525.849	646.38
526.064	607.38
526.28	649.38
526.495	621.38
526.71	640.38
526.925	616.38
527.14	634.38
527.355	604.38
527.57	616.38
527.785	609.38
527.999	620.38
528.214	634.38
528.429	598.38
528.644	609.38
528.859	634.38
529.074	611.38
529.289	615.38
529.503	699.38
529.718	654.38
529.933	615.38
530.148	630.38
530.363	624.38
530.577	626.38
530.792	626.38
531.007	604.38
531.221	618.38
531.436	608.38
531.651	599.38
531.865	632.38
532.08	596.38
532.295	610.38
532.509	616.38
532.724	587.38
532.938	589.38
533.153	597.38
533.367	609.38
533.582	613.38
533.796	596.38
534.011	587.38
534.225	597.38
534.44	582.38
534.654	602.38
534.868	592.38
535.083	587.38
535.297	587.38
535.511	587.38
535.726	592.38
535.94	586.38
536.154	576.38
536.369	574.38
536.583	564.38
536.797	570.38
537.011	591.38
537.225	581.38
537.44	565.38
537.654	566.38
537.868	555.38
538.082	546.38
538.296	583.38
538.51	566.38
538.724	556.38
538.938	551.38
539.153	562.38
539.367	568.38
539.581	581.38
539.795	574.38
540.009	572.38
540.222	578.38
540.436	568.38
540.65	564.38
540.864	581.38
541.078	570.38
541.292	576.38
541.506	579.38
541.72	553.38
541.934	560.38
542.147	571.38
542.361	567.38
542.575	579.38
542.789	577.38
543.002	572.38
543.216	580.38
543.43	586.38
543.644	540.38
543.857	562.38
544.071	578.38
544.285	594.38
544.498	566.38
544.712	600.38
544.925	578.38
545.139	597.38
545.352	564.38
545.566	568.38
545.779	590.38
545.993	574.38
546.206	587.38
546.42	562.38
546.633	578.38
546.847	570.38
547.06	524.38
547.274	545.38
547.487	539.38
547.7	562.38
547.914	547.38
548.127	568.38
548.34	544.38
548.554	559.38
548.767	555.38
548.98	562.38
549.193	559.38
549.407	582.38
549.62	572.38
549.833	566.38
550.046	576.38
550.259	574.38
550.473	553.38
550.686	558.38
550.899	554.38
551.112	558.38
551.325	553.38
551.538	544.38
551.751	584.38
551.964	574.38
552.177	574.38
552.39	555.38
552.603	576.38
552.816	597.38
553.029	598.38
553.242	596.38
553.455	617.38
553.667	649.38
553.88	641.38
554.093	622.38
554.306	609.38
554.519	557.38
554.732	568.38
554.944	549.38
555.157	565.38
555.37	545.38
555.583	549.38
555.795	532.38
556.008	544.38
556.221	535.38
556.433	505.38
556.646	525.38
556.859	521.38
557.071	518.38
557.284	514.38
557.496	521.38
557.709	509.38
557.921	499.38
558.134	503.38
558.346	478.38
558.559	496.38
558.771	479.38
558.984	518.38
559.196	483.38
559.409	477.38
559.621	483.38
559.833	486.38
560.046	490.38
560.258	510.38
560.47	482.38
560.683	473.38
560.895	490.38
561.107	494.38
561.32	500.38
561.532	480.38
561.744	489.38
561.956	494.38
562.168	511.38
562.381	525.38
562.593	476.38
562.805	500.38
563.017	520.38
563.229	481.38
563.441	501.38
563.653	512.38
563.865	500.38
564.077	510.38
564.289	520.38
564.501	514.38
564.713	525.38
564.925	531.38
565.137	544.38
565.349	542.38
565.561	571.38
565.773	566.38
565.985	601.38
566.197	611.38
566.408	664.38
566.62	704.38
566.832	697.38
567.044	732.38
567.255	732.38
567.467	748.38
567.679	777.38
567.891	808.38
568.102	845.38
568.314	780.38
568.526	755.38
568.737	722.38
568.949	648.38
569.161	612.38
569.372	590.38
569.584	566.38
569.795	555.38
570.007	547.38
570.218	543.38
570.43	545.38
570.641	537.38
570.853	530.38
571.064	514.38
571.276	521.38
571.487	503.38
571.698	498.38
571.91	467.38
572.121	483.38
572.333	481.38
572.544	459.38
572.755	450.38
572.966	430.38
573.178	466.38
573.389	434.38
573.6	452.38
573.811	450.38
574.023	420.38
574.234	458.38
574.445	432.38
574.656	430.38
574.867	434.38
575.078	436.38
575.289	432.38
575.501	434.38
575.712	421.38
575.923	421.38
576.134	413.38
576.345	414.38
576.556	422.38
576.767	439.38
576.978	418.38
577.188	408.38
577.399	402.38
577.61	392.38
577.821	389.38
578.032	398.38
578.243	413.38
578.454	557.38
578.665	481.38
578.875	394.38
579.086	394.38
579.297	396.38
579.508	388.38
579.718	394.38
579.929	380.38
580.14	380.38
580.35	372.38
580.561	374.38
580.772	402.38
580.982	385.38
581.193	375.38
581.403	375.38
581.614	379.38
581.825	373.38
582.035	379.38
582.246	380.38
582.456	373.38
582.667	383.38
582.877	381.38
583.087	380.38
583.298	375.38
583.508	406.38
583.719	387.38
583.929	374.38
584.139	346.38
584.35	374.38
584.56	380.38
584.77	374.38
584.981	364.38
585.191	376.38
585.401	372.38
585.611	381.38
585.821	371.38
586.032	389.38
586.242	376.38
586.452	380.38
586.662	368.38
586.872	355.38
587.082	373.38
587.292	376.38
587.502	377.38
587.713	377.38
587.923	363.38
588.133	366.38
588.343	380.38
588.553	357.38
588.762	364.38
588.972	382.38
589.182	374.38
589.392	369.38
589.602	366.38
589.812	371.38
590.022	361.38
590.232	374.38
590.441	354.38
590.651	356.38
590.861	388.38
591.071	386.38
591.281	382.38
591.49	380.38
591.7	376.38
591.91	399.38
592.119	381.38
592.329	400.38
592.539	405.38
592.748	444.38
592.958	432.38
593.167	427.38
593.377	445.38
593.587	467.38
593.796	425.38
594.006	450.38
594.215	452.38
594.424	451.38
594.634	452.38
594.843	422.38
595.053	415.38
595.262	399.38
595.472	422.38
595.681	384.38
595.89	378.38
596.1	381.38
596.309	345.38
596.518	363.38
596.727	354.38
596.937	380.38
597.146	344.38
597.355	354.38
597.564	349.38
597.774	342.38
597.983	340.38
598.192	326.38
598.401	337.38
598.61	321.38
598.819	326.38
599.028	339.38
599.237	336.38
599.446	319.38
599.655	327.38
599.864	333.38
600.073	319.38
600.282	317.38
600.491	322.38
600.7	302.38
600.909	332.38
601.118	322.38
601.327	329.38
601.536	326.38
601.745	327.38
601.953	325.38
602.162	321.38
602.371	321.38
602.58	294.38
602.789	310.38
602.997	308.38
603.206	312.38
603.415	323.38
603.623	328.38
603.832	306.38
604.041	307.38
604.249	303.38
604.458	305.38
604.666	280.38
604.875	290.38
605.084	295.38
605.292	298.38
605.501	304.38
605.709	298.38
605.918	300.38
606.126	280.38
606.334	285.38
606.543	315.38
606.751	288.38
606.96	283.38
607.168	293.38
607.376	284.38
607.585	276.38
607.793	293.38
608.001	287.38
608.21	304.38
608.418	294.38
608.626	298.38
608.834	304.38
609.043	285.38
609.251	288.38
609.459	293.38
609.667	298.38
609.875	282.38
610.083	289.38
610.291	292.38
610.499	295.38
610.707	286.38
610.916	295.38
611.124	301.38
611.332	300.38
611.54	297.38
611.748	311.38
611.955	290.38
612.163	288.38
612.371	281.38
612.579	300.38
612.787	284.38
612.995	268.38
613.203	292.38
613.411	285.38
613.618	278.38
613.826	291.38
614.034	308.38
614.242	287.38
614.449	296.38
614.657	295.38
614.865	286.38
615.072	269.38
615.28	285.38
615.488	284.38
615.695	277.38
615.903	286.38
616.111	291.38
616.318	290.38
616.526	298.38
616.733	286.38
616.941	284.38
617.148	309.38
617.356	278.38
617.563	301.38
617.771	291.38
617.978	278.38
618.185	285.38
618.393	264.38
618.6	281.38
618.807	276.38
619.015	282.38
619.222	274.38
619.429	268.38
619.637	277.38
619.844	282.38
620.051	268.38
620.258	270.38
620.466	263.38
620.673	270.38
620.88	277.38
621.087	261.38
621.294	276.38
621.501	276.38
621.708	266.38
621.915	271.38
622.122	263.38
622.329	251.38
622.536	254.38
622.743	270.38
622.95	277.38
623.157	261.38
623.364	248.38
623.571	273.38
623.778	244.38
623.985	264.38
624.192	261.38
624.399	256.38
624.606	260.38
624.812	244.38
625.019	261.38
625.226	267.38
625.433	260.38
625.639	242.38
625.846	250.38
626.053	244.38
626.259	254.38
626.466	259.38
626.673	258.38
626.879	249.38
627.086	229.38
627.293	244.38
627.499	252.38
627.706	248.38
627.912	229.38
628.119	240.38
628.325	244.38
628.532	243.38
628.738	238.38
628.945	246.38
629.151	225.38
629.357	242.38
629.564	252.38
629.77	238.38
629.976	220.38
630.183	243.38
630.389	232.38
630.595	223.38
630.802	226.38
631.008	226.38
631.214	230.38
631.42	232.38
631.627	218.38
631.833	218.38
632.039	216.38
632.245	233.38
632.451	233.38
632.657	220.38
632.863	224.38
633.069	226.38
633.275	227.38
633.481	210.38
633.688	233.38
633.893	216.38
634.099	226.38
634.305	218.38
634.511	216.38
634.717	223.38
634.923	218.38
635.129	196.38
635.335	226.38
635.541	214.38
635.747	236.38
635.952	219.38
636.158	196.38
636.364	211.38
636.57	221.38
636.775	224.38
636.981	209.38
637.187	197.38
637.392	211.38
637.598	210.38
637.804	207.38
638.009	215.38
638.215	220.38
638.421	204.38
638.626	197.38
638.832	195.38
639.037	196.38
639.243	204.38
639.448	217.38
639.654	210.38
639.859	196.38
640.065	202.38
640.27	213.38
640.475	208.38
640.681	208.38
640.886	195.38
641.091	209.38
641.297	206.38
641.502	190.38
641.707	196.38
641.913	214.38
642.118	216.38
642.323	189.38
642.528	198.38
642.733	191.38
642.939	199.38
643.144	209.38
643.349	195.38
643.554	190.38
643.759	198.38
643.964	192.38
644.169	183.38
644.374	187.38
644.579	181.38
644.784	194.38
644.989	189.38
645.194	195.38
645.399	206.38
645.604	181.38
645.809	185.38
646.014	204.38
646.219	195.38
646.423	193.38
646.628	193.38
646.833	199.38
647.038	206.38
647.243	197.38
647.447	179.38
647.652	193.38
647.857	204.38
648.062	210.38
648.266	198.38
648.471	204.38
648.676	192.38
648.88	217.38
649.085	192.38
649.289	206.38
649.494	211.38
649.698	221.38
649.903	202.38
650.107	189.38
650.312	188.38
650.516	185.38
650.721	167.38
650.925	178.38
651.13	175.38
651.334	170.38
651.539	172.38
651.743	165.38
651.947	167.38
652.152	168.38
652.356	180.38
652.56	184.38
652.764	147.38
652.969	170.38
653.173	157.38
653.377	151.38
653.581	160.38
653.785	162.38
653.99	155.38
654.194	147.38
654.398	157.38
654.602	156.38
654.806	160.38
655.01	154.38
655.214	148.38
655.418	143.38
655.622	143.38
655.826	154.38
656.03	165.38
656.234	149.38
656.438	166.38
656.642	164.38
656.846	149.38
657.049	140.38
657.253	153.38
657.457	129.38
657.661	125.38
657.865	132.38
658.068	117.38
658.272	118.38
658.476	125.38
658.68	116.38
658.883	118.38
659.087	126.38
659.291	101.38
659.494	113.38
659.698	116.38
659.901	105.38
660.105	122.38
660.309	103.38
660.512	114.38
660.716	113.38
660.919	92.38
661.123	103.38
661.326	95.38
661.53	92.38
661.733	91.38
661.936	78.38
662.14	84.38
662.343	97.38
662.546	86.38
662.75	88.38
662.953	81.38
663.156	78.38
663.36	88.38
663.563	86.38
663.766	89.38
663.969	88.38
664.173	89.38
664.376	97.38
664.579	82.38
664.782	79.38
664.985	92.38
665.188	88.38
665.391	89.38
665.594	80.38
665.797	85.38
666	78.38
666.203	93.38
666.406	80.38
666.609	90.38
666.812	92.38
667.015	74.38
667.218	76.38
667.421	82.38
667.624	91.38
667.827	76.38
668.03	84.38
668.232	95.38
668.435	62.38
668.638	83.38
668.841	86.38
669.043	78.38
669.246	85.38
669.449	81.38
669.651	85.38
669.854	61.38
670.057	68.38
670.259	82.38
670.462	94.38
670.665	73.38
670.867	83.38
671.07	78.38
671.272	89.38
671.475	69.38
671.677	83.38
671.88	64.38
672.082	74.38
672.284	79.38
672.487	80.38
672.689	81.38
672.892	73.38
