Data from 1963.PennyLincolnUp.Lamp.En5.5.200Scan.071719.P1._HRD10591_13-58-30-064.txt Node
Date: Thu Jul 18 13:58:30 EDT 2019
User: cochatt
Spectrometer: HR+D1059
Trigger mode: 1
Integration Time (sec): 1.000000E-1
Scans to average: 1
Electric dark correction enabled: true
Nonlinearity correction enabled: false
Boxcar width: 0
XAxis mode: Wavelengths
Number of Pixels in Spectrum: 2048
>>>>>Begin Spectral Data<<<<<
223.165	-11.25
223.4	-11.25
223.635	-11.25
223.869	-10.25
224.104	-18.25
224.338	-11.25
224.573	-2.25
224.808	-17.25
225.042	-6.25
225.277	-4.25
225.511	-14.25
225.746	-10.25
225.98	-6.25
226.215	11.75
226.449	10.75
226.683	22.75
226.918	40.75
227.152	25.75
227.387	27.75
227.621	39.75
227.856	42.75
228.09	39.75
228.324	74.75
228.559	50.75
228.793	63.75
229.027	100.75
229.262	106.75
229.496	98.75
229.73	130.75
229.964	147.75
230.199	122.75
230.433	115.75
230.667	113.75
230.901	117.75
231.136	113.75
231.37	107.75
231.604	119.75
231.838	114.75
232.072	130.75
232.306	127.75
232.541	110.75
232.775	100.75
233.009	121.75
233.243	115.75
233.477	114.75
233.711	119.75
233.945	117.75
234.179	125.75
234.413	121.75
234.647	119.75
234.881	100.75
235.115	121.75
235.349	131.75
235.583	121.75
235.817	125.75
236.051	130.75
236.285	133.75
236.519	147.75
236.753	121.75
236.987	152.75
237.221	150.75
237.455	198.75
237.689	171.75
237.922	159.75
238.156	131.75
238.39	133.75
238.624	145.75
238.858	145.75
239.091	150.75
239.325	125.75
239.559	137.75
239.793	146.75
240.027	150.75
240.26	130.75
240.494	157.75
240.728	150.75
240.961	139.75
241.195	163.75
241.429	146.75
241.662	161.75
241.896	141.75
242.13	134.75
242.363	140.75
242.597	141.75
242.83	156.75
243.064	151.75
243.298	163.75
243.531	159.75
243.765	147.75
243.998	163.75
244.232	164.75
244.465	161.75
244.699	146.75
244.932	155.75
245.166	147.75
245.399	170.75
245.633	181.75
245.866	141.75
246.099	146.75
246.333	185.75
246.566	169.75
246.8	176.75
247.033	174.75
247.266	159.75
247.5	183.75
247.733	181.75
247.966	177.75
248.2	171.75
248.433	194.75
248.666	172.75
248.899	185.75
249.133	213.75
249.366	222.75
249.599	210.75
249.832	205.75
250.066	200.75
250.299	189.75
250.532	195.75
250.765	214.75
250.998	214.75
251.231	236.75
251.465	213.75
251.698	213.75
251.931	207.75
252.164	196.75
252.397	220.75
252.63	211.75
252.863	213.75
253.096	226.75
253.329	246.75
253.562	233.75
253.795	215.75
254.028	222.75
254.261	226.75
254.494	241.75
254.727	260.75
254.96	277.75
255.193	257.75
255.426	237.75
255.659	243.75
255.892	253.75
256.124	230.75
256.357	254.75
256.59	234.75
256.823	231.75
257.056	216.75
257.289	221.75
257.521	220.75
257.754	230.75
257.987	236.75
258.22	224.75
258.452	221.75
258.685	229.75
258.918	226.75
259.151	228.75
259.383	235.75
259.616	239.75
259.849	230.75
260.081	252.75
260.314	246.75
260.547	273.75
260.779	257.75
261.012	245.75
261.244	239.75
261.477	252.75
261.71	245.75
261.942	238.75
262.175	246.75
262.407	251.75
262.64	232.75
262.872	218.75
263.105	231.75
263.337	226.75
263.57	253.75
263.802	246.75
264.035	257.75
264.267	237.75
264.499	245.75
264.732	246.75
264.964	237.75
265.197	226.75
265.429	249.75
265.661	254.75
265.894	254.75
266.126	253.75
266.358	216.75
266.591	258.75
266.823	256.75
267.055	253.75
267.287	271.75
267.52	244.75
267.752	254.75
267.984	261.75
268.216	249.75
268.448	268.75
268.681	257.75
268.913	249.75
269.145	273.75
269.377	279.75
269.609	283.75
269.841	284.75
270.073	295.75
270.306	291.75
270.538	340.75
270.77	329.75
271.002	331.75
271.234	323.75
271.466	331.75
271.698	344.75
271.93	337.75
272.162	307.75
272.394	330.75
272.626	316.75
272.858	316.75
273.09	305.75
273.322	297.75
273.553	290.75
273.785	264.75
274.017	264.75
274.249	307.75
274.481	279.75
274.713	289.75
274.945	298.75
275.176	306.75
275.408	302.75
275.64	308.75
275.872	309.75
276.104	308.75
276.335	279.75
276.567	305.75
276.799	330.75
277.031	332.75
277.262	343.75
277.494	355.75
277.726	326.75
277.957	334.75
278.189	309.75
278.421	316.75
278.652	314.75
278.884	307.75
279.115	330.75
279.347	309.75
279.579	300.75
279.81	318.75
280.042	313.75
280.273	309.75
280.505	329.75
280.736	321.75
280.968	318.75
281.199	327.75
281.431	324.75
281.662	333.75
281.894	332.75
282.125	310.75
282.356	321.75
282.588	332.75
282.819	355.75
283.051	325.75
283.282	335.75
283.513	338.75
283.745	320.75
283.976	331.75
284.207	342.75
284.439	329.75
284.67	343.75
284.901	336.75
285.132	330.75
285.364	343.75
285.595	323.75
285.826	339.75
286.057	334.75
286.288	328.75
286.52	359.75
286.751	351.75
286.982	359.75
287.213	358.75
287.444	361.75
287.675	345.75
287.906	347.75
288.138	354.75
288.369	363.75
288.6	360.75
288.831	341.75
289.062	330.75
289.293	353.75
289.524	341.75
289.755	371.75
289.986	340.75
290.217	355.75
290.448	364.75
290.679	372.75
290.91	353.75
291.141	343.75
291.371	359.75
291.602	365.75
291.833	363.75
292.064	354.75
292.295	334.75
292.526	365.75
292.757	355.75
292.987	356.75
293.218	369.75
293.449	353.75
293.68	361.75
293.91	372.75
294.141	377.75
294.372	356.75
294.603	356.75
294.833	359.75
295.064	345.75
295.295	351.75
295.525	363.75
295.756	361.75
295.987	372.75
296.217	374.75
296.448	405.75
296.679	395.75
296.909	383.75
297.14	380.75
297.37	377.75
297.601	376.75
297.831	371.75
298.062	389.75
298.292	380.75
298.523	372.75
298.753	373.75
298.984	392.75
299.214	392.75
299.445	365.75
299.675	397.75
299.905	386.75
300.136	379.75
300.366	394.75
300.597	384.75
300.827	382.75
301.057	403.75
301.288	419.75
301.518	404.75
301.748	418.75
301.979	408.75
302.209	422.75
302.439	423.75
302.669	396.75
302.9	380.75
303.13	398.75
303.36	406.75
303.59	420.75
303.82	412.75
304.051	428.75
304.281	409.75
304.511	411.75
304.741	413.75
304.971	401.75
305.201	414.75
305.431	397.75
305.661	410.75
305.891	426.75
306.121	413.75
306.352	408.75
306.582	406.75
306.812	393.75
307.042	426.75
307.272	401.75
307.502	385.75
307.731	408.75
307.961	415.75
308.191	403.75
308.421	392.75
308.651	417.75
308.881	403.75
309.111	422.75
309.341	406.75
309.571	408.75
309.8	405.75
310.03	435.75
310.26	443.75
310.49	421.75
310.72	427.75
310.949	447.75
311.179	459.75
311.409	437.75
311.639	430.75
311.868	458.75
312.098	449.75
312.328	467.75
312.557	430.75
312.787	470.75
313.017	473.75
313.246	445.75
313.476	447.75
313.706	454.75
313.935	462.75
314.165	448.75
314.394	449.75
314.624	456.75
314.853	461.75
315.083	460.75
315.312	452.75
315.542	441.75
315.771	446.75
316.001	457.75
316.23	453.75
316.46	443.75
316.689	443.75
316.919	449.75
317.148	453.75
317.377	471.75
317.607	450.75
317.836	447.75
318.065	449.75
318.295	437.75
318.524	466.75
318.753	430.75
318.983	471.75
319.212	444.75
319.441	443.75
319.67	463.75
319.9	440.75
320.129	460.75
320.358	462.75
320.587	446.75
320.816	444.75
321.046	483.75
321.275	474.75
321.504	465.75
321.733	466.75
321.962	486.75
322.191	477.75
322.42	476.75
322.649	476.75
322.878	483.75
323.108	485.75
323.337	507.75
323.566	510.75
323.795	526.75
324.024	574.75
324.253	643.75
324.482	795.75
324.71	1144.75
324.939	1626.75
325.168	1436.75
325.397	797.75
325.626	613.75
325.855	556.75
326.084	553.75
326.313	536.75
326.542	526.75
326.77	569.75
326.999	610.75
327.228	789.75
327.457	1061.75
327.686	1269.75
327.914	906.75
328.143	647.75
328.372	618.75
328.6	596.75
328.829	569.75
329.058	569.75
329.287	584.75
329.515	550.75
329.744	559.75
329.972	541.75
330.201	583.75
330.43	585.75
330.658	597.75
330.887	617.75
331.115	609.75
331.344	568.75
331.572	542.75
331.801	559.75
332.03	573.75
332.258	569.75
332.486	564.75
332.715	562.75
332.943	599.75
333.172	591.75
333.4	606.75
333.629	610.75
333.857	639.75
334.085	639.75
334.314	642.75
334.542	653.75
334.771	666.75
334.999	606.75
335.227	610.75
335.455	561.75
335.684	587.75
335.912	588.75
336.14	571.75
336.369	586.75
336.597	553.75
336.825	547.75
337.053	566.75
337.281	578.75
337.51	537.75
337.738	569.75
337.966	563.75
338.194	533.75
338.422	558.75
338.65	537.75
338.878	528.75
339.106	529.75
339.334	542.75
339.562	542.75
339.79	542.75
340.018	536.75
340.246	523.75
340.474	559.75
340.702	537.75
340.93	509.75
341.158	507.75
341.386	524.75
341.614	526.75
341.842	531.75
342.07	550.75
342.298	520.75
342.526	516.75
342.754	493.75
342.981	510.75
343.209	513.75
343.437	511.75
343.665	553.75
343.893	565.75
344.12	584.75
344.348	576.75
344.576	554.75
344.804	553.75
345.031	544.75
345.259	562.75
345.487	529.75
345.714	520.75
345.942	513.75
346.17	522.75
346.397	504.75
346.625	509.75
346.853	501.75
347.08	488.75
347.308	520.75
347.535	518.75
347.763	515.75
347.99	508.75
348.218	504.75
348.445	523.75
348.673	513.75
348.9	506.75
349.128	487.75
349.355	488.75
349.583	477.75
349.81	488.75
350.037	471.75
350.265	490.75
350.492	513.75
350.72	493.75
350.947	509.75
351.174	500.75
351.402	514.75
351.629	501.75
351.856	497.75
352.083	513.75
352.311	504.75
352.538	509.75
352.765	522.75
352.992	502.75
353.22	511.75
353.447	494.75
353.674	491.75
353.901	472.75
354.128	489.75
354.355	492.75
354.583	476.75
354.81	483.75
355.037	475.75
355.264	482.75
355.491	479.75
355.718	469.75
355.945	462.75
356.172	484.75
356.399	460.75
356.626	473.75
356.853	487.75
357.08	490.75
357.307	485.75
357.534	469.75
357.761	483.75
357.988	480.75
358.215	480.75
358.441	471.75
358.668	491.75
358.895	500.75
359.122	479.75
359.349	488.75
359.576	511.75
359.802	511.75
360.029	526.75
360.256	526.75
360.483	503.75
360.709	489.75
360.936	513.75
361.163	486.75
361.39	489.75
361.616	507.75
361.843	503.75
362.07	466.75
362.296	502.75
362.523	486.75
362.749	505.75
362.976	472.75
363.203	496.75
363.429	483.75
363.656	485.75
363.882	477.75
364.109	503.75
364.335	498.75
364.562	482.75
364.788	485.75
365.015	483.75
365.241	478.75
365.468	508.75
365.694	508.75
365.92	499.75
366.147	483.75
366.373	480.75
366.599	485.75
366.826	469.75
367.052	462.75
367.278	483.75
367.505	490.75
367.731	502.75
367.957	474.75
368.184	503.75
368.41	525.75
368.636	498.75
368.862	516.75
369.089	500.75
369.315	482.75
369.541	509.75
369.767	506.75
369.993	493.75
370.219	499.75
370.445	497.75
370.672	505.75
370.898	508.75
371.124	486.75
371.35	485.75
371.576	492.75
371.802	501.75
372.028	524.75
372.254	526.75
372.48	516.75
372.706	519.75
372.932	527.75
373.158	540.75
373.384	530.75
373.61	517.75
373.835	524.75
374.061	528.75
374.287	508.75
374.513	532.75
374.739	541.75
374.965	551.75
375.191	550.75
375.416	548.75
375.642	536.75
375.868	530.75
376.094	514.75
376.319	521.75
376.545	510.75
376.771	497.75
376.997	525.75
377.222	503.75
377.448	524.75
377.674	499.75
377.899	487.75
378.125	508.75
378.35	509.75
378.576	513.75
378.802	501.75
379.027	495.75
379.253	517.75
379.478	517.75
379.704	527.75
379.929	488.75
380.155	484.75
380.38	522.75
380.606	505.75
380.831	493.75
381.057	520.75
381.282	513.75
381.507	513.75
381.733	520.75
381.958	505.75
382.184	532.75
382.409	544.75
382.634	539.75
382.86	523.75
383.085	577.75
383.31	531.75
383.535	547.75
383.761	548.75
383.986	531.75
384.211	561.75
384.436	577.75
384.662	561.75
384.887	591.75
385.112	571.75
385.337	592.75
385.562	612.75
385.787	576.75
386.013	602.75
386.238	611.75
386.463	606.75
386.688	586.75
386.913	574.75
387.138	569.75
387.363	586.75
387.588	581.75
387.813	594.75
388.038	570.75
388.263	586.75
388.488	586.75
388.713	577.75
388.938	573.75
389.163	602.75
389.387	590.75
389.612	572.75
389.837	590.75
390.062	591.75
390.287	575.75
390.512	583.75
390.736	607.75
390.961	600.75
391.186	586.75
391.411	575.75
391.636	609.75
391.86	633.75
392.085	641.75
392.31	664.75
392.534	652.75
392.759	645.75
392.984	627.75
393.208	612.75
393.433	625.75
393.658	609.75
393.882	607.75
394.107	621.75
394.331	612.75
394.556	608.75
394.78	585.75
395.005	622.75
395.229	604.75
395.454	630.75
395.678	653.75
395.903	651.75
396.127	641.75
396.352	643.75
396.576	610.75
396.801	639.75
397.025	646.75
397.249	633.75
397.474	657.75
397.698	653.75
397.922	666.75
398.147	659.75
398.371	674.75
398.595	678.75
398.82	694.75
399.044	716.75
399.268	759.75
399.492	846.75
399.717	922.75
399.941	947.75
400.165	917.75
400.389	865.75
400.613	801.75
400.837	770.75
401.062	737.75
401.286	723.75
401.51	697.75
401.734	715.75
401.958	698.75
402.182	700.75
402.406	710.75
402.63	715.75
402.854	741.75
403.078	724.75
403.302	748.75
403.526	770.75
403.75	767.75
403.974	782.75
404.198	770.75
404.422	776.75
404.645	796.75
404.869	771.75
405.093	783.75
405.317	836.75
405.541	831.75
405.765	803.75
405.988	762.75
406.212	793.75
406.436	782.75
406.66	834.75
406.883	797.75
407.107	829.75
407.331	883.75
407.555	954.75
407.778	942.75
408.002	894.75
408.226	857.75
408.449	845.75
408.673	822.75
408.896	812.75
409.12	853.75
409.344	849.75
409.567	772.75
409.791	757.75
410.014	758.75
410.238	749.75
410.461	739.75
410.685	717.75
410.908	738.75
411.132	739.75
411.355	788.75
411.578	748.75
411.802	724.75
412.025	737.75
412.249	742.75
412.472	751.75
412.695	788.75
412.919	745.75
413.142	750.75
413.365	707.75
413.589	710.75
413.812	727.75
414.035	675.75
414.258	700.75
414.482	681.75
414.705	706.75
414.928	702.75
415.151	710.75
415.374	711.75
415.597	709.75
415.821	707.75
416.044	693.75
416.267	695.75
416.49	686.75
416.713	668.75
416.936	688.75
417.159	699.75
417.382	697.75
417.605	693.75
417.828	695.75
418.051	716.75
418.274	725.75
418.497	676.75
418.72	732.75
418.943	730.75
419.166	726.75
419.389	777.75
419.611	777.75
419.834	782.75
420.057	748.75
420.28	750.75
420.503	707.75
420.726	714.75
420.948	724.75
421.171	746.75
421.394	769.75
421.617	727.75
421.839	705.75
422.062	707.75
422.285	719.75
422.507	775.75
422.73	809.75
422.953	831.75
423.175	759.75
423.398	760.75
423.621	755.75
423.843	782.75
424.066	790.75
424.288	757.75
424.511	759.75
424.733	811.75
424.956	858.75
425.178	819.75
425.401	843.75
425.623	856.75
425.846	773.75
426.068	724.75
426.291	731.75
426.513	717.75
426.735	719.75
426.958	706.75
427.18	810.75
427.402	912.75
427.625	965.75
427.847	852.75
428.069	775.75
428.292	692.75
428.514	671.75
428.736	654.75
428.958	655.75
429.181	648.75
429.403	632.75
429.625	648.75
429.847	691.75
430.069	721.75
430.292	758.75
430.514	661.75
430.736	642.75
430.958	657.75
431.18	655.75
431.402	655.75
431.624	644.75
431.846	647.75
432.068	653.75
432.29	665.75
432.512	641.75
432.734	638.75
432.956	657.75
433.178	637.75
433.4	651.75
433.622	636.75
433.844	631.75
434.066	649.75
434.287	663.75
434.509	666.75
434.731	693.75
434.953	675.75
435.175	721.75
435.397	739.75
435.618	733.75
435.84	740.75
436.062	813.75
436.284	828.75
436.505	725.75
436.727	669.75
436.949	654.75
437.17	671.75
437.392	655.75
437.614	666.75
437.835	680.75
438.057	750.75
438.278	813.75
438.5	814.75
438.721	870.75
438.943	860.75
439.165	738.75
439.386	691.75
439.608	685.75
439.829	677.75
440.05	691.75
440.272	733.75
440.493	717.75
440.715	687.75
440.936	693.75
441.158	669.75
441.379	700.75
441.6	698.75
441.822	763.75
442.043	757.75
442.264	791.75
442.486	806.75
442.707	772.75
442.928	748.75
443.149	745.75
443.371	758.75
443.592	779.75
443.813	867.75
444.034	912.75
444.255	819.75
444.476	767.75
444.698	778.75
444.919	788.75
445.14	915.75
445.361	840.75
445.582	770.75
445.803	821.75
446.024	874.75
446.245	854.75
446.466	821.75
446.687	730.75
446.908	689.75
447.129	659.75
447.35	646.75
447.571	647.75
447.792	665.75
448.013	646.75
448.234	646.75
448.455	692.75
448.675	765.75
448.896	843.75
449.117	764.75
449.338	717.75
449.559	807.75
449.779	909.75
450	729.75
450.221	648.75
450.442	627.75
450.662	623.75
450.883	607.75
451.104	622.75
451.324	636.75
451.545	611.75
451.766	617.75
451.986	622.75
452.207	590.75
452.428	591.75
452.648	590.75
452.869	573.75
453.089	612.75
453.31	621.75
453.53	596.75
453.751	575.75
453.971	582.75
454.192	588.75
454.412	571.75
454.633	571.75
454.853	571.75
455.073	567.75
455.294	598.75
455.514	638.75
455.734	620.75
455.955	571.75
456.175	564.75
456.395	540.75
456.616	540.75
456.836	543.75
457.056	560.75
457.276	562.75
457.497	564.75
457.717	563.75
457.937	566.75
458.157	595.75
458.377	577.75
458.598	607.75
458.818	655.75
459.038	699.75
459.258	729.75
459.478	691.75
459.698	665.75
459.918	682.75
460.138	674.75
460.358	701.75
460.578	701.75
460.798	693.75
461.018	718.75
461.238	724.75
461.458	708.75
461.678	715.75
461.898	730.75
462.118	722.75
462.338	761.75
462.558	771.75
462.777	791.75
462.997	825.75
463.217	874.75
463.437	843.75
463.657	814.75
463.876	815.75
464.096	788.75
464.316	785.75
464.536	791.75
464.755	773.75
464.975	790.75
465.195	772.75
465.414	791.75
465.634	703.75
465.854	654.75
466.073	651.75
466.293	650.75
466.512	633.75
466.732	633.75
466.951	621.75
467.171	637.75
467.391	622.75
467.61	625.75
467.829	633.75
468.049	643.75
468.268	636.75
468.488	606.75
468.707	602.75
468.927	612.75
469.146	597.75
469.365	611.75
469.585	604.75
469.804	635.75
470.023	621.75
470.243	618.75
470.462	624.75
470.681	652.75
470.901	649.75
471.12	651.75
471.339	620.75
471.558	629.75
471.777	623.75
471.997	634.75
472.216	615.75
472.435	656.75
472.654	593.75
472.873	609.75
473.092	625.75
473.311	605.75
473.53	601.75
473.749	608.75
473.968	622.75
474.187	690.75
474.406	729.75
474.625	639.75
474.844	610.75
475.063	603.75
475.282	609.75
475.501	613.75
475.72	610.75
475.939	625.75
476.158	635.75
476.377	629.75
476.596	655.75
476.814	617.75
477.033	639.75
477.252	641.75
477.471	669.75
477.69	668.75
477.908	692.75
478.127	687.75
478.346	686.75
478.564	693.75
478.783	698.75
479.002	745.75
479.22	726.75
479.439	754.75
479.658	745.75
479.876	777.75
480.095	764.75
480.313	794.75
480.532	803.75
480.751	806.75
480.969	795.75
481.188	825.75
481.406	834.75
481.624	771.75
481.843	738.75
482.061	718.75
482.28	730.75
482.498	717.75
482.717	710.75
482.935	700.75
483.153	684.75
483.372	679.75
483.59	707.75
483.808	722.75
484.027	690.75
484.245	705.75
484.463	721.75
484.681	746.75
484.9	743.75
485.118	734.75
485.336	766.75
485.554	742.75
485.772	758.75
485.99	744.75
486.209	760.75
486.427	736.75
486.645	740.75
486.863	758.75
487.081	754.75
487.299	749.75
487.517	756.75
487.735	773.75
487.953	734.75
488.171	725.75
488.389	754.75
488.607	713.75
488.825	779.75
489.043	733.75
489.261	742.75
489.479	793.75
489.696	789.75
489.914	787.75
490.132	793.75
490.35	782.75
490.568	780.75
490.786	818.75
491.003	796.75
491.221	797.75
491.439	815.75
491.657	799.75
491.874	843.75
492.092	809.75
492.31	875.75
492.527	829.75
492.745	857.75
492.963	857.75
493.18	876.75
493.398	851.75
493.615	876.75
493.833	879.75
494.05	870.75
494.268	895.75
494.485	860.75
494.703	866.75
494.92	886.75
495.138	893.75
495.355	891.75
495.573	868.75
495.79	885.75
496.008	897.75
496.225	889.75
496.442	873.75
496.66	934.75
496.877	905.75
497.094	908.75
497.312	931.75
497.529	937.75
497.746	975.75
497.963	950.75
498.181	1047.75
498.398	1041.75
498.615	1057.75
498.832	1108.75
499.049	1179.75
499.267	1221.75
499.484	1341.75
499.701	1410.75
499.918	1479.75
500.135	1629.75
500.352	1733.75
500.569	1814.75
500.786	1797.75
501.003	1732.75
501.22	1621.75
501.437	1489.75
501.654	1396.75
501.871	1302.75
502.088	1243.75
502.305	1179.75
502.522	1138.75
502.739	1077.75
502.956	1037.75
503.172	980.75
503.389	972.75
503.606	948.75
503.823	966.75
504.04	945.75
504.256	967.75
504.473	945.75
504.69	975.75
504.907	933.75
505.123	910.75
505.34	902.75
505.557	894.75
505.773	863.75
505.99	852.75
506.207	809.75
506.423	833.75
506.64	836.75
506.856	804.75
507.073	799.75
507.289	785.75
507.506	812.75
507.722	820.75
507.939	799.75
508.155	773.75
508.372	781.75
508.588	772.75
508.805	775.75
509.021	781.75
509.238	773.75
509.454	774.75
509.67	778.75
509.887	737.75
510.103	749.75
510.319	762.75
510.536	813.75
510.752	1195.75
510.968	1030.75
511.184	773.75
511.401	749.75
511.617	733.75
511.833	699.75
512.049	718.75
512.265	746.75
512.481	747.75
512.698	728.75
512.914	712.75
513.13	719.75
513.346	724.75
513.562	761.75
513.778	715.75
513.994	745.75
514.21	749.75
514.426	735.75
514.642	748.75
514.858	813.75
515.074	793.75
515.29	886.75
515.506	1171.75
515.721	1054.75
515.937	833.75
516.153	797.75
516.369	823.75
516.585	787.75
516.801	807.75
517.016	815.75
517.232	858.75
517.448	861.75
517.664	899.75
517.879	881.75
518.095	900.75
518.311	872.75
518.527	862.75
518.742	821.75
518.958	834.75
519.173	795.75
519.389	783.75
519.605	784.75
519.82	757.75
520.036	758.75
520.251	777.75
520.467	757.75
520.682	797.75
520.898	761.75
521.113	756.75
521.329	771.75
521.544	814.75
521.76	929.75
521.975	1423.75
522.19	1433.75
522.406	873.75
522.621	759.75
522.836	717.75
523.052	698.75
523.267	693.75
523.482	667.75
523.698	649.75
523.913	657.75
524.128	649.75
524.343	639.75
524.559	633.75
524.774	637.75
524.989	644.75
525.204	652.75
525.419	645.75
525.634	617.75
525.849	637.75
526.064	667.75
526.28	651.75
526.495	632.75
526.71	633.75
526.925	611.75
527.14	613.75
527.355	618.75
527.57	619.75
527.785	635.75
527.999	612.75
528.214	633.75
528.429	627.75
528.644	627.75
528.859	618.75
529.074	623.75
529.289	661.75
529.503	713.75
529.718	660.75
529.933	629.75
530.148	614.75
530.363	626.75
530.577	617.75
530.792	612.75
531.007	630.75
531.221	602.75
531.436	625.75
531.651	606.75
531.865	603.75
532.08	619.75
532.295	622.75
532.509	616.75
532.724	626.75
532.938	607.75
533.153	640.75
533.367	613.75
533.582	599.75
533.796	605.75
534.011	636.75
534.225	615.75
534.44	605.75
534.654	610.75
534.868	593.75
535.083	605.75
535.297	590.75
535.511	607.75
535.726	603.75
535.94	579.75
536.154	603.75
536.369	603.75
536.583	590.75
536.797	600.75
537.011	594.75
537.225	590.75
537.44	584.75
537.654	574.75
537.868	549.75
538.082	589.75
538.296	572.75
538.51	577.75
538.724	585.75
538.938	574.75
539.153	590.75
539.367	586.75
539.581	570.75
539.795	569.75
540.009	568.75
540.222	569.75
540.436	567.75
540.65	570.75
540.864	551.75
541.078	573.75
541.292	565.75
541.506	562.75
541.72	566.75
541.934	575.75
542.147	566.75
542.361	564.75
542.575	550.75
542.789	549.75
543.002	572.75
543.216	549.75
543.43	569.75
543.644	563.75
543.857	567.75
544.071	573.75
544.285	557.75
544.498	561.75
544.712	574.75
544.925	580.75
545.139	583.75
545.352	578.75
545.566	570.75
545.779	585.75
545.993	579.75
546.206	574.75
546.42	574.75
546.633	580.75
546.847	567.75
547.06	561.75
547.274	583.75
547.487	583.75
547.7	556.75
547.914	557.75
548.127	587.75
548.34	575.75
548.554	551.75
548.767	553.75
548.98	579.75
549.193	563.75
549.407	566.75
549.62	590.75
549.833	574.75
550.046	571.75
550.259	586.75
550.473	543.75
550.686	571.75
550.899	559.75
551.112	561.75
551.325	566.75
551.538	569.75
551.751	569.75
551.964	554.75
552.177	593.75
552.39	588.75
552.603	595.75
552.816	581.75
553.029	606.75
553.242	599.75
553.455	628.75
553.667	637.75
553.88	618.75
554.093	606.75
554.306	597.75
554.519	576.75
554.732	590.75
554.944	567.75
555.157	554.75
555.37	551.75
555.583	548.75
555.795	535.75
556.008	535.75
556.221	522.75
556.433	507.75
556.646	521.75
556.859	503.75
557.071	507.75
557.284	520.75
557.496	493.75
557.709	489.75
557.921	510.75
558.134	500.75
558.346	482.75
558.559	505.75
558.771	503.75
558.984	492.75
559.196	506.75
559.409	505.75
559.621	512.75
559.833	489.75
560.046	459.75
560.258	475.75
560.47	475.75
560.683	493.75
560.895	504.75
561.107	499.75
561.32	485.75
561.532	500.75
561.744	481.75
561.956	493.75
562.168	498.75
562.381	513.75
562.593	484.75
562.805	478.75
563.017	481.75
563.229	519.75
563.441	500.75
563.653	521.75
563.865	520.75
564.077	490.75
564.289	516.75
564.501	518.75
564.713	538.75
564.925	521.75
565.137	547.75
565.349	566.75
565.561	582.75
565.773	590.75
565.985	579.75
566.197	633.75
566.408	643.75
566.62	681.75
566.832	715.75
567.044	740.75
567.255	737.75
567.467	737.75
567.679	762.75
567.891	818.75
568.102	847.75
568.314	814.75
568.526	758.75
568.737	709.75
568.949	654.75
569.161	615.75
569.372	598.75
569.584	553.75
569.795	541.75
570.007	538.75
570.218	564.75
570.43	541.75
570.641	535.75
570.853	511.75
571.064	522.75
571.276	524.75
571.487	500.75
571.698	477.75
571.91	473.75
572.121	459.75
572.333	462.75
572.544	448.75
572.755	443.75
572.966	440.75
573.178	427.75
573.389	435.75
573.6	438.75
573.811	457.75
574.023	441.75
574.234	444.75
574.445	424.75
574.656	418.75
574.867	410.75
575.078	413.75
575.289	435.75
575.501	423.75
575.712	418.75
575.923	415.75
576.134	426.75
576.345	402.75
576.556	408.75
576.767	389.75
576.978	421.75
577.188	409.75
577.399	409.75
577.61	425.75
577.821	411.75
578.032	402.75
578.243	417.75
578.454	574.75
578.665	476.75
578.875	399.75
579.086	403.75
579.297	385.75
579.508	390.75
579.718	380.75
579.929	382.75
580.14	377.75
580.35	389.75
580.561	392.75
580.772	387.75
580.982	383.75
581.193	384.75
581.403	385.75
581.614	381.75
581.825	376.75
582.035	397.75
582.246	381.75
582.456	376.75
582.667	358.75
582.877	371.75
583.087	381.75
583.298	387.75
583.508	379.75
583.719	371.75
583.929	391.75
584.139	379.75
584.35	375.75
584.56	367.75
584.77	367.75
584.981	387.75
585.191	374.75
585.401	371.75
585.611	367.75
585.821	366.75
586.032	373.75
586.242	393.75
586.452	372.75
586.662	369.75
586.872	375.75
587.082	373.75
587.292	362.75
587.502	367.75
587.713	359.75
587.923	380.75
588.133	365.75
588.343	371.75
588.553	377.75
588.762	378.75
588.972	381.75
589.182	380.75
589.392	362.75
589.602	366.75
589.812	355.75
590.022	372.75
590.232	381.75
590.441	363.75
590.651	379.75
590.861	390.75
591.071	380.75
591.281	375.75
591.49	382.75
591.7	384.75
591.91	393.75
592.119	409.75
592.329	378.75
592.539	414.75
592.748	402.75
592.958	440.75
593.167	430.75
593.377	465.75
593.587	469.75
593.796	468.75
594.006	441.75
594.215	421.75
594.424	445.75
594.634	437.75
594.843	445.75
595.053	414.75
595.262	414.75
595.472	415.75
595.681	382.75
595.89	393.75
596.1	375.75
596.309	374.75
596.518	366.75
596.727	381.75
596.937	358.75
597.146	362.75
597.355	338.75
597.564	337.75
597.774	344.75
597.983	334.75
598.192	335.75
598.401	326.75
598.61	345.75
598.819	350.75
599.028	338.75
599.237	327.75
599.446	324.75
599.655	330.75
599.864	328.75
600.073	325.75
600.282	337.75
600.491	318.75
600.7	328.75
600.909	325.75
601.118	315.75
601.327	319.75
601.536	323.75
601.745	298.75
601.953	311.75
602.162	317.75
602.371	311.75
602.58	309.75
602.789	309.75
602.997	307.75
603.206	313.75
603.415	296.75
603.623	295.75
603.832	297.75
604.041	303.75
604.249	293.75
604.458	294.75
604.666	293.75
604.875	305.75
605.084	297.75
605.292	299.75
605.501	297.75
605.709	295.75
605.918	286.75
606.126	297.75
606.334	300.75
606.543	324.75
606.751	296.75
606.96	302.75
607.168	298.75
607.376	302.75
607.585	295.75
607.793	292.75
608.001	303.75
608.21	289.75
608.418	288.75
608.626	293.75
608.834	294.75
609.043	278.75
609.251	295.75
609.459	283.75
609.667	291.75
609.875	286.75
610.083	286.75
610.291	298.75
610.499	277.75
610.707	300.75
610.916	308.75
611.124	320.75
611.332	310.75
611.54	311.75
611.748	319.75
611.955	288.75
612.163	286.75
612.371	285.75
612.579	294.75
612.787	271.75
612.995	279.75
613.203	282.75
613.411	295.75
613.618	277.75
613.826	289.75
614.034	290.75
614.242	277.75
614.449	296.75
614.657	270.75
614.865	290.75
615.072	278.75
615.28	286.75
615.488	291.75
615.695	277.75
615.903	275.75
616.111	294.75
616.318	287.75
616.526	309.75
616.733	294.75
616.941	281.75
617.148	287.75
617.356	268.75
617.563	285.75
617.771	278.75
617.978	291.75
618.185	282.75
618.393	282.75
618.6	297.75
618.807	278.75
619.015	290.75
619.222	281.75
619.429	280.75
619.637	287.75
619.844	293.75
620.051	287.75
620.258	275.75
620.466	278.75
620.673	271.75
620.88	271.75
621.087	271.75
621.294	265.75
621.501	279.75
621.708	272.75
621.915	260.75
622.122	259.75
622.329	260.75
622.536	258.75
622.743	277.75
622.95	260.75
623.157	285.75
623.364	262.75
623.571	274.75
623.778	275.75
623.985	253.75
624.192	255.75
624.399	249.75
624.606	254.75
624.812	248.75
625.019	261.75
625.226	267.75
625.433	245.75
625.639	261.75
625.846	252.75
626.053	242.75
626.259	286.75
626.466	268.75
626.673	250.75
626.879	234.75
627.086	253.75
627.293	250.75
627.499	250.75
627.706	245.75
627.912	254.75
628.119	250.75
628.325	244.75
628.532	226.75
628.738	243.75
628.945	250.75
629.151	238.75
629.357	241.75
629.564	231.75
629.77	245.75
629.976	241.75
630.183	227.75
630.389	227.75
630.595	235.75
630.802	235.75
631.008	238.75
631.214	246.75
631.42	219.75
631.627	243.75
631.833	218.75
632.039	219.75
632.245	215.75
632.451	224.75
632.657	225.75
632.863	219.75
633.069	218.75
633.275	232.75
633.481	217.75
633.688	236.75
633.893	211.75
634.099	238.75
634.305	216.75
634.511	222.75
634.717	202.75
634.923	209.75
635.129	203.75
635.335	215.75
635.541	212.75
635.747	223.75
635.952	229.75
636.158	210.75
636.364	222.75
636.57	214.75
636.775	205.75
636.981	230.75
637.187	231.75
637.392	203.75
637.598	214.75
637.804	210.75
638.009	203.75
638.215	208.75
638.421	213.75
638.626	214.75
638.832	224.75
639.037	219.75
639.243	214.75
639.448	198.75
639.654	206.75
639.859	210.75
640.065	208.75
640.27	185.75
640.475	213.75
640.681	192.75
640.886	205.75
641.091	199.75
641.297	186.75
641.502	194.75
641.707	195.75
641.913	202.75
642.118	199.75
642.323	201.75
642.528	207.75
642.733	212.75
642.939	198.75
643.144	198.75
643.349	195.75
643.554	214.75
643.759	187.75
643.964	200.75
644.169	195.75
644.374	177.75
644.579	173.75
644.784	195.75
644.989	198.75
645.194	200.75
645.399	202.75
645.604	169.75
645.809	192.75
646.014	190.75
646.219	196.75
646.423	192.75
646.628	188.75
646.833	191.75
647.038	199.75
647.243	190.75
647.447	198.75
647.652	207.75
647.857	203.75
648.062	214.75
648.266	198.75
648.471	208.75
648.676	205.75
648.88	193.75
649.085	198.75
649.289	197.75
649.494	183.75
649.698	213.75
649.903	198.75
650.107	192.75
650.312	184.75
650.516	177.75
650.721	190.75
650.925	181.75
651.13	180.75
651.334	191.75
651.539	170.75
651.743	181.75
651.947	182.75
652.152	181.75
652.356	177.75
652.56	162.75
652.764	169.75
652.969	170.75
653.173	172.75
653.377	157.75
653.581	152.75
653.785	156.75
653.99	165.75
654.194	162.75
654.398	155.75
654.602	141.75
654.806	144.75
655.01	144.75
655.214	155.75
655.418	152.75
655.622	165.75
655.826	159.75
656.03	151.75
656.234	157.75
656.438	160.75
656.642	153.75
656.846	156.75
657.049	148.75
657.253	146.75
657.457	138.75
657.661	136.75
657.865	116.75
658.068	117.75
658.272	116.75
658.476	122.75
658.68	109.75
658.883	113.75
659.087	103.75
659.291	110.75
659.494	101.75
659.698	111.75
659.901	105.75
660.105	100.75
660.309	96.75
660.512	98.75
660.716	101.75
660.919	83.75
661.123	75.75
661.326	98.75
661.53	91.75
661.733	95.75
661.936	94.75
662.14	90.75
662.343	81.75
662.546	83.75
662.75	86.75
662.953	86.75
663.156	87.75
663.36	87.75
663.563	71.75
663.766	82.75
663.969	102.75
664.173	67.75
664.376	77.75
664.579	87.75
664.782	82.75
664.985	75.75
665.188	87.75
665.391	83.75
665.594	80.75
665.797	75.75
666	82.75
666.203	90.75
666.406	90.75
666.609	83.75
666.812	86.75
667.015	75.75
667.218	94.75
667.421	84.75
667.624	85.75
667.827	90.75
668.03	83.75
668.232	82.75
668.435	71.75
668.638	85.75
668.841	93.75
669.043	90.75
669.246	73.75
669.449	75.75
669.651	80.75
669.854	92.75
670.057	84.75
670.259	77.75
670.462	88.75
670.665	79.75
670.867	87.75
671.07	93.75
671.272	86.75
671.475	90.75
671.677	80.75
671.88	101.75
672.082	86.75
672.284	98.75
672.487	91.75
672.689	68.75
672.892	90.75
