Data from 1963.PennyLincolnUp.Lamp.En5.5.200Scan.071719.P1._HRD10591_13-59-04-063.txt Node
Date: Thu Jul 18 13:59:04 EDT 2019
User: cochatt
Spectrometer: HR+D1059
Trigger mode: 1
Integration Time (sec): 1.000000E-1
Scans to average: 1
Electric dark correction enabled: true
Nonlinearity correction enabled: false
Boxcar width: 0
XAxis mode: Wavelengths
Number of Pixels in Spectrum: 2048
>>>>>Begin Spectral Data<<<<<
223.165	-2.94
223.4	-2.94
223.635	-2.94
223.869	-23.94
224.104	-19.94
224.338	-5.94
224.573	-22.94
224.808	-7.94
225.042	-3.94
225.277	-3.94
225.511	-7.94
225.746	-1.94
225.98	4.06
226.215	12.06
226.449	16.06
226.683	11.06
226.918	39.06
227.152	19.06
227.387	23.06
227.621	30.06
227.856	42.06
228.09	30.06
228.324	47.06
228.559	55.06
228.793	57.06
229.027	96.06
229.262	96.06
229.496	101.06
229.73	122.06
229.964	143.06
230.199	132.06
230.433	124.06
230.667	92.06
230.901	108.06
231.136	120.06
231.37	112.06
231.604	131.06
231.838	122.06
232.072	119.06
232.306	106.06
232.541	121.06
232.775	126.06
233.009	108.06
233.243	132.06
233.477	104.06
233.711	126.06
233.945	130.06
234.179	130.06
234.413	110.06
234.647	132.06
234.881	137.06
235.115	108.06
235.349	124.06
235.583	137.06
235.817	118.06
236.051	130.06
236.285	119.06
236.519	113.06
236.753	137.06
236.987	150.06
237.221	169.06
237.455	201.06
237.689	164.06
237.922	128.06
238.156	124.06
238.39	137.06
238.624	136.06
238.858	114.06
239.091	129.06
239.325	127.06
239.559	128.06
239.793	132.06
240.027	132.06
240.26	128.06
240.494	179.06
240.728	163.06
240.961	153.06
241.195	145.06
241.429	146.06
241.662	131.06
241.896	151.06
242.13	129.06
242.363	141.06
242.597	148.06
242.83	152.06
243.064	150.06
243.298	159.06
243.531	149.06
243.765	161.06
243.998	169.06
244.232	160.06
244.465	145.06
244.699	137.06
244.932	160.06
245.166	168.06
245.399	165.06
245.633	165.06
245.866	160.06
246.099	167.06
246.333	165.06
246.566	163.06
246.8	160.06
247.033	159.06
247.266	166.06
247.5	174.06
247.733	170.06
247.966	194.06
248.2	176.06
248.433	196.06
248.666	180.06
248.899	211.06
249.133	198.06
249.366	215.06
249.599	213.06
249.832	184.06
250.066	186.06
250.299	201.06
250.532	195.06
250.765	206.06
250.998	233.06
251.231	225.06
251.465	224.06
251.698	222.06
251.931	221.06
252.164	224.06
252.397	223.06
252.63	215.06
252.863	224.06
253.096	217.06
253.329	237.06
253.562	245.06
253.795	246.06
254.028	224.06
254.261	223.06
254.494	215.06
254.727	253.06
254.96	255.06
255.193	265.06
255.426	238.06
255.659	238.06
255.892	250.06
256.124	244.06
256.357	252.06
256.59	233.06
256.823	224.06
257.056	236.06
257.289	229.06
257.521	245.06
257.754	232.06
257.987	223.06
258.22	222.06
258.452	237.06
258.685	231.06
258.918	215.06
259.151	219.06
259.383	230.06
259.616	248.06
259.849	230.06
260.081	262.06
260.314	247.06
260.547	270.06
260.779	257.06
261.012	271.06
261.244	262.06
261.477	245.06
261.71	248.06
261.942	255.06
262.175	252.06
262.407	258.06
262.64	263.06
262.872	250.06
263.105	243.06
263.337	236.06
263.57	241.06
263.802	231.06
264.035	245.06
264.267	242.06
264.499	232.06
264.732	231.06
264.964	240.06
265.197	252.06
265.429	253.06
265.661	244.06
265.894	240.06
266.126	241.06
266.358	223.06
266.591	249.06
266.823	244.06
267.055	263.06
267.287	270.06
267.52	253.06
267.752	268.06
267.984	259.06
268.216	254.06
268.448	249.06
268.681	260.06
268.913	275.06
269.145	276.06
269.377	304.06
269.609	287.06
269.841	284.06
270.073	292.06
270.306	312.06
270.538	320.06
270.77	332.06
271.002	314.06
271.234	311.06
271.466	320.06
271.698	323.06
271.93	324.06
272.162	331.06
272.394	333.06
272.626	336.06
272.858	320.06
273.09	296.06
273.322	304.06
273.553	317.06
273.785	284.06
274.017	295.06
274.249	314.06
274.481	298.06
274.713	309.06
274.945	321.06
275.176	314.06
275.408	290.06
275.64	304.06
275.872	313.06
276.104	306.06
276.335	305.06
276.567	323.06
276.799	325.06
277.031	349.06
277.262	360.06
277.494	352.06
277.726	339.06
277.957	330.06
278.189	296.06
278.421	323.06
278.652	311.06
278.884	304.06
279.115	316.06
279.347	318.06
279.579	316.06
279.81	308.06
280.042	321.06
280.273	329.06
280.505	323.06
280.736	309.06
280.968	310.06
281.199	310.06
281.431	325.06
281.662	333.06
281.894	333.06
282.125	321.06
282.356	339.06
282.588	348.06
282.819	342.06
283.051	341.06
283.282	326.06
283.513	334.06
283.745	336.06
283.976	342.06
284.207	341.06
284.439	348.06
284.67	336.06
284.901	324.06
285.132	337.06
285.364	325.06
285.595	342.06
285.826	354.06
286.057	340.06
286.288	326.06
286.52	351.06
286.751	356.06
286.982	344.06
287.213	321.06
287.444	347.06
287.675	348.06
287.906	366.06
288.138	368.06
288.369	352.06
288.6	363.06
288.831	340.06
289.062	356.06
289.293	357.06
289.524	348.06
289.755	357.06
289.986	352.06
290.217	347.06
290.448	378.06
290.679	346.06
290.91	372.06
291.141	351.06
291.371	372.06
291.602	346.06
291.833	366.06
292.064	344.06
292.295	353.06
292.526	370.06
292.757	328.06
292.987	368.06
293.218	363.06
293.449	370.06
293.68	369.06
293.91	349.06
294.141	336.06
294.372	366.06
294.603	368.06
294.833	361.06
295.064	368.06
295.295	352.06
295.525	352.06
295.756	373.06
295.987	385.06
296.217	377.06
296.448	404.06
296.679	375.06
296.909	369.06
297.14	375.06
297.37	362.06
297.601	388.06
297.831	376.06
298.062	376.06
298.292	383.06
298.523	392.06
298.753	380.06
298.984	384.06
299.214	376.06
299.445	389.06
299.675	368.06
299.905	399.06
300.136	371.06
300.366	368.06
300.597	387.06
300.827	404.06
301.057	409.06
301.288	430.06
301.518	414.06
301.748	421.06
301.979	409.06
302.209	403.06
302.439	436.06
302.669	408.06
302.9	404.06
303.13	397.06
303.36	414.06
303.59	410.06
303.82	432.06
304.051	442.06
304.281	411.06
304.511	432.06
304.741	416.06
304.971	407.06
305.201	425.06
305.431	416.06
305.661	413.06
305.891	422.06
306.121	414.06
306.352	406.06
306.582	432.06
306.812	412.06
307.042	428.06
307.272	434.06
307.502	417.06
307.731	398.06
307.961	421.06
308.191	408.06
308.421	402.06
308.651	414.06
308.881	405.06
309.111	434.06
309.341	425.06
309.571	423.06
309.8	421.06
310.03	425.06
310.26	437.06
310.49	429.06
310.72	423.06
310.949	446.06
311.179	454.06
311.409	442.06
311.639	424.06
311.868	431.06
312.098	443.06
312.328	449.06
312.557	454.06
312.787	453.06
313.017	464.06
313.246	472.06
313.476	458.06
313.706	492.06
313.935	459.06
314.165	485.06
314.394	480.06
314.624	465.06
314.853	459.06
315.083	466.06
315.312	451.06
315.542	456.06
315.771	448.06
316.001	446.06
316.23	456.06
316.46	451.06
316.689	459.06
316.919	455.06
317.148	468.06
317.377	449.06
317.607	457.06
317.836	449.06
318.065	458.06
318.295	460.06
318.524	446.06
318.753	464.06
318.983	474.06
319.212	440.06
319.441	448.06
319.67	469.06
319.9	444.06
320.129	445.06
320.358	450.06
320.587	436.06
320.816	455.06
321.046	466.06
321.275	470.06
321.504	483.06
321.733	462.06
321.962	473.06
322.191	482.06
322.42	480.06
322.649	492.06
322.878	501.06
323.108	496.06
323.337	530.06
323.566	523.06
323.795	532.06
324.024	565.06
324.253	644.06
324.482	848.06
324.71	1183.06
324.939	1691.06
325.168	1468.06
325.397	800.06
325.626	611.06
325.855	545.06
326.084	553.06
326.313	551.06
326.542	511.06
326.77	581.06
326.999	639.06
327.228	783.06
327.457	1143.06
327.686	1346.06
327.914	953.06
328.143	677.06
328.372	638.06
328.6	615.06
328.829	574.06
329.058	572.06
329.287	605.06
329.515	592.06
329.744	553.06
329.972	580.06
330.201	610.06
330.43	603.06
330.658	618.06
330.887	627.06
331.115	641.06
331.344	567.06
331.572	559.06
331.801	588.06
332.03	569.06
332.258	567.06
332.486	558.06
332.715	574.06
332.943	582.06
333.172	585.06
333.4	613.06
333.629	613.06
333.857	635.06
334.085	633.06
334.314	641.06
334.542	670.06
334.771	652.06
334.999	624.06
335.227	602.06
335.455	608.06
335.684	613.06
335.912	594.06
336.14	574.06
336.369	567.06
336.597	556.06
336.825	606.06
337.053	575.06
337.281	554.06
337.51	543.06
337.738	565.06
337.966	530.06
338.194	548.06
338.422	549.06
338.65	542.06
338.878	527.06
339.106	538.06
339.334	559.06
339.562	542.06
339.79	528.06
340.018	533.06
340.246	536.06
340.474	526.06
340.702	508.06
340.93	521.06
341.158	507.06
341.386	510.06
341.614	535.06
341.842	530.06
342.07	516.06
342.298	524.06
342.526	500.06
342.754	517.06
342.981	520.06
343.209	533.06
343.437	531.06
343.665	561.06
343.893	594.06
344.12	596.06
344.348	580.06
344.576	559.06
344.804	566.06
345.031	542.06
345.259	538.06
345.487	525.06
345.714	509.06
345.942	540.06
346.17	489.06
346.397	506.06
346.625	512.06
346.853	516.06
347.08	500.06
347.308	519.06
347.535	495.06
347.763	497.06
347.99	501.06
348.218	488.06
348.445	517.06
348.673	526.06
348.9	512.06
349.128	482.06
349.355	480.06
349.583	476.06
349.81	472.06
350.037	511.06
350.265	495.06
350.492	495.06
350.72	492.06
350.947	492.06
351.174	486.06
351.402	490.06
351.629	489.06
351.856	514.06
352.083	506.06
352.311	488.06
352.538	512.06
352.765	497.06
352.992	486.06
353.22	498.06
353.447	489.06
353.674	498.06
353.901	484.06
354.128	495.06
354.355	500.06
354.583	469.06
354.81	494.06
355.037	479.06
355.264	479.06
355.491	485.06
355.718	499.06
355.945	470.06
356.172	476.06
356.399	485.06
356.626	484.06
356.853	479.06
357.08	499.06
357.307	490.06
357.534	491.06
357.761	480.06
357.988	489.06
358.215	505.06
358.441	480.06
358.668	473.06
358.895	475.06
359.122	485.06
359.349	460.06
359.576	503.06
359.802	500.06
360.029	544.06
360.256	544.06
360.483	526.06
360.709	494.06
360.936	527.06
361.163	488.06
361.39	488.06
361.616	525.06
361.843	515.06
362.07	496.06
362.296	504.06
362.523	505.06
362.749	496.06
362.976	495.06
363.203	494.06
363.429	481.06
363.656	484.06
363.882	495.06
364.109	491.06
364.335	496.06
364.562	479.06
364.788	509.06
365.015	490.06
365.241	513.06
365.468	506.06
365.694	483.06
365.92	502.06
366.147	487.06
366.373	492.06
366.599	469.06
366.826	469.06
367.052	499.06
367.278	500.06
367.505	495.06
367.731	492.06
367.957	507.06
368.184	519.06
368.41	485.06
368.636	521.06
368.862	520.06
369.089	498.06
369.315	500.06
369.541	508.06
369.767	489.06
369.993	516.06
370.219	516.06
370.445	500.06
370.672	510.06
370.898	513.06
371.124	481.06
371.35	492.06
371.576	522.06
371.802	533.06
372.028	512.06
372.254	494.06
372.48	513.06
372.706	534.06
372.932	516.06
373.158	532.06
373.384	521.06
373.61	499.06
373.835	506.06
374.061	530.06
374.287	530.06
374.513	549.06
374.739	536.06
374.965	551.06
375.191	545.06
375.416	537.06
375.642	508.06
375.868	535.06
376.094	512.06
376.319	514.06
376.545	542.06
376.771	508.06
376.997	523.06
377.222	530.06
377.448	519.06
377.674	518.06
377.899	504.06
378.125	501.06
378.35	513.06
378.576	525.06
378.802	519.06
379.027	506.06
379.253	518.06
379.478	484.06
379.704	485.06
379.929	500.06
380.155	507.06
380.38	501.06
380.606	526.06
380.831	532.06
381.057	520.06
381.282	506.06
381.507	505.06
381.733	536.06
381.958	527.06
382.184	529.06
382.409	533.06
382.634	557.06
382.86	540.06
383.085	551.06
383.31	532.06
383.535	541.06
383.761	550.06
383.986	560.06
384.211	546.06
384.436	553.06
384.662	562.06
384.887	570.06
385.112	593.06
385.337	591.06
385.562	588.06
385.787	596.06
386.013	618.06
386.238	622.06
386.463	604.06
386.688	603.06
386.913	596.06
387.138	608.06
387.363	594.06
387.588	576.06
387.813	582.06
388.038	605.06
388.263	565.06
388.488	608.06
388.713	586.06
388.938	596.06
389.163	583.06
389.387	608.06
389.612	574.06
389.837	578.06
390.062	586.06
390.287	553.06
390.512	601.06
390.736	589.06
390.961	584.06
391.186	616.06
391.411	608.06
391.636	623.06
391.86	632.06
392.085	642.06
392.31	631.06
392.534	637.06
392.759	608.06
392.984	616.06
393.208	629.06
393.433	617.06
393.658	605.06
393.882	594.06
394.107	604.06
394.331	606.06
394.556	611.06
394.78	615.06
395.005	620.06
395.229	622.06
395.454	646.06
395.678	637.06
395.903	644.06
396.127	634.06
396.352	657.06
396.576	641.06
396.801	640.06
397.025	646.06
397.249	636.06
397.474	668.06
397.698	651.06
397.922	666.06
398.147	671.06
398.371	688.06
398.595	664.06
398.82	713.06
399.044	760.06
399.268	768.06
399.492	851.06
399.717	952.06
399.941	997.06
400.165	914.06
400.389	902.06
400.613	795.06
400.837	739.06
401.062	744.06
401.286	713.06
401.51	708.06
401.734	713.06
401.958	708.06
402.182	698.06
402.406	724.06
402.63	715.06
402.854	717.06
403.078	757.06
403.302	748.06
403.526	773.06
403.75	786.06
403.974	768.06
404.198	777.06
404.422	776.06
404.645	770.06
404.869	770.06
405.093	784.06
405.317	849.06
405.541	841.06
405.765	821.06
405.988	785.06
406.212	771.06
406.436	802.06
406.66	825.06
406.883	779.06
407.107	830.06
407.331	878.06
407.555	974.06
407.778	983.06
408.002	903.06
408.226	842.06
408.449	836.06
408.673	798.06
408.896	839.06
409.12	836.06
409.344	799.06
409.567	750.06
409.791	762.06
410.014	756.06
410.238	756.06
410.461	773.06
410.685	773.06
410.908	766.06
411.132	777.06
411.355	825.06
411.578	799.06
411.802	753.06
412.025	744.06
412.249	726.06
412.472	771.06
412.695	790.06
412.919	782.06
413.142	754.06
413.365	704.06
413.589	708.06
413.812	704.06
414.035	668.06
414.258	712.06
414.482	704.06
414.705	709.06
414.928	698.06
415.151	709.06
415.374	695.06
415.597	681.06
415.821	705.06
416.044	709.06
416.267	704.06
416.49	676.06
416.713	703.06
416.936	672.06
417.159	692.06
417.382	689.06
417.605	706.06
417.828	717.06
418.051	731.06
418.274	714.06
418.497	697.06
418.72	713.06
418.943	700.06
419.166	720.06
419.389	774.06
419.611	787.06
419.834	744.06
420.057	720.06
420.28	743.06
420.503	733.06
420.726	723.06
420.948	718.06
421.171	765.06
421.394	772.06
421.617	713.06
421.839	732.06
422.062	708.06
422.285	736.06
422.507	761.06
422.73	838.06
422.953	814.06
423.175	757.06
423.398	754.06
423.621	754.06
423.843	789.06
424.066	753.06
424.288	765.06
424.511	781.06
424.733	807.06
424.956	846.06
425.178	819.06
425.401	844.06
425.623	846.06
425.846	765.06
426.068	739.06
426.291	716.06
426.513	718.06
426.735	719.06
426.958	764.06
427.18	814.06
427.402	920.06
427.625	970.06
427.847	866.06
428.069	811.06
428.292	740.06
428.514	690.06
428.736	690.06
428.958	661.06
429.181	688.06
429.403	632.06
429.625	655.06
429.847	668.06
430.069	751.06
430.292	737.06
430.514	646.06
430.736	672.06
430.958	654.06
431.18	662.06
431.402	651.06
431.624	646.06
431.846	674.06
432.068	666.06
432.29	636.06
432.512	635.06
432.734	646.06
432.956	669.06
433.178	651.06
433.4	631.06
433.622	633.06
433.844	658.06
434.066	640.06
434.287	663.06
434.509	664.06
434.731	686.06
434.953	692.06
435.175	713.06
435.397	740.06
435.618	717.06
435.84	715.06
436.062	793.06
436.284	845.06
436.505	730.06
436.727	723.06
436.949	686.06
437.17	681.06
437.392	669.06
437.614	680.06
437.835	691.06
438.057	757.06
438.278	848.06
438.5	822.06
438.721	892.06
438.943	871.06
439.165	742.06
439.386	697.06
439.608	684.06
439.829	690.06
440.05	696.06
440.272	737.06
440.493	732.06
440.715	703.06
440.936	692.06
441.158	683.06
441.379	700.06
441.6	700.06
441.822	717.06
442.043	798.06
442.264	820.06
442.486	857.06
442.707	776.06
442.928	750.06
443.149	768.06
443.371	785.06
443.592	793.06
443.813	906.06
444.034	946.06
444.255	816.06
444.476	782.06
444.698	805.06
444.919	806.06
445.14	959.06
445.361	858.06
445.582	807.06
445.803	794.06
446.024	877.06
446.245	850.06
446.466	822.06
446.687	741.06
446.908	716.06
447.129	670.06
447.35	642.06
447.571	650.06
447.792	649.06
448.013	642.06
448.234	646.06
448.455	689.06
448.675	786.06
448.896	856.06
449.117	761.06
449.338	707.06
449.559	820.06
449.779	907.06
450	745.06
450.221	666.06
450.442	647.06
450.662	657.06
450.883	644.06
451.104	624.06
451.324	620.06
451.545	613.06
451.766	596.06
451.986	609.06
452.207	620.06
452.428	609.06
452.648	602.06
452.869	574.06
453.089	588.06
453.31	601.06
453.53	602.06
453.751	588.06
453.971	596.06
454.192	618.06
454.412	579.06
454.633	586.06
454.853	573.06
455.073	560.06
455.294	596.06
455.514	622.06
455.734	645.06
455.955	581.06
456.175	576.06
456.395	557.06
456.616	563.06
456.836	576.06
457.056	571.06
457.276	548.06
457.497	573.06
457.717	565.06
457.937	571.06
458.157	571.06
458.377	573.06
458.598	607.06
458.818	634.06
459.038	709.06
459.258	741.06
459.478	698.06
459.698	681.06
459.918	656.06
460.138	681.06
460.358	703.06
460.578	722.06
460.798	734.06
461.018	732.06
461.238	718.06
461.458	700.06
461.678	704.06
461.898	714.06
462.118	713.06
462.338	741.06
462.558	780.06
462.777	765.06
462.997	828.06
463.217	876.06
463.437	863.06
463.657	821.06
463.876	790.06
464.096	783.06
464.316	763.06
464.536	801.06
464.755	784.06
464.975	784.06
465.195	780.06
465.414	786.06
465.634	742.06
465.854	690.06
466.073	676.06
466.293	649.06
466.512	643.06
466.732	626.06
466.951	627.06
467.171	617.06
467.391	600.06
467.61	634.06
467.829	647.06
468.049	644.06
468.268	606.06
468.488	616.06
468.707	614.06
468.927	609.06
469.146	604.06
469.365	619.06
469.585	599.06
469.804	662.06
470.023	632.06
470.243	643.06
470.462	640.06
470.681	644.06
470.901	647.06
471.12	669.06
471.339	624.06
471.558	625.06
471.777	606.06
471.997	640.06
472.216	620.06
472.435	641.06
472.654	640.06
472.873	608.06
473.092	624.06
473.311	610.06
473.53	592.06
473.749	611.06
473.968	646.06
474.187	724.06
474.406	741.06
474.625	642.06
474.844	647.06
475.063	609.06
475.282	615.06
475.501	617.06
475.72	639.06
475.939	644.06
476.158	623.06
476.377	633.06
476.596	617.06
476.814	641.06
477.033	650.06
477.252	678.06
477.471	674.06
477.69	660.06
477.908	678.06
478.127	715.06
478.346	716.06
478.564	714.06
478.783	720.06
479.002	728.06
479.22	731.06
479.439	759.06
479.658	763.06
479.876	800.06
480.095	774.06
480.313	824.06
480.532	825.06
480.751	804.06
480.969	783.06
481.188	845.06
481.406	852.06
481.624	793.06
481.843	758.06
482.061	741.06
482.28	734.06
482.498	710.06
482.717	714.06
482.935	711.06
483.153	732.06
483.372	719.06
483.59	724.06
483.808	744.06
484.027	725.06
484.245	727.06
484.463	726.06
484.681	734.06
484.9	750.06
485.118	738.06
485.336	737.06
485.554	742.06
485.772	744.06
485.99	788.06
486.209	754.06
486.427	739.06
486.645	751.06
486.863	785.06
487.081	765.06
487.299	770.06
487.517	779.06
487.735	761.06
487.953	766.06
488.171	784.06
488.389	777.06
488.607	744.06
488.825	791.06
489.043	754.06
489.261	744.06
489.479	779.06
489.696	778.06
489.914	765.06
490.132	786.06
490.35	787.06
490.568	832.06
490.786	814.06
491.003	803.06
491.221	829.06
491.439	837.06
491.657	844.06
491.874	863.06
492.092	835.06
492.31	880.06
492.527	845.06
492.745	849.06
492.963	870.06
493.18	870.06
493.398	888.06
493.615	888.06
493.833	895.06
494.05	886.06
494.268	903.06
494.485	901.06
494.703	885.06
494.92	902.06
495.138	873.06
495.355	892.06
495.573	894.06
495.79	899.06
496.008	891.06
496.225	892.06
496.442	899.06
496.66	912.06
496.877	896.06
497.094	919.06
497.312	929.06
497.529	975.06
497.746	982.06
497.963	972.06
498.181	1048.06
498.398	1066.06
498.615	1113.06
498.832	1165.06
499.049	1196.06
499.267	1237.06
499.484	1326.06
499.701	1360.06
499.918	1492.06
500.135	1655.06
500.352	1804.06
500.569	1817.06
500.786	1823.06
501.003	1708.06
501.22	1613.06
501.437	1518.06
501.654	1416.06
501.871	1341.06
502.088	1256.06
502.305	1200.06
502.522	1140.06
502.739	1070.06
502.956	1048.06
503.172	1028.06
503.389	1004.06
503.606	1005.06
503.823	997.06
504.04	961.06
504.256	956.06
504.473	989.06
504.69	964.06
504.907	972.06
505.123	914.06
505.34	908.06
505.557	881.06
505.773	880.06
505.99	844.06
506.207	861.06
506.423	840.06
506.64	798.06
506.856	810.06
507.073	855.06
507.289	804.06
507.506	804.06
507.722	844.06
507.939	828.06
508.155	833.06
508.372	805.06
508.588	761.06
508.805	782.06
509.021	772.06
509.238	761.06
509.454	798.06
509.67	752.06
509.887	778.06
510.103	762.06
510.319	757.06
510.536	835.06
510.752	1186.06
510.968	1048.06
511.184	788.06
511.401	740.06
511.617	732.06
511.833	731.06
512.049	725.06
512.265	732.06
512.481	724.06
512.698	753.06
512.914	729.06
513.13	729.06
513.346	726.06
513.562	704.06
513.778	740.06
513.994	726.06
514.21	748.06
514.426	780.06
514.642	779.06
514.858	794.06
515.074	799.06
515.29	904.06
515.506	1217.06
515.721	1082.06
515.937	818.06
516.153	776.06
516.369	782.06
516.585	815.06
516.801	840.06
517.016	841.06
517.232	840.06
517.448	880.06
517.664	892.06
517.879	908.06
518.095	937.06
518.311	900.06
518.527	880.06
518.742	862.06
518.958	798.06
519.173	774.06
519.389	788.06
519.605	788.06
519.82	748.06
520.036	779.06
520.251	760.06
520.467	809.06
520.682	768.06
520.898	774.06
521.113	781.06
521.329	774.06
521.544	834.06
521.76	968.06
521.975	1402.06
522.19	1464.06
522.406	912.06
522.621	760.06
522.836	728.06
523.052	712.06
523.267	685.06
523.482	658.06
523.698	672.06
523.913	653.06
524.128	678.06
524.343	656.06
524.559	684.06
524.774	645.06
524.989	654.06
525.204	647.06
525.419	660.06
525.634	636.06
525.849	636.06
526.064	641.06
526.28	628.06
526.495	654.06
526.71	632.06
526.925	615.06
527.14	639.06
527.355	637.06
527.57	650.06
527.785	635.06
527.999	606.06
528.214	620.06
528.429	632.06
528.644	635.06
528.859	607.06
529.074	631.06
529.289	628.06
529.503	698.06
529.718	676.06
529.933	622.06
530.148	618.06
530.363	642.06
530.577	644.06
530.792	611.06
531.007	621.06
531.221	630.06
531.436	606.06
531.651	634.06
531.865	620.06
532.08	615.06
532.295	606.06
532.509	611.06
532.724	621.06
532.938	636.06
533.153	606.06
533.367	609.06
533.582	610.06
533.796	611.06
534.011	614.06
534.225	611.06
534.44	610.06
534.654	586.06
534.868	622.06
535.083	603.06
535.297	614.06
535.511	620.06
535.726	587.06
535.94	597.06
536.154	607.06
536.369	580.06
536.583	583.06
536.797	599.06
537.011	580.06
537.225	597.06
537.44	564.06
537.654	585.06
537.868	580.06
538.082	557.06
538.296	594.06
538.51	600.06
538.724	588.06
538.938	570.06
539.153	564.06
539.367	589.06
539.581	602.06
539.795	585.06
540.009	567.06
540.222	579.06
540.436	574.06
540.65	544.06
540.864	562.06
541.078	572.06
541.292	590.06
541.506	574.06
541.72	576.06
541.934	584.06
542.147	579.06
542.361	586.06
542.575	568.06
542.789	560.06
543.002	578.06
543.216	581.06
543.43	544.06
543.644	592.06
543.857	573.06
544.071	561.06
544.285	579.06
544.498	564.06
544.712	574.06
544.925	576.06
545.139	572.06
545.352	571.06
545.566	578.06
545.779	593.06
545.993	565.06
546.206	575.06
546.42	582.06
546.633	567.06
546.847	554.06
547.06	556.06
547.274	561.06
547.487	581.06
547.7	573.06
547.914	572.06
548.127	571.06
548.34	573.06
548.554	582.06
548.767	554.06
548.98	554.06
549.193	577.06
549.407	582.06
549.62	580.06
549.833	602.06
550.046	595.06
550.259	582.06
550.473	581.06
550.686	573.06
550.899	562.06
551.112	560.06
551.325	562.06
551.538	538.06
551.751	558.06
551.964	565.06
552.177	575.06
552.39	585.06
552.603	590.06
552.816	589.06
553.029	590.06
553.242	613.06
553.455	624.06
553.667	640.06
553.88	626.06
554.093	620.06
554.306	594.06
554.519	591.06
554.732	612.06
554.944	566.06
555.157	537.06
555.37	556.06
555.583	538.06
555.795	524.06
556.008	527.06
556.221	519.06
556.433	514.06
556.646	540.06
556.859	513.06
557.071	529.06
557.284	500.06
557.496	500.06
557.709	511.06
557.921	496.06
558.134	507.06
558.346	534.06
558.559	509.06
558.771	488.06
558.984	495.06
559.196	507.06
559.409	488.06
559.621	508.06
559.833	488.06
560.046	476.06
560.258	490.06
560.47	485.06
560.683	487.06
560.895	502.06
561.107	514.06
561.32	488.06
561.532	495.06
561.744	487.06
561.956	498.06
562.168	478.06
562.381	482.06
562.593	495.06
562.805	489.06
563.017	504.06
563.229	506.06
563.441	508.06
563.653	478.06
563.865	495.06
564.077	494.06
564.289	527.06
564.501	512.06
564.713	530.06
564.925	557.06
565.137	545.06
565.349	549.06
565.561	598.06
565.773	598.06
565.985	613.06
566.197	614.06
566.408	679.06
566.62	694.06
566.832	705.06
567.044	727.06
567.255	777.06
567.467	761.06
567.679	782.06
567.891	825.06
568.102	838.06
568.314	792.06
568.526	739.06
568.737	694.06
568.949	653.06
569.161	621.06
569.372	582.06
569.584	588.06
569.795	560.06
570.007	558.06
570.218	581.06
570.43	562.06
570.641	528.06
570.853	518.06
571.064	523.06
571.276	526.06
571.487	505.06
571.698	506.06
571.91	474.06
572.121	484.06
572.333	458.06
572.544	446.06
572.755	451.06
572.966	457.06
573.178	446.06
573.389	470.06
573.6	437.06
573.811	450.06
574.023	435.06
574.234	415.06
574.445	434.06
574.656	432.06
574.867	439.06
575.078	409.06
575.289	434.06
575.501	430.06
575.712	424.06
575.923	414.06
576.134	412.06
576.345	422.06
576.556	406.06
576.767	403.06
576.978	400.06
577.188	429.06
577.399	432.06
577.61	421.06
577.821	400.06
578.032	398.06
578.243	426.06
578.454	580.06
578.665	473.06
578.875	408.06
579.086	409.06
579.297	420.06
579.508	387.06
579.718	392.06
579.929	386.06
580.14	392.06
580.35	401.06
580.561	406.06
580.772	369.06
580.982	377.06
581.193	388.06
581.403	374.06
581.614	392.06
581.825	374.06
582.035	372.06
582.246	385.06
582.456	367.06
582.667	381.06
582.877	384.06
583.087	378.06
583.298	372.06
583.508	379.06
583.719	375.06
583.929	366.06
584.139	374.06
584.35	364.06
584.56	372.06
584.77	371.06
584.981	364.06
585.191	392.06
585.401	359.06
585.611	402.06
585.821	360.06
586.032	380.06
586.242	352.06
586.452	370.06
586.662	367.06
586.872	361.06
587.082	356.06
587.292	368.06
587.502	374.06
587.713	385.06
587.923	361.06
588.133	358.06
588.343	371.06
588.553	379.06
588.762	368.06
588.972	374.06
589.182	364.06
589.392	357.06
589.602	368.06
589.812	378.06
590.022	382.06
590.232	367.06
590.441	366.06
590.651	372.06
590.861	383.06
591.071	373.06
591.281	376.06
591.49	375.06
591.7	382.06
591.91	394.06
592.119	402.06
592.329	425.06
592.539	445.06
592.748	435.06
592.958	424.06
593.167	451.06
593.377	447.06
593.587	457.06
593.796	435.06
594.006	452.06
594.215	469.06
594.424	461.06
594.634	454.06
594.843	424.06
595.053	420.06
595.262	392.06
595.472	401.06
595.681	385.06
595.89	392.06
596.1	366.06
596.309	376.06
596.518	343.06
596.727	345.06
596.937	353.06
597.146	358.06
597.355	330.06
597.564	338.06
597.774	317.06
597.983	330.06
598.192	330.06
598.401	330.06
598.61	339.06
598.819	332.06
599.028	339.06
599.237	326.06
599.446	344.06
599.655	324.06
599.864	326.06
600.073	325.06
600.282	322.06
600.491	335.06
600.7	322.06
600.909	328.06
601.118	311.06
601.327	307.06
601.536	292.06
601.745	313.06
601.953	302.06
602.162	312.06
602.371	314.06
602.58	318.06
602.789	311.06
602.997	314.06
603.206	312.06
603.415	305.06
603.623	305.06
603.832	308.06
604.041	304.06
604.249	309.06
604.458	309.06
604.666	308.06
604.875	301.06
605.084	296.06
605.292	290.06
605.501	301.06
605.709	305.06
605.918	317.06
606.126	285.06
606.334	296.06
606.543	307.06
606.751	309.06
606.96	288.06
607.168	311.06
607.376	304.06
607.585	280.06
607.793	288.06
608.001	306.06
608.21	304.06
608.418	292.06
608.626	291.06
608.834	301.06
609.043	292.06
609.251	288.06
609.459	290.06
609.667	275.06
609.875	293.06
610.083	309.06
610.291	291.06
610.499	298.06
610.707	296.06
610.916	293.06
611.124	280.06
611.332	286.06
611.54	292.06
611.748	295.06
611.955	282.06
612.163	289.06
612.371	284.06
612.579	278.06
612.787	284.06
612.995	288.06
613.203	278.06
613.411	284.06
613.618	261.06
613.826	275.06
614.034	281.06
614.242	273.06
614.449	288.06
614.657	293.06
614.865	290.06
615.072	300.06
615.28	295.06
615.488	266.06
615.695	280.06
615.903	296.06
616.111	291.06
616.318	301.06
616.526	291.06
616.733	304.06
616.941	286.06
617.148	284.06
617.356	295.06
617.563	290.06
617.771	274.06
617.978	282.06
618.185	301.06
618.393	289.06
618.6	276.06
618.807	304.06
619.015	286.06
619.222	282.06
619.429	269.06
619.637	278.06
619.844	278.06
620.051	282.06
620.258	264.06
620.466	262.06
620.673	261.06
620.88	259.06
621.087	265.06
621.294	253.06
621.501	265.06
621.708	284.06
621.915	288.06
622.122	270.06
622.329	258.06
622.536	261.06
622.743	257.06
622.95	258.06
623.157	267.06
623.364	262.06
623.571	269.06
623.778	268.06
623.985	264.06
624.192	260.06
624.399	271.06
624.606	276.06
624.812	257.06
625.019	264.06
625.226	256.06
625.433	273.06
625.639	237.06
625.846	244.06
626.053	247.06
626.259	256.06
626.466	256.06
626.673	265.06
626.879	258.06
627.086	248.06
627.293	251.06
627.499	230.06
627.706	234.06
627.912	241.06
628.119	232.06
628.325	252.06
628.532	232.06
628.738	236.06
628.945	227.06
629.151	233.06
629.357	228.06
629.564	219.06
629.77	242.06
629.976	224.06
630.183	228.06
630.389	219.06
630.595	230.06
630.802	237.06
631.008	220.06
631.214	221.06
631.42	252.06
631.627	227.06
631.833	220.06
632.039	242.06
632.245	226.06
632.451	222.06
632.657	218.06
632.863	221.06
633.069	229.06
633.275	224.06
633.481	216.06
633.688	223.06
633.893	213.06
634.099	224.06
634.305	219.06
634.511	209.06
634.717	221.06
634.923	225.06
635.129	208.06
635.335	213.06
635.541	207.06
635.747	209.06
635.952	209.06
636.158	216.06
636.364	222.06
636.57	210.06
636.775	209.06
636.981	215.06
637.187	196.06
637.392	224.06
637.598	201.06
637.804	207.06
638.009	203.06
638.215	200.06
638.421	204.06
638.626	188.06
638.832	195.06
639.037	204.06
639.243	201.06
639.448	192.06
639.654	209.06
639.859	200.06
640.065	194.06
640.27	189.06
640.475	185.06
640.681	198.06
640.886	183.06
641.091	199.06
641.297	200.06
641.502	197.06
641.707	200.06
641.913	199.06
642.118	207.06
642.323	200.06
642.528	185.06
642.733	188.06
642.939	198.06
643.144	186.06
643.349	196.06
643.554	207.06
643.759	196.06
643.964	185.06
644.169	197.06
644.374	176.06
644.579	201.06
644.784	196.06
644.989	189.06
645.194	180.06
645.399	186.06
645.604	177.06
645.809	194.06
646.014	191.06
646.219	202.06
646.423	181.06
646.628	170.06
646.833	182.06
647.038	196.06
647.243	194.06
647.447	201.06
647.652	204.06
647.857	198.06
648.062	208.06
648.266	192.06
648.471	211.06
648.676	204.06
648.88	207.06
649.085	198.06
649.289	192.06
649.494	197.06
649.698	205.06
649.903	194.06
650.107	190.06
650.312	200.06
650.516	189.06
650.721	176.06
650.925	184.06
651.13	168.06
651.334	168.06
651.539	154.06
651.743	161.06
651.947	169.06
652.152	169.06
652.356	170.06
652.56	160.06
652.764	174.06
652.969	164.06
653.173	157.06
653.377	160.06
653.581	162.06
653.785	151.06
653.99	156.06
654.194	154.06
654.398	138.06
654.602	142.06
654.806	145.06
655.01	153.06
655.214	133.06
655.418	128.06
655.622	139.06
655.826	142.06
656.03	161.06
656.234	140.06
656.438	152.06
656.642	164.06
656.846	135.06
657.049	144.06
657.253	140.06
657.457	124.06
657.661	112.06
657.865	110.06
658.068	118.06
658.272	92.06
658.476	116.06
658.68	120.06
658.883	112.06
659.087	116.06
659.291	110.06
659.494	100.06
659.698	97.06
659.901	96.06
660.105	100.06
660.309	109.06
660.512	80.06
660.716	87.06
660.919	99.06
661.123	102.06
661.326	84.06
661.53	89.06
661.733	81.06
661.936	84.06
662.14	88.06
662.343	91.06
662.546	73.06
662.75	72.06
662.953	88.06
663.156	78.06
663.36	80.06
663.563	90.06
663.766	89.06
663.969	87.06
664.173	61.06
664.376	72.06
664.579	68.06
664.782	68.06
664.985	62.06
665.188	83.06
665.391	75.06
665.594	63.06
665.797	75.06
666	77.06
666.203	63.06
666.406	70.06
666.609	62.06
666.812	69.06
667.015	82.06
667.218	73.06
667.421	82.06
667.624	67.06
667.827	78.06
668.03	81.06
668.232	77.06
668.435	84.06
668.638	75.06
668.841	89.06
669.043	90.06
669.246	66.06
669.449	72.06
669.651	72.06
669.854	61.06
670.057	79.06
670.259	78.06
670.462	65.06
670.665	71.06
670.867	77.06
671.07	79.06
671.272	97.06
671.475	91.06
671.677	70.06
671.88	89.06
672.082	59.06
672.284	86.06
672.487	101.06
672.689	73.06
672.892	82.06
