Data from 1963.PennyLincolnUp.Lamp.En5.5.200Scan.071719.P1._HRD10591_13-58-13-063.txt Node
Date: Thu Jul 18 13:58:13 EDT 2019
User: cochatt
Spectrometer: HR+D1059
Trigger mode: 1
Integration Time (sec): 1.000000E-1
Scans to average: 1
Electric dark correction enabled: true
Nonlinearity correction enabled: false
Boxcar width: 0
XAxis mode: Wavelengths
Number of Pixels in Spectrum: 2048
>>>>>Begin Spectral Data<<<<<
223.165	-16.94
223.4	-16.94
223.635	-16.94
223.869	-19.94
224.104	-6.94
224.338	-11.94
224.573	-5.94
224.808	-9.94
225.042	-23.94
225.277	-6.94
225.511	11.06
225.746	5.06
225.98	0.06
226.215	18.06
226.449	0.06
226.683	30.06
226.918	25.06
227.152	13.06
227.387	27.06
227.621	32.06
227.856	37.06
228.09	35.06
228.324	60.06
228.559	46.06
228.793	54.06
229.027	98.06
229.262	102.06
229.496	101.06
229.73	114.06
229.964	151.06
230.199	124.06
230.433	97.06
230.667	95.06
230.901	108.06
231.136	132.06
231.37	119.06
231.604	117.06
231.838	113.06
232.072	117.06
232.306	110.06
232.541	126.06
232.775	110.06
233.009	111.06
233.243	114.06
233.477	126.06
233.711	121.06
233.945	122.06
234.179	117.06
234.413	122.06
234.647	130.06
234.881	106.06
235.115	122.06
235.349	117.06
235.583	138.06
235.817	124.06
236.051	126.06
236.285	121.06
236.519	125.06
236.753	124.06
236.987	152.06
237.221	160.06
237.455	186.06
237.689	162.06
237.922	133.06
238.156	126.06
238.39	122.06
238.624	107.06
238.858	120.06
239.091	130.06
239.325	125.06
239.559	129.06
239.793	131.06
240.027	150.06
240.26	139.06
240.494	130.06
240.728	131.06
240.961	144.06
241.195	150.06
241.429	136.06
241.662	145.06
241.896	146.06
242.13	146.06
242.363	136.06
242.597	131.06
242.83	150.06
243.064	160.06
243.298	150.06
243.531	132.06
243.765	146.06
243.998	136.06
244.232	159.06
244.465	161.06
244.699	164.06
244.932	156.06
245.166	162.06
245.399	139.06
245.633	168.06
245.866	179.06
246.099	169.06
246.333	158.06
246.566	146.06
246.8	165.06
247.033	171.06
247.266	179.06
247.5	186.06
247.733	157.06
247.966	187.06
248.2	182.06
248.433	192.06
248.666	191.06
248.899	187.06
249.133	180.06
249.366	192.06
249.599	201.06
249.832	193.06
250.066	186.06
250.299	192.06
250.532	191.06
250.765	200.06
250.998	215.06
251.231	215.06
251.465	216.06
251.698	224.06
251.931	213.06
252.164	212.06
252.397	218.06
252.63	203.06
252.863	211.06
253.096	194.06
253.329	216.06
253.562	215.06
253.795	236.06
254.028	214.06
254.261	222.06
254.494	234.06
254.727	250.06
254.96	263.06
255.193	258.06
255.426	241.06
255.659	239.06
255.892	210.06
256.124	220.06
256.357	229.06
256.59	233.06
256.823	213.06
257.056	208.06
257.289	234.06
257.521	221.06
257.754	225.06
257.987	231.06
258.22	224.06
258.452	221.06
258.685	212.06
258.918	229.06
259.151	230.06
259.383	223.06
259.616	227.06
259.849	228.06
260.081	212.06
260.314	240.06
260.547	266.06
260.779	246.06
261.012	234.06
261.244	223.06
261.477	235.06
261.71	230.06
261.942	213.06
262.175	244.06
262.407	242.06
262.64	218.06
262.872	234.06
263.105	210.06
263.337	232.06
263.57	235.06
263.802	221.06
264.035	228.06
264.267	219.06
264.499	233.06
264.732	246.06
264.964	227.06
265.197	243.06
265.429	238.06
265.661	233.06
265.894	230.06
266.126	236.06
266.358	229.06
266.591	224.06
266.823	242.06
267.055	230.06
267.287	248.06
267.52	245.06
267.752	244.06
267.984	244.06
268.216	258.06
268.448	245.06
268.681	252.06
268.913	275.06
269.145	272.06
269.377	290.06
269.609	269.06
269.841	286.06
270.073	283.06
270.306	308.06
270.538	320.06
270.77	315.06
271.002	291.06
271.234	290.06
271.466	299.06
271.698	322.06
271.93	323.06
272.162	297.06
272.394	320.06
272.626	281.06
272.858	283.06
273.09	303.06
273.322	282.06
273.553	287.06
273.785	289.06
274.017	280.06
274.249	299.06
274.481	275.06
274.713	302.06
274.945	286.06
275.176	280.06
275.408	278.06
275.64	299.06
275.872	286.06
276.104	293.06
276.335	313.06
276.567	310.06
276.799	289.06
277.031	306.06
277.262	307.06
277.494	322.06
277.726	322.06
277.957	310.06
278.189	308.06
278.421	302.06
278.652	308.06
278.884	295.06
279.115	298.06
279.347	290.06
279.579	324.06
279.81	308.06
280.042	316.06
280.273	297.06
280.505	333.06
280.736	319.06
280.968	312.06
281.199	295.06
281.431	312.06
281.662	323.06
281.894	307.06
282.125	316.06
282.356	321.06
282.588	324.06
282.819	330.06
283.051	325.06
283.282	307.06
283.513	314.06
283.745	317.06
283.976	345.06
284.207	330.06
284.439	320.06
284.67	326.06
284.901	329.06
285.132	329.06
285.364	331.06
285.595	320.06
285.826	325.06
286.057	351.06
286.288	336.06
286.52	331.06
286.751	335.06
286.982	329.06
287.213	320.06
287.444	327.06
287.675	337.06
287.906	329.06
288.138	346.06
288.369	341.06
288.6	361.06
288.831	332.06
289.062	334.06
289.293	334.06
289.524	344.06
289.755	323.06
289.986	323.06
290.217	358.06
290.448	338.06
290.679	350.06
290.91	367.06
291.141	352.06
291.371	343.06
291.602	363.06
291.833	353.06
292.064	347.06
292.295	361.06
292.526	349.06
292.757	356.06
292.987	356.06
293.218	331.06
293.449	371.06
293.68	345.06
293.91	355.06
294.141	367.06
294.372	335.06
294.603	355.06
294.833	358.06
295.064	334.06
295.295	353.06
295.525	354.06
295.756	357.06
295.987	354.06
296.217	377.06
296.448	399.06
296.679	361.06
296.909	358.06
297.14	370.06
297.37	378.06
297.601	372.06
297.831	375.06
298.062	352.06
298.292	382.06
298.523	373.06
298.753	378.06
298.984	356.06
299.214	382.06
299.445	370.06
299.675	370.06
299.905	391.06
300.136	382.06
300.366	397.06
300.597	378.06
300.827	395.06
301.057	394.06
301.288	403.06
301.518	405.06
301.748	430.06
301.979	398.06
302.209	385.06
302.439	422.06
302.669	396.06
302.9	395.06
303.13	408.06
303.36	404.06
303.59	408.06
303.82	415.06
304.051	419.06
304.281	407.06
304.511	397.06
304.741	401.06
304.971	395.06
305.201	376.06
305.431	388.06
305.661	408.06
305.891	397.06
306.121	394.06
306.352	384.06
306.582	398.06
306.812	399.06
307.042	388.06
307.272	390.06
307.502	390.06
307.731	399.06
307.961	392.06
308.191	388.06
308.421	393.06
308.651	408.06
308.881	418.06
309.111	386.06
309.341	396.06
309.571	416.06
309.8	407.06
310.03	405.06
310.26	409.06
310.49	405.06
310.72	415.06
310.949	420.06
311.179	423.06
311.409	438.06
311.639	422.06
311.868	422.06
312.098	417.06
312.328	432.06
312.557	431.06
312.787	432.06
313.017	437.06
313.246	442.06
313.476	420.06
313.706	428.06
313.935	439.06
314.165	442.06
314.394	442.06
314.624	439.06
314.853	460.06
315.083	433.06
315.312	450.06
315.542	447.06
315.771	432.06
316.001	454.06
316.23	438.06
316.46	452.06
316.689	437.06
316.919	438.06
317.148	462.06
317.377	432.06
317.607	440.06
317.836	420.06
318.065	436.06
318.295	427.06
318.524	440.06
318.753	428.06
318.983	456.06
319.212	443.06
319.441	443.06
319.67	446.06
319.9	431.06
320.129	434.06
320.358	424.06
320.587	444.06
320.816	455.06
321.046	460.06
321.275	456.06
321.504	454.06
321.733	448.06
321.962	460.06
322.191	467.06
322.42	472.06
322.649	482.06
322.878	469.06
323.108	467.06
323.337	502.06
323.566	481.06
323.795	536.06
324.024	540.06
324.253	591.06
324.482	743.06
324.71	1032.06
324.939	1450.06
325.168	1300.06
325.397	758.06
325.626	583.06
325.855	528.06
326.084	526.06
326.313	513.06
326.542	505.06
326.77	561.06
326.999	596.06
327.228	735.06
327.457	973.06
327.686	1176.06
327.914	836.06
328.143	636.06
328.372	607.06
328.6	572.06
328.829	549.06
329.058	539.06
329.287	565.06
329.515	542.06
329.744	514.06
329.972	538.06
330.201	544.06
330.43	559.06
330.658	565.06
330.887	580.06
331.115	586.06
331.344	571.06
331.572	537.06
331.801	570.06
332.03	540.06
332.258	546.06
332.486	538.06
332.715	560.06
332.943	547.06
333.172	591.06
333.4	579.06
333.629	604.06
333.857	623.06
334.085	606.06
334.314	619.06
334.542	647.06
334.771	655.06
334.999	620.06
335.227	586.06
335.455	551.06
335.684	577.06
335.912	555.06
336.14	553.06
336.369	539.06
336.597	543.06
336.825	542.06
337.053	544.06
337.281	538.06
337.51	557.06
337.738	556.06
337.966	526.06
338.194	522.06
338.422	532.06
338.65	542.06
338.878	528.06
339.106	527.06
339.334	523.06
339.562	522.06
339.79	516.06
340.018	484.06
340.246	500.06
340.474	496.06
340.702	499.06
340.93	508.06
341.158	501.06
341.386	500.06
341.614	498.06
341.842	504.06
342.07	512.06
342.298	487.06
342.526	503.06
342.754	520.06
342.981	512.06
343.209	501.06
343.437	535.06
343.665	539.06
343.893	564.06
344.12	578.06
344.348	578.06
344.576	560.06
344.804	523.06
345.031	519.06
345.259	525.06
345.487	522.06
345.714	512.06
345.942	485.06
346.17	498.06
346.397	483.06
346.625	494.06
346.853	489.06
347.08	477.06
347.308	475.06
347.535	500.06
347.763	498.06
347.99	484.06
348.218	499.06
348.445	503.06
348.673	496.06
348.9	487.06
349.128	495.06
349.355	475.06
349.583	468.06
349.81	470.06
350.037	502.06
350.265	470.06
350.492	471.06
350.72	464.06
350.947	468.06
351.174	468.06
351.402	482.06
351.629	497.06
351.856	497.06
352.083	479.06
352.311	481.06
352.538	491.06
352.765	505.06
352.992	478.06
353.22	448.06
353.447	478.06
353.674	481.06
353.901	471.06
354.128	475.06
354.355	461.06
354.583	458.06
354.81	471.06
355.037	470.06
355.264	481.06
355.491	485.06
355.718	483.06
355.945	454.06
356.172	456.06
356.399	473.06
356.626	478.06
356.853	476.06
357.08	458.06
357.307	478.06
357.534	481.06
357.761	463.06
357.988	486.06
358.215	478.06
358.441	493.06
358.668	477.06
358.895	454.06
359.122	480.06
359.349	491.06
359.576	484.06
359.802	480.06
360.029	480.06
360.256	504.06
360.483	490.06
360.709	497.06
360.936	488.06
361.163	487.06
361.39	492.06
361.616	480.06
361.843	481.06
362.07	500.06
362.296	480.06
362.523	460.06
362.749	498.06
362.976	485.06
363.203	484.06
363.429	492.06
363.656	481.06
363.882	498.06
364.109	471.06
364.335	468.06
364.562	471.06
364.788	466.06
365.015	476.06
365.241	471.06
365.468	480.06
365.694	477.06
365.92	451.06
366.147	483.06
366.373	466.06
366.599	475.06
366.826	480.06
367.052	472.06
367.278	462.06
367.505	480.06
367.731	459.06
367.957	478.06
368.184	487.06
368.41	490.06
368.636	486.06
368.862	508.06
369.089	486.06
369.315	488.06
369.541	486.06
369.767	469.06
369.993	484.06
370.219	511.06
370.445	487.06
370.672	481.06
370.898	484.06
371.124	514.06
371.35	504.06
371.576	502.06
371.802	487.06
372.028	484.06
372.254	507.06
372.48	494.06
372.706	496.06
372.932	519.06
373.158	500.06
373.384	526.06
373.61	517.06
373.835	505.06
374.061	492.06
374.287	519.06
374.513	507.06
374.739	526.06
374.965	528.06
375.191	548.06
375.416	544.06
375.642	538.06
375.868	505.06
376.094	497.06
376.319	531.06
376.545	508.06
376.771	521.06
376.997	525.06
377.222	522.06
377.448	506.06
377.674	488.06
377.899	498.06
378.125	479.06
378.35	504.06
378.576	496.06
378.802	512.06
379.027	499.06
379.253	479.06
379.478	475.06
379.704	490.06
379.929	499.06
380.155	508.06
380.38	488.06
380.606	514.06
380.831	496.06
381.057	509.06
381.282	485.06
381.507	497.06
381.733	495.06
381.958	519.06
382.184	513.06
382.409	536.06
382.634	533.06
382.86	535.06
383.085	513.06
383.31	525.06
383.535	526.06
383.761	549.06
383.986	535.06
384.211	553.06
384.436	573.06
384.662	555.06
384.887	542.06
385.112	574.06
385.337	571.06
385.562	592.06
385.787	574.06
386.013	570.06
386.238	579.06
386.463	583.06
386.688	591.06
386.913	563.06
387.138	570.06
387.363	582.06
387.588	567.06
387.813	595.06
388.038	594.06
388.263	568.06
388.488	604.06
388.713	596.06
388.938	583.06
389.163	566.06
389.387	584.06
389.612	555.06
389.837	578.06
390.062	571.06
390.287	535.06
390.512	575.06
390.736	594.06
390.961	578.06
391.186	581.06
391.411	595.06
391.636	635.06
391.86	618.06
392.085	618.06
392.31	618.06
392.534	617.06
392.759	612.06
392.984	617.06
393.208	610.06
393.433	611.06
393.658	627.06
393.882	583.06
394.107	577.06
394.331	600.06
394.556	602.06
394.78	620.06
395.005	598.06
395.229	622.06
395.454	629.06
395.678	626.06
395.903	647.06
396.127	630.06
396.352	632.06
396.576	609.06
396.801	590.06
397.025	615.06
397.249	612.06
397.474	615.06
397.698	630.06
397.922	653.06
398.147	635.06
398.371	645.06
398.595	662.06
398.82	677.06
399.044	704.06
399.268	762.06
399.492	837.06
399.717	895.06
399.941	926.06
400.165	885.06
400.389	855.06
400.613	754.06
400.837	713.06
401.062	703.06
401.286	696.06
401.51	684.06
401.734	683.06
401.958	704.06
402.182	723.06
402.406	703.06
402.63	692.06
402.854	718.06
403.078	716.06
403.302	746.06
403.526	747.06
403.75	735.06
403.974	759.06
404.198	744.06
404.422	762.06
404.645	784.06
404.869	773.06
405.093	770.06
405.317	804.06
405.541	820.06
405.765	777.06
405.988	732.06
406.212	764.06
406.436	774.06
406.66	803.06
406.883	779.06
407.107	831.06
407.331	858.06
407.555	915.06
407.778	929.06
408.002	878.06
408.226	811.06
408.449	797.06
408.673	786.06
408.896	788.06
409.12	804.06
409.344	808.06
409.567	766.06
409.791	728.06
410.014	742.06
410.238	734.06
410.461	755.06
410.685	737.06
410.908	721.06
411.132	737.06
411.355	777.06
411.578	736.06
411.802	727.06
412.025	722.06
412.249	717.06
412.472	752.06
412.695	796.06
412.919	746.06
413.142	732.06
413.365	695.06
413.589	693.06
413.812	695.06
414.035	691.06
414.258	697.06
414.482	691.06
414.705	690.06
414.928	683.06
415.151	698.06
415.374	715.06
415.597	700.06
415.821	683.06
416.044	679.06
416.267	665.06
416.49	655.06
416.713	656.06
416.936	705.06
417.159	679.06
417.382	674.06
417.605	694.06
417.828	668.06
418.051	688.06
418.274	702.06
418.497	662.06
418.72	698.06
418.943	702.06
419.166	702.06
419.389	733.06
419.611	761.06
419.834	740.06
420.057	718.06
420.28	715.06
420.503	689.06
420.726	691.06
420.948	707.06
421.171	735.06
421.394	758.06
421.617	706.06
421.839	694.06
422.062	717.06
422.285	719.06
422.507	758.06
422.73	803.06
422.953	792.06
423.175	732.06
423.398	730.06
423.621	725.06
423.843	719.06
424.066	739.06
424.288	743.06
424.511	764.06
424.733	774.06
424.956	815.06
425.178	795.06
425.401	786.06
425.623	839.06
425.846	731.06
426.068	707.06
426.291	671.06
426.513	673.06
426.735	679.06
426.958	717.06
427.18	788.06
427.402	900.06
427.625	910.06
427.847	824.06
428.069	751.06
428.292	697.06
428.514	677.06
428.736	671.06
428.958	651.06
429.181	634.06
429.403	625.06
429.625	665.06
429.847	662.06
430.069	703.06
430.292	705.06
430.514	657.06
430.736	637.06
430.958	619.06
431.18	649.06
431.402	635.06
431.624	631.06
431.846	625.06
432.068	628.06
432.29	619.06
432.512	620.06
432.734	646.06
432.956	624.06
433.178	638.06
433.4	630.06
433.622	640.06
433.844	645.06
434.066	622.06
434.287	667.06
434.509	648.06
434.731	675.06
434.953	680.06
435.175	705.06
435.397	710.06
435.618	715.06
435.84	710.06
436.062	754.06
436.284	782.06
436.505	711.06
436.727	682.06
436.949	658.06
437.17	667.06
437.392	658.06
437.614	628.06
437.835	633.06
438.057	701.06
438.278	776.06
438.5	778.06
438.721	839.06
438.943	823.06
439.165	702.06
439.386	689.06
439.608	646.06
439.829	696.06
440.05	688.06
440.272	725.06
440.493	675.06
440.715	686.06
440.936	666.06
441.158	663.06
441.379	649.06
441.6	691.06
441.822	702.06
442.043	711.06
442.264	774.06
442.486	819.06
442.707	769.06
442.928	692.06
443.149	710.06
443.371	724.06
443.592	755.06
443.813	832.06
444.034	870.06
444.255	795.06
444.476	754.06
444.698	791.06
444.919	800.06
445.14	888.06
445.361	810.06
445.582	759.06
445.803	770.06
446.024	824.06
446.245	844.06
446.466	747.06
446.687	702.06
446.908	656.06
447.129	635.06
447.35	644.06
447.571	632.06
447.792	623.06
448.013	618.06
448.234	642.06
448.455	665.06
448.675	748.06
448.896	835.06
449.117	720.06
449.338	683.06
449.559	774.06
449.779	841.06
450	734.06
450.221	649.06
450.442	609.06
450.662	595.06
450.883	619.06
451.104	626.06
451.324	587.06
451.545	577.06
451.766	581.06
451.986	554.06
452.207	564.06
452.428	582.06
452.648	566.06
452.869	573.06
453.089	586.06
453.31	602.06
453.53	556.06
453.751	548.06
453.971	562.06
454.192	590.06
454.412	574.06
454.633	551.06
454.853	544.06
455.073	553.06
455.294	548.06
455.514	618.06
455.734	610.06
455.955	549.06
456.175	562.06
456.395	551.06
456.616	554.06
456.836	524.06
457.056	547.06
457.276	522.06
457.497	551.06
457.717	559.06
457.937	553.06
458.157	569.06
458.377	544.06
458.598	589.06
458.818	595.06
459.038	676.06
459.258	682.06
459.478	647.06
459.698	668.06
459.918	660.06
460.138	674.06
460.358	684.06
460.578	700.06
460.798	684.06
461.018	688.06
461.238	692.06
461.458	686.06
461.678	700.06
461.898	707.06
462.118	710.06
462.338	745.06
462.558	748.06
462.777	730.06
462.997	807.06
463.217	852.06
463.437	862.06
463.657	806.06
463.876	759.06
464.096	784.06
464.316	804.06
464.536	764.06
464.755	778.06
464.975	740.06
465.195	740.06
465.414	750.06
465.634	688.06
465.854	666.06
466.073	623.06
466.293	628.06
466.512	622.06
466.732	608.06
466.951	608.06
467.171	599.06
467.391	600.06
467.61	604.06
467.829	601.06
468.049	603.06
468.268	609.06
468.488	604.06
468.707	587.06
468.927	622.06
469.146	576.06
469.365	590.06
469.585	587.06
469.804	603.06
470.023	619.06
470.243	626.06
470.462	611.06
470.681	650.06
470.901	638.06
471.12	637.06
471.339	634.06
471.558	616.06
471.777	631.06
471.997	602.06
472.216	604.06
472.435	625.06
472.654	642.06
472.873	606.06
473.092	592.06
473.311	568.06
473.53	608.06
473.749	613.06
473.968	601.06
474.187	664.06
474.406	718.06
474.625	605.06
474.844	596.06
475.063	596.06
475.282	594.06
475.501	600.06
475.72	626.06
475.939	598.06
476.158	588.06
476.377	593.06
476.596	645.06
476.814	630.06
477.033	640.06
477.252	660.06
477.471	640.06
477.69	630.06
477.908	663.06
478.127	681.06
478.346	690.06
478.564	704.06
478.783	709.06
479.002	715.06
479.22	727.06
479.439	719.06
479.658	742.06
479.876	737.06
480.095	760.06
480.313	785.06
480.532	775.06
480.751	782.06
480.969	774.06
481.188	794.06
481.406	821.06
481.624	747.06
481.843	706.06
482.061	708.06
482.28	705.06
482.498	678.06
482.717	670.06
482.935	683.06
483.153	686.06
483.372	707.06
483.59	692.06
483.808	687.06
484.027	674.06
484.245	704.06
484.463	693.06
484.681	713.06
484.9	694.06
485.118	723.06
485.336	712.06
485.554	728.06
485.772	753.06
485.99	739.06
486.209	698.06
486.427	743.06
486.645	715.06
486.863	743.06
487.081	737.06
487.299	764.06
487.517	751.06
487.735	736.06
487.953	747.06
488.171	712.06
488.389	734.06
488.607	719.06
488.825	728.06
489.043	734.06
489.261	742.06
489.479	783.06
489.696	752.06
489.914	738.06
490.132	755.06
490.35	754.06
490.568	784.06
490.786	786.06
491.003	768.06
491.221	776.06
491.439	799.06
491.657	818.06
491.874	803.06
492.092	795.06
492.31	826.06
492.527	837.06
492.745	814.06
492.963	812.06
493.18	849.06
493.398	848.06
493.615	835.06
493.833	859.06
494.05	878.06
494.268	852.06
494.485	822.06
494.703	830.06
494.92	819.06
495.138	849.06
495.355	854.06
495.573	850.06
495.79	849.06
496.008	867.06
496.225	890.06
496.442	882.06
496.66	884.06
496.877	841.06
497.094	909.06
497.312	891.06
497.529	914.06
497.746	913.06
497.963	930.06
498.181	997.06
498.398	1019.06
498.615	1056.06
498.832	1095.06
499.049	1154.06
499.267	1184.06
499.484	1284.06
499.701	1383.06
499.918	1417.06
500.135	1566.06
500.352	1702.06
500.569	1792.06
500.786	1796.06
501.003	1694.06
501.22	1574.06
501.437	1458.06
501.654	1329.06
501.871	1327.06
502.088	1231.06
502.305	1180.06
502.522	1091.06
502.739	1062.06
502.956	1008.06
503.172	978.06
503.389	933.06
503.606	963.06
503.823	916.06
504.04	942.06
504.256	922.06
504.473	954.06
504.69	963.06
504.907	939.06
505.123	900.06
505.34	873.06
505.557	846.06
505.773	841.06
505.99	823.06
506.207	807.06
506.423	818.06
506.64	818.06
506.856	788.06
507.073	765.06
507.289	752.06
507.506	788.06
507.722	800.06
507.939	780.06
508.155	755.06
508.372	745.06
508.588	764.06
508.805	743.06
509.021	742.06
509.238	714.06
509.454	752.06
509.67	721.06
509.887	730.06
510.103	731.06
510.319	715.06
510.536	778.06
510.752	1118.06
510.968	970.06
511.184	743.06
511.401	727.06
511.617	725.06
511.833	726.06
512.049	706.06
512.265	692.06
512.481	689.06
512.698	701.06
512.914	715.06
513.13	687.06
513.346	695.06
513.562	723.06
513.778	714.06
513.994	708.06
514.21	702.06
514.426	711.06
514.642	739.06
514.858	730.06
515.074	794.06
515.29	842.06
515.506	1134.06
515.721	1009.06
515.937	810.06
516.153	764.06
516.369	754.06
516.585	780.06
516.801	784.06
517.016	818.06
517.232	843.06
517.448	841.06
517.664	853.06
517.879	873.06
518.095	889.06
518.311	849.06
518.527	805.06
518.742	790.06
518.958	786.06
519.173	766.06
519.389	739.06
519.605	752.06
519.82	740.06
520.036	753.06
520.251	722.06
520.467	753.06
520.682	723.06
520.898	723.06
521.113	712.06
521.329	763.06
521.544	790.06
521.76	884.06
521.975	1282.06
522.19	1336.06
522.406	841.06
522.621	706.06
522.836	669.06
523.052	669.06
523.267	660.06
523.482	666.06
523.698	642.06
523.913	650.06
524.128	636.06
524.343	645.06
524.559	652.06
524.774	636.06
524.989	632.06
525.204	629.06
525.419	629.06
525.634	631.06
525.849	628.06
526.064	619.06
526.28	611.06
526.495	593.06
526.71	609.06
526.925	584.06
527.14	602.06
527.355	594.06
527.57	614.06
527.785	591.06
527.999	586.06
528.214	601.06
528.429	616.06
528.644	622.06
528.859	596.06
529.074	599.06
529.289	625.06
529.503	656.06
529.718	629.06
529.933	615.06
530.148	606.06
530.363	624.06
530.577	602.06
530.792	601.06
531.007	594.06
531.221	619.06
531.436	606.06
531.651	618.06
531.865	610.06
532.08	586.06
532.295	594.06
532.509	589.06
532.724	610.06
532.938	590.06
533.153	608.06
533.367	613.06
533.582	610.06
533.796	595.06
534.011	585.06
534.225	573.06
534.44	594.06
534.654	586.06
534.868	596.06
535.083	603.06
535.297	560.06
535.511	579.06
535.726	606.06
535.94	610.06
536.154	561.06
536.369	583.06
536.583	575.06
536.797	563.06
537.011	570.06
537.225	570.06
537.44	558.06
537.654	571.06
537.868	554.06
538.082	565.06
538.296	566.06
538.51	561.06
538.724	569.06
538.938	557.06
539.153	555.06
539.367	558.06
539.581	562.06
539.795	561.06
540.009	547.06
540.222	551.06
540.436	559.06
540.65	579.06
540.864	558.06
541.078	555.06
541.292	546.06
541.506	547.06
541.72	540.06
541.934	543.06
542.147	554.06
542.361	544.06
542.575	555.06
542.789	578.06
543.002	547.06
543.216	575.06
543.43	583.06
543.644	563.06
543.857	564.06
544.071	549.06
544.285	534.06
544.498	547.06
544.712	577.06
544.925	569.06
545.139	551.06
545.352	551.06
545.566	559.06
545.779	543.06
545.993	567.06
546.206	587.06
546.42	548.06
546.633	554.06
546.847	564.06
547.06	578.06
547.274	553.06
547.487	558.06
547.7	557.06
547.914	572.06
548.127	566.06
548.34	536.06
548.554	549.06
548.767	547.06
548.98	562.06
549.193	552.06
549.407	564.06
549.62	573.06
549.833	577.06
550.046	555.06
550.259	571.06
550.473	560.06
550.686	554.06
550.899	572.06
551.112	547.06
551.325	540.06
551.538	543.06
551.751	578.06
551.964	556.06
552.177	560.06
552.39	551.06
552.603	571.06
552.816	570.06
553.029	612.06
553.242	592.06
553.455	611.06
553.667	600.06
553.88	609.06
554.093	591.06
554.306	569.06
554.519	599.06
554.732	555.06
554.944	534.06
555.157	528.06
555.37	548.06
555.583	567.06
555.795	540.06
556.008	547.06
556.221	502.06
556.433	507.06
556.646	503.06
556.859	506.06
557.071	507.06
557.284	497.06
557.496	483.06
557.709	486.06
557.921	486.06
558.134	512.06
558.346	478.06
558.559	477.06
558.771	499.06
558.984	470.06
559.196	482.06
559.409	497.06
559.621	468.06
559.833	474.06
560.046	471.06
560.258	458.06
560.47	487.06
560.683	464.06
560.895	467.06
561.107	488.06
561.32	481.06
561.532	466.06
561.744	486.06
561.956	487.06
562.168	497.06
562.381	489.06
562.593	484.06
562.805	495.06
563.017	478.06
563.229	484.06
563.441	498.06
563.653	503.06
563.865	507.06
564.077	527.06
564.289	510.06
564.501	521.06
564.713	518.06
564.925	516.06
565.137	524.06
565.349	542.06
565.561	554.06
565.773	537.06
565.985	575.06
566.197	612.06
566.408	615.06
566.62	691.06
566.832	738.06
567.044	747.06
567.255	731.06
567.467	753.06
567.679	786.06
567.891	815.06
568.102	834.06
568.314	801.06
568.526	732.06
568.737	682.06
568.949	641.06
569.161	616.06
569.372	568.06
569.584	558.06
569.795	531.06
570.007	520.06
570.218	537.06
570.43	550.06
570.641	524.06
570.853	509.06
571.064	508.06
571.276	534.06
571.487	484.06
571.698	484.06
571.91	475.06
572.121	479.06
572.333	481.06
572.544	446.06
572.755	450.06
572.966	437.06
573.178	443.06
573.389	451.06
573.6	426.06
573.811	419.06
574.023	405.06
574.234	419.06
574.445	432.06
574.656	420.06
574.867	434.06
575.078	442.06
575.289	422.06
575.501	440.06
575.712	407.06
575.923	402.06
576.134	410.06
576.345	419.06
576.556	414.06
576.767	391.06
576.978	414.06
577.188	409.06
577.399	396.06
577.61	430.06
577.821	408.06
578.032	408.06
578.243	423.06
578.454	550.06
578.665	460.06
578.875	394.06
579.086	387.06
579.297	378.06
579.508	386.06
579.718	400.06
579.929	376.06
580.14	389.06
580.35	367.06
580.561	393.06
580.772	377.06
580.982	389.06
581.193	383.06
581.403	386.06
581.614	374.06
581.825	355.06
582.035	364.06
582.246	379.06
582.456	378.06
582.667	383.06
582.877	353.06
583.087	372.06
583.298	352.06
583.508	380.06
583.719	370.06
583.929	380.06
584.139	353.06
584.35	375.06
584.56	356.06
584.77	353.06
584.981	361.06
585.191	383.06
585.401	350.06
585.611	361.06
585.821	348.06
586.032	374.06
586.242	341.06
586.452	338.06
586.662	378.06
586.872	376.06
587.082	367.06
587.292	370.06
587.502	351.06
587.713	359.06
587.923	363.06
588.133	368.06
588.343	366.06
588.553	357.06
588.762	364.06
588.972	380.06
589.182	351.06
589.392	362.06
589.602	368.06
589.812	375.06
590.022	359.06
590.232	339.06
590.441	366.06
590.651	382.06
590.861	363.06
591.071	379.06
591.281	384.06
591.49	379.06
591.7	367.06
591.91	385.06
592.119	393.06
592.329	394.06
592.539	403.06
592.748	409.06
592.958	424.06
593.167	424.06
593.377	446.06
593.587	435.06
593.796	431.06
594.006	419.06
594.215	455.06
594.424	424.06
594.634	436.06
594.843	400.06
595.053	403.06
595.262	397.06
595.472	383.06
595.681	362.06
595.89	363.06
596.1	378.06
596.309	366.06
596.518	352.06
596.727	363.06
596.937	347.06
597.146	356.06
597.355	334.06
597.564	335.06
597.774	330.06
597.983	326.06
598.192	336.06
598.401	325.06
598.61	316.06
598.819	320.06
599.028	318.06
599.237	348.06
599.446	332.06
599.655	336.06
599.864	334.06
600.073	314.06
600.282	295.06
600.491	320.06
600.7	318.06
600.909	322.06
601.118	320.06
601.327	306.06
601.536	306.06
601.745	320.06
601.953	317.06
602.162	289.06
602.371	299.06
602.58	292.06
602.789	301.06
602.997	324.06
603.206	314.06
603.415	310.06
603.623	312.06
603.832	313.06
604.041	305.06
604.249	284.06
604.458	308.06
604.666	308.06
604.875	297.06
605.084	300.06
605.292	308.06
605.501	293.06
605.709	292.06
605.918	282.06
606.126	303.06
606.334	300.06
606.543	301.06
606.751	302.06
606.96	293.06
607.168	284.06
607.376	297.06
607.585	284.06
607.793	292.06
608.001	295.06
608.21	296.06
608.418	295.06
608.626	300.06
608.834	286.06
609.043	278.06
609.251	290.06
609.459	278.06
609.667	302.06
609.875	282.06
610.083	291.06
610.291	293.06
610.499	276.06
610.707	279.06
610.916	304.06
611.124	299.06
611.332	294.06
611.54	299.06
611.748	281.06
611.955	286.06
612.163	299.06
612.371	279.06
612.579	292.06
612.787	294.06
612.995	290.06
613.203	294.06
613.411	292.06
613.618	274.06
613.826	272.06
614.034	282.06
614.242	267.06
614.449	273.06
614.657	273.06
614.865	271.06
615.072	281.06
615.28	288.06
615.488	289.06
615.695	285.06
615.903	277.06
616.111	270.06
616.318	278.06
616.526	286.06
616.733	274.06
616.941	279.06
617.148	276.06
617.356	292.06
617.563	289.06
617.771	285.06
617.978	287.06
618.185	296.06
618.393	255.06
618.6	286.06
618.807	288.06
619.015	284.06
619.222	268.06
619.429	267.06
619.637	274.06
619.844	269.06
620.051	264.06
620.258	274.06
620.466	268.06
620.673	249.06
620.88	263.06
621.087	261.06
621.294	269.06
621.501	265.06
621.708	281.06
621.915	266.06
622.122	274.06
622.329	267.06
622.536	270.06
622.743	247.06
622.95	260.06
623.157	258.06
623.364	262.06
623.571	258.06
623.778	268.06
623.985	266.06
624.192	255.06
624.399	232.06
624.606	258.06
624.812	264.06
625.019	255.06
625.226	261.06
625.433	259.06
625.639	250.06
625.846	235.06
626.053	238.06
626.259	261.06
626.466	230.06
626.673	240.06
626.879	250.06
627.086	242.06
627.293	244.06
627.499	265.06
627.706	252.06
627.912	239.06
628.119	230.06
628.325	231.06
628.532	229.06
628.738	231.06
628.945	242.06
629.151	235.06
629.357	229.06
629.564	246.06
629.77	240.06
629.976	241.06
630.183	224.06
630.389	227.06
630.595	232.06
630.802	213.06
631.008	227.06
631.214	214.06
631.42	223.06
631.627	219.06
631.833	216.06
632.039	215.06
632.245	217.06
632.451	228.06
632.657	222.06
632.863	222.06
633.069	222.06
633.275	209.06
633.481	209.06
633.688	209.06
633.893	219.06
634.099	218.06
634.305	228.06
634.511	223.06
634.717	242.06
634.923	206.06
635.129	212.06
635.335	212.06
635.541	230.06
635.747	208.06
635.952	204.06
636.158	214.06
636.364	219.06
636.57	218.06
636.775	214.06
636.981	206.06
637.187	201.06
637.392	215.06
637.598	209.06
637.804	210.06
638.009	215.06
638.215	206.06
638.421	208.06
638.626	198.06
638.832	208.06
639.037	206.06
639.243	201.06
639.448	212.06
639.654	194.06
639.859	216.06
640.065	206.06
640.27	190.06
640.475	216.06
640.681	200.06
640.886	199.06
641.091	182.06
641.297	206.06
641.502	172.06
641.707	188.06
641.913	180.06
642.118	202.06
642.323	199.06
642.528	207.06
642.733	205.06
642.939	209.06
643.144	201.06
643.349	198.06
643.554	204.06
643.759	199.06
643.964	187.06
644.169	199.06
644.374	189.06
644.579	186.06
644.784	185.06
644.989	183.06
645.194	188.06
645.399	179.06
645.604	188.06
645.809	186.06
646.014	202.06
646.219	190.06
646.423	202.06
646.628	210.06
646.833	195.06
647.038	198.06
647.243	194.06
647.447	202.06
647.652	199.06
647.857	199.06
648.062	203.06
648.266	200.06
648.471	184.06
648.676	193.06
648.88	193.06
649.085	204.06
649.289	203.06
649.494	201.06
649.698	204.06
649.903	207.06
650.107	200.06
650.312	197.06
650.516	179.06
650.721	165.06
650.925	171.06
651.13	171.06
651.334	176.06
651.539	186.06
651.743	174.06
651.947	180.06
652.152	169.06
652.356	144.06
652.56	160.06
652.764	160.06
652.969	146.06
653.173	154.06
653.377	163.06
653.581	155.06
653.785	177.06
653.99	148.06
654.194	148.06
654.398	124.06
654.602	146.06
654.806	143.06
655.01	151.06
655.214	155.06
655.418	153.06
655.622	159.06
655.826	165.06
656.03	162.06
656.234	169.06
656.438	152.06
656.642	150.06
656.846	143.06
657.049	155.06
657.253	141.06
657.457	134.06
657.661	125.06
657.865	121.06
658.068	117.06
658.272	127.06
658.476	113.06
658.68	110.06
658.883	103.06
659.087	108.06
659.291	115.06
659.494	99.06
659.698	101.06
659.901	102.06
660.105	99.06
660.309	88.06
660.512	113.06
660.716	112.06
660.919	97.06
661.123	104.06
661.326	89.06
661.53	80.06
661.733	98.06
661.936	81.06
662.14	91.06
662.343	93.06
662.546	94.06
662.75	88.06
662.953	90.06
663.156	99.06
663.36	92.06
663.563	76.06
663.766	78.06
663.969	79.06
664.173	78.06
664.376	86.06
664.579	85.06
664.782	88.06
664.985	79.06
665.188	84.06
665.391	58.06
665.594	71.06
665.797	89.06
666	70.06
666.203	78.06
666.406	75.06
666.609	87.06
666.812	75.06
667.015	78.06
667.218	90.06
667.421	59.06
667.624	91.06
667.827	70.06
668.03	71.06
668.232	74.06
668.435	85.06
668.638	84.06
668.841	88.06
669.043	84.06
669.246	82.06
669.449	79.06
669.651	90.06
669.854	91.06
670.057	89.06
670.259	82.06
670.462	84.06
670.665	72.06
670.867	78.06
671.07	80.06
671.272	81.06
671.475	75.06
671.677	76.06
671.88	83.06
672.082	73.06
672.284	84.06
672.487	91.06
672.689	90.06
672.892	78.06
