Data from 1963.PennyLincolnUp.Lamp.En5.5.200Scan.071719.P1._HRD10591_13-59-56-064.txt Node
Date: Thu Jul 18 13:59:56 EDT 2019
User: cochatt
Spectrometer: HR+D1059
Trigger mode: 1
Integration Time (sec): 1.000000E-1
Scans to average: 1
Electric dark correction enabled: true
Nonlinearity correction enabled: false
Boxcar width: 0
XAxis mode: Wavelengths
Number of Pixels in Spectrum: 2048
>>>>>Begin Spectral Data<<<<<
223.165	-9.62
223.4	-9.62
223.635	-9.62
223.869	-22.62
224.104	-11.62
224.338	-19.62
224.573	-15.62
224.808	-17.62
225.042	-15.62
225.277	-10.62
225.511	1.38
225.746	5.38
225.98	23.38
226.215	1.38
226.449	20.38
226.683	32.38
226.918	12.38
227.152	26.38
227.387	28.38
227.621	35.38
227.856	34.38
228.09	54.38
228.324	57.38
228.559	65.38
228.793	69.38
229.027	75.38
229.262	102.38
229.496	93.38
229.73	112.38
229.964	129.38
230.199	122.38
230.433	123.38
230.667	115.38
230.901	115.38
231.136	109.38
231.37	116.38
231.604	113.38
231.838	120.38
232.072	124.38
232.306	118.38
232.541	116.38
232.775	121.38
233.009	120.38
233.243	124.38
233.477	128.38
233.711	128.38
233.945	118.38
234.179	123.38
234.413	130.38
234.647	115.38
234.881	114.38
235.115	125.38
235.349	129.38
235.583	134.38
235.817	111.38
236.051	120.38
236.285	135.38
236.519	130.38
236.753	115.38
236.987	122.38
237.221	161.38
237.455	221.38
237.689	163.38
237.922	139.38
238.156	134.38
238.39	136.38
238.624	136.38
238.858	132.38
239.091	141.38
239.325	134.38
239.559	144.38
239.793	136.38
240.027	149.38
240.26	150.38
240.494	151.38
240.728	147.38
240.961	153.38
241.195	147.38
241.429	148.38
241.662	167.38
241.896	141.38
242.13	152.38
242.363	138.38
242.597	146.38
242.83	136.38
243.064	158.38
243.298	148.38
243.531	170.38
243.765	153.38
243.998	156.38
244.232	156.38
244.465	175.38
244.699	159.38
244.932	163.38
245.166	148.38
245.399	170.38
245.633	156.38
245.866	170.38
246.099	185.38
246.333	162.38
246.566	160.38
246.8	174.38
247.033	164.38
247.266	169.38
247.5	178.38
247.733	172.38
247.966	180.38
248.2	165.38
248.433	168.38
248.666	173.38
248.899	203.38
249.133	201.38
249.366	204.38
249.599	214.38
249.832	206.38
250.066	199.38
250.299	195.38
250.532	205.38
250.765	205.38
250.998	232.38
251.231	250.38
251.465	224.38
251.698	213.38
251.931	193.38
252.164	204.38
252.397	215.38
252.63	231.38
252.863	228.38
253.096	210.38
253.329	229.38
253.562	222.38
253.795	214.38
254.028	231.38
254.261	216.38
254.494	229.38
254.727	270.38
254.96	278.38
255.193	274.38
255.426	257.38
255.659	240.38
255.892	229.38
256.124	236.38
256.357	257.38
256.59	254.38
256.823	234.38
257.056	226.38
257.289	222.38
257.521	225.38
257.754	231.38
257.987	237.38
258.22	242.38
258.452	219.38
258.685	231.38
258.918	234.38
259.151	238.38
259.383	246.38
259.616	243.38
259.849	248.38
260.081	249.38
260.314	250.38
260.547	274.38
260.779	257.38
261.012	254.38
261.244	233.38
261.477	243.38
261.71	223.38
261.942	252.38
262.175	248.38
262.407	257.38
262.64	237.38
262.872	243.38
263.105	235.38
263.337	244.38
263.57	230.38
263.802	234.38
264.035	229.38
264.267	245.38
264.499	234.38
264.732	249.38
264.964	259.38
265.197	253.38
265.429	246.38
265.661	236.38
265.894	241.38
266.126	246.38
266.358	253.38
266.591	234.38
266.823	243.38
267.055	254.38
267.287	252.38
267.52	271.38
267.752	266.38
267.984	270.38
268.216	263.38
268.448	272.38
268.681	278.38
268.913	267.38
269.145	284.38
269.377	307.38
269.609	296.38
269.841	287.38
270.073	284.38
270.306	304.38
270.538	327.38
270.77	320.38
271.002	321.38
271.234	309.38
271.466	312.38
271.698	314.38
271.93	324.38
272.162	325.38
272.394	324.38
272.626	339.38
272.858	327.38
273.09	300.38
273.322	310.38
273.553	304.38
273.785	309.38
274.017	298.38
274.249	295.38
274.481	285.38
274.713	297.38
274.945	311.38
275.176	307.38
275.408	306.38
275.64	300.38
275.872	307.38
276.104	300.38
276.335	302.38
276.567	310.38
276.799	322.38
277.031	336.38
277.262	341.38
277.494	345.38
277.726	346.38
277.957	341.38
278.189	329.38
278.421	310.38
278.652	310.38
278.884	325.38
279.115	297.38
279.347	313.38
279.579	310.38
279.81	296.38
280.042	322.38
280.273	318.38
280.505	317.38
280.736	312.38
280.968	295.38
281.199	303.38
281.431	327.38
281.662	327.38
281.894	314.38
282.125	337.38
282.356	336.38
282.588	337.38
282.819	340.38
283.051	322.38
283.282	330.38
283.513	332.38
283.745	315.38
283.976	349.38
284.207	349.38
284.439	317.38
284.67	340.38
284.901	330.38
285.132	341.38
285.364	328.38
285.595	324.38
285.826	338.38
286.057	354.38
286.288	331.38
286.52	338.38
286.751	339.38
286.982	344.38
287.213	347.38
287.444	344.38
287.675	332.38
287.906	348.38
288.138	347.38
288.369	368.38
288.6	359.38
288.831	360.38
289.062	339.38
289.293	331.38
289.524	340.38
289.755	342.38
289.986	356.38
290.217	360.38
290.448	335.38
290.679	326.38
290.91	339.38
291.141	361.38
291.371	361.38
291.602	365.38
291.833	331.38
292.064	359.38
292.295	374.38
292.526	372.38
292.757	370.38
292.987	357.38
293.218	368.38
293.449	346.38
293.68	343.38
293.91	381.38
294.141	365.38
294.372	347.38
294.603	349.38
294.833	379.38
295.064	374.38
295.295	364.38
295.525	363.38
295.756	366.38
295.987	359.38
296.217	374.38
296.448	380.38
296.679	368.38
296.909	369.38
297.14	357.38
297.37	403.38
297.601	358.38
297.831	376.38
298.062	360.38
298.292	383.38
298.523	365.38
298.753	382.38
298.984	384.38
299.214	385.38
299.445	383.38
299.675	400.38
299.905	389.38
300.136	390.38
300.366	382.38
300.597	377.38
300.827	402.38
301.057	389.38
301.288	428.38
301.518	402.38
301.748	398.38
301.979	429.38
302.209	399.38
302.439	412.38
302.669	407.38
302.9	422.38
303.13	374.38
303.36	435.38
303.59	424.38
303.82	438.38
304.051	411.38
304.281	404.38
304.511	394.38
304.741	394.38
304.971	387.38
305.201	406.38
305.431	387.38
305.661	423.38
305.891	402.38
306.121	392.38
306.352	412.38
306.582	407.38
306.812	400.38
307.042	391.38
307.272	407.38
307.502	407.38
307.731	391.38
307.961	418.38
308.191	427.38
308.421	430.38
308.651	418.38
308.881	420.38
309.111	412.38
309.341	409.38
309.571	426.38
309.8	445.38
310.03	430.38
310.26	436.38
310.49	424.38
310.72	424.38
310.949	451.38
311.179	452.38
311.409	443.38
311.639	435.38
311.868	443.38
312.098	443.38
312.328	448.38
312.557	454.38
312.787	462.38
313.017	444.38
313.246	450.38
313.476	425.38
313.706	442.38
313.935	446.38
314.165	473.38
314.394	472.38
314.624	479.38
314.853	461.38
315.083	460.38
315.312	458.38
315.542	428.38
315.771	462.38
316.001	437.38
316.23	457.38
316.46	469.38
316.689	460.38
316.919	450.38
317.148	454.38
317.377	490.38
317.607	433.38
317.836	448.38
318.065	454.38
318.295	448.38
318.524	452.38
318.753	446.38
318.983	442.38
319.212	468.38
319.441	433.38
319.67	443.38
319.9	458.38
320.129	440.38
320.358	459.38
320.587	434.38
320.816	449.38
321.046	460.38
321.275	456.38
321.504	448.38
321.733	456.38
321.962	476.38
322.191	456.38
322.42	493.38
322.649	496.38
322.878	492.38
323.108	504.38
323.337	514.38
323.566	529.38
323.795	525.38
324.024	574.38
324.253	611.38
324.482	826.38
324.71	1197.38
324.939	1616.38
325.168	1460.38
325.397	807.38
325.626	610.38
325.855	564.38
326.084	559.38
326.313	538.38
326.542	525.38
326.77	569.38
326.999	630.38
327.228	784.38
327.457	1086.38
327.686	1349.38
327.914	901.38
328.143	668.38
328.372	603.38
328.6	606.38
328.829	577.38
329.058	595.38
329.287	597.38
329.515	581.38
329.744	558.38
329.972	570.38
330.201	574.38
330.43	590.38
330.658	598.38
330.887	644.38
331.115	627.38
331.344	576.38
331.572	562.38
331.801	551.38
332.03	538.38
332.258	561.38
332.486	546.38
332.715	545.38
332.943	584.38
333.172	572.38
333.4	597.38
333.629	610.38
333.857	627.38
334.085	613.38
334.314	634.38
334.542	644.38
334.771	658.38
334.999	615.38
335.227	573.38
335.455	594.38
335.684	549.38
335.912	576.38
336.14	568.38
336.369	541.38
336.597	571.38
336.825	589.38
337.053	571.38
337.281	553.38
337.51	562.38
337.738	533.38
337.966	536.38
338.194	530.38
338.422	538.38
338.65	539.38
338.878	537.38
339.106	549.38
339.334	541.38
339.562	512.38
339.79	526.38
340.018	517.38
340.246	520.38
340.474	530.38
340.702	506.38
340.93	532.38
341.158	524.38
341.386	536.38
341.614	526.38
341.842	516.38
342.07	537.38
342.298	510.38
342.526	515.38
342.754	518.38
342.981	524.38
343.209	525.38
343.437	542.38
343.665	540.38
343.893	567.38
344.12	583.38
344.348	584.38
344.576	581.38
344.804	565.38
345.031	536.38
345.259	544.38
345.487	501.38
345.714	522.38
345.942	525.38
346.17	497.38
346.397	493.38
346.625	498.38
346.853	504.38
347.08	483.38
347.308	492.38
347.535	510.38
347.763	507.38
347.99	523.38
348.218	501.38
348.445	513.38
348.673	512.38
348.9	498.38
349.128	496.38
349.355	520.38
349.583	471.38
349.81	479.38
350.037	483.38
350.265	477.38
350.492	502.38
350.72	483.38
350.947	477.38
351.174	481.38
351.402	469.38
351.629	466.38
351.856	496.38
352.083	506.38
352.311	489.38
352.538	475.38
352.765	522.38
352.992	499.38
353.22	496.38
353.447	487.38
353.674	491.38
353.901	507.38
354.128	476.38
354.355	491.38
354.583	487.38
354.81	483.38
355.037	470.38
355.264	482.38
355.491	486.38
355.718	481.38
355.945	482.38
356.172	473.38
356.399	474.38
356.626	480.38
356.853	487.38
357.08	465.38
357.307	488.38
357.534	470.38
357.761	482.38
357.988	480.38
358.215	489.38
358.441	470.38
358.668	476.38
358.895	487.38
359.122	476.38
359.349	476.38
359.576	509.38
359.802	515.38
360.029	516.38
360.256	531.38
360.483	492.38
360.709	512.38
360.936	498.38
361.163	496.38
361.39	486.38
361.616	485.38
361.843	476.38
362.07	496.38
362.296	520.38
362.523	489.38
362.749	485.38
362.976	516.38
363.203	486.38
363.429	466.38
363.656	514.38
363.882	484.38
364.109	478.38
364.335	497.38
364.562	480.38
364.788	490.38
365.015	481.38
365.241	501.38
365.468	498.38
365.694	465.38
365.92	500.38
366.147	488.38
366.373	472.38
366.599	470.38
366.826	484.38
367.052	473.38
367.278	502.38
367.505	491.38
367.731	498.38
367.957	504.38
368.184	498.38
368.41	497.38
368.636	492.38
368.862	499.38
369.089	518.38
369.315	482.38
369.541	480.38
369.767	502.38
369.993	502.38
370.219	500.38
370.445	507.38
370.672	506.38
370.898	506.38
371.124	498.38
371.35	521.38
371.576	490.38
371.802	501.38
372.028	498.38
372.254	482.38
372.48	508.38
372.706	519.38
372.932	531.38
373.158	526.38
373.384	514.38
373.61	520.38
373.835	503.38
374.061	509.38
374.287	536.38
374.513	524.38
374.739	540.38
374.965	548.38
375.191	541.38
375.416	541.38
375.642	536.38
375.868	536.38
376.094	529.38
376.319	510.38
376.545	489.38
376.771	519.38
376.997	528.38
377.222	500.38
377.448	528.38
377.674	502.38
377.899	496.38
378.125	493.38
378.35	510.38
378.576	500.38
378.802	496.38
379.027	493.38
379.253	519.38
379.478	490.38
379.704	523.38
379.929	506.38
380.155	518.38
380.38	501.38
380.606	498.38
380.831	523.38
381.057	502.38
381.282	492.38
381.507	508.38
381.733	516.38
381.958	512.38
382.184	523.38
382.409	532.38
382.634	548.38
382.86	522.38
383.085	516.38
383.31	526.38
383.535	553.38
383.761	575.38
383.986	538.38
384.211	532.38
384.436	570.38
384.662	584.38
384.887	593.38
385.112	594.38
385.337	590.38
385.562	590.38
385.787	616.38
386.013	587.38
386.238	587.38
386.463	587.38
386.688	614.38
386.913	586.38
387.138	570.38
387.363	592.38
387.588	584.38
387.813	562.38
388.038	558.38
388.263	568.38
388.488	600.38
388.713	593.38
388.938	588.38
389.163	577.38
389.387	594.38
389.612	587.38
389.837	578.38
390.062	578.38
390.287	574.38
390.512	584.38
390.736	584.38
390.961	593.38
391.186	585.38
391.411	599.38
391.636	633.38
391.86	627.38
392.085	640.38
392.31	638.38
392.534	609.38
392.759	609.38
392.984	615.38
393.208	606.38
393.433	610.38
393.658	619.38
393.882	602.38
394.107	604.38
394.331	608.38
394.556	624.38
394.78	619.38
395.005	609.38
395.229	621.38
395.454	643.38
395.678	624.38
395.903	640.38
396.127	664.38
396.352	647.38
396.576	613.38
396.801	598.38
397.025	620.38
397.249	620.38
397.474	612.38
397.698	629.38
397.922	676.38
398.147	668.38
398.371	644.38
398.595	690.38
398.82	684.38
399.044	719.38
399.268	787.38
399.492	852.38
399.717	939.38
399.941	955.38
400.165	907.38
400.389	876.38
400.613	824.38
400.837	731.38
401.062	736.38
401.286	702.38
401.51	696.38
401.734	680.38
401.958	709.38
402.182	714.38
402.406	709.38
402.63	735.38
402.854	747.38
403.078	747.38
403.302	758.38
403.526	762.38
403.75	771.38
403.974	767.38
404.198	741.38
404.422	779.38
404.645	782.38
404.869	794.38
405.093	825.38
405.317	838.38
405.541	845.38
405.765	830.38
405.988	769.38
406.212	768.38
406.436	800.38
406.66	812.38
406.883	808.38
407.107	841.38
407.331	877.38
407.555	940.38
407.778	946.38
408.002	897.38
408.226	811.38
408.449	797.38
408.673	790.38
408.896	795.38
409.12	850.38
409.344	830.38
409.567	765.38
409.791	775.38
410.014	737.38
410.238	735.38
410.461	732.38
410.685	744.38
410.908	736.38
411.132	761.38
411.355	790.38
411.578	782.38
411.802	733.38
412.025	710.38
412.249	747.38
412.472	763.38
412.695	765.38
412.919	753.38
413.142	754.38
413.365	700.38
413.589	728.38
413.812	709.38
414.035	709.38
414.258	683.38
414.482	685.38
414.705	699.38
414.928	708.38
415.151	702.38
415.374	692.38
415.597	673.38
415.821	669.38
416.044	708.38
416.267	698.38
416.49	682.38
416.713	672.38
416.936	677.38
417.159	681.38
417.382	673.38
417.605	686.38
417.828	708.38
418.051	698.38
418.274	682.38
418.497	697.38
418.72	724.38
418.943	696.38
419.166	724.38
419.389	775.38
419.611	768.38
419.834	752.38
420.057	752.38
420.28	709.38
420.503	726.38
420.726	696.38
420.948	700.38
421.171	746.38
421.394	737.38
421.617	727.38
421.839	706.38
422.062	706.38
422.285	723.38
422.507	748.38
422.73	839.38
422.953	836.38
423.175	776.38
423.398	748.38
423.621	734.38
423.843	747.38
424.066	769.38
424.288	756.38
424.511	748.38
424.733	826.38
424.956	865.38
425.178	848.38
425.401	819.38
425.623	851.38
425.846	764.38
426.068	708.38
426.291	718.38
426.513	708.38
426.735	740.38
426.958	748.38
427.18	804.38
427.402	924.38
427.625	972.38
427.847	859.38
428.069	782.38
428.292	732.38
428.514	704.38
428.736	671.38
428.958	681.38
429.181	661.38
429.403	664.38
429.625	662.38
429.847	685.38
430.069	722.38
430.292	755.38
430.514	661.38
430.736	674.38
430.958	622.38
431.18	653.38
431.402	648.38
431.624	657.38
431.846	649.38
432.068	638.38
432.29	636.38
432.512	630.38
432.734	669.38
432.956	645.38
433.178	641.38
433.4	654.38
433.622	651.38
433.844	649.38
434.066	625.38
434.287	647.38
434.509	688.38
434.731	713.38
434.953	691.38
435.175	716.38
435.397	709.38
435.618	723.38
435.84	745.38
436.062	790.38
436.284	866.38
436.505	731.38
436.727	720.38
436.949	672.38
437.17	634.38
437.392	635.38
437.614	667.38
437.835	684.38
438.057	768.38
438.278	808.38
438.5	808.38
438.721	878.38
438.943	851.38
439.165	734.38
439.386	680.38
439.608	718.38
439.829	707.38
440.05	718.38
440.272	713.38
440.493	700.38
440.715	696.38
440.936	677.38
441.158	674.38
441.379	679.38
441.6	717.38
441.822	730.38
442.043	762.38
442.264	802.38
442.486	834.38
442.707	773.38
442.928	726.38
443.149	736.38
443.371	747.38
443.592	785.38
443.813	858.38
444.034	924.38
444.255	794.38
444.476	796.38
444.698	804.38
444.919	811.38
445.14	864.38
445.361	817.38
445.582	738.38
445.803	783.38
446.024	848.38
446.245	844.38
446.466	801.38
446.687	716.38
446.908	668.38
447.129	668.38
447.35	651.38
447.571	651.38
447.792	641.38
448.013	641.38
448.234	637.38
448.455	668.38
448.675	762.38
448.896	861.38
449.117	758.38
449.338	722.38
449.559	789.38
449.779	904.38
450	737.38
450.221	647.38
450.442	635.38
450.662	620.38
450.883	636.38
451.104	644.38
451.324	618.38
451.545	622.38
451.766	609.38
451.986	592.38
452.207	578.38
452.428	562.38
452.648	591.38
452.869	557.38
453.089	590.38
453.31	584.38
453.53	588.38
453.751	577.38
453.971	598.38
454.192	613.38
454.412	584.38
454.633	562.38
454.853	570.38
455.073	584.38
455.294	604.38
455.514	620.38
455.734	626.38
455.955	584.38
456.175	582.38
456.395	539.38
456.616	562.38
456.836	556.38
457.056	538.38
457.276	532.38
457.497	563.38
457.717	547.38
457.937	574.38
458.157	576.38
458.377	588.38
458.598	598.38
458.818	647.38
459.038	701.38
459.258	718.38
459.478	676.38
459.698	678.38
459.918	668.38
460.138	683.38
460.358	688.38
460.578	683.38
460.798	713.38
461.018	724.38
461.238	700.38
461.458	676.38
461.678	710.38
461.898	720.38
462.118	710.38
462.338	750.38
462.558	737.38
462.777	773.38
462.997	804.38
463.217	886.38
463.437	873.38
463.657	818.38
463.876	788.38
464.096	778.38
464.316	786.38
464.536	797.38
464.755	795.38
464.975	786.38
465.195	748.38
465.414	790.38
465.634	712.38
465.854	674.38
466.073	668.38
466.293	645.38
466.512	634.38
466.732	605.38
466.951	612.38
467.171	618.38
467.391	630.38
467.61	645.38
467.829	626.38
468.049	617.38
468.268	624.38
468.488	612.38
468.707	620.38
468.927	617.38
469.146	607.38
469.365	609.38
469.585	595.38
469.804	616.38
470.023	652.38
470.243	632.38
470.462	646.38
470.681	632.38
470.901	638.38
471.12	629.38
471.339	646.38
471.558	620.38
471.777	624.38
471.997	624.38
472.216	641.38
472.435	649.38
472.654	609.38
472.873	596.38
473.092	614.38
473.311	601.38
473.53	593.38
473.749	610.38
473.968	617.38
474.187	718.38
474.406	725.38
474.625	639.38
474.844	611.38
475.063	630.38
475.282	619.38
475.501	638.38
475.72	636.38
475.939	633.38
476.158	617.38
476.377	634.38
476.596	640.38
476.814	633.38
477.033	648.38
477.252	660.38
477.471	678.38
477.69	670.38
477.908	680.38
478.127	662.38
478.346	720.38
478.564	691.38
478.783	725.38
479.002	727.38
479.22	736.38
479.439	718.38
479.658	757.38
479.876	729.38
480.095	768.38
480.313	803.38
480.532	788.38
480.751	791.38
480.969	788.38
481.188	811.38
481.406	841.38
481.624	756.38
481.843	745.38
482.061	725.38
482.28	723.38
482.498	690.38
482.717	705.38
482.935	694.38
483.153	729.38
483.372	724.38
483.59	702.38
483.808	718.38
484.027	731.38
484.245	737.38
484.463	733.38
484.681	707.38
484.9	710.38
485.118	749.38
485.336	714.38
485.554	729.38
485.772	759.38
485.99	742.38
486.209	731.38
486.427	724.38
486.645	763.38
486.863	761.38
487.081	771.38
487.299	771.38
487.517	733.38
487.735	766.38
487.953	752.38
488.171	772.38
488.389	765.38
488.607	748.38
488.825	768.38
489.043	778.38
489.261	781.38
489.479	775.38
489.696	771.38
489.914	778.38
490.132	806.38
490.35	781.38
490.568	788.38
490.786	786.38
491.003	825.38
491.221	813.38
491.439	848.38
491.657	819.38
491.874	841.38
492.092	836.38
492.31	857.38
492.527	832.38
492.745	834.38
492.963	868.38
493.18	853.38
493.398	872.38
493.615	867.38
493.833	893.38
494.05	874.38
494.268	875.38
494.485	886.38
494.703	885.38
494.92	908.38
495.138	866.38
495.355	880.38
495.573	918.38
495.79	898.38
496.008	909.38
496.225	917.38
496.442	886.38
496.66	854.38
496.877	883.38
497.094	904.38
497.312	901.38
497.529	923.38
497.746	968.38
497.963	976.38
498.181	1020.38
498.398	1000.38
498.615	1053.38
498.832	1158.38
499.049	1165.38
499.267	1221.38
499.484	1312.38
499.701	1395.38
499.918	1488.38
500.135	1616.38
500.352	1778.38
500.569	1808.38
500.786	1825.38
501.003	1736.38
501.22	1586.38
501.437	1511.38
501.654	1415.38
501.871	1335.38
502.088	1250.38
502.305	1155.38
502.522	1132.38
502.739	1063.38
502.956	1041.38
503.172	1007.38
503.389	987.38
503.606	987.38
503.823	953.38
504.04	945.38
504.256	942.38
504.473	982.38
504.69	964.38
504.907	937.38
505.123	920.38
505.34	901.38
505.557	868.38
505.773	848.38
505.99	856.38
506.207	835.38
506.423	839.38
506.64	809.38
506.856	822.38
507.073	804.38
507.289	808.38
507.506	800.38
507.722	812.38
507.939	814.38
508.155	808.38
508.372	745.38
508.588	772.38
508.805	753.38
509.021	775.38
509.238	801.38
509.454	768.38
509.67	774.38
509.887	770.38
510.103	771.38
510.319	752.38
510.536	821.38
510.752	1178.38
510.968	1052.38
511.184	776.38
511.401	734.38
511.617	711.38
511.833	738.38
512.049	722.38
512.265	747.38
512.481	717.38
512.698	712.38
512.914	694.38
513.13	729.38
513.346	694.38
513.562	721.38
513.778	723.38
513.994	727.38
514.21	723.38
514.426	770.38
514.642	756.38
514.858	798.38
515.074	786.38
515.29	901.38
515.506	1216.38
515.721	1081.38
515.937	853.38
516.153	799.38
516.369	804.38
516.585	843.38
516.801	822.38
517.016	812.38
517.232	853.38
517.448	855.38
517.664	866.38
517.879	881.38
518.095	870.38
518.311	859.38
518.527	826.38
518.742	825.38
518.958	811.38
519.173	807.38
519.389	778.38
519.605	752.38
519.82	766.38
520.036	764.38
520.251	760.38
520.467	764.38
520.682	772.38
520.898	760.38
521.113	800.38
521.329	779.38
521.544	822.38
521.76	963.38
521.975	1386.38
522.19	1436.38
522.406	915.38
522.621	739.38
522.836	690.38
523.052	690.38
523.267	688.38
523.482	684.38
523.698	660.38
523.913	662.38
524.128	663.38
524.343	675.38
524.559	619.38
524.774	648.38
524.989	648.38
525.204	644.38
525.419	653.38
525.634	650.38
525.849	635.38
526.064	637.38
526.28	630.38
526.495	627.38
526.71	633.38
526.925	624.38
527.14	617.38
527.355	610.38
527.57	615.38
527.785	626.38
527.999	626.38
528.214	630.38
528.429	608.38
528.644	613.38
528.859	625.38
529.074	628.38
529.289	630.38
529.503	692.38
529.718	666.38
529.933	636.38
530.148	613.38
530.363	630.38
530.577	616.38
530.792	610.38
531.007	602.38
531.221	591.38
531.436	614.38
531.651	620.38
531.865	621.38
532.08	642.38
532.295	614.38
532.509	619.38
532.724	610.38
532.938	613.38
533.153	606.38
533.367	608.38
533.582	602.38
533.796	602.38
534.011	594.38
534.225	596.38
534.44	596.38
534.654	606.38
534.868	585.38
535.083	590.38
535.297	617.38
535.511	582.38
535.726	585.38
535.94	593.38
536.154	599.38
536.369	579.38
536.583	593.38
536.797	571.38
537.011	600.38
537.225	564.38
537.44	571.38
537.654	570.38
537.868	568.38
538.082	566.38
538.296	586.38
538.51	585.38
538.724	572.38
538.938	568.38
539.153	578.38
539.367	603.38
539.581	572.38
539.795	562.38
540.009	576.38
540.222	568.38
540.436	572.38
540.65	551.38
540.864	571.38
541.078	573.38
541.292	578.38
541.506	558.38
541.72	552.38
541.934	571.38
542.147	577.38
542.361	558.38
542.575	546.38
542.789	557.38
543.002	526.38
543.216	569.38
543.43	568.38
543.644	569.38
543.857	577.38
544.071	571.38
544.285	565.38
544.498	575.38
544.712	565.38
544.925	577.38
545.139	588.38
545.352	552.38
545.566	568.38
545.779	554.38
545.993	577.38
546.206	586.38
546.42	582.38
546.633	563.38
546.847	551.38
547.06	548.38
547.274	569.38
547.487	556.38
547.7	580.38
547.914	578.38
548.127	558.38
548.34	577.38
548.554	566.38
548.767	533.38
548.98	560.38
549.193	576.38
549.407	579.38
549.62	572.38
549.833	574.38
550.046	550.38
550.259	571.38
550.473	566.38
550.686	564.38
550.899	559.38
551.112	555.38
551.325	549.38
551.538	578.38
551.751	550.38
551.964	570.38
552.177	540.38
552.39	574.38
552.603	596.38
552.816	581.38
553.029	589.38
553.242	586.38
553.455	611.38
553.667	613.38
553.88	621.38
554.093	598.38
554.306	586.38
554.519	579.38
554.732	562.38
554.944	558.38
555.157	549.38
555.37	545.38
555.583	553.38
555.795	535.38
556.008	528.38
556.221	518.38
556.433	520.38
556.646	510.38
556.859	530.38
557.071	523.38
557.284	497.38
557.496	493.38
557.709	510.38
557.921	477.38
558.134	499.38
558.346	481.38
558.559	508.38
558.771	483.38
558.984	472.38
559.196	498.38
559.409	483.38
559.621	481.38
559.833	480.38
560.046	462.38
560.258	483.38
560.47	506.38
560.683	470.38
560.895	467.38
561.107	490.38
561.32	477.38
561.532	502.38
561.744	493.38
561.956	504.38
562.168	493.38
562.381	482.38
562.593	503.38
562.805	516.38
563.017	493.38
563.229	490.38
563.441	515.38
563.653	494.38
563.865	498.38
564.077	508.38
564.289	481.38
564.501	510.38
564.713	510.38
564.925	527.38
565.137	535.38
565.349	551.38
565.561	568.38
565.773	566.38
565.985	587.38
566.197	630.38
566.408	665.38
566.62	669.38
566.832	708.38
567.044	742.38
567.255	737.38
567.467	747.38
567.679	732.38
567.891	812.38
568.102	832.38
568.314	790.38
568.526	740.38
568.737	670.38
568.949	657.38
569.161	628.38
569.372	581.38
569.584	571.38
569.795	542.38
570.007	521.38
570.218	565.38
570.43	547.38
570.641	516.38
570.853	509.38
571.064	520.38
571.276	511.38
571.487	501.38
571.698	471.38
571.91	476.38
572.121	462.38
572.333	467.38
572.544	434.38
572.755	444.38
572.966	444.38
573.178	444.38
573.389	459.38
573.6	433.38
573.811	428.38
574.023	437.38
574.234	433.38
574.445	441.38
574.656	439.38
574.867	420.38
575.078	418.38
575.289	436.38
575.501	434.38
575.712	418.38
575.923	422.38
576.134	394.38
576.345	411.38
576.556	416.38
576.767	411.38
576.978	436.38
577.188	402.38
577.399	407.38
577.61	398.38
577.821	392.38
578.032	393.38
578.243	402.38
578.454	587.38
578.665	491.38
578.875	402.38
579.086	409.38
579.297	389.38
579.508	380.38
579.718	397.38
579.929	386.38
580.14	377.38
580.35	397.38
580.561	400.38
580.772	363.38
580.982	400.38
581.193	384.38
581.403	383.38
581.614	404.38
581.825	379.38
582.035	363.38
582.246	380.38
582.456	368.38
582.667	390.38
582.877	384.38
583.087	384.38
583.298	360.38
583.508	368.38
583.719	381.38
583.929	376.38
584.139	371.38
584.35	361.38
584.56	392.38
584.77	372.38
584.981	376.38
585.191	373.38
585.401	384.38
585.611	366.38
585.821	380.38
586.032	364.38
586.242	354.38
586.452	354.38
586.662	345.38
586.872	362.38
587.082	372.38
587.292	378.38
587.502	341.38
587.713	370.38
587.923	372.38
588.133	371.38
588.343	371.38
588.553	366.38
588.762	371.38
588.972	357.38
589.182	380.38
589.392	363.38
589.602	382.38
589.812	380.38
590.022	380.38
590.232	365.38
590.441	372.38
590.651	374.38
590.861	375.38
591.071	367.38
591.281	386.38
591.49	395.38
591.7	373.38
591.91	395.38
592.119	398.38
592.329	395.38
592.539	425.38
592.748	423.38
592.958	423.38
593.167	415.38
593.377	438.38
593.587	437.38
593.796	445.38
594.006	454.38
594.215	443.38
594.424	435.38
594.634	436.38
594.843	425.38
595.053	426.38
595.262	426.38
595.472	390.38
595.681	386.38
595.89	395.38
596.1	386.38
596.309	370.38
596.518	362.38
596.727	347.38
596.937	344.38
597.146	369.38
597.355	330.38
597.564	343.38
597.774	341.38
597.983	308.38
598.192	341.38
598.401	334.38
598.61	330.38
598.819	332.38
599.028	324.38
599.237	321.38
599.446	331.38
599.655	332.38
599.864	341.38
600.073	321.38
600.282	316.38
600.491	332.38
600.7	322.38
600.909	294.38
601.118	314.38
601.327	308.38
601.536	316.38
601.745	306.38
601.953	310.38
602.162	308.38
602.371	320.38
602.58	316.38
602.789	310.38
602.997	306.38
603.206	299.38
603.415	300.38
603.623	310.38
603.832	304.38
604.041	306.38
604.249	322.38
604.458	300.38
604.666	306.38
604.875	304.38
605.084	294.38
605.292	282.38
605.501	278.38
605.709	294.38
605.918	285.38
606.126	295.38
606.334	317.38
606.543	304.38
606.751	312.38
606.96	291.38
607.168	279.38
607.376	290.38
607.585	293.38
607.793	304.38
608.001	293.38
608.21	305.38
608.418	296.38
608.626	292.38
608.834	299.38
609.043	282.38
609.251	295.38
609.459	288.38
609.667	303.38
609.875	276.38
610.083	282.38
610.291	297.38
610.499	276.38
610.707	287.38
610.916	298.38
611.124	288.38
611.332	296.38
611.54	306.38
611.748	291.38
611.955	306.38
612.163	269.38
612.371	288.38
612.579	282.38
612.787	293.38
612.995	278.38
613.203	289.38
613.411	291.38
613.618	292.38
613.826	273.38
614.034	264.38
614.242	284.38
614.449	262.38
614.657	288.38
614.865	287.38
615.072	279.38
615.28	286.38
615.488	278.38
615.695	268.38
615.903	278.38
616.111	270.38
616.318	290.38
616.526	276.38
616.733	279.38
616.941	281.38
617.148	296.38
617.356	288.38
617.563	297.38
617.771	275.38
617.978	286.38
618.185	282.38
618.393	292.38
618.6	282.38
618.807	278.38
619.015	281.38
619.222	285.38
619.429	273.38
619.637	291.38
619.844	285.38
620.051	276.38
620.258	265.38
620.466	282.38
620.673	274.38
620.88	265.38
621.087	267.38
621.294	276.38
621.501	268.38
621.708	263.38
621.915	276.38
622.122	272.38
622.329	273.38
622.536	268.38
622.743	273.38
622.95	260.38
623.157	263.38
623.364	246.38
623.571	264.38
623.778	265.38
623.985	249.38
624.192	249.38
624.399	253.38
624.606	260.38
624.812	247.38
625.019	254.38
625.226	252.38
625.433	245.38
625.639	254.38
625.846	257.38
626.053	235.38
626.259	235.38
626.466	245.38
626.673	254.38
626.879	247.38
627.086	255.38
627.293	250.38
627.499	246.38
627.706	250.38
627.912	249.38
628.119	232.38
628.325	246.38
628.532	228.38
628.738	229.38
628.945	248.38
629.151	254.38
629.357	236.38
629.564	230.38
629.77	228.38
629.976	242.38
630.183	231.38
630.389	245.38
630.595	231.38
630.802	230.38
631.008	222.38
631.214	236.38
631.42	211.38
631.627	225.38
631.833	215.38
632.039	220.38
632.245	225.38
632.451	230.38
632.657	224.38
632.863	205.38
633.069	235.38
633.275	239.38
633.481	220.38
633.688	235.38
633.893	229.38
634.099	219.38
634.305	221.38
634.511	201.38
634.717	211.38
634.923	226.38
635.129	216.38
635.335	203.38
635.541	219.38
635.747	222.38
635.952	205.38
636.158	215.38
636.364	202.38
636.57	214.38
636.775	219.38
636.981	198.38
637.187	224.38
637.392	206.38
637.598	188.38
637.804	209.38
638.009	206.38
638.215	202.38
638.421	220.38
638.626	210.38
638.832	212.38
639.037	210.38
639.243	224.38
639.448	224.38
639.654	214.38
639.859	195.38
640.065	200.38
640.27	196.38
640.475	205.38
640.681	204.38
640.886	207.38
641.091	200.38
641.297	201.38
641.502	188.38
641.707	188.38
641.913	190.38
642.118	192.38
642.323	192.38
642.528	200.38
642.733	178.38
642.939	203.38
643.144	184.38
643.349	196.38
643.554	204.38
643.759	211.38
643.964	185.38
644.169	206.38
644.374	195.38
644.579	185.38
644.784	200.38
644.989	178.38
645.194	202.38
645.399	207.38
645.604	189.38
645.809	187.38
646.014	192.38
646.219	190.38
646.423	188.38
646.628	181.38
646.833	169.38
647.038	192.38
647.243	183.38
647.447	201.38
647.652	184.38
647.857	195.38
648.062	203.38
648.266	200.38
648.471	201.38
648.676	206.38
648.88	199.38
649.085	203.38
649.289	203.38
649.494	198.38
649.698	202.38
649.903	192.38
650.107	192.38
650.312	189.38
650.516	180.38
650.721	181.38
650.925	180.38
651.13	179.38
651.334	165.38
651.539	150.38
651.743	184.38
651.947	158.38
652.152	139.38
652.356	157.38
652.56	156.38
652.764	148.38
652.969	156.38
653.173	170.38
653.377	165.38
653.581	145.38
653.785	157.38
653.99	147.38
654.194	151.38
654.398	146.38
654.602	159.38
654.806	158.38
655.01	158.38
655.214	150.38
655.418	157.38
655.622	138.38
655.826	155.38
656.03	172.38
656.234	150.38
656.438	159.38
656.642	150.38
656.846	154.38
657.049	150.38
657.253	158.38
657.457	128.38
657.661	136.38
657.865	122.38
658.068	121.38
658.272	131.38
658.476	119.38
658.68	108.38
658.883	116.38
659.087	109.38
659.291	100.38
659.494	107.38
659.698	108.38
659.901	96.38
660.105	92.38
660.309	86.38
660.512	102.38
660.716	112.38
660.919	98.38
661.123	94.38
661.326	92.38
661.53	86.38
661.733	83.38
661.936	92.38
662.14	100.38
662.343	86.38
662.546	78.38
662.75	86.38
662.953	84.38
663.156	94.38
663.36	82.38
663.563	85.38
663.766	77.38
663.969	78.38
664.173	83.38
664.376	94.38
664.579	76.38
664.782	85.38
664.985	91.38
665.188	84.38
665.391	87.38
665.594	88.38
665.797	85.38
666	87.38
666.203	90.38
666.406	88.38
666.609	94.38
666.812	93.38
667.015	81.38
667.218	82.38
667.421	87.38
667.624	87.38
667.827	85.38
668.03	84.38
668.232	91.38
668.435	79.38
668.638	82.38
668.841	89.38
669.043	81.38
669.246	78.38
669.449	91.38
669.651	83.38
669.854	82.38
670.057	70.38
670.259	79.38
670.462	88.38
670.665	73.38
670.867	74.38
671.07	76.38
671.272	90.38
671.475	93.38
671.677	81.38
671.88	90.38
672.082	89.38
672.284	75.38
672.487	90.38
672.689	91.38
672.892	69.38
