Data from 1963.PennyLincolnUp.Lamp.En5.5.200Scan.071719.P1._HRD10591_13-57-42-062.txt Node
Date: Thu Jul 18 13:57:42 EDT 2019
User: cochatt
Spectrometer: HR+D1059
Trigger mode: 1
Integration Time (sec): 1.000000E-1
Scans to average: 1
Electric dark correction enabled: true
Nonlinearity correction enabled: false
Boxcar width: 0
XAxis mode: Wavelengths
Number of Pixels in Spectrum: 2048
>>>>>Begin Spectral Data<<<<<
223.165	-22.25
223.4	-22.25
223.635	-22.25
223.869	-20.25
224.104	-6.25
224.338	-19.25
224.573	-13.25
224.808	-6.25
225.042	-11.25
225.277	1.75
225.511	11.75
225.746	-5.25
225.98	-4.25
226.215	16.75
226.449	7.75
226.683	16.75
226.918	19.75
227.152	33.75
227.387	29.75
227.621	37.75
227.856	44.75
228.09	35.75
228.324	57.75
228.559	36.75
228.793	72.75
229.027	81.75
229.262	98.75
229.496	110.75
229.73	121.75
229.964	136.75
230.199	117.75
230.433	122.75
230.667	102.75
230.901	99.75
231.136	118.75
231.37	111.75
231.604	115.75
231.838	106.75
232.072	113.75
232.306	121.75
232.541	128.75
232.775	110.75
233.009	109.75
233.243	125.75
233.477	120.75
233.711	114.75
233.945	129.75
234.179	115.75
234.413	115.75
234.647	120.75
234.881	110.75
235.115	122.75
235.349	112.75
235.583	127.75
235.817	137.75
236.051	108.75
236.285	132.75
236.519	125.75
236.753	120.75
236.987	140.75
237.221	160.75
237.455	183.75
237.689	153.75
237.922	133.75
238.156	135.75
238.39	121.75
238.624	145.75
238.858	148.75
239.091	131.75
239.325	129.75
239.559	123.75
239.793	155.75
240.027	131.75
240.26	140.75
240.494	149.75
240.728	157.75
240.961	161.75
241.195	131.75
241.429	153.75
241.662	135.75
241.896	140.75
242.13	131.75
242.363	145.75
242.597	139.75
242.83	158.75
243.064	156.75
243.298	146.75
243.531	153.75
243.765	172.75
243.998	148.75
244.232	143.75
244.465	154.75
244.699	151.75
244.932	156.75
245.166	165.75
245.399	174.75
245.633	159.75
245.866	150.75
246.099	142.75
246.333	155.75
246.566	153.75
246.8	138.75
247.033	161.75
247.266	161.75
247.5	166.75
247.733	181.75
247.966	189.75
248.2	169.75
248.433	162.75
248.666	183.75
248.899	177.75
249.133	193.75
249.366	180.75
249.599	195.75
249.832	181.75
250.066	197.75
250.299	184.75
250.532	185.75
250.765	193.75
250.998	200.75
251.231	212.75
251.465	213.75
251.698	210.75
251.931	211.75
252.164	219.75
252.397	207.75
252.63	205.75
252.863	204.75
253.096	214.75
253.329	221.75
253.562	213.75
253.795	211.75
254.028	223.75
254.261	226.75
254.494	225.75
254.727	241.75
254.96	263.75
255.193	259.75
255.426	235.75
255.659	239.75
255.892	223.75
256.124	224.75
256.357	217.75
256.59	241.75
256.823	207.75
257.056	223.75
257.289	233.75
257.521	233.75
257.754	211.75
257.987	214.75
258.22	227.75
258.452	222.75
258.685	227.75
258.918	217.75
259.151	225.75
259.383	222.75
259.616	216.75
259.849	237.75
260.081	251.75
260.314	236.75
260.547	255.75
260.779	247.75
261.012	246.75
261.244	236.75
261.477	242.75
261.71	232.75
261.942	235.75
262.175	244.75
262.407	231.75
262.64	222.75
262.872	218.75
263.105	236.75
263.337	231.75
263.57	226.75
263.802	245.75
264.035	245.75
264.267	237.75
264.499	225.75
264.732	234.75
264.964	225.75
265.197	221.75
265.429	235.75
265.661	229.75
265.894	227.75
266.126	235.75
266.358	250.75
266.591	232.75
266.823	244.75
267.055	247.75
267.287	236.75
267.52	251.75
267.752	238.75
267.984	244.75
268.216	255.75
268.448	261.75
268.681	243.75
268.913	246.75
269.145	286.75
269.377	269.75
269.609	282.75
269.841	295.75
270.073	280.75
270.306	300.75
270.538	301.75
270.77	305.75
271.002	310.75
271.234	291.75
271.466	302.75
271.698	302.75
271.93	281.75
272.162	300.75
272.394	314.75
272.626	309.75
272.858	295.75
273.09	289.75
273.322	272.75
273.553	283.75
273.785	291.75
274.017	280.75
274.249	301.75
274.481	279.75
274.713	278.75
274.945	287.75
275.176	295.75
275.408	300.75
275.64	281.75
275.872	284.75
276.104	284.75
276.335	282.75
276.567	266.75
276.799	305.75
277.031	303.75
277.262	332.75
277.494	326.75
277.726	306.75
277.957	313.75
278.189	323.75
278.421	288.75
278.652	294.75
278.884	316.75
279.115	320.75
279.347	287.75
279.579	294.75
279.81	293.75
280.042	305.75
280.273	306.75
280.505	321.75
280.736	301.75
280.968	305.75
281.199	305.75
281.431	303.75
281.662	317.75
281.894	313.75
282.125	319.75
282.356	319.75
282.588	318.75
282.819	319.75
283.051	307.75
283.282	334.75
283.513	332.75
283.745	323.75
283.976	327.75
284.207	317.75
284.439	322.75
284.67	335.75
284.901	327.75
285.132	329.75
285.364	315.75
285.595	332.75
285.826	325.75
286.057	334.75
286.288	330.75
286.52	329.75
286.751	331.75
286.982	338.75
287.213	324.75
287.444	319.75
287.675	345.75
287.906	341.75
288.138	334.75
288.369	337.75
288.6	363.75
288.831	343.75
289.062	369.75
289.293	346.75
289.524	350.75
289.755	326.75
289.986	356.75
290.217	331.75
290.448	330.75
290.679	336.75
290.91	348.75
291.141	353.75
291.371	351.75
291.602	338.75
291.833	331.75
292.064	340.75
292.295	343.75
292.526	366.75
292.757	354.75
292.987	348.75
293.218	344.75
293.449	332.75
293.68	365.75
293.91	363.75
294.141	358.75
294.372	351.75
294.603	343.75
294.833	355.75
295.064	364.75
295.295	366.75
295.525	365.75
295.756	345.75
295.987	358.75
296.217	377.75
296.448	382.75
296.679	358.75
296.909	347.75
297.14	360.75
297.37	324.75
297.601	370.75
297.831	356.75
298.062	359.75
298.292	355.75
298.523	380.75
298.753	365.75
298.984	383.75
299.214	387.75
299.445	386.75
299.675	370.75
299.905	375.75
300.136	386.75
300.366	369.75
300.597	388.75
300.827	387.75
301.057	407.75
301.288	383.75
301.518	367.75
301.748	382.75
301.979	381.75
302.209	405.75
302.439	406.75
302.669	399.75
302.9	407.75
303.13	381.75
303.36	415.75
303.59	413.75
303.82	418.75
304.051	411.75
304.281	398.75
304.511	380.75
304.741	409.75
304.971	387.75
305.201	381.75
305.431	391.75
305.661	390.75
305.891	393.75
306.121	413.75
306.352	397.75
306.582	387.75
306.812	378.75
307.042	375.75
307.272	385.75
307.502	393.75
307.731	377.75
307.961	385.75
308.191	403.75
308.421	410.75
308.651	398.75
308.881	382.75
309.111	389.75
309.341	384.75
309.571	400.75
309.8	420.75
310.03	433.75
310.26	407.75
310.49	409.75
310.72	407.75
310.949	413.75
311.179	423.75
311.409	424.75
311.639	413.75
311.868	424.75
312.098	439.75
312.328	418.75
312.557	425.75
312.787	453.75
313.017	427.75
313.246	425.75
313.476	426.75
313.706	427.75
313.935	429.75
314.165	446.75
314.394	453.75
314.624	441.75
314.853	447.75
315.083	435.75
315.312	441.75
315.542	441.75
315.771	463.75
316.001	420.75
316.23	449.75
316.46	434.75
316.689	437.75
316.919	449.75
317.148	442.75
317.377	409.75
317.607	446.75
317.836	429.75
318.065	412.75
318.295	422.75
318.524	438.75
318.753	417.75
318.983	427.75
319.212	424.75
319.441	442.75
319.67	425.75
319.9	422.75
320.129	449.75
320.358	435.75
320.587	433.75
320.816	444.75
321.046	446.75
321.275	436.75
321.504	451.75
321.733	435.75
321.962	434.75
322.191	438.75
322.42	452.75
322.649	433.75
322.878	466.75
323.108	466.75
323.337	479.75
323.566	482.75
323.795	507.75
324.024	527.75
324.253	552.75
324.482	669.75
324.71	949.75
324.939	1339.75
325.168	1160.75
325.397	690.75
325.626	578.75
325.855	490.75
326.084	510.75
326.313	509.75
326.542	502.75
326.77	528.75
326.999	557.75
327.228	663.75
327.457	927.75
327.686	1077.75
327.914	782.75
328.143	614.75
328.372	554.75
328.6	535.75
328.829	526.75
329.058	539.75
329.287	550.75
329.515	518.75
329.744	513.75
329.972	537.75
330.201	550.75
330.43	541.75
330.658	579.75
330.887	578.75
331.115	553.75
331.344	525.75
331.572	537.75
331.801	540.75
332.03	520.75
332.258	518.75
332.486	533.75
332.715	531.75
332.943	560.75
333.172	561.75
333.4	597.75
333.629	579.75
333.857	603.75
334.085	591.75
334.314	612.75
334.542	608.75
334.771	615.75
334.999	601.75
335.227	591.75
335.455	571.75
335.684	562.75
335.912	557.75
336.14	542.75
336.369	535.75
336.597	546.75
336.825	539.75
337.053	544.75
337.281	534.75
337.51	533.75
337.738	542.75
337.966	532.75
338.194	533.75
338.422	509.75
338.65	509.75
338.878	532.75
339.106	531.75
339.334	516.75
339.562	514.75
339.79	503.75
340.018	511.75
340.246	486.75
340.474	485.75
340.702	506.75
340.93	510.75
341.158	513.75
341.386	501.75
341.614	501.75
341.842	514.75
342.07	486.75
342.298	486.75
342.526	463.75
342.754	492.75
342.981	486.75
343.209	493.75
343.437	519.75
343.665	521.75
343.893	584.75
344.12	567.75
344.348	565.75
344.576	567.75
344.804	544.75
345.031	516.75
345.259	555.75
345.487	520.75
345.714	502.75
345.942	487.75
346.17	501.75
346.397	505.75
346.625	489.75
346.853	478.75
347.08	462.75
347.308	470.75
347.535	481.75
347.763	494.75
347.99	490.75
348.218	488.75
348.445	491.75
348.673	488.75
348.9	497.75
349.128	486.75
349.355	460.75
349.583	483.75
349.81	488.75
350.037	483.75
350.265	471.75
350.492	481.75
350.72	466.75
350.947	487.75
351.174	484.75
351.402	459.75
351.629	489.75
351.856	477.75
352.083	466.75
352.311	514.75
352.538	482.75
352.765	480.75
352.992	479.75
353.22	470.75
353.447	493.75
353.674	488.75
353.901	461.75
354.128	485.75
354.355	474.75
354.583	461.75
354.81	482.75
355.037	476.75
355.264	487.75
355.491	464.75
355.718	455.75
355.945	483.75
356.172	452.75
356.399	473.75
356.626	473.75
356.853	496.75
357.08	472.75
357.307	447.75
357.534	466.75
357.761	478.75
357.988	474.75
358.215	471.75
358.441	467.75
358.668	467.75
358.895	470.75
359.122	454.75
359.349	452.75
359.576	501.75
359.802	471.75
360.029	494.75
360.256	482.75
360.483	501.75
360.709	502.75
360.936	486.75
361.163	509.75
361.39	476.75
361.616	475.75
361.843	465.75
362.07	490.75
362.296	472.75
362.523	470.75
362.749	487.75
362.976	465.75
363.203	478.75
363.429	473.75
363.656	478.75
363.882	481.75
364.109	475.75
364.335	487.75
364.562	471.75
364.788	469.75
365.015	475.75
365.241	488.75
365.468	472.75
365.694	485.75
365.92	476.75
366.147	449.75
366.373	465.75
366.599	479.75
366.826	463.75
367.052	443.75
367.278	473.75
367.505	484.75
367.731	482.75
367.957	470.75
368.184	461.75
368.41	480.75
368.636	489.75
368.862	475.75
369.089	490.75
369.315	460.75
369.541	474.75
369.767	495.75
369.993	493.75
370.219	481.75
370.445	482.75
370.672	501.75
370.898	489.75
371.124	484.75
371.35	504.75
371.576	484.75
371.802	492.75
372.028	495.75
372.254	472.75
372.48	518.75
372.706	515.75
372.932	503.75
373.158	507.75
373.384	516.75
373.61	505.75
373.835	484.75
374.061	510.75
374.287	513.75
374.513	524.75
374.739	514.75
374.965	515.75
375.191	538.75
375.416	522.75
375.642	499.75
375.868	540.75
376.094	500.75
376.319	509.75
376.545	507.75
376.771	524.75
376.997	498.75
377.222	491.75
377.448	502.75
377.674	494.75
377.899	497.75
378.125	498.75
378.35	521.75
378.576	483.75
378.802	483.75
379.027	489.75
379.253	491.75
379.478	492.75
379.704	501.75
379.929	483.75
380.155	487.75
380.38	490.75
380.606	497.75
380.831	483.75
381.057	514.75
381.282	497.75
381.507	493.75
381.733	503.75
381.958	502.75
382.184	514.75
382.409	498.75
382.634	517.75
382.86	519.75
383.085	515.75
383.31	513.75
383.535	535.75
383.761	534.75
383.986	531.75
384.211	542.75
384.436	552.75
384.662	557.75
384.887	567.75
385.112	568.75
385.337	570.75
385.562	580.75
385.787	578.75
386.013	582.75
386.238	602.75
386.463	594.75
386.688	578.75
386.913	573.75
387.138	578.75
387.363	570.75
387.588	565.75
387.813	577.75
388.038	542.75
388.263	573.75
388.488	589.75
388.713	575.75
388.938	588.75
389.163	573.75
389.387	575.75
389.612	561.75
389.837	559.75
390.062	553.75
390.287	580.75
390.512	575.75
390.736	558.75
390.961	588.75
391.186	588.75
391.411	588.75
391.636	590.75
391.86	605.75
392.085	615.75
392.31	614.75
392.534	590.75
392.759	586.75
392.984	574.75
393.208	586.75
393.433	593.75
393.658	600.75
393.882	586.75
394.107	599.75
394.331	604.75
394.556	601.75
394.78	607.75
395.005	584.75
395.229	613.75
395.454	602.75
395.678	617.75
395.903	636.75
396.127	629.75
396.352	616.75
396.576	596.75
396.801	599.75
397.025	606.75
397.249	620.75
397.474	645.75
397.698	633.75
397.922	634.75
398.147	623.75
398.371	637.75
398.595	645.75
398.82	683.75
399.044	693.75
399.268	744.75
399.492	844.75
399.717	925.75
399.941	934.75
400.165	893.75
400.389	835.75
400.613	769.75
400.837	751.75
401.062	701.75
401.286	696.75
401.51	690.75
401.734	682.75
401.958	697.75
402.182	709.75
402.406	722.75
402.63	699.75
402.854	708.75
403.078	725.75
403.302	724.75
403.526	747.75
403.75	725.75
403.974	748.75
404.198	719.75
404.422	758.75
404.645	732.75
404.869	760.75
405.093	765.75
405.317	777.75
405.541	775.75
405.765	771.75
405.988	753.75
406.212	750.75
406.436	757.75
406.66	813.75
406.883	802.75
407.107	798.75
407.331	833.75
407.555	897.75
407.778	925.75
408.002	843.75
408.226	812.75
408.449	778.75
408.673	785.75
408.896	787.75
409.12	810.75
409.344	761.75
409.567	754.75
409.791	752.75
410.014	745.75
410.238	725.75
410.461	722.75
410.685	734.75
410.908	723.75
411.132	766.75
411.355	755.75
411.578	719.75
411.802	695.75
412.025	677.75
412.249	726.75
412.472	731.75
412.695	773.75
412.919	739.75
413.142	691.75
413.365	679.75
413.589	672.75
413.812	691.75
414.035	670.75
414.258	671.75
414.482	668.75
414.705	675.75
414.928	671.75
415.151	671.75
415.374	670.75
415.597	673.75
415.821	665.75
416.044	681.75
416.267	667.75
416.49	669.75
416.713	665.75
416.936	656.75
417.159	671.75
417.382	683.75
417.605	642.75
417.828	660.75
418.051	685.75
418.274	678.75
418.497	670.75
418.72	693.75
418.943	659.75
419.166	733.75
419.389	765.75
419.611	741.75
419.834	724.75
420.057	693.75
420.28	702.75
420.503	673.75
420.726	659.75
420.948	690.75
421.171	701.75
421.394	726.75
421.617	666.75
421.839	695.75
422.062	693.75
422.285	667.75
422.507	723.75
422.73	779.75
422.953	766.75
423.175	719.75
423.398	679.75
423.621	704.75
423.843	713.75
424.066	741.75
424.288	736.75
424.511	723.75
424.733	772.75
424.956	796.75
425.178	787.75
425.401	743.75
425.623	783.75
425.846	717.75
426.068	702.75
426.291	705.75
426.513	677.75
426.735	693.75
426.958	710.75
427.18	762.75
427.402	825.75
427.625	887.75
427.847	789.75
428.069	726.75
428.292	680.75
428.514	659.75
428.736	659.75
428.958	654.75
429.181	611.75
429.403	615.75
429.625	632.75
429.847	650.75
430.069	675.75
430.292	697.75
430.514	639.75
430.736	638.75
430.958	613.75
431.18	625.75
431.402	627.75
431.624	629.75
431.846	629.75
432.068	634.75
432.29	627.75
432.512	642.75
432.734	654.75
432.956	624.75
433.178	619.75
433.4	600.75
433.622	644.75
433.844	646.75
434.066	620.75
434.287	633.75
434.509	652.75
434.731	653.75
434.953	674.75
435.175	676.75
435.397	687.75
435.618	706.75
435.84	701.75
436.062	735.75
436.284	786.75
436.505	693.75
436.727	649.75
436.949	649.75
437.17	645.75
437.392	618.75
437.614	602.75
437.835	642.75
438.057	692.75
438.278	760.75
438.5	756.75
438.721	798.75
438.943	792.75
439.165	683.75
439.386	656.75
439.608	669.75
439.829	659.75
440.05	656.75
440.272	721.75
440.493	661.75
440.715	641.75
440.936	665.75
441.158	661.75
441.379	644.75
441.6	695.75
441.822	693.75
442.043	710.75
442.264	780.75
442.486	798.75
442.707	714.75
442.928	705.75
443.149	714.75
443.371	715.75
443.592	719.75
443.813	798.75
444.034	851.75
444.255	783.75
444.476	742.75
444.698	749.75
444.919	799.75
445.14	853.75
445.361	782.75
445.582	743.75
445.803	746.75
446.024	810.75
446.245	777.75
446.466	753.75
446.687	661.75
446.908	663.75
447.129	637.75
447.35	618.75
447.571	614.75
447.792	604.75
448.013	618.75
448.234	615.75
448.455	631.75
448.675	731.75
448.896	779.75
449.117	679.75
449.338	687.75
449.559	751.75
449.779	805.75
450	695.75
450.221	643.75
450.442	611.75
450.662	604.75
450.883	586.75
451.104	609.75
451.324	591.75
451.545	589.75
451.766	577.75
451.986	585.75
452.207	547.75
452.428	558.75
452.648	548.75
452.869	567.75
453.089	565.75
453.31	582.75
453.53	563.75
453.751	545.75
453.971	573.75
454.192	599.75
454.412	526.75
454.633	538.75
454.853	555.75
455.073	545.75
455.294	555.75
455.514	621.75
455.734	598.75
455.955	567.75
456.175	534.75
456.395	548.75
456.616	536.75
456.836	525.75
457.056	535.75
457.276	517.75
457.497	531.75
457.717	531.75
457.937	550.75
458.157	552.75
458.377	550.75
458.598	565.75
458.818	627.75
459.038	662.75
459.258	697.75
459.478	625.75
459.698	631.75
459.918	639.75
460.138	640.75
460.358	670.75
460.578	675.75
460.798	698.75
461.018	696.75
461.238	679.75
461.458	684.75
461.678	681.75
461.898	699.75
462.118	706.75
462.338	734.75
462.558	712.75
462.777	739.75
462.997	782.75
463.217	833.75
463.437	857.75
463.657	799.75
463.876	764.75
464.096	780.75
464.316	762.75
464.536	781.75
464.755	771.75
464.975	730.75
465.195	723.75
465.414	725.75
465.634	679.75
465.854	662.75
466.073	621.75
466.293	633.75
466.512	611.75
466.732	615.75
466.951	595.75
467.171	587.75
467.391	604.75
467.61	584.75
467.829	580.75
468.049	588.75
468.268	578.75
468.488	586.75
468.707	569.75
468.927	569.75
469.146	575.75
469.365	577.75
469.585	574.75
469.804	580.75
470.023	620.75
470.243	591.75
470.462	601.75
470.681	639.75
470.901	621.75
471.12	611.75
471.339	594.75
471.558	583.75
471.777	611.75
471.997	588.75
472.216	601.75
472.435	611.75
472.654	591.75
472.873	607.75
473.092	588.75
473.311	579.75
473.53	585.75
473.749	589.75
473.968	620.75
474.187	645.75
474.406	670.75
474.625	615.75
474.844	597.75
475.063	551.75
475.282	574.75
475.501	595.75
475.72	598.75
475.939	597.75
476.158	611.75
476.377	629.75
476.596	602.75
476.814	623.75
477.033	620.75
477.252	639.75
477.471	639.75
477.69	631.75
477.908	675.75
478.127	652.75
478.346	677.75
478.564	693.75
478.783	684.75
479.002	707.75
479.22	715.75
479.439	744.75
479.658	726.75
479.876	739.75
480.095	760.75
480.313	773.75
480.532	776.75
480.751	805.75
480.969	774.75
481.188	765.75
481.406	781.75
481.624	738.75
481.843	707.75
482.061	672.75
482.28	692.75
482.498	682.75
482.717	673.75
482.935	684.75
483.153	694.75
483.372	663.75
483.59	693.75
483.808	695.75
484.027	681.75
484.245	695.75
484.463	689.75
484.681	709.75
484.9	712.75
485.118	703.75
485.336	703.75
485.554	722.75
485.772	718.75
485.99	717.75
486.209	729.75
486.427	716.75
486.645	735.75
486.863	728.75
487.081	726.75
487.299	703.75
487.517	729.75
487.735	718.75
487.953	698.75
488.171	722.75
488.389	731.75
488.607	729.75
488.825	726.75
489.043	737.75
489.261	733.75
489.479	727.75
489.696	742.75
489.914	771.75
490.132	742.75
490.35	745.75
490.568	748.75
490.786	763.75
491.003	750.75
491.221	779.75
491.439	775.75
491.657	783.75
491.874	796.75
492.092	806.75
492.31	770.75
492.527	818.75
492.745	806.75
492.963	802.75
493.18	794.75
493.398	838.75
493.615	839.75
493.833	845.75
494.05	818.75
494.268	849.75
494.485	835.75
494.703	838.75
494.92	836.75
495.138	832.75
495.355	815.75
495.573	846.75
495.79	835.75
496.008	848.75
496.225	847.75
496.442	853.75
496.66	867.75
496.877	878.75
497.094	904.75
497.312	901.75
497.529	916.75
497.746	913.75
497.963	931.75
498.181	930.75
498.398	983.75
498.615	1006.75
498.832	1063.75
499.049	1081.75
499.267	1179.75
499.484	1263.75
499.701	1340.75
499.918	1403.75
500.135	1537.75
500.352	1705.75
500.569	1719.75
500.786	1717.75
501.003	1689.75
501.22	1546.75
501.437	1461.75
501.654	1311.75
501.871	1257.75
502.088	1201.75
502.305	1149.75
502.522	1075.75
502.739	1039.75
502.956	1009.75
503.172	959.75
503.389	947.75
503.606	926.75
503.823	907.75
504.04	910.75
504.256	926.75
504.473	927.75
504.69	928.75
504.907	903.75
505.123	887.75
505.34	853.75
505.557	836.75
505.773	794.75
505.99	814.75
506.207	787.75
506.423	779.75
506.64	797.75
506.856	753.75
507.073	759.75
507.289	742.75
507.506	743.75
507.722	749.75
507.939	750.75
508.155	725.75
508.372	747.75
508.588	713.75
508.805	701.75
509.021	700.75
509.238	739.75
509.454	738.75
509.67	730.75
509.887	734.75
510.103	714.75
510.319	709.75
510.536	775.75
510.752	1015.75
510.968	896.75
511.184	719.75
511.401	694.75
511.617	719.75
511.833	687.75
512.049	695.75
512.265	693.75
512.481	722.75
512.698	693.75
512.914	716.75
513.13	690.75
513.346	688.75
513.562	687.75
513.778	699.75
513.994	674.75
514.21	697.75
514.426	689.75
514.642	714.75
514.858	742.75
515.074	745.75
515.29	807.75
515.506	1047.75
515.721	929.75
515.937	743.75
516.153	756.75
516.369	746.75
516.585	749.75
516.801	801.75
517.016	787.75
517.232	805.75
517.448	869.75
517.664	863.75
517.879	845.75
518.095	842.75
518.311	810.75
518.527	806.75
518.742	790.75
518.958	770.75
519.173	734.75
519.389	733.75
519.605	727.75
519.82	721.75
520.036	717.75
520.251	713.75
520.467	733.75
520.682	719.75
520.898	710.75
521.113	716.75
521.329	709.75
521.544	745.75
521.76	843.75
521.975	1137.75
522.19	1204.75
522.406	817.75
522.621	691.75
522.836	667.75
523.052	665.75
523.267	646.75
523.482	623.75
523.698	617.75
523.913	628.75
524.128	645.75
524.343	634.75
524.559	622.75
524.774	628.75
524.989	620.75
525.204	621.75
525.419	629.75
525.634	617.75
525.849	633.75
526.064	612.75
526.28	583.75
526.495	605.75
526.71	585.75
526.925	612.75
527.14	582.75
527.355	571.75
527.57	593.75
527.785	594.75
527.999	577.75
528.214	583.75
528.429	611.75
528.644	605.75
528.859	592.75
529.074	598.75
529.289	604.75
529.503	636.75
529.718	617.75
529.933	612.75
530.148	610.75
530.363	593.75
530.577	613.75
530.792	582.75
531.007	590.75
531.221	585.75
531.436	605.75
531.651	595.75
531.865	604.75
532.08	594.75
532.295	607.75
532.509	575.75
532.724	590.75
532.938	597.75
533.153	593.75
533.367	611.75
533.582	589.75
533.796	584.75
534.011	590.75
534.225	573.75
534.44	576.75
534.654	583.75
534.868	606.75
535.083	573.75
535.297	575.75
535.511	583.75
535.726	586.75
535.94	581.75
536.154	582.75
536.369	560.75
536.583	558.75
536.797	550.75
537.011	550.75
537.225	580.75
537.44	535.75
537.654	545.75
537.868	544.75
538.082	562.75
538.296	543.75
538.51	555.75
538.724	548.75
538.938	553.75
539.153	545.75
539.367	541.75
539.581	551.75
539.795	561.75
540.009	572.75
540.222	557.75
540.436	538.75
540.65	522.75
540.864	554.75
541.078	542.75
541.292	548.75
541.506	566.75
541.72	567.75
541.934	526.75
542.147	541.75
542.361	556.75
542.575	548.75
542.789	535.75
543.002	560.75
543.216	525.75
543.43	537.75
543.644	545.75
543.857	583.75
544.071	558.75
544.285	552.75
544.498	550.75
544.712	549.75
544.925	536.75
545.139	563.75
545.352	538.75
545.566	556.75
545.779	552.75
545.993	547.75
546.206	571.75
546.42	569.75
546.633	542.75
546.847	563.75
547.06	557.75
547.274	525.75
547.487	543.75
547.7	549.75
547.914	562.75
548.127	551.75
548.34	540.75
548.554	566.75
548.767	538.75
548.98	561.75
549.193	554.75
549.407	557.75
549.62	559.75
549.833	556.75
550.046	555.75
550.259	555.75
550.473	550.75
550.686	539.75
550.899	555.75
551.112	528.75
551.325	554.75
551.538	536.75
551.751	517.75
551.964	531.75
552.177	543.75
552.39	577.75
552.603	576.75
552.816	582.75
553.029	592.75
553.242	615.75
553.455	577.75
553.667	634.75
553.88	593.75
554.093	563.75
554.306	571.75
554.519	574.75
554.732	566.75
554.944	566.75
555.157	550.75
555.37	547.75
555.583	535.75
555.795	535.75
556.008	513.75
556.221	506.75
556.433	499.75
556.646	504.75
556.859	514.75
557.071	498.75
557.284	502.75
557.496	508.75
557.709	481.75
557.921	485.75
558.134	495.75
558.346	476.75
558.559	474.75
558.771	471.75
558.984	486.75
559.196	499.75
559.409	459.75
559.621	486.75
559.833	463.75
560.046	468.75
560.258	464.75
560.47	464.75
560.683	476.75
560.895	470.75
561.107	481.75
561.32	475.75
561.532	477.75
561.744	480.75
561.956	468.75
562.168	487.75
562.381	483.75
562.593	484.75
562.805	488.75
563.017	457.75
563.229	495.75
563.441	500.75
563.653	498.75
563.865	479.75
564.077	505.75
564.289	489.75
564.501	508.75
564.713	504.75
564.925	526.75
565.137	520.75
565.349	543.75
565.561	571.75
565.773	551.75
565.985	588.75
566.197	593.75
566.408	646.75
566.62	689.75
566.832	703.75
567.044	704.75
567.255	704.75
567.467	741.75
567.679	772.75
567.891	773.75
568.102	826.75
568.314	763.75
568.526	705.75
568.737	673.75
568.949	636.75
569.161	594.75
569.372	590.75
569.584	547.75
569.795	530.75
570.007	526.75
570.218	563.75
570.43	535.75
570.641	521.75
570.853	465.75
571.064	507.75
571.276	522.75
571.487	492.75
571.698	470.75
571.91	468.75
572.121	445.75
572.333	450.75
572.544	463.75
572.755	435.75
572.966	437.75
573.178	446.75
573.389	410.75
573.6	418.75
573.811	436.75
574.023	433.75
574.234	444.75
574.445	411.75
574.656	413.75
574.867	416.75
575.078	417.75
575.289	433.75
575.501	406.75
575.712	402.75
575.923	419.75
576.134	430.75
576.345	395.75
576.556	408.75
576.767	403.75
576.978	406.75
577.188	400.75
577.399	400.75
577.61	398.75
577.821	400.75
578.032	389.75
578.243	392.75
578.454	542.75
578.665	469.75
578.875	409.75
579.086	385.75
579.297	391.75
579.508	377.75
579.718	391.75
579.929	395.75
580.14	379.75
580.35	382.75
580.561	393.75
580.772	377.75
580.982	369.75
581.193	387.75
581.403	374.75
581.614	390.75
581.825	375.75
582.035	364.75
582.246	363.75
582.456	378.75
582.667	362.75
582.877	392.75
583.087	365.75
583.298	369.75
583.508	373.75
583.719	380.75
583.929	379.75
584.139	361.75
584.35	368.75
584.56	374.75
584.77	350.75
584.981	366.75
585.191	362.75
585.401	367.75
585.611	357.75
585.821	363.75
586.032	362.75
586.242	372.75
586.452	373.75
586.662	349.75
586.872	365.75
587.082	383.75
587.292	364.75
587.502	350.75
587.713	354.75
587.923	352.75
588.133	348.75
588.343	362.75
588.553	349.75
588.762	363.75
588.972	362.75
589.182	354.75
589.392	359.75
589.602	378.75
589.812	373.75
590.022	372.75
590.232	375.75
590.441	360.75
590.651	378.75
590.861	384.75
591.071	377.75
591.281	376.75
591.49	394.75
591.7	391.75
591.91	388.75
592.119	394.75
592.329	400.75
592.539	395.75
592.748	398.75
592.958	440.75
593.167	427.75
593.377	417.75
593.587	440.75
593.796	449.75
594.006	445.75
594.215	459.75
594.424	436.75
594.634	442.75
594.843	422.75
595.053	407.75
595.262	390.75
595.472	400.75
595.681	369.75
595.89	382.75
596.1	383.75
596.309	361.75
596.518	341.75
596.727	343.75
596.937	343.75
597.146	345.75
597.355	348.75
597.564	334.75
597.774	345.75
597.983	337.75
598.192	336.75
598.401	318.75
598.61	330.75
598.819	334.75
599.028	328.75
599.237	315.75
599.446	316.75
599.655	317.75
599.864	322.75
600.073	318.75
600.282	316.75
600.491	321.75
600.7	325.75
600.909	318.75
601.118	311.75
601.327	306.75
601.536	310.75
601.745	294.75
601.953	320.75
602.162	317.75
602.371	291.75
602.58	302.75
602.789	295.75
602.997	297.75
603.206	297.75
603.415	290.75
603.623	289.75
603.832	313.75
604.041	302.75
604.249	299.75
604.458	284.75
604.666	309.75
604.875	290.75
605.084	295.75
605.292	307.75
605.501	312.75
605.709	290.75
605.918	298.75
606.126	284.75
606.334	288.75
606.543	307.75
606.751	282.75
606.96	283.75
607.168	291.75
607.376	289.75
607.585	282.75
607.793	310.75
608.001	298.75
608.21	297.75
608.418	287.75
608.626	299.75
608.834	295.75
609.043	282.75
609.251	285.75
609.459	285.75
609.667	274.75
609.875	299.75
610.083	267.75
610.291	271.75
610.499	287.75
610.707	275.75
610.916	288.75
611.124	302.75
611.332	293.75
611.54	296.75
611.748	278.75
611.955	284.75
612.163	273.75
612.371	278.75
612.579	287.75
612.787	297.75
612.995	261.75
613.203	275.75
613.411	290.75
613.618	273.75
613.826	284.75
614.034	283.75
614.242	275.75
614.449	290.75
614.657	285.75
614.865	300.75
615.072	274.75
615.28	274.75
615.488	281.75
615.695	285.75
615.903	266.75
616.111	284.75
616.318	293.75
616.526	294.75
616.733	292.75
616.941	292.75
617.148	293.75
617.356	278.75
617.563	279.75
617.771	282.75
617.978	253.75
618.185	284.75
618.393	287.75
618.6	275.75
618.807	269.75
619.015	281.75
619.222	283.75
619.429	309.75
619.637	283.75
619.844	276.75
620.051	275.75
620.258	262.75
620.466	280.75
620.673	265.75
620.88	250.75
621.087	263.75
621.294	258.75
621.501	275.75
621.708	262.75
621.915	265.75
622.122	264.75
622.329	269.75
622.536	269.75
622.743	252.75
622.95	275.75
623.157	261.75
623.364	248.75
623.571	266.75
623.778	274.75
623.985	260.75
624.192	263.75
624.399	261.75
624.606	265.75
624.812	244.75
625.019	245.75
625.226	232.75
625.433	255.75
625.639	248.75
625.846	253.75
626.053	247.75
626.259	221.75
626.466	241.75
626.673	257.75
626.879	259.75
627.086	246.75
627.293	236.75
627.499	231.75
627.706	237.75
627.912	246.75
628.119	241.75
628.325	237.75
628.532	237.75
628.738	243.75
628.945	224.75
629.151	235.75
629.357	221.75
629.564	242.75
629.77	231.75
629.976	241.75
630.183	220.75
630.389	215.75
630.595	221.75
630.802	230.75
631.008	219.75
631.214	237.75
631.42	245.75
631.627	246.75
631.833	235.75
632.039	231.75
632.245	232.75
632.451	207.75
632.657	229.75
632.863	202.75
633.069	205.75
633.275	233.75
633.481	219.75
633.688	221.75
633.893	239.75
634.099	206.75
634.305	225.75
634.511	216.75
634.717	231.75
634.923	212.75
635.129	224.75
635.335	215.75
635.541	217.75
635.747	197.75
635.952	217.75
636.158	220.75
636.364	205.75
636.57	216.75
636.775	218.75
636.981	217.75
637.187	211.75
637.392	201.75
637.598	217.75
637.804	219.75
638.009	194.75
638.215	218.75
638.421	216.75
638.626	218.75
638.832	193.75
639.037	217.75
639.243	186.75
639.448	194.75
639.654	191.75
639.859	205.75
640.065	197.75
640.27	207.75
640.475	216.75
640.681	206.75
640.886	206.75
641.091	203.75
641.297	207.75
641.502	192.75
641.707	184.75
641.913	199.75
642.118	198.75
642.323	206.75
642.528	210.75
642.733	198.75
642.939	178.75
643.144	193.75
643.349	206.75
643.554	198.75
643.759	213.75
643.964	177.75
644.169	207.75
644.374	196.75
644.579	188.75
644.784	190.75
644.989	194.75
645.194	203.75
645.399	203.75
645.604	187.75
645.809	223.75
646.014	213.75
646.219	183.75
646.423	177.75
646.628	186.75
646.833	191.75
647.038	202.75
647.243	193.75
647.447	207.75
647.652	205.75
647.857	202.75
648.062	207.75
648.266	198.75
648.471	206.75
648.676	197.75
648.88	221.75
649.085	202.75
649.289	204.75
649.494	183.75
649.698	217.75
649.903	192.75
650.107	186.75
650.312	185.75
650.516	174.75
650.721	187.75
650.925	185.75
651.13	190.75
651.334	189.75
651.539	166.75
651.743	187.75
651.947	174.75
652.152	185.75
652.356	153.75
652.56	158.75
652.764	157.75
652.969	163.75
653.173	166.75
653.377	146.75
653.581	144.75
653.785	154.75
653.99	173.75
654.194	166.75
654.398	156.75
654.602	155.75
654.806	148.75
655.01	165.75
655.214	166.75
655.418	152.75
655.622	151.75
655.826	155.75
656.03	157.75
656.234	161.75
656.438	141.75
656.642	154.75
656.846	166.75
657.049	151.75
657.253	150.75
657.457	136.75
657.661	139.75
657.865	125.75
658.068	121.75
658.272	120.75
658.476	121.75
658.68	115.75
658.883	124.75
659.087	125.75
659.291	110.75
659.494	108.75
659.698	92.75
659.901	100.75
660.105	99.75
660.309	95.75
660.512	99.75
660.716	102.75
660.919	105.75
661.123	90.75
661.326	106.75
661.53	90.75
661.733	88.75
661.936	104.75
662.14	105.75
662.343	100.75
662.546	75.75
662.75	78.75
662.953	83.75
663.156	97.75
663.36	81.75
663.563	80.75
663.766	78.75
663.969	78.75
664.173	63.75
664.376	79.75
664.579	82.75
664.782	80.75
664.985	94.75
665.188	74.75
665.391	82.75
665.594	91.75
665.797	94.75
666	89.75
666.203	83.75
666.406	96.75
666.609	83.75
666.812	82.75
667.015	77.75
667.218	73.75
667.421	76.75
667.624	81.75
667.827	79.75
668.03	96.75
668.232	100.75
668.435	84.75
668.638	72.75
668.841	86.75
669.043	87.75
669.246	79.75
669.449	93.75
669.651	82.75
669.854	85.75
670.057	89.75
670.259	70.75
670.462	75.75
670.665	81.75
670.867	77.75
671.07	87.75
671.272	81.75
671.475	89.75
671.677	89.75
671.88	98.75
672.082	85.75
672.284	80.75
672.487	86.75
672.689	79.75
672.892	92.75
