Data from 1963.PennyLincolnUp.Lamp.En5.5.200Scan.071719.P1._HRD10591_14-00-12-064.txt Node
Date: Thu Jul 18 14:00:12 EDT 2019
User: cochatt
Spectrometer: HR+D1059
Trigger mode: 1
Integration Time (sec): 1.000000E-1
Scans to average: 1
Electric dark correction enabled: true
Nonlinearity correction enabled: false
Boxcar width: 0
XAxis mode: Wavelengths
Number of Pixels in Spectrum: 2048
>>>>>Begin Spectral Data<<<<<
223.165	-5.88
223.4	-5.88
223.635	-5.88
223.869	-5.88
224.104	-18.88
224.338	-8.88
224.573	-9.88
224.808	-4.88
225.042	-24.88
225.277	7.12
225.511	-9.88
225.746	0.12
225.98	-11.88
226.215	11.12
226.449	16.12
226.683	18.12
226.918	28.12
227.152	20.12
227.387	27.12
227.621	35.12
227.856	48.12
228.09	30.12
228.324	56.12
228.559	60.12
228.793	73.12
229.027	99.12
229.262	103.12
229.496	121.12
229.73	132.12
229.964	136.12
230.199	132.12
230.433	121.12
230.667	112.12
230.901	109.12
231.136	122.12
231.37	130.12
231.604	118.12
231.838	112.12
232.072	123.12
232.306	108.12
232.541	114.12
232.775	116.12
233.009	123.12
233.243	137.12
233.477	107.12
233.711	127.12
233.945	120.12
234.179	128.12
234.413	130.12
234.647	132.12
234.881	130.12
235.115	131.12
235.349	119.12
235.583	117.12
235.817	130.12
236.051	136.12
236.285	130.12
236.519	143.12
236.753	132.12
236.987	148.12
237.221	182.12
237.455	224.12
237.689	180.12
237.922	160.12
238.156	138.12
238.39	141.12
238.624	148.12
238.858	146.12
239.091	148.12
239.325	135.12
239.559	148.12
239.793	144.12
240.027	143.12
240.26	138.12
240.494	172.12
240.728	171.12
240.961	169.12
241.195	161.12
241.429	158.12
241.662	157.12
241.896	151.12
242.13	138.12
242.363	143.12
242.597	152.12
242.83	161.12
243.064	156.12
243.298	160.12
243.531	146.12
243.765	153.12
243.998	153.12
244.232	160.12
244.465	163.12
244.699	167.12
244.932	150.12
245.166	176.12
245.399	180.12
245.633	162.12
245.866	190.12
246.099	167.12
246.333	174.12
246.566	178.12
246.8	165.12
247.033	169.12
247.266	200.12
247.5	170.12
247.733	190.12
247.966	204.12
248.2	208.12
248.433	208.12
248.666	199.12
248.899	208.12
249.133	232.12
249.366	218.12
249.599	228.12
249.832	203.12
250.066	213.12
250.299	210.12
250.532	217.12
250.765	244.12
250.998	234.12
251.231	249.12
251.465	227.12
251.698	227.12
251.931	218.12
252.164	236.12
252.397	231.12
252.63	214.12
252.863	228.12
253.096	230.12
253.329	252.12
253.562	246.12
253.795	241.12
254.028	249.12
254.261	234.12
254.494	256.12
254.727	276.12
254.96	305.12
255.193	274.12
255.426	261.12
255.659	253.12
255.892	252.12
256.124	253.12
256.357	244.12
256.59	257.12
256.823	252.12
257.056	237.12
257.289	246.12
257.521	248.12
257.754	253.12
257.987	242.12
258.22	239.12
258.452	241.12
258.685	251.12
258.918	240.12
259.151	230.12
259.383	242.12
259.616	261.12
259.849	243.12
260.081	269.12
260.314	281.12
260.547	270.12
260.779	280.12
261.012	269.12
261.244	247.12
261.477	263.12
261.71	269.12
261.942	270.12
262.175	263.12
262.407	263.12
262.64	265.12
262.872	257.12
263.105	249.12
263.337	226.12
263.57	270.12
263.802	249.12
264.035	248.12
264.267	243.12
264.499	234.12
264.732	262.12
264.964	237.12
265.197	241.12
265.429	249.12
265.661	245.12
265.894	252.12
266.126	245.12
266.358	261.12
266.591	260.12
266.823	270.12
267.055	257.12
267.287	281.12
267.52	273.12
267.752	258.12
267.984	260.12
268.216	276.12
268.448	281.12
268.681	274.12
268.913	302.12
269.145	307.12
269.377	329.12
269.609	316.12
269.841	321.12
270.073	322.12
270.306	331.12
270.538	366.12
270.77	373.12
271.002	346.12
271.234	320.12
271.466	338.12
271.698	350.12
271.93	354.12
272.162	355.12
272.394	355.12
272.626	333.12
272.858	328.12
273.09	312.12
273.322	317.12
273.553	317.12
273.785	314.12
274.017	308.12
274.249	288.12
274.481	296.12
274.713	297.12
274.945	313.12
275.176	310.12
275.408	322.12
275.64	326.12
275.872	318.12
276.104	304.12
276.335	315.12
276.567	338.12
276.799	325.12
277.031	361.12
277.262	372.12
277.494	370.12
277.726	368.12
277.957	339.12
278.189	339.12
278.421	327.12
278.652	342.12
278.884	317.12
279.115	334.12
279.347	319.12
279.579	329.12
279.81	310.12
280.042	325.12
280.273	327.12
280.505	329.12
280.736	348.12
280.968	333.12
281.199	330.12
281.431	337.12
281.662	350.12
281.894	350.12
282.125	342.12
282.356	347.12
282.588	360.12
282.819	380.12
283.051	333.12
283.282	332.12
283.513	346.12
283.745	350.12
283.976	369.12
284.207	356.12
284.439	357.12
284.67	357.12
284.901	346.12
285.132	354.12
285.364	358.12
285.595	349.12
285.826	360.12
286.057	352.12
286.288	338.12
286.52	365.12
286.751	353.12
286.982	363.12
287.213	363.12
287.444	359.12
287.675	363.12
287.906	378.12
288.138	361.12
288.369	362.12
288.6	389.12
288.831	372.12
289.062	376.12
289.293	382.12
289.524	379.12
289.755	376.12
289.986	365.12
290.217	380.12
290.448	358.12
290.679	376.12
290.91	364.12
291.141	366.12
291.371	380.12
291.602	376.12
291.833	387.12
292.064	337.12
292.295	376.12
292.526	370.12
292.757	374.12
292.987	375.12
293.218	390.12
293.449	384.12
293.68	384.12
293.91	380.12
294.141	389.12
294.372	376.12
294.603	384.12
294.833	386.12
295.064	363.12
295.295	378.12
295.525	355.12
295.756	378.12
295.987	396.12
296.217	411.12
296.448	418.12
296.679	384.12
296.909	386.12
297.14	385.12
297.37	392.12
297.601	380.12
297.831	393.12
298.062	398.12
298.292	396.12
298.523	404.12
298.753	405.12
298.984	410.12
299.214	411.12
299.445	376.12
299.675	392.12
299.905	398.12
300.136	402.12
300.366	401.12
300.597	439.12
300.827	427.12
301.057	424.12
301.288	428.12
301.518	413.12
301.748	442.12
301.979	443.12
302.209	446.12
302.439	434.12
302.669	434.12
302.9	408.12
303.13	410.12
303.36	426.12
303.59	424.12
303.82	450.12
304.051	443.12
304.281	422.12
304.511	427.12
304.741	433.12
304.971	434.12
305.201	434.12
305.431	426.12
305.661	418.12
305.891	406.12
306.121	445.12
306.352	447.12
306.582	415.12
306.812	440.12
307.042	423.12
307.272	425.12
307.502	433.12
307.731	437.12
307.961	437.12
308.191	419.12
308.421	410.12
308.651	435.12
308.881	423.12
309.111	418.12
309.341	417.12
309.571	443.12
309.8	442.12
310.03	474.12
310.26	482.12
310.49	444.12
310.72	461.12
310.949	483.12
311.179	481.12
311.409	485.12
311.639	461.12
311.868	474.12
312.098	461.12
312.328	463.12
312.557	482.12
312.787	510.12
313.017	472.12
313.246	476.12
313.476	471.12
313.706	475.12
313.935	481.12
314.165	496.12
314.394	523.12
314.624	502.12
314.853	474.12
315.083	477.12
315.312	450.12
315.542	466.12
315.771	475.12
316.001	485.12
316.23	478.12
316.46	493.12
316.689	463.12
316.919	493.12
317.148	480.12
317.377	496.12
317.607	482.12
317.836	475.12
318.065	493.12
318.295	480.12
318.524	480.12
318.753	474.12
318.983	460.12
319.212	466.12
319.441	492.12
319.67	482.12
319.9	476.12
320.129	497.12
320.358	507.12
320.587	466.12
320.816	469.12
321.046	496.12
321.275	476.12
321.504	503.12
321.733	483.12
321.962	498.12
322.191	504.12
322.42	506.12
322.649	522.12
322.878	538.12
323.108	546.12
323.337	555.12
323.566	577.12
323.795	584.12
324.024	605.12
324.253	702.12
324.482	918.12
324.71	1332.12
324.939	1945.12
325.168	1720.12
325.397	910.12
325.626	666.12
325.855	613.12
326.084	589.12
326.313	572.12
326.542	575.12
326.77	626.12
326.999	675.12
327.228	875.12
327.457	1247.12
327.686	1545.12
327.914	1040.12
328.143	760.12
328.372	678.12
328.6	646.12
328.829	633.12
329.058	661.12
329.287	651.12
329.515	625.12
329.744	604.12
329.972	592.12
330.201	619.12
330.43	647.12
330.658	665.12
330.887	695.12
331.115	672.12
331.344	636.12
331.572	595.12
331.801	613.12
332.03	617.12
332.258	609.12
332.486	603.12
332.715	604.12
332.943	596.12
333.172	609.12
333.4	634.12
333.629	630.12
333.857	676.12
334.085	646.12
334.314	673.12
334.542	708.12
334.771	720.12
334.999	670.12
335.227	624.12
335.455	625.12
335.684	622.12
335.912	613.12
336.14	590.12
336.369	605.12
336.597	603.12
336.825	612.12
337.053	581.12
337.281	596.12
337.51	580.12
337.738	593.12
337.966	570.12
338.194	602.12
338.422	592.12
338.65	560.12
338.878	553.12
339.106	577.12
339.334	560.12
339.562	573.12
339.79	535.12
340.018	546.12
340.246	572.12
340.474	557.12
340.702	552.12
340.93	533.12
341.158	549.12
341.386	564.12
341.614	547.12
341.842	561.12
342.07	544.12
342.298	553.12
342.526	548.12
342.754	543.12
342.981	535.12
343.209	555.12
343.437	560.12
343.665	585.12
343.893	588.12
344.12	602.12
344.348	614.12
344.576	597.12
344.804	600.12
345.031	571.12
345.259	574.12
345.487	549.12
345.714	534.12
345.942	537.12
346.17	560.12
346.397	522.12
346.625	524.12
346.853	515.12
347.08	522.12
347.308	524.12
347.535	538.12
347.763	545.12
347.99	536.12
348.218	518.12
348.445	526.12
348.673	538.12
348.9	524.12
349.128	523.12
349.355	518.12
349.583	500.12
349.81	505.12
350.037	525.12
350.265	517.12
350.492	519.12
350.72	503.12
350.947	525.12
351.174	530.12
351.402	532.12
351.629	526.12
351.856	532.12
352.083	523.12
352.311	541.12
352.538	517.12
352.765	523.12
352.992	524.12
353.22	507.12
353.447	499.12
353.674	524.12
353.901	507.12
354.128	498.12
354.355	500.12
354.583	525.12
354.81	502.12
355.037	514.12
355.264	533.12
355.491	526.12
355.718	500.12
355.945	496.12
356.172	466.12
356.399	501.12
356.626	500.12
356.853	493.12
357.08	490.12
357.307	512.12
357.534	490.12
357.761	512.12
357.988	490.12
358.215	510.12
358.441	481.12
358.668	498.12
358.895	511.12
359.122	525.12
359.349	541.12
359.576	520.12
359.802	531.12
360.029	572.12
360.256	572.12
360.483	533.12
360.709	520.12
360.936	511.12
361.163	530.12
361.39	509.12
361.616	542.12
361.843	530.12
362.07	530.12
362.296	520.12
362.523	505.12
362.749	536.12
362.976	515.12
363.203	526.12
363.429	531.12
363.656	513.12
363.882	512.12
364.109	498.12
364.335	524.12
364.562	525.12
364.788	513.12
365.015	516.12
365.241	507.12
365.468	508.12
365.694	508.12
365.92	524.12
366.147	505.12
366.373	514.12
366.599	500.12
366.826	530.12
367.052	497.12
367.278	510.12
367.505	518.12
367.731	512.12
367.957	513.12
368.184	534.12
368.41	519.12
368.636	534.12
368.862	530.12
369.089	527.12
369.315	511.12
369.541	521.12
369.767	532.12
369.993	515.12
370.219	537.12
370.445	538.12
370.672	528.12
370.898	533.12
371.124	526.12
371.35	524.12
371.576	525.12
371.802	552.12
372.028	534.12
372.254	529.12
372.48	531.12
372.706	544.12
372.932	530.12
373.158	541.12
373.384	535.12
373.61	528.12
373.835	526.12
374.061	510.12
374.287	543.12
374.513	529.12
374.739	547.12
374.965	567.12
375.191	569.12
375.416	556.12
375.642	544.12
375.868	563.12
376.094	548.12
376.319	522.12
376.545	546.12
376.771	521.12
376.997	518.12
377.222	538.12
377.448	541.12
377.674	503.12
377.899	516.12
378.125	530.12
378.35	536.12
378.576	524.12
378.802	524.12
379.027	545.12
379.253	534.12
379.478	502.12
379.704	536.12
379.929	514.12
380.155	512.12
380.38	521.12
380.606	525.12
380.831	497.12
381.057	526.12
381.282	522.12
381.507	532.12
381.733	544.12
381.958	539.12
382.184	558.12
382.409	544.12
382.634	542.12
382.86	560.12
383.085	546.12
383.31	547.12
383.535	596.12
383.761	571.12
383.986	587.12
384.211	575.12
384.436	572.12
384.662	593.12
384.887	634.12
385.112	630.12
385.337	585.12
385.562	633.12
385.787	624.12
386.013	626.12
386.238	618.12
386.463	605.12
386.688	601.12
386.913	636.12
387.138	601.12
387.363	601.12
387.588	612.12
387.813	613.12
388.038	605.12
388.263	627.12
388.488	636.12
388.713	631.12
388.938	605.12
389.163	611.12
389.387	626.12
389.612	600.12
389.837	591.12
390.062	598.12
390.287	607.12
390.512	632.12
390.736	644.12
390.961	624.12
391.186	617.12
391.411	630.12
391.636	630.12
391.86	663.12
392.085	660.12
392.31	679.12
392.534	626.12
392.759	648.12
392.984	635.12
393.208	650.12
393.433	644.12
393.658	636.12
393.882	636.12
394.107	647.12
394.331	612.12
394.556	606.12
394.78	636.12
395.005	630.12
395.229	633.12
395.454	641.12
395.678	645.12
395.903	688.12
396.127	677.12
396.352	678.12
396.576	635.12
396.801	662.12
397.025	636.12
397.249	671.12
397.474	690.12
397.698	670.12
397.922	676.12
398.147	681.12
398.371	710.12
398.595	711.12
398.82	734.12
399.044	738.12
399.268	821.12
399.492	902.12
399.717	954.12
399.941	1003.12
400.165	971.12
400.389	906.12
400.613	834.12
400.837	789.12
401.062	761.12
401.286	761.12
401.51	735.12
401.734	743.12
401.958	770.12
402.182	732.12
402.406	770.12
402.63	774.12
402.854	765.12
403.078	737.12
403.302	781.12
403.526	799.12
403.75	812.12
403.974	808.12
404.198	803.12
404.422	820.12
404.645	846.12
404.869	812.12
405.093	829.12
405.317	866.12
405.541	884.12
405.765	841.12
405.988	817.12
406.212	812.12
406.436	839.12
406.66	838.12
406.883	805.12
407.107	889.12
407.331	925.12
407.555	993.12
407.778	988.12
408.002	908.12
408.226	856.12
408.449	860.12
408.673	842.12
408.896	846.12
409.12	884.12
409.344	848.12
409.567	794.12
409.791	813.12
410.014	801.12
410.238	753.12
410.461	772.12
410.685	771.12
410.908	797.12
411.132	797.12
411.355	828.12
411.578	800.12
411.802	785.12
412.025	756.12
412.249	750.12
412.472	796.12
412.695	818.12
412.919	805.12
413.142	757.12
413.365	757.12
413.589	764.12
413.812	763.12
414.035	742.12
414.258	743.12
414.482	721.12
414.705	716.12
414.928	697.12
415.151	718.12
415.374	723.12
415.597	703.12
415.821	710.12
416.044	699.12
416.267	721.12
416.49	720.12
416.713	720.12
416.936	722.12
417.159	723.12
417.382	715.12
417.605	722.12
417.828	749.12
418.051	752.12
418.274	725.12
418.497	724.12
418.72	740.12
418.943	729.12
419.166	755.12
419.389	823.12
419.611	796.12
419.834	763.12
420.057	758.12
420.28	774.12
420.503	759.12
420.726	747.12
420.948	766.12
421.171	786.12
421.394	795.12
421.617	747.12
421.839	744.12
422.062	774.12
422.285	722.12
422.507	820.12
422.73	874.12
422.953	876.12
423.175	790.12
423.398	802.12
423.621	802.12
423.843	820.12
424.066	785.12
424.288	797.12
424.511	814.12
424.733	810.12
424.956	906.12
425.178	858.12
425.401	876.12
425.623	872.12
425.846	788.12
426.068	749.12
426.291	743.12
426.513	758.12
426.735	771.12
426.958	802.12
427.18	836.12
427.402	970.12
427.625	1058.12
427.847	916.12
428.069	820.12
428.292	758.12
428.514	716.12
428.736	698.12
428.958	707.12
429.181	662.12
429.403	690.12
429.625	705.12
429.847	726.12
430.069	754.12
430.292	745.12
430.514	702.12
430.736	678.12
430.958	692.12
431.18	680.12
431.402	675.12
431.624	665.12
431.846	669.12
432.068	683.12
432.29	692.12
432.512	664.12
432.734	694.12
432.956	682.12
433.178	663.12
433.4	669.12
433.622	660.12
433.844	666.12
434.066	684.12
434.287	692.12
434.509	702.12
434.731	715.12
434.953	736.12
435.175	770.12
435.397	796.12
435.618	754.12
435.84	788.12
436.062	856.12
436.284	900.12
436.505	789.12
436.727	737.12
436.949	713.12
437.17	682.12
437.392	689.12
437.614	687.12
437.835	716.12
438.057	798.12
438.278	888.12
438.5	890.12
438.721	956.12
438.943	934.12
439.165	772.12
439.386	726.12
439.608	740.12
439.829	726.12
440.05	731.12
440.272	785.12
440.493	761.12
440.715	725.12
440.936	728.12
441.158	724.12
441.379	741.12
441.6	721.12
441.822	770.12
442.043	833.12
442.264	883.12
442.486	882.12
442.707	806.12
442.928	749.12
443.149	798.12
443.371	798.12
443.592	837.12
443.813	896.12
444.034	953.12
444.255	884.12
444.476	829.12
444.698	828.12
444.919	855.12
445.14	921.12
445.361	849.12
445.582	841.12
445.803	849.12
446.024	917.12
446.245	928.12
446.466	886.12
446.687	772.12
446.908	732.12
447.129	676.12
447.35	672.12
447.571	674.12
447.792	659.12
448.013	680.12
448.234	678.12
448.455	724.12
448.675	806.12
448.896	904.12
449.117	776.12
449.338	758.12
449.559	852.12
449.779	945.12
450	798.12
450.221	726.12
450.442	679.12
450.662	647.12
450.883	670.12
451.104	679.12
451.324	659.12
451.545	639.12
451.766	610.12
451.986	620.12
452.207	632.12
452.428	603.12
452.648	618.12
452.869	599.12
453.089	618.12
453.31	640.12
453.53	622.12
453.751	626.12
453.971	592.12
454.192	644.12
454.412	598.12
454.633	628.12
454.853	609.12
455.073	588.12
455.294	605.12
455.514	648.12
455.734	661.12
455.955	598.12
456.175	591.12
456.395	600.12
456.616	590.12
456.836	573.12
457.056	577.12
457.276	558.12
457.497	582.12
457.717	603.12
457.937	589.12
458.157	572.12
458.377	595.12
458.598	633.12
458.818	686.12
459.038	747.12
459.258	748.12
459.478	710.12
459.698	695.12
459.918	684.12
460.138	694.12
460.358	710.12
460.578	721.12
460.798	741.12
461.018	773.12
461.238	758.12
461.458	754.12
461.678	722.12
461.898	746.12
462.118	756.12
462.338	771.12
462.558	785.12
462.777	813.12
462.997	857.12
463.217	886.12
463.437	871.12
463.657	871.12
463.876	825.12
464.096	828.12
464.316	804.12
464.536	797.12
464.755	790.12
464.975	775.12
465.195	820.12
465.414	847.12
465.634	764.12
465.854	733.12
466.073	677.12
466.293	688.12
466.512	660.12
466.732	655.12
466.951	653.12
467.171	634.12
467.391	668.12
467.61	643.12
467.829	685.12
468.049	669.12
468.268	650.12
468.488	641.12
468.707	613.12
468.927	620.12
469.146	615.12
469.365	627.12
469.585	616.12
469.804	654.12
470.023	662.12
470.243	676.12
470.462	665.12
470.681	691.12
470.901	703.12
471.12	659.12
471.339	653.12
471.558	652.12
471.777	644.12
471.997	640.12
472.216	642.12
472.435	662.12
472.654	656.12
472.873	624.12
473.092	655.12
473.311	633.12
473.53	629.12
473.749	637.12
473.968	657.12
474.187	768.12
474.406	795.12
474.625	681.12
474.844	644.12
475.063	629.12
475.282	636.12
475.501	617.12
475.72	644.12
475.939	637.12
476.158	644.12
476.377	650.12
476.596	685.12
476.814	696.12
477.033	676.12
477.252	680.12
477.471	696.12
477.69	716.12
477.908	709.12
478.127	724.12
478.346	735.12
478.564	753.12
478.783	776.12
479.002	777.12
479.22	790.12
479.439	778.12
479.658	772.12
479.876	784.12
480.095	782.12
480.313	842.12
480.532	859.12
480.751	837.12
480.969	844.12
481.188	889.12
481.406	889.12
481.624	821.12
481.843	789.12
482.061	782.12
482.28	737.12
482.498	746.12
482.717	744.12
482.935	754.12
483.153	730.12
483.372	748.12
483.59	766.12
483.808	789.12
484.027	706.12
484.245	772.12
484.463	775.12
484.681	789.12
484.9	786.12
485.118	788.12
485.336	758.12
485.554	773.12
485.772	784.12
485.99	774.12
486.209	787.12
486.427	791.12
486.645	790.12
486.863	804.12
487.081	811.12
487.299	818.12
487.517	772.12
487.735	791.12
487.953	820.12
488.171	814.12
488.389	805.12
488.607	818.12
488.825	789.12
489.043	818.12
489.261	804.12
489.479	833.12
489.696	786.12
489.914	822.12
490.132	830.12
490.35	860.12
490.568	840.12
490.786	844.12
491.003	893.12
491.221	884.12
491.439	884.12
491.657	889.12
491.874	896.12
492.092	892.12
492.31	886.12
492.527	908.12
492.745	914.12
492.963	908.12
493.18	928.12
493.398	938.12
493.615	936.12
493.833	949.12
494.05	951.12
494.268	921.12
494.485	916.12
494.703	932.12
494.92	924.12
495.138	894.12
495.355	937.12
495.573	912.12
495.79	960.12
496.008	942.12
496.225	960.12
496.442	960.12
496.66	969.12
496.877	958.12
497.094	973.12
497.312	985.12
497.529	998.12
497.746	1015.12
497.963	1040.12
498.181	1081.12
498.398	1096.12
498.615	1140.12
498.832	1186.12
499.049	1239.12
499.267	1280.12
499.484	1344.12
499.701	1442.12
499.918	1556.12
500.135	1646.12
500.352	1840.12
500.569	1867.12
500.786	1873.12
501.003	1830.12
501.22	1665.12
501.437	1560.12
501.654	1466.12
501.871	1392.12
502.088	1300.12
502.305	1234.12
502.522	1184.12
502.739	1135.12
502.956	1060.12
503.172	1062.12
503.389	1029.12
503.606	1028.12
503.823	1032.12
504.04	1002.12
504.256	1006.12
504.473	1030.12
504.69	992.12
504.907	995.12
505.123	977.12
505.34	935.12
505.557	918.12
505.773	896.12
505.99	890.12
506.207	868.12
506.423	876.12
506.64	897.12
506.856	860.12
507.073	858.12
507.289	861.12
507.506	841.12
507.722	859.12
507.939	859.12
508.155	834.12
508.372	830.12
508.588	830.12
508.805	824.12
509.021	801.12
509.238	814.12
509.454	832.12
509.67	804.12
509.887	819.12
510.103	807.12
510.319	807.12
510.536	883.12
510.752	1328.12
510.968	1138.12
511.184	813.12
511.401	781.12
511.617	778.12
511.833	767.12
512.049	776.12
512.265	780.12
512.481	797.12
512.698	789.12
512.914	776.12
513.13	764.12
513.346	762.12
513.562	766.12
513.778	759.12
513.994	741.12
514.21	757.12
514.426	795.12
514.642	813.12
514.858	838.12
515.074	868.12
515.29	977.12
515.506	1373.12
515.721	1216.12
515.937	884.12
516.153	846.12
516.369	854.12
516.585	864.12
516.801	877.12
517.016	852.12
517.232	871.12
517.448	925.12
517.664	948.12
517.879	936.12
518.095	932.12
518.311	917.12
518.527	922.12
518.742	874.12
518.958	854.12
519.173	849.12
519.389	826.12
519.605	790.12
519.82	797.12
520.036	803.12
520.251	820.12
520.467	806.12
520.682	797.12
520.898	820.12
521.113	828.12
521.329	834.12
521.544	900.12
521.76	1056.12
521.975	1644.12
522.19	1677.12
522.406	1008.12
522.621	786.12
522.836	757.12
523.052	749.12
523.267	698.12
523.482	724.12
523.698	721.12
523.913	690.12
524.128	689.12
524.343	687.12
524.559	680.12
524.774	674.12
524.989	674.12
525.204	696.12
525.419	681.12
525.634	676.12
525.849	681.12
526.064	675.12
526.28	654.12
526.495	660.12
526.71	672.12
526.925	646.12
527.14	636.12
527.355	654.12
527.57	648.12
527.785	640.12
527.999	634.12
528.214	646.12
528.429	661.12
528.644	632.12
528.859	660.12
529.074	652.12
529.289	663.12
529.503	739.12
529.718	720.12
529.933	674.12
530.148	664.12
530.363	659.12
530.577	641.12
530.792	652.12
531.007	664.12
531.221	645.12
531.436	644.12
531.651	651.12
531.865	636.12
532.08	635.12
532.295	634.12
532.509	644.12
532.724	615.12
532.938	629.12
533.153	622.12
533.367	642.12
533.582	629.12
533.796	617.12
534.011	650.12
534.225	638.12
534.44	637.12
534.654	630.12
534.868	613.12
535.083	610.12
535.297	603.12
535.511	613.12
535.726	650.12
535.94	608.12
536.154	618.12
536.369	632.12
536.583	599.12
536.797	601.12
537.011	602.12
537.225	592.12
537.44	598.12
537.654	570.12
537.868	587.12
538.082	605.12
538.296	613.12
538.51	585.12
538.724	600.12
538.938	594.12
539.153	581.12
539.367	617.12
539.581	596.12
539.795	593.12
540.009	584.12
540.222	585.12
540.436	579.12
540.65	575.12
540.864	586.12
541.078	599.12
541.292	590.12
541.506	596.12
541.72	576.12
541.934	603.12
542.147	599.12
542.361	609.12
542.575	594.12
542.789	589.12
543.002	606.12
543.216	609.12
543.43	603.12
543.644	584.12
543.857	583.12
544.071	584.12
544.285	584.12
544.498	591.12
544.712	590.12
544.925	585.12
545.139	586.12
545.352	565.12
545.566	578.12
545.779	596.12
545.993	605.12
546.206	585.12
546.42	581.12
546.633	582.12
546.847	601.12
547.06	577.12
547.274	577.12
547.487	591.12
547.7	600.12
547.914	598.12
548.127	592.12
548.34	586.12
548.554	581.12
548.767	592.12
548.98	610.12
549.193	603.12
549.407	588.12
549.62	589.12
549.833	617.12
550.046	601.12
550.259	601.12
550.473	593.12
550.686	564.12
550.899	582.12
551.112	580.12
551.325	556.12
551.538	580.12
551.751	565.12
551.964	587.12
552.177	593.12
552.39	589.12
552.603	596.12
552.816	629.12
553.029	636.12
553.242	629.12
553.455	640.12
553.667	621.12
553.88	637.12
554.093	635.12
554.306	634.12
554.519	607.12
554.732	608.12
554.944	578.12
555.157	591.12
555.37	570.12
555.583	557.12
555.795	559.12
556.008	575.12
556.221	545.12
556.433	544.12
556.646	526.12
556.859	540.12
557.071	516.12
557.284	542.12
557.496	535.12
557.709	537.12
557.921	533.12
558.134	488.12
558.346	486.12
558.559	505.12
558.771	520.12
558.984	514.12
559.196	496.12
559.409	488.12
559.621	532.12
559.833	508.12
560.046	514.12
560.258	488.12
560.47	514.12
560.683	505.12
560.895	492.12
561.107	524.12
561.32	484.12
561.532	533.12
561.744	499.12
561.956	497.12
562.168	500.12
562.381	502.12
562.593	504.12
562.805	523.12
563.017	514.12
563.229	512.12
563.441	545.12
563.653	513.12
563.865	524.12
564.077	537.12
564.289	525.12
564.501	519.12
564.713	530.12
564.925	550.12
565.137	560.12
565.349	572.12
565.561	578.12
565.773	596.12
565.985	631.12
566.197	645.12
566.408	680.12
566.62	702.12
566.832	736.12
567.044	757.12
567.255	774.12
567.467	797.12
567.679	780.12
567.891	852.12
568.102	847.12
568.314	828.12
568.526	753.12
568.737	701.12
568.949	693.12
569.161	625.12
569.372	608.12
569.584	576.12
569.795	596.12
570.007	550.12
570.218	581.12
570.43	580.12
570.641	553.12
570.853	526.12
571.064	546.12
571.276	526.12
571.487	514.12
571.698	514.12
571.91	489.12
572.121	485.12
572.333	470.12
572.544	452.12
572.755	451.12
572.966	429.12
573.178	461.12
573.389	444.12
573.6	469.12
573.811	438.12
574.023	440.12
574.234	444.12
574.445	429.12
574.656	441.12
574.867	441.12
575.078	456.12
575.289	447.12
575.501	433.12
575.712	428.12
575.923	431.12
576.134	434.12
576.345	436.12
576.556	435.12
576.767	415.12
576.978	420.12
577.188	425.12
577.399	448.12
577.61	421.12
577.821	412.12
578.032	400.12
578.243	442.12
578.454	636.12
578.665	511.12
578.875	392.12
579.086	418.12
579.297	412.12
579.508	397.12
579.718	417.12
579.929	399.12
580.14	395.12
580.35	410.12
580.561	396.12
580.772	405.12
580.982	397.12
581.193	380.12
581.403	391.12
581.614	396.12
581.825	399.12
582.035	397.12
582.246	390.12
582.456	371.12
582.667	384.12
582.877	364.12
583.087	378.12
583.298	393.12
583.508	388.12
583.719	382.12
583.929	406.12
584.139	391.12
584.35	404.12
584.56	395.12
584.77	380.12
584.981	394.12
585.191	388.12
585.401	384.12
585.611	376.12
585.821	358.12
586.032	392.12
586.242	376.12
586.452	392.12
586.662	382.12
586.872	379.12
587.082	371.12
587.292	392.12
587.502	356.12
587.713	372.12
587.923	384.12
588.133	383.12
588.343	395.12
588.553	358.12
588.762	379.12
588.972	398.12
589.182	382.12
589.392	377.12
589.602	401.12
589.812	382.12
590.022	369.12
590.232	361.12
590.441	380.12
590.651	378.12
590.861	386.12
591.071	380.12
591.281	401.12
591.49	391.12
591.7	418.12
591.91	404.12
592.119	418.12
592.329	427.12
592.539	430.12
592.748	429.12
592.958	456.12
593.167	451.12
593.377	444.12
593.587	439.12
593.796	442.12
594.006	435.12
594.215	466.12
594.424	469.12
594.634	446.12
594.843	462.12
595.053	423.12
595.262	441.12
595.472	391.12
595.681	392.12
595.89	410.12
596.1	390.12
596.309	394.12
596.518	368.12
596.727	374.12
596.937	360.12
597.146	350.12
597.355	346.12
597.564	355.12
597.774	341.12
597.983	349.12
598.192	343.12
598.401	348.12
598.61	335.12
598.819	333.12
599.028	354.12
599.237	336.12
599.446	340.12
599.655	346.12
599.864	333.12
600.073	328.12
600.282	312.12
600.491	318.12
600.7	318.12
600.909	323.12
601.118	345.12
601.327	325.12
601.536	331.12
601.745	323.12
601.953	319.12
602.162	337.12
602.371	348.12
602.58	330.12
602.789	328.12
602.997	327.12
603.206	331.12
603.415	313.12
603.623	313.12
603.832	310.12
604.041	325.12
604.249	316.12
604.458	311.12
604.666	310.12
604.875	328.12
605.084	335.12
605.292	317.12
605.501	296.12
605.709	312.12
605.918	306.12
606.126	291.12
606.334	299.12
606.543	317.12
606.751	317.12
606.96	314.12
607.168	298.12
607.376	311.12
607.585	312.12
607.793	310.12
608.001	302.12
608.21	309.12
608.418	320.12
608.626	316.12
608.834	296.12
609.043	304.12
609.251	336.12
609.459	298.12
609.667	304.12
609.875	288.12
610.083	284.12
610.291	304.12
610.499	296.12
610.707	288.12
610.916	301.12
611.124	300.12
611.332	300.12
611.54	311.12
611.748	312.12
611.955	310.12
612.163	298.12
612.371	305.12
612.579	302.12
612.787	276.12
612.995	297.12
613.203	301.12
613.411	301.12
613.618	283.12
613.826	306.12
614.034	297.12
614.242	292.12
614.449	291.12
614.657	292.12
614.865	296.12
615.072	305.12
615.28	304.12
615.488	286.12
615.695	288.12
615.903	286.12
616.111	283.12
616.318	305.12
616.526	292.12
616.733	310.12
616.941	288.12
617.148	307.12
617.356	298.12
617.563	304.12
617.771	297.12
617.978	280.12
618.185	293.12
618.393	276.12
618.6	292.12
618.807	286.12
619.015	290.12
619.222	302.12
619.429	292.12
619.637	274.12
619.844	280.12
620.051	280.12
620.258	284.12
620.466	289.12
620.673	282.12
620.88	251.12
621.087	273.12
621.294	282.12
621.501	299.12
621.708	293.12
621.915	274.12
622.122	268.12
622.329	266.12
622.536	283.12
622.743	279.12
622.95	273.12
623.157	275.12
623.364	266.12
623.571	274.12
623.778	268.12
623.985	264.12
624.192	268.12
624.399	228.12
624.606	268.12
624.812	273.12
625.019	261.12
625.226	274.12
625.433	264.12
625.639	246.12
625.846	253.12
626.053	259.12
626.259	236.12
626.466	253.12
626.673	240.12
626.879	251.12
627.086	233.12
627.293	264.12
627.499	267.12
627.706	265.12
627.912	250.12
628.119	256.12
628.325	270.12
628.532	246.12
628.738	257.12
628.945	224.12
629.151	232.12
629.357	242.12
629.564	244.12
629.77	262.12
629.976	238.12
630.183	223.12
630.389	227.12
630.595	243.12
630.802	226.12
631.008	240.12
631.214	227.12
631.42	230.12
631.627	257.12
631.833	242.12
632.039	220.12
632.245	249.12
632.451	235.12
632.657	218.12
632.863	213.12
633.069	221.12
633.275	222.12
633.481	243.12
633.688	205.12
633.893	221.12
634.099	243.12
634.305	216.12
634.511	229.12
634.717	244.12
634.923	222.12
635.129	225.12
635.335	227.12
635.541	210.12
635.747	228.12
635.952	216.12
636.158	229.12
636.364	227.12
636.57	219.12
636.775	210.12
636.981	236.12
637.187	217.12
637.392	218.12
637.598	198.12
637.804	215.12
638.009	234.12
638.215	230.12
638.421	220.12
638.626	204.12
638.832	220.12
639.037	197.12
639.243	204.12
639.448	205.12
639.654	204.12
639.859	188.12
640.065	203.12
640.27	205.12
640.475	183.12
640.681	212.12
640.886	210.12
641.091	212.12
641.297	204.12
641.502	208.12
641.707	201.12
641.913	212.12
642.118	202.12
642.323	216.12
642.528	206.12
642.733	194.12
642.939	193.12
643.144	197.12
643.349	186.12
643.554	201.12
643.759	200.12
643.964	190.12
644.169	187.12
644.374	206.12
644.579	206.12
644.784	195.12
644.989	185.12
645.194	195.12
645.399	208.12
645.604	180.12
645.809	198.12
646.014	201.12
646.219	199.12
646.423	201.12
646.628	194.12
646.833	178.12
647.038	181.12
647.243	187.12
647.447	213.12
647.652	200.12
647.857	214.12
648.062	193.12
648.266	193.12
648.471	198.12
648.676	207.12
648.88	206.12
649.085	210.12
649.289	211.12
649.494	202.12
649.698	218.12
649.903	212.12
650.107	188.12
650.312	173.12
650.516	170.12
650.721	191.12
650.925	173.12
651.13	182.12
651.334	172.12
651.539	180.12
651.743	182.12
651.947	182.12
652.152	169.12
652.356	157.12
652.56	176.12
652.764	168.12
652.969	169.12
653.173	145.12
653.377	164.12
653.581	142.12
653.785	150.12
653.99	164.12
654.194	154.12
654.398	156.12
654.602	150.12
654.806	160.12
655.01	148.12
655.214	160.12
655.418	162.12
655.622	146.12
655.826	135.12
656.03	164.12
656.234	162.12
656.438	132.12
656.642	158.12
656.846	170.12
657.049	146.12
657.253	158.12
657.457	128.12
657.661	130.12
657.865	130.12
658.068	125.12
658.272	120.12
658.476	113.12
658.68	112.12
658.883	109.12
659.087	105.12
659.291	108.12
659.494	106.12
659.698	94.12
659.901	107.12
660.105	101.12
660.309	92.12
660.512	90.12
660.716	101.12
660.919	97.12
661.123	94.12
661.326	96.12
661.53	110.12
661.733	85.12
661.936	97.12
662.14	83.12
662.343	93.12
662.546	89.12
662.75	84.12
662.953	98.12
663.156	79.12
663.36	88.12
663.563	87.12
663.766	79.12
663.969	81.12
664.173	93.12
664.376	77.12
664.579	73.12
664.782	90.12
664.985	82.12
665.188	82.12
665.391	84.12
665.594	88.12
665.797	78.12
666	77.12
666.203	100.12
666.406	85.12
666.609	88.12
666.812	74.12
667.015	74.12
667.218	74.12
667.421	81.12
667.624	73.12
667.827	96.12
668.03	95.12
668.232	89.12
668.435	85.12
668.638	90.12
668.841	100.12
669.043	81.12
669.246	74.12
669.449	63.12
669.651	76.12
669.854	89.12
670.057	83.12
670.259	81.12
670.462	82.12
670.665	73.12
670.867	81.12
671.07	82.12
671.272	88.12
671.475	85.12
671.677	95.12
671.88	81.12
672.082	91.12
672.284	85.12
672.487	73.12
672.689	69.12
672.892	76.12
