Data from 1963.PennyLincolnUp.Lamp.En5.5.200Scan.071719.P1._HRD10591_13-59-59-064.txt Node
Date: Thu Jul 18 13:59:59 EDT 2019
User: cochatt
Spectrometer: HR+D1059
Trigger mode: 1
Integration Time (sec): 1.000000E-1
Scans to average: 1
Electric dark correction enabled: true
Nonlinearity correction enabled: false
Boxcar width: 0
XAxis mode: Wavelengths
Number of Pixels in Spectrum: 2048
>>>>>Begin Spectral Data<<<<<
223.165	-6.12
223.4	-6.12
223.635	-6.12
223.869	-21.12
224.104	-12.12
224.338	-22.12
224.573	-16.12
224.808	-21.12
225.042	-15.12
225.277	-7.12
225.511	-10.12
225.746	3.88
225.98	7.88
226.215	18.88
226.449	17.88
226.683	28.88
226.918	25.88
227.152	27.88
227.387	39.88
227.621	45.88
227.856	51.88
228.09	36.88
228.324	50.88
228.559	53.88
228.793	58.88
229.027	87.88
229.262	116.88
229.496	105.88
229.73	141.88
229.964	155.88
230.199	128.88
230.433	127.88
230.667	124.88
230.901	121.88
231.136	117.88
231.37	122.88
231.604	133.88
231.838	126.88
232.072	133.88
232.306	123.88
232.541	115.88
232.775	118.88
233.009	126.88
233.243	138.88
233.477	128.88
233.711	116.88
233.945	126.88
234.179	128.88
234.413	116.88
234.647	115.88
234.881	119.88
235.115	125.88
235.349	131.88
235.583	139.88
235.817	146.88
236.051	128.88
236.285	137.88
236.519	144.88
236.753	139.88
236.987	142.88
237.221	164.88
237.455	203.88
237.689	193.88
237.922	167.88
238.156	144.88
238.39	139.88
238.624	144.88
238.858	145.88
239.091	134.88
239.325	129.88
239.559	144.88
239.793	143.88
240.027	139.88
240.26	149.88
240.494	163.88
240.728	158.88
240.961	155.88
241.195	173.88
241.429	147.88
241.662	149.88
241.896	145.88
242.13	158.88
242.363	145.88
242.597	151.88
242.83	153.88
243.064	170.88
243.298	156.88
243.531	161.88
243.765	165.88
243.998	158.88
244.232	168.88
244.465	148.88
244.699	172.88
244.932	157.88
245.166	158.88
245.399	167.88
245.633	169.88
245.866	175.88
246.099	172.88
246.333	179.88
246.566	185.88
246.8	172.88
247.033	165.88
247.266	184.88
247.5	183.88
247.733	190.88
247.966	192.88
248.2	192.88
248.433	185.88
248.666	195.88
248.899	206.88
249.133	210.88
249.366	228.88
249.599	214.88
249.832	203.88
250.066	207.88
250.299	185.88
250.532	199.88
250.765	204.88
250.998	240.88
251.231	244.88
251.465	232.88
251.698	228.88
251.931	229.88
252.164	207.88
252.397	234.88
252.63	230.88
252.863	237.88
253.096	244.88
253.329	245.88
253.562	236.88
253.795	243.88
254.028	239.88
254.261	234.88
254.494	250.88
254.727	274.88
254.96	308.88
255.193	285.88
255.426	271.88
255.659	254.88
255.892	256.88
256.124	241.88
256.357	238.88
256.59	237.88
256.823	248.88
257.056	229.88
257.289	238.88
257.521	234.88
257.754	255.88
257.987	236.88
258.22	231.88
258.452	220.88
258.685	228.88
258.918	224.88
259.151	228.88
259.383	230.88
259.616	234.88
259.849	261.88
260.081	268.88
260.314	285.88
260.547	283.88
260.779	261.88
261.012	257.88
261.244	249.88
261.477	258.88
261.71	240.88
261.942	253.88
262.175	250.88
262.407	255.88
262.64	247.88
262.872	239.88
263.105	242.88
263.337	249.88
263.57	262.88
263.802	238.88
264.035	241.88
264.267	240.88
264.499	230.88
264.732	261.88
264.964	253.88
265.197	262.88
265.429	243.88
265.661	251.88
265.894	253.88
266.126	254.88
266.358	252.88
266.591	259.88
266.823	269.88
267.055	277.88
267.287	268.88
267.52	275.88
267.752	245.88
267.984	277.88
268.216	269.88
268.448	255.88
268.681	282.88
268.913	298.88
269.145	303.88
269.377	312.88
269.609	310.88
269.841	289.88
270.073	300.88
270.306	318.88
270.538	360.88
270.77	331.88
271.002	330.88
271.234	331.88
271.466	338.88
271.698	329.88
271.93	370.88
272.162	358.88
272.394	356.88
272.626	342.88
272.858	338.88
273.09	310.88
273.322	309.88
273.553	306.88
273.785	285.88
274.017	298.88
274.249	318.88
274.481	289.88
274.713	319.88
274.945	303.88
275.176	301.88
275.408	327.88
275.64	301.88
275.872	299.88
276.104	311.88
276.335	316.88
276.567	333.88
276.799	315.88
277.031	353.88
277.262	383.88
277.494	359.88
277.726	356.88
277.957	346.88
278.189	340.88
278.421	325.88
278.652	337.88
278.884	345.88
279.115	343.88
279.347	335.88
279.579	324.88
279.81	322.88
280.042	311.88
280.273	329.88
280.505	319.88
280.736	323.88
280.968	345.88
281.199	335.88
281.431	331.88
281.662	320.88
281.894	330.88
282.125	325.88
282.356	321.88
282.588	345.88
282.819	351.88
283.051	336.88
283.282	343.88
283.513	316.88
283.745	336.88
283.976	347.88
284.207	350.88
284.439	337.88
284.67	356.88
284.901	351.88
285.132	338.88
285.364	341.88
285.595	354.88
285.826	341.88
286.057	331.88
286.288	331.88
286.52	352.88
286.751	356.88
286.982	353.88
287.213	347.88
287.444	355.88
287.675	363.88
287.906	371.88
288.138	348.88
288.369	373.88
288.6	369.88
288.831	360.88
289.062	366.88
289.293	366.88
289.524	357.88
289.755	360.88
289.986	369.88
290.217	367.88
290.448	357.88
290.679	369.88
290.91	368.88
291.141	365.88
291.371	363.88
291.602	368.88
291.833	362.88
292.064	384.88
292.295	356.88
292.526	352.88
292.757	361.88
292.987	353.88
293.218	369.88
293.449	373.88
293.68	374.88
293.91	389.88
294.141	380.88
294.372	379.88
294.603	397.88
294.833	387.88
295.064	372.88
295.295	379.88
295.525	385.88
295.756	386.88
295.987	361.88
296.217	383.88
296.448	405.88
296.679	383.88
296.909	392.88
297.14	380.88
297.37	386.88
297.601	356.88
297.831	395.88
298.062	379.88
298.292	393.88
298.523	397.88
298.753	393.88
298.984	388.88
299.214	398.88
299.445	413.88
299.675	390.88
299.905	421.88
300.136	409.88
300.366	381.88
300.597	388.88
300.827	409.88
301.057	427.88
301.288	447.88
301.518	431.88
301.748	405.88
301.979	425.88
302.209	416.88
302.439	427.88
302.669	436.88
302.9	427.88
303.13	413.88
303.36	396.88
303.59	422.88
303.82	423.88
304.051	423.88
304.281	417.88
304.511	411.88
304.741	415.88
304.971	425.88
305.201	425.88
305.431	425.88
305.661	427.88
305.891	424.88
306.121	424.88
306.352	429.88
306.582	432.88
306.812	416.88
307.042	411.88
307.272	442.88
307.502	419.88
307.731	433.88
307.961	423.88
308.191	435.88
308.421	432.88
308.651	435.88
308.881	412.88
309.111	428.88
309.341	453.88
309.571	443.88
309.8	424.88
310.03	453.88
310.26	450.88
310.49	463.88
310.72	456.88
310.949	461.88
311.179	458.88
311.409	439.88
311.639	449.88
311.868	452.88
312.098	477.88
312.328	455.88
312.557	467.88
312.787	477.88
313.017	478.88
313.246	472.88
313.476	452.88
313.706	440.88
313.935	483.88
314.165	501.88
314.394	469.88
314.624	475.88
314.853	493.88
315.083	467.88
315.312	458.88
315.542	459.88
315.771	471.88
316.001	465.88
316.23	440.88
316.46	452.88
316.689	467.88
316.919	471.88
317.148	468.88
317.377	486.88
317.607	454.88
317.836	454.88
318.065	465.88
318.295	454.88
318.524	460.88
318.753	473.88
318.983	452.88
319.212	479.88
319.441	457.88
319.67	477.88
319.9	480.88
320.129	462.88
320.358	454.88
320.587	457.88
320.816	457.88
321.046	470.88
321.275	475.88
321.504	467.88
321.733	487.88
321.962	466.88
322.191	487.88
322.42	512.88
322.649	521.88
322.878	515.88
323.108	525.88
323.337	529.88
323.566	531.88
323.795	571.88
324.024	596.88
324.253	683.88
324.482	880.88
324.71	1252.88
324.939	1815.88
325.168	1557.88
325.397	893.88
325.626	640.88
325.855	605.88
326.084	553.88
326.313	565.88
326.542	567.88
326.77	599.88
326.999	647.88
327.228	851.88
327.457	1165.88
327.686	1415.88
327.914	969.88
328.143	692.88
328.372	669.88
328.6	615.88
328.829	600.88
329.058	607.88
329.287	625.88
329.515	598.88
329.744	575.88
329.972	596.88
330.201	595.88
330.43	600.88
330.658	632.88
330.887	667.88
331.115	649.88
331.344	587.88
331.572	553.88
331.801	601.88
332.03	546.88
332.258	622.88
332.486	571.88
332.715	579.88
332.943	599.88
333.172	619.88
333.4	635.88
333.629	633.88
333.857	667.88
334.085	649.88
334.314	663.88
334.542	696.88
334.771	700.88
334.999	651.88
335.227	615.88
335.455	627.88
335.684	593.88
335.912	609.88
336.14	578.88
336.369	589.88
336.597	598.88
336.825	584.88
337.053	589.88
337.281	565.88
337.51	583.88
337.738	565.88
337.966	559.88
338.194	569.88
338.422	538.88
338.65	578.88
338.878	545.88
339.106	559.88
339.334	540.88
339.562	540.88
339.79	549.88
340.018	546.88
340.246	544.88
340.474	539.88
340.702	537.88
340.93	544.88
341.158	532.88
341.386	540.88
341.614	551.88
341.842	519.88
342.07	538.88
342.298	529.88
342.526	547.88
342.754	535.88
342.981	543.88
343.209	531.88
343.437	553.88
343.665	579.88
343.893	599.88
344.12	621.88
344.348	579.88
344.576	580.88
344.804	579.88
345.031	573.88
345.259	563.88
345.487	524.88
345.714	532.88
345.942	529.88
346.17	538.88
346.397	521.88
346.625	519.88
346.853	507.88
347.08	504.88
347.308	528.88
347.535	528.88
347.763	529.88
347.99	513.88
348.218	513.88
348.445	523.88
348.673	527.88
348.9	516.88
349.128	505.88
349.355	520.88
349.583	498.88
349.81	502.88
350.037	514.88
350.265	510.88
350.492	491.88
350.72	508.88
350.947	515.88
351.174	546.88
351.402	540.88
351.629	521.88
351.856	506.88
352.083	534.88
352.311	530.88
352.538	516.88
352.765	524.88
352.992	521.88
353.22	500.88
353.447	516.88
353.674	530.88
353.901	506.88
354.128	498.88
354.355	486.88
354.583	483.88
354.81	483.88
355.037	491.88
355.264	503.88
355.491	510.88
355.718	507.88
355.945	487.88
356.172	480.88
356.399	494.88
356.626	491.88
356.853	501.88
357.08	499.88
357.307	500.88
357.534	485.88
357.761	491.88
357.988	486.88
358.215	499.88
358.441	497.88
358.668	480.88
358.895	496.88
359.122	506.88
359.349	499.88
359.576	516.88
359.802	528.88
360.029	544.88
360.256	539.88
360.483	555.88
360.709	526.88
360.936	526.88
361.163	512.88
361.39	522.88
361.616	518.88
361.843	531.88
362.07	522.88
362.296	508.88
362.523	499.88
362.749	521.88
362.976	525.88
363.203	511.88
363.429	484.88
363.656	518.88
363.882	493.88
364.109	483.88
364.335	493.88
364.562	505.88
364.788	483.88
365.015	511.88
365.241	515.88
365.468	499.88
365.694	545.88
365.92	535.88
366.147	511.88
366.373	499.88
366.599	511.88
366.826	529.88
367.052	496.88
367.278	489.88
367.505	518.88
367.731	512.88
367.957	504.88
368.184	501.88
368.41	530.88
368.636	517.88
368.862	537.88
369.089	534.88
369.315	513.88
369.541	530.88
369.767	543.88
369.993	518.88
370.219	501.88
370.445	525.88
370.672	533.88
370.898	507.88
371.124	523.88
371.35	527.88
371.576	519.88
371.802	542.88
372.028	521.88
372.254	521.88
372.48	531.88
372.706	549.88
372.932	557.88
373.158	538.88
373.384	552.88
373.61	518.88
373.835	517.88
374.061	511.88
374.287	529.88
374.513	533.88
374.739	555.88
374.965	552.88
375.191	559.88
375.416	575.88
375.642	543.88
375.868	543.88
376.094	539.88
376.319	532.88
376.545	515.88
376.771	545.88
376.997	526.88
377.222	532.88
377.448	525.88
377.674	549.88
377.899	533.88
378.125	518.88
378.35	499.88
378.576	522.88
378.802	522.88
379.027	540.88
379.253	515.88
379.478	512.88
379.704	510.88
379.929	493.88
380.155	519.88
380.38	541.88
380.606	521.88
380.831	523.88
381.057	533.88
381.282	539.88
381.507	511.88
381.733	532.88
381.958	531.88
382.184	544.88
382.409	540.88
382.634	558.88
382.86	517.88
383.085	568.88
383.31	559.88
383.535	567.88
383.761	555.88
383.986	585.88
384.211	576.88
384.436	595.88
384.662	596.88
384.887	599.88
385.112	589.88
385.337	605.88
385.562	603.88
385.787	595.88
386.013	599.88
386.238	613.88
386.463	620.88
386.688	611.88
386.913	618.88
387.138	605.88
387.363	596.88
387.588	597.88
387.813	593.88
388.038	600.88
388.263	610.88
388.488	578.88
388.713	603.88
388.938	613.88
389.163	597.88
389.387	591.88
389.612	583.88
389.837	611.88
390.062	600.88
390.287	605.88
390.512	579.88
390.736	605.88
390.961	608.88
391.186	611.88
391.411	631.88
391.636	642.88
391.86	655.88
392.085	645.88
392.31	644.88
392.534	604.88
392.759	621.88
392.984	637.88
393.208	632.88
393.433	631.88
393.658	652.88
393.882	621.88
394.107	621.88
394.331	599.88
394.556	628.88
394.78	647.88
395.005	614.88
395.229	603.88
395.454	652.88
395.678	667.88
395.903	662.88
396.127	658.88
396.352	682.88
396.576	643.88
396.801	627.88
397.025	635.88
397.249	665.88
397.474	667.88
397.698	637.88
397.922	686.88
398.147	669.88
398.371	685.88
398.595	677.88
398.82	708.88
399.044	725.88
399.268	786.88
399.492	888.88
399.717	976.88
399.941	997.88
400.165	933.88
400.389	906.88
400.613	811.88
400.837	789.88
401.062	764.88
401.286	724.88
401.51	729.88
401.734	732.88
401.958	729.88
402.182	739.88
402.406	751.88
402.63	751.88
402.854	775.88
403.078	773.88
403.302	759.88
403.526	779.88
403.75	786.88
403.974	791.88
404.198	780.88
404.422	799.88
404.645	785.88
404.869	790.88
405.093	831.88
405.317	840.88
405.541	896.88
405.765	827.88
405.988	785.88
406.212	800.88
406.436	809.88
406.66	847.88
406.883	797.88
407.107	863.88
407.331	884.88
407.555	975.88
407.778	992.88
408.002	896.88
408.226	855.88
408.449	843.88
408.673	844.88
408.896	845.88
409.12	856.88
409.344	848.88
409.567	758.88
409.791	791.88
410.014	768.88
410.238	765.88
410.461	778.88
410.685	781.88
410.908	784.88
411.132	795.88
411.355	814.88
411.578	799.88
411.802	761.88
412.025	754.88
412.249	751.88
412.472	778.88
412.695	803.88
412.919	798.88
413.142	757.88
413.365	744.88
413.589	728.88
413.812	711.88
414.035	709.88
414.258	701.88
414.482	708.88
414.705	731.88
414.928	715.88
415.151	718.88
415.374	688.88
415.597	717.88
415.821	716.88
416.044	700.88
416.267	705.88
416.49	702.88
416.713	714.88
416.936	726.88
417.159	696.88
417.382	717.88
417.605	703.88
417.828	729.88
418.051	745.88
418.274	734.88
418.497	717.88
418.72	736.88
418.943	713.88
419.166	777.88
419.389	791.88
419.611	779.88
419.834	780.88
420.057	767.88
420.28	749.88
420.503	743.88
420.726	695.88
420.948	755.88
421.171	775.88
421.394	808.88
421.617	748.88
421.839	717.88
422.062	735.88
422.285	731.88
422.507	813.88
422.73	839.88
422.953	829.88
423.175	759.88
423.398	751.88
423.621	774.88
423.843	801.88
424.066	773.88
424.288	787.88
424.511	809.88
424.733	837.88
424.956	889.88
425.178	855.88
425.401	871.88
425.623	887.88
425.846	785.88
426.068	738.88
426.291	740.88
426.513	730.88
426.735	736.88
426.958	772.88
427.18	799.88
427.402	943.88
427.625	1020.88
427.847	893.88
428.069	809.88
428.292	749.88
428.514	711.88
428.736	697.88
428.958	694.88
429.181	659.88
429.403	688.88
429.625	703.88
429.847	707.88
430.069	774.88
430.292	748.88
430.514	671.88
430.736	672.88
430.958	675.88
431.18	665.88
431.402	658.88
431.624	671.88
431.846	653.88
432.068	673.88
432.29	691.88
432.512	667.88
432.734	697.88
432.956	678.88
433.178	679.88
433.4	679.88
433.622	677.88
433.844	672.88
434.066	655.88
434.287	656.88
434.509	683.88
434.731	708.88
434.953	704.88
435.175	708.88
435.397	753.88
435.618	749.88
435.84	781.88
436.062	829.88
436.284	856.88
436.505	751.88
436.727	735.88
436.949	692.88
437.17	670.88
437.392	683.88
437.614	700.88
437.835	715.88
438.057	807.88
438.278	861.88
438.5	860.88
438.721	947.88
438.943	900.88
439.165	760.88
439.386	719.88
439.608	734.88
439.829	719.88
440.05	733.88
440.272	747.88
440.493	748.88
440.715	701.88
440.936	724.88
441.158	691.88
441.379	715.88
441.6	735.88
441.822	742.88
442.043	793.88
442.264	843.88
442.486	887.88
442.707	811.88
442.928	760.88
443.149	767.88
443.371	790.88
443.592	846.88
443.813	900.88
444.034	953.88
444.255	831.88
444.476	832.88
444.698	820.88
444.919	828.88
445.14	880.88
445.361	859.88
445.582	819.88
445.803	836.88
446.024	893.88
446.245	903.88
446.466	843.88
446.687	738.88
446.908	718.88
447.129	675.88
447.35	670.88
447.571	667.88
447.792	660.88
448.013	652.88
448.234	653.88
448.455	720.88
448.675	812.88
448.896	916.88
449.117	781.88
449.338	737.88
449.559	831.88
449.779	912.88
450	771.88
450.221	698.88
450.442	671.88
450.662	666.88
450.883	656.88
451.104	665.88
451.324	656.88
451.545	629.88
451.766	611.88
451.986	621.88
452.207	591.88
452.428	607.88
452.648	609.88
452.869	645.88
453.089	619.88
453.31	623.88
453.53	618.88
453.751	583.88
453.971	604.88
454.192	606.88
454.412	591.88
454.633	596.88
454.853	583.88
455.073	593.88
455.294	614.88
455.514	668.88
455.734	643.88
455.955	593.88
456.175	572.88
456.395	583.88
456.616	549.88
456.836	572.88
457.056	589.88
457.276	559.88
457.497	571.88
457.717	548.88
457.937	572.88
458.157	578.88
458.377	591.88
458.598	612.88
458.818	651.88
459.038	732.88
459.258	761.88
459.478	698.88
459.698	673.88
459.918	678.88
460.138	709.88
460.358	712.88
460.578	738.88
460.798	709.88
461.018	735.88
461.238	719.88
461.458	718.88
461.678	714.88
461.898	726.88
462.118	748.88
462.338	752.88
462.558	766.88
462.777	763.88
462.997	847.88
463.217	889.88
463.437	867.88
463.657	855.88
463.876	791.88
464.096	800.88
464.316	827.88
464.536	809.88
464.755	786.88
464.975	773.88
465.195	797.88
465.414	808.88
465.634	724.88
465.854	717.88
466.073	663.88
466.293	665.88
466.512	637.88
466.732	647.88
466.951	641.88
467.171	643.88
467.391	649.88
467.61	640.88
467.829	657.88
468.049	675.88
468.268	633.88
468.488	624.88
468.707	593.88
468.927	621.88
469.146	599.88
469.365	608.88
469.585	616.88
469.804	628.88
470.023	673.88
470.243	682.88
470.462	675.88
470.681	668.88
470.901	685.88
471.12	663.88
471.339	666.88
471.558	648.88
471.777	623.88
471.997	604.88
472.216	653.88
472.435	657.88
472.654	648.88
472.873	621.88
473.092	614.88
473.311	633.88
473.53	630.88
473.749	611.88
473.968	659.88
474.187	734.88
474.406	729.88
474.625	675.88
474.844	639.88
475.063	633.88
475.282	617.88
475.501	608.88
475.72	622.88
475.939	652.88
476.158	643.88
476.377	639.88
476.596	641.88
476.814	660.88
477.033	664.88
477.252	668.88
477.471	695.88
477.69	692.88
477.908	687.88
478.127	733.88
478.346	733.88
478.564	712.88
478.783	738.88
479.002	756.88
479.22	756.88
479.439	767.88
479.658	784.88
479.876	772.88
480.095	775.88
480.313	835.88
480.532	848.88
480.751	831.88
480.969	844.88
481.188	840.88
481.406	875.88
481.624	802.88
481.843	741.88
482.061	745.88
482.28	758.88
482.498	725.88
482.717	722.88
482.935	753.88
483.153	706.88
483.372	725.88
483.59	744.88
483.808	728.88
484.027	699.88
484.245	751.88
484.463	747.88
484.681	771.88
484.9	755.88
485.118	744.88
485.336	783.88
485.554	776.88
485.772	797.88
485.99	756.88
486.209	760.88
486.427	780.88
486.645	779.88
486.863	789.88
487.081	810.88
487.299	780.88
487.517	773.88
487.735	792.88
487.953	799.88
488.171	768.88
488.389	769.88
488.607	764.88
488.825	767.88
489.043	773.88
489.261	789.88
489.479	779.88
489.696	777.88
489.914	785.88
490.132	793.88
490.35	816.88
490.568	821.88
490.786	801.88
491.003	843.88
491.221	846.88
491.439	830.88
491.657	865.88
491.874	871.88
492.092	886.88
492.31	875.88
492.527	878.88
492.745	903.88
492.963	867.88
493.18	895.88
493.398	913.88
493.615	900.88
493.833	912.88
494.05	920.88
494.268	929.88
494.485	904.88
494.703	904.88
494.92	908.88
495.138	900.88
495.355	912.88
495.573	923.88
495.79	931.88
496.008	927.88
496.225	900.88
496.442	935.88
496.66	926.88
496.877	938.88
497.094	932.88
497.312	929.88
497.529	988.88
497.746	1001.88
497.963	990.88
498.181	1041.88
498.398	1091.88
498.615	1104.88
498.832	1147.88
499.049	1163.88
499.267	1263.88
499.484	1355.88
499.701	1413.88
499.918	1511.88
500.135	1657.88
500.352	1796.88
500.569	1857.88
500.786	1828.88
501.003	1741.88
501.22	1651.88
501.437	1527.88
501.654	1443.88
501.871	1380.88
502.088	1295.88
502.305	1197.88
502.522	1168.88
502.739	1130.88
502.956	1043.88
503.172	1058.88
503.389	1037.88
503.606	996.88
503.823	983.88
504.04	959.88
504.256	974.88
504.473	992.88
504.69	995.88
504.907	985.88
505.123	949.88
505.34	904.88
505.557	862.88
505.773	891.88
505.99	861.88
506.207	881.88
506.423	878.88
506.64	851.88
506.856	835.88
507.073	818.88
507.289	820.88
507.506	840.88
507.722	829.88
507.939	829.88
508.155	829.88
508.372	788.88
508.588	795.88
508.805	796.88
509.021	814.88
509.238	807.88
509.454	812.88
509.67	832.88
509.887	776.88
510.103	779.88
510.319	797.88
510.536	868.88
510.752	1251.88
510.968	1088.88
511.184	789.88
511.401	759.88
511.617	776.88
511.833	761.88
512.049	749.88
512.265	757.88
512.481	740.88
512.698	768.88
512.914	762.88
513.13	762.88
513.346	752.88
513.562	748.88
513.778	744.88
513.994	761.88
514.21	763.88
514.426	786.88
514.642	797.88
514.858	806.88
515.074	832.88
515.29	925.88
515.506	1269.88
515.721	1069.88
515.937	884.88
516.153	844.88
516.369	823.88
516.585	821.88
516.801	869.88
517.016	849.88
517.232	874.88
517.448	897.88
517.664	921.88
517.879	909.88
518.095	937.88
518.311	913.88
518.527	874.88
518.742	861.88
518.958	838.88
519.173	819.88
519.389	811.88
519.605	795.88
519.82	805.88
520.036	792.88
520.251	791.88
520.467	808.88
520.682	806.88
520.898	787.88
521.113	793.88
521.329	844.88
521.544	858.88
521.76	987.88
521.975	1512.88
522.19	1568.88
522.406	949.88
522.621	791.88
522.836	732.88
523.052	729.88
523.267	700.88
523.482	679.88
523.698	693.88
523.913	705.88
524.128	695.88
524.343	685.88
524.559	671.88
524.774	651.88
524.989	699.88
525.204	679.88
525.419	669.88
525.634	644.88
525.849	675.88
526.064	641.88
526.28	638.88
526.495	659.88
526.71	610.88
526.925	637.88
527.14	621.88
527.355	630.88
527.57	622.88
527.785	619.88
527.999	619.88
528.214	638.88
528.429	651.88
528.644	636.88
528.859	631.88
529.074	654.88
529.289	672.88
529.503	715.88
529.718	669.88
529.933	664.88
530.148	639.88
530.363	643.88
530.577	651.88
530.792	636.88
531.007	639.88
531.221	633.88
531.436	631.88
531.651	627.88
531.865	632.88
532.08	630.88
532.295	615.88
532.509	629.88
532.724	632.88
532.938	602.88
533.153	644.88
533.367	623.88
533.582	616.88
533.796	631.88
534.011	643.88
534.225	620.88
534.44	612.88
534.654	646.88
534.868	641.88
535.083	607.88
535.297	625.88
535.511	590.88
535.726	615.88
535.94	619.88
536.154	615.88
536.369	592.88
536.583	607.88
536.797	592.88
537.011	611.88
537.225	592.88
537.44	599.88
537.654	582.88
537.868	592.88
538.082	599.88
538.296	575.88
538.51	589.88
538.724	602.88
538.938	592.88
539.153	579.88
539.367	589.88
539.581	609.88
539.795	593.88
540.009	567.88
540.222	573.88
540.436	590.88
540.65	595.88
540.864	581.88
541.078	590.88
541.292	587.88
541.506	579.88
541.72	579.88
541.934	575.88
542.147	563.88
542.361	564.88
542.575	591.88
542.789	570.88
543.002	590.88
543.216	604.88
543.43	599.88
543.644	568.88
543.857	594.88
544.071	588.88
544.285	597.88
544.498	588.88
544.712	585.88
544.925	597.88
545.139	604.88
545.352	581.88
545.566	576.88
545.779	580.88
545.993	611.88
546.206	589.88
546.42	572.88
546.633	578.88
546.847	577.88
547.06	583.88
547.274	599.88
547.487	587.88
547.7	593.88
547.914	575.88
548.127	588.88
548.34	585.88
548.554	565.88
548.767	583.88
548.98	589.88
549.193	590.88
549.407	566.88
549.62	614.88
549.833	608.88
550.046	590.88
550.259	582.88
550.473	575.88
550.686	576.88
550.899	589.88
551.112	579.88
551.325	558.88
551.538	590.88
551.751	567.88
551.964	568.88
552.177	560.88
552.39	587.88
552.603	584.88
552.816	612.88
553.029	589.88
553.242	627.88
553.455	643.88
553.667	661.88
553.88	617.88
554.093	619.88
554.306	619.88
554.519	589.88
554.732	580.88
554.944	580.88
555.157	592.88
555.37	565.88
555.583	563.88
555.795	553.88
556.008	526.88
556.221	515.88
556.433	510.88
556.646	517.88
556.859	501.88
557.071	492.88
557.284	493.88
557.496	518.88
557.709	500.88
557.921	489.88
558.134	520.88
558.346	513.88
558.559	488.88
558.771	492.88
558.984	497.88
559.196	504.88
559.409	502.88
559.621	511.88
559.833	505.88
560.046	501.88
560.258	487.88
560.47	505.88
560.683	524.88
560.895	490.88
561.107	519.88
561.32	502.88
561.532	503.88
561.744	508.88
561.956	503.88
562.168	519.88
562.381	532.88
562.593	494.88
562.805	501.88
563.017	496.88
563.229	508.88
563.441	514.88
563.653	533.88
563.865	501.88
564.077	525.88
564.289	561.88
564.501	528.88
564.713	537.88
564.925	545.88
565.137	574.88
565.349	568.88
565.561	571.88
565.773	609.88
565.985	607.88
566.197	643.88
566.408	668.88
566.62	713.88
566.832	755.88
567.044	748.88
567.255	743.88
567.467	784.88
567.679	786.88
567.891	852.88
568.102	847.88
568.314	803.88
568.526	746.88
568.737	701.88
568.949	692.88
569.161	639.88
569.372	575.88
569.584	556.88
569.795	571.88
570.007	527.88
570.218	577.88
570.43	592.88
570.641	554.88
570.853	528.88
571.064	544.88
571.276	532.88
571.487	535.88
571.698	533.88
571.91	466.88
572.121	483.88
572.333	463.88
572.544	465.88
572.755	455.88
572.966	460.88
573.178	452.88
573.389	445.88
573.6	446.88
573.811	472.88
574.023	453.88
574.234	459.88
574.445	456.88
574.656	463.88
574.867	453.88
575.078	449.88
575.289	443.88
575.501	442.88
575.712	455.88
575.923	407.88
576.134	425.88
576.345	454.88
576.556	414.88
576.767	422.88
576.978	426.88
577.188	400.88
577.399	412.88
577.61	403.88
577.821	407.88
578.032	401.88
578.243	433.88
578.454	604.88
578.665	489.88
578.875	403.88
579.086	412.88
579.297	400.88
579.508	387.88
579.718	383.88
579.929	390.88
580.14	388.88
580.35	387.88
580.561	414.88
580.772	383.88
580.982	405.88
581.193	368.88
581.403	408.88
581.614	397.88
581.825	397.88
582.035	378.88
582.246	375.88
582.456	367.88
582.667	393.88
582.877	380.88
583.087	401.88
583.298	374.88
583.508	380.88
583.719	393.88
583.929	380.88
584.139	373.88
584.35	405.88
584.56	388.88
584.77	379.88
584.981	373.88
585.191	385.88
585.401	391.88
585.611	388.88
585.821	362.88
586.032	365.88
586.242	376.88
586.452	371.88
586.662	394.88
586.872	369.88
587.082	380.88
587.292	375.88
587.502	375.88
587.713	375.88
587.923	382.88
588.133	377.88
588.343	371.88
588.553	374.88
588.762	399.88
588.972	387.88
589.182	393.88
589.392	384.88
589.602	389.88
589.812	364.88
590.022	380.88
590.232	409.88
590.441	379.88
590.651	362.88
590.861	384.88
591.071	391.88
591.281	380.88
591.49	391.88
591.7	389.88
591.91	396.88
592.119	400.88
592.329	414.88
592.539	424.88
592.748	450.88
592.958	415.88
593.167	415.88
593.377	448.88
593.587	459.88
593.796	457.88
594.006	472.88
594.215	453.88
594.424	464.88
594.634	452.88
594.843	404.88
595.053	425.88
595.262	405.88
595.472	408.88
595.681	383.88
595.89	395.88
596.1	377.88
596.309	379.88
596.518	371.88
596.727	376.88
596.937	360.88
597.146	351.88
597.355	335.88
597.564	347.88
597.774	346.88
597.983	337.88
598.192	331.88
598.401	356.88
598.61	348.88
598.819	333.88
599.028	337.88
599.237	312.88
599.446	337.88
599.655	344.88
599.864	346.88
600.073	334.88
600.282	330.88
600.491	325.88
600.7	332.88
600.909	323.88
601.118	313.88
601.327	323.88
601.536	324.88
601.745	311.88
601.953	323.88
602.162	328.88
602.371	320.88
602.58	329.88
602.789	317.88
602.997	325.88
603.206	328.88
603.415	317.88
603.623	315.88
603.832	308.88
604.041	300.88
604.249	309.88
604.458	311.88
604.666	323.88
604.875	320.88
605.084	304.88
605.292	316.88
605.501	302.88
605.709	308.88
605.918	293.88
606.126	331.88
606.334	316.88
606.543	308.88
606.751	308.88
606.96	282.88
607.168	307.88
607.376	295.88
607.585	296.88
607.793	307.88
608.001	298.88
608.21	289.88
608.418	302.88
608.626	302.88
608.834	297.88
609.043	302.88
609.251	301.88
609.459	291.88
609.667	307.88
609.875	307.88
610.083	291.88
610.291	298.88
610.499	308.88
610.707	295.88
610.916	312.88
611.124	305.88
611.332	299.88
611.54	300.88
611.748	305.88
611.955	292.88
612.163	297.88
612.371	293.88
612.579	304.88
612.787	288.88
612.995	304.88
613.203	307.88
613.411	308.88
613.618	286.88
613.826	290.88
614.034	298.88
614.242	292.88
614.449	289.88
614.657	288.88
614.865	280.88
615.072	295.88
615.28	278.88
615.488	297.88
615.695	301.88
615.903	269.88
616.111	303.88
616.318	303.88
616.526	279.88
616.733	311.88
616.941	292.88
617.148	299.88
617.356	303.88
617.563	288.88
617.771	310.88
617.978	289.88
618.185	285.88
618.393	302.88
618.6	299.88
618.807	280.88
619.015	304.88
619.222	291.88
619.429	292.88
619.637	300.88
619.844	284.88
620.051	281.88
620.258	285.88
620.466	273.88
620.673	275.88
620.88	293.88
621.087	264.88
621.294	267.88
621.501	273.88
621.708	271.88
621.915	278.88
622.122	291.88
622.329	263.88
622.536	288.88
622.743	272.88
622.95	270.88
623.157	259.88
623.364	273.88
623.571	258.88
623.778	284.88
623.985	267.88
624.192	252.88
624.399	267.88
624.606	265.88
624.812	262.88
625.019	247.88
625.226	267.88
625.433	275.88
625.639	268.88
625.846	263.88
626.053	265.88
626.259	262.88
626.466	234.88
626.673	257.88
626.879	257.88
627.086	254.88
627.293	253.88
627.499	269.88
627.706	251.88
627.912	267.88
628.119	247.88
628.325	279.88
628.532	250.88
628.738	246.88
628.945	238.88
629.151	232.88
629.357	253.88
629.564	243.88
629.77	240.88
629.976	237.88
630.183	238.88
630.389	257.88
630.595	240.88
630.802	242.88
631.008	221.88
631.214	228.88
631.42	235.88
631.627	223.88
631.833	231.88
632.039	217.88
632.245	226.88
632.451	241.88
632.657	236.88
632.863	229.88
633.069	230.88
633.275	210.88
633.481	208.88
633.688	218.88
633.893	221.88
634.099	217.88
634.305	219.88
634.511	216.88
634.717	227.88
634.923	234.88
635.129	219.88
635.335	224.88
635.541	233.88
635.747	232.88
635.952	209.88
636.158	215.88
636.364	230.88
636.57	222.88
636.775	205.88
636.981	216.88
637.187	204.88
637.392	225.88
637.598	219.88
637.804	206.88
638.009	208.88
638.215	219.88
638.421	229.88
638.626	204.88
638.832	234.88
639.037	211.88
639.243	231.88
639.448	215.88
639.654	213.88
639.859	209.88
640.065	199.88
640.27	208.88
640.475	196.88
640.681	210.88
640.886	219.88
641.091	214.88
641.297	213.88
641.502	198.88
641.707	198.88
641.913	207.88
642.118	215.88
642.323	208.88
642.528	209.88
642.733	200.88
642.939	202.88
643.144	192.88
643.349	185.88
643.554	197.88
643.759	202.88
643.964	209.88
644.169	185.88
644.374	203.88
644.579	201.88
644.784	180.88
644.989	199.88
645.194	205.88
645.399	188.88
645.604	176.88
645.809	184.88
646.014	202.88
646.219	193.88
646.423	211.88
646.628	199.88
646.833	197.88
647.038	203.88
647.243	206.88
647.447	203.88
647.652	213.88
647.857	197.88
648.062	199.88
648.266	218.88
648.471	213.88
648.676	204.88
648.88	220.88
649.085	209.88
649.289	197.88
649.494	183.88
649.698	216.88
649.903	206.88
650.107	198.88
650.312	198.88
650.516	201.88
650.721	195.88
650.925	195.88
651.13	188.88
651.334	188.88
651.539	171.88
651.743	174.88
651.947	179.88
652.152	190.88
652.356	170.88
652.56	165.88
652.764	174.88
652.969	152.88
653.173	160.88
653.377	168.88
653.581	163.88
653.785	155.88
653.99	166.88
654.194	165.88
654.398	151.88
654.602	148.88
654.806	146.88
655.01	159.88
655.214	155.88
655.418	158.88
655.622	150.88
655.826	159.88
656.03	157.88
656.234	168.88
656.438	160.88
656.642	158.88
656.846	165.88
657.049	151.88
657.253	157.88
657.457	132.88
657.661	133.88
657.865	135.88
658.068	147.88
658.272	126.88
658.476	134.88
658.68	114.88
658.883	111.88
659.087	99.88
659.291	117.88
659.494	109.88
659.698	105.88
659.901	108.88
660.105	108.88
660.309	117.88
660.512	106.88
660.716	90.88
660.919	107.88
661.123	91.88
661.326	95.88
661.53	96.88
661.733	95.88
661.936	109.88
662.14	85.88
662.343	92.88
662.546	87.88
662.75	99.88
662.953	92.88
663.156	91.88
663.36	93.88
663.563	83.88
663.766	96.88
663.969	107.88
664.173	95.88
664.376	88.88
664.579	87.88
664.782	92.88
664.985	87.88
665.188	80.88
665.391	80.88
665.594	93.88
665.797	86.88
666	79.88
666.203	92.88
666.406	89.88
666.609	74.88
666.812	88.88
667.015	83.88
667.218	77.88
667.421	92.88
667.624	92.88
667.827	91.88
668.03	96.88
668.232	91.88
668.435	81.88
668.638	91.88
668.841	96.88
669.043	84.88
669.246	87.88
669.449	88.88
669.651	83.88
669.854	94.88
670.057	71.88
670.259	95.88
670.462	88.88
670.665	84.88
670.867	88.88
671.07	89.88
671.272	84.88
671.475	97.88
671.677	78.88
671.88	96.88
672.082	77.88
672.284	85.88
672.487	81.88
672.689	75.88
672.892	80.88
