Data from 1963.PennyLincolnUp.Lamp.En5.5.200Scan.071719.P1._HRD10591_14-00-01-064.txt Node
Date: Thu Jul 18 14:00:01 EDT 2019
User: cochatt
Spectrometer: HR+D1059
Trigger mode: 1
Integration Time (sec): 1.000000E-1
Scans to average: 1
Electric dark correction enabled: true
Nonlinearity correction enabled: false
Boxcar width: 0
XAxis mode: Wavelengths
Number of Pixels in Spectrum: 2048
>>>>>Begin Spectral Data<<<<<
223.165	-22.44
223.4	-22.44
223.635	-22.44
223.869	-16.44
224.104	-20.44
224.338	4.56
224.573	-24.44
224.808	-6.44
225.042	-7.44
225.277	-6.44
225.511	5.56
225.746	-4.44
225.98	6.56
226.215	8.56
226.449	22.56
226.683	19.56
226.918	13.56
227.152	27.56
227.387	28.56
227.621	47.56
227.856	31.56
228.09	54.56
228.324	55.56
228.559	58.56
228.793	52.56
229.027	107.56
229.262	107.56
229.496	117.56
229.73	130.56
229.964	142.56
230.199	117.56
230.433	119.56
230.667	118.56
230.901	117.56
231.136	123.56
231.37	112.56
231.604	108.56
231.838	112.56
232.072	114.56
232.306	104.56
232.541	121.56
232.775	114.56
233.009	117.56
233.243	118.56
233.477	126.56
233.711	123.56
233.945	139.56
234.179	113.56
234.413	118.56
234.647	122.56
234.881	122.56
235.115	118.56
235.349	125.56
235.583	128.56
235.817	142.56
236.051	109.56
236.285	139.56
236.519	133.56
236.753	136.56
236.987	145.56
237.221	181.56
237.455	213.56
237.689	186.56
237.922	152.56
238.156	145.56
238.39	150.56
238.624	141.56
238.858	135.56
239.091	140.56
239.325	125.56
239.559	145.56
239.793	130.56
240.027	131.56
240.26	157.56
240.494	178.56
240.728	138.56
240.961	162.56
241.195	151.56
241.429	166.56
241.662	155.56
241.896	151.56
242.13	153.56
242.363	147.56
242.597	162.56
242.83	155.56
243.064	140.56
243.298	154.56
243.531	153.56
243.765	148.56
243.998	156.56
244.232	163.56
244.465	168.56
244.699	147.56
244.932	162.56
245.166	155.56
245.399	166.56
245.633	163.56
245.866	179.56
246.099	175.56
246.333	157.56
246.566	179.56
246.8	179.56
247.033	185.56
247.266	172.56
247.5	180.56
247.733	191.56
247.966	188.56
248.2	187.56
248.433	182.56
248.666	192.56
248.899	199.56
249.133	204.56
249.366	219.56
249.599	230.56
249.832	203.56
250.066	208.56
250.299	214.56
250.532	200.56
250.765	223.56
250.998	232.56
251.231	227.56
251.465	232.56
251.698	219.56
251.931	229.56
252.164	221.56
252.397	208.56
252.63	224.56
252.863	212.56
253.096	241.56
253.329	244.56
253.562	232.56
253.795	230.56
254.028	240.56
254.261	229.56
254.494	244.56
254.727	269.56
254.96	290.56
255.193	276.56
255.426	259.56
255.659	249.56
255.892	243.56
256.124	234.56
256.357	241.56
256.59	228.56
256.823	239.56
257.056	229.56
257.289	225.56
257.521	240.56
257.754	230.56
257.987	221.56
258.22	237.56
258.452	232.56
258.685	259.56
258.918	225.56
259.151	257.56
259.383	249.56
259.616	242.56
259.849	249.56
260.081	262.56
260.314	265.56
260.547	281.56
260.779	283.56
261.012	257.56
261.244	275.56
261.477	265.56
261.71	250.56
261.942	257.56
262.175	260.56
262.407	252.56
262.64	262.56
262.872	265.56
263.105	242.56
263.337	244.56
263.57	257.56
263.802	244.56
264.035	253.56
264.267	244.56
264.499	253.56
264.732	245.56
264.964	241.56
265.197	247.56
265.429	239.56
265.661	244.56
265.894	246.56
266.126	247.56
266.358	240.56
266.591	245.56
266.823	258.56
267.055	274.56
267.287	270.56
267.52	254.56
267.752	254.56
267.984	255.56
268.216	278.56
268.448	277.56
268.681	267.56
268.913	281.56
269.145	301.56
269.377	305.56
269.609	302.56
269.841	312.56
270.073	312.56
270.306	330.56
270.538	349.56
270.77	331.56
271.002	332.56
271.234	331.56
271.466	321.56
271.698	332.56
271.93	348.56
272.162	336.56
272.394	349.56
272.626	321.56
272.858	300.56
273.09	326.56
273.322	311.56
273.553	330.56
273.785	308.56
274.017	316.56
274.249	315.56
274.481	304.56
274.713	301.56
274.945	315.56
275.176	315.56
275.408	330.56
275.64	319.56
275.872	304.56
276.104	342.56
276.335	307.56
276.567	324.56
276.799	327.56
277.031	337.56
277.262	366.56
277.494	371.56
277.726	338.56
277.957	327.56
278.189	338.56
278.421	340.56
278.652	335.56
278.884	327.56
279.115	316.56
279.347	334.56
279.579	315.56
279.81	312.56
280.042	324.56
280.273	325.56
280.505	341.56
280.736	330.56
280.968	315.56
281.199	337.56
281.431	330.56
281.662	337.56
281.894	331.56
282.125	334.56
282.356	357.56
282.588	353.56
282.819	344.56
283.051	335.56
283.282	338.56
283.513	354.56
283.745	343.56
283.976	359.56
284.207	351.56
284.439	364.56
284.67	367.56
284.901	351.56
285.132	354.56
285.364	346.56
285.595	348.56
285.826	347.56
286.057	361.56
286.288	328.56
286.52	363.56
286.751	353.56
286.982	354.56
287.213	349.56
287.444	357.56
287.675	365.56
287.906	377.56
288.138	371.56
288.369	369.56
288.6	374.56
288.831	369.56
289.062	356.56
289.293	369.56
289.524	383.56
289.755	380.56
289.986	372.56
290.217	353.56
290.448	369.56
290.679	367.56
290.91	373.56
291.141	369.56
291.371	379.56
291.602	377.56
291.833	362.56
292.064	364.56
292.295	357.56
292.526	373.56
292.757	374.56
292.987	380.56
293.218	370.56
293.449	369.56
293.68	368.56
293.91	364.56
294.141	362.56
294.372	360.56
294.603	381.56
294.833	387.56
295.064	375.56
295.295	367.56
295.525	373.56
295.756	377.56
295.987	393.56
296.217	401.56
296.448	420.56
296.679	393.56
296.909	368.56
297.14	401.56
297.37	385.56
297.601	397.56
297.831	382.56
298.062	419.56
298.292	389.56
298.523	397.56
298.753	397.56
298.984	405.56
299.214	424.56
299.445	394.56
299.675	403.56
299.905	406.56
300.136	404.56
300.366	411.56
300.597	394.56
300.827	405.56
301.057	417.56
301.288	412.56
301.518	414.56
301.748	419.56
301.979	423.56
302.209	426.56
302.439	411.56
302.669	443.56
302.9	420.56
303.13	439.56
303.36	407.56
303.59	433.56
303.82	433.56
304.051	429.56
304.281	417.56
304.511	420.56
304.741	419.56
304.971	424.56
305.201	432.56
305.431	435.56
305.661	418.56
305.891	402.56
306.121	419.56
306.352	421.56
306.582	420.56
306.812	434.56
307.042	435.56
307.272	431.56
307.502	427.56
307.731	432.56
307.961	440.56
308.191	425.56
308.421	409.56
308.651	406.56
308.881	433.56
309.111	408.56
309.341	422.56
309.571	444.56
309.8	432.56
310.03	447.56
310.26	477.56
310.49	443.56
310.72	450.56
310.949	479.56
311.179	469.56
311.409	468.56
311.639	446.56
311.868	450.56
312.098	461.56
312.328	472.56
312.557	468.56
312.787	455.56
313.017	478.56
313.246	478.56
313.476	467.56
313.706	482.56
313.935	479.56
314.165	483.56
314.394	501.56
314.624	484.56
314.853	478.56
315.083	471.56
315.312	475.56
315.542	446.56
315.771	465.56
316.001	466.56
316.23	458.56
316.46	459.56
316.689	472.56
316.919	475.56
317.148	483.56
317.377	469.56
317.607	483.56
317.836	458.56
318.065	461.56
318.295	470.56
318.524	457.56
318.753	472.56
318.983	476.56
319.212	462.56
319.441	461.56
319.67	474.56
319.9	455.56
320.129	491.56
320.358	468.56
320.587	493.56
320.816	468.56
321.046	483.56
321.275	465.56
321.504	485.56
321.733	490.56
321.962	496.56
322.191	488.56
322.42	500.56
322.649	513.56
322.878	537.56
323.108	526.56
323.337	553.56
323.566	567.56
323.795	569.56
324.024	580.56
324.253	677.56
324.482	876.56
324.71	1243.56
324.939	1792.56
325.168	1573.56
325.397	892.56
325.626	674.56
325.855	596.56
326.084	561.56
326.313	554.56
326.542	547.56
326.77	612.56
326.999	666.56
327.228	837.56
327.457	1189.56
327.686	1424.56
327.914	1013.56
328.143	733.56
328.372	665.56
328.6	652.56
328.829	613.56
329.058	609.56
329.287	612.56
329.515	579.56
329.744	586.56
329.972	584.56
330.201	602.56
330.43	634.56
330.658	650.56
330.887	668.56
331.115	645.56
331.344	614.56
331.572	612.56
331.801	582.56
332.03	593.56
332.258	582.56
332.486	599.56
332.715	577.56
332.943	593.56
333.172	635.56
333.4	631.56
333.629	656.56
333.857	648.56
334.085	660.56
334.314	637.56
334.542	684.56
334.771	707.56
334.999	669.56
335.227	620.56
335.455	623.56
335.684	604.56
335.912	604.56
336.14	580.56
336.369	568.56
336.597	559.56
336.825	595.56
337.053	594.56
337.281	587.56
337.51	549.56
337.738	563.56
337.966	548.56
338.194	571.56
338.422	565.56
338.65	570.56
338.878	548.56
339.106	551.56
339.334	563.56
339.562	563.56
339.79	533.56
340.018	545.56
340.246	544.56
340.474	559.56
340.702	561.56
340.93	522.56
341.158	565.56
341.386	543.56
341.614	545.56
341.842	543.56
342.07	524.56
342.298	535.56
342.526	543.56
342.754	530.56
342.981	515.56
343.209	548.56
343.437	551.56
343.665	567.56
343.893	580.56
344.12	603.56
344.348	583.56
344.576	579.56
344.804	576.56
345.031	558.56
345.259	582.56
345.487	544.56
345.714	541.56
345.942	535.56
346.17	533.56
346.397	513.56
346.625	533.56
346.853	533.56
347.08	530.56
347.308	510.56
347.535	523.56
347.763	517.56
347.99	529.56
348.218	539.56
348.445	542.56
348.673	533.56
348.9	530.56
349.128	505.56
349.355	515.56
349.583	485.56
349.81	516.56
350.037	487.56
350.265	491.56
350.492	517.56
350.72	499.56
350.947	519.56
351.174	535.56
351.402	553.56
351.629	505.56
351.856	519.56
352.083	508.56
352.311	533.56
352.538	540.56
352.765	524.56
352.992	505.56
353.22	501.56
353.447	520.56
353.674	515.56
353.901	516.56
354.128	495.56
354.355	511.56
354.583	516.56
354.81	523.56
355.037	519.56
355.264	498.56
355.491	481.56
355.718	486.56
355.945	501.56
356.172	487.56
356.399	513.56
356.626	516.56
356.853	519.56
357.08	515.56
357.307	485.56
357.534	509.56
357.761	490.56
357.988	499.56
358.215	490.56
358.441	511.56
358.668	490.56
358.895	507.56
359.122	491.56
359.349	510.56
359.576	521.56
359.802	544.56
360.029	549.56
360.256	575.56
360.483	551.56
360.709	533.56
360.936	534.56
361.163	521.56
361.39	512.56
361.616	538.56
361.843	511.56
362.07	526.56
362.296	527.56
362.523	508.56
362.749	517.56
362.976	513.56
363.203	500.56
363.429	520.56
363.656	505.56
363.882	486.56
364.109	493.56
364.335	505.56
364.562	514.56
364.788	500.56
365.015	514.56
365.241	497.56
365.468	503.56
365.694	507.56
365.92	506.56
366.147	518.56
366.373	513.56
366.599	525.56
366.826	484.56
367.052	493.56
367.278	515.56
367.505	506.56
367.731	508.56
367.957	504.56
368.184	509.56
368.41	502.56
368.636	515.56
368.862	527.56
369.089	537.56
369.315	532.56
369.541	531.56
369.767	519.56
369.993	500.56
370.219	522.56
370.445	528.56
370.672	505.56
370.898	541.56
371.124	511.56
371.35	520.56
371.576	519.56
371.802	540.56
372.028	529.56
372.254	544.56
372.48	530.56
372.706	545.56
372.932	530.56
373.158	544.56
373.384	540.56
373.61	533.56
373.835	540.56
374.061	534.56
374.287	549.56
374.513	527.56
374.739	536.56
374.965	566.56
375.191	566.56
375.416	574.56
375.642	562.56
375.868	571.56
376.094	553.56
376.319	518.56
376.545	532.56
376.771	515.56
376.997	541.56
377.222	529.56
377.448	542.56
377.674	529.56
377.899	530.56
378.125	505.56
378.35	535.56
378.576	515.56
378.802	499.56
379.027	526.56
379.253	517.56
379.478	501.56
379.704	522.56
379.929	540.56
380.155	531.56
380.38	509.56
380.606	529.56
380.831	521.56
381.057	524.56
381.282	509.56
381.507	537.56
381.733	530.56
381.958	543.56
382.184	539.56
382.409	564.56
382.634	549.56
382.86	545.56
383.085	545.56
383.31	553.56
383.535	557.56
383.761	547.56
383.986	560.56
384.211	588.56
384.436	580.56
384.662	595.56
384.887	611.56
385.112	588.56
385.337	609.56
385.562	630.56
385.787	615.56
386.013	620.56
386.238	629.56
386.463	618.56
386.688	604.56
386.913	615.56
387.138	593.56
387.363	613.56
387.588	610.56
387.813	622.56
388.038	589.56
388.263	633.56
388.488	589.56
388.713	614.56
388.938	611.56
389.163	601.56
389.387	613.56
389.612	592.56
389.837	586.56
390.062	590.56
390.287	582.56
390.512	586.56
390.736	602.56
390.961	612.56
391.186	601.56
391.411	636.56
391.636	658.56
391.86	649.56
392.085	637.56
392.31	649.56
392.534	654.56
392.759	625.56
392.984	633.56
393.208	615.56
393.433	652.56
393.658	647.56
393.882	608.56
394.107	630.56
394.331	655.56
394.556	625.56
394.78	631.56
395.005	635.56
395.229	631.56
395.454	670.56
395.678	669.56
395.903	679.56
396.127	679.56
396.352	659.56
396.576	649.56
396.801	635.56
397.025	659.56
397.249	645.56
397.474	671.56
397.698	664.56
397.922	669.56
398.147	700.56
398.371	706.56
398.595	705.56
398.82	721.56
399.044	738.56
399.268	810.56
399.492	907.56
399.717	993.56
399.941	986.56
400.165	945.56
400.389	919.56
400.613	838.56
400.837	809.56
401.062	760.56
401.286	731.56
401.51	725.56
401.734	722.56
401.958	725.56
402.182	769.56
402.406	784.56
402.63	744.56
402.854	766.56
403.078	792.56
403.302	797.56
403.526	801.56
403.75	787.56
403.974	804.56
404.198	803.56
404.422	823.56
404.645	818.56
404.869	813.56
405.093	842.56
405.317	846.56
405.541	892.56
405.765	826.56
405.988	780.56
406.212	792.56
406.436	836.56
406.66	835.56
406.883	833.56
407.107	872.56
407.331	923.56
407.555	965.56
407.778	971.56
408.002	903.56
408.226	886.56
408.449	853.56
408.673	864.56
408.896	840.56
409.12	902.56
409.344	843.56
409.567	815.56
409.791	816.56
410.014	772.56
410.238	772.56
410.461	782.56
410.685	777.56
410.908	760.56
411.132	809.56
411.355	817.56
411.578	782.56
411.802	749.56
412.025	763.56
412.249	753.56
412.472	793.56
412.695	843.56
412.919	811.56
413.142	768.56
413.365	768.56
413.589	720.56
413.812	747.56
414.035	726.56
414.258	755.56
414.482	716.56
414.705	748.56
414.928	728.56
415.151	738.56
415.374	727.56
415.597	702.56
415.821	715.56
416.044	716.56
416.267	722.56
416.49	716.56
416.713	718.56
416.936	717.56
417.159	693.56
417.382	706.56
417.605	715.56
417.828	744.56
418.051	746.56
418.274	749.56
418.497	716.56
418.72	730.56
418.943	716.56
419.166	770.56
419.389	792.56
419.611	812.56
419.834	752.56
420.057	780.56
420.28	753.56
420.503	732.56
420.726	720.56
420.948	748.56
421.171	778.56
421.394	823.56
421.617	758.56
421.839	719.56
422.062	746.56
422.285	751.56
422.507	803.56
422.73	849.56
422.953	847.56
423.175	787.56
423.398	785.56
423.621	797.56
423.843	777.56
424.066	798.56
424.288	807.56
424.511	804.56
424.733	863.56
424.956	883.56
425.178	845.56
425.401	867.56
425.623	858.56
425.846	796.56
426.068	725.56
426.291	735.56
426.513	724.56
426.735	746.56
426.958	785.56
427.18	844.56
427.402	940.56
427.625	1025.56
427.847	922.56
428.069	828.56
428.292	781.56
428.514	720.56
428.736	711.56
428.958	695.56
429.181	679.56
429.403	687.56
429.625	678.56
429.847	742.56
430.069	761.56
430.292	775.56
430.514	700.56
430.736	675.56
430.958	671.56
431.18	662.56
431.402	664.56
431.624	646.56
431.846	668.56
432.068	652.56
432.29	699.56
432.512	673.56
432.734	680.56
432.956	694.56
433.178	683.56
433.4	678.56
433.622	669.56
433.844	668.56
434.066	684.56
434.287	671.56
434.509	683.56
434.731	715.56
434.953	751.56
435.175	743.56
435.397	746.56
435.618	754.56
435.84	748.56
436.062	829.56
436.284	918.56
436.505	766.56
436.727	730.56
436.949	701.56
437.17	688.56
437.392	689.56
437.614	690.56
437.835	704.56
438.057	796.56
438.278	863.56
438.5	844.56
438.721	936.56
438.943	895.56
439.165	773.56
439.386	714.56
439.608	707.56
439.829	705.56
440.05	751.56
440.272	767.56
440.493	728.56
440.715	727.56
440.936	707.56
441.158	711.56
441.379	716.56
441.6	743.56
441.822	782.56
442.043	785.56
442.264	869.56
442.486	880.56
442.707	801.56
442.928	764.56
443.149	789.56
443.371	776.56
443.592	811.56
443.813	900.56
444.034	959.56
444.255	836.56
444.476	816.56
444.698	796.56
444.919	832.56
445.14	890.56
445.361	843.56
445.582	813.56
445.803	831.56
446.024	895.56
446.245	881.56
446.466	837.56
446.687	758.56
446.908	711.56
447.129	693.56
447.35	681.56
447.571	671.56
447.792	654.56
448.013	685.56
448.234	668.56
448.455	709.56
448.675	801.56
448.896	910.56
449.117	796.56
449.338	759.56
449.559	832.56
449.779	932.56
450	799.56
450.221	723.56
450.442	679.56
450.662	649.56
450.883	649.56
451.104	672.56
451.324	642.56
451.545	633.56
451.766	639.56
451.986	615.56
452.207	619.56
452.428	600.56
452.648	606.56
452.869	599.56
453.089	592.56
453.31	614.56
453.53	608.56
453.751	618.56
453.971	601.56
454.192	623.56
454.412	618.56
454.633	595.56
454.853	610.56
455.073	573.56
455.294	612.56
455.514	667.56
455.734	650.56
455.955	623.56
456.175	577.56
456.395	591.56
456.616	571.56
456.836	582.56
457.056	587.56
457.276	562.56
457.497	572.56
457.717	572.56
457.937	589.56
458.157	568.56
458.377	603.56
458.598	623.56
458.818	671.56
459.038	736.56
459.258	745.56
459.478	707.56
459.698	693.56
459.918	712.56
460.138	738.56
460.358	750.56
460.578	736.56
460.798	733.56
461.018	754.56
461.238	722.56
461.458	728.56
461.678	732.56
461.898	767.56
462.118	753.56
462.338	788.56
462.558	784.56
462.777	815.56
462.997	829.56
463.217	877.56
463.437	919.56
463.657	827.56
463.876	840.56
464.096	829.56
464.316	816.56
464.536	844.56
464.755	823.56
464.975	792.56
465.195	809.56
465.414	819.56
465.634	752.56
465.854	716.56
466.073	697.56
466.293	662.56
466.512	649.56
466.732	652.56
466.951	648.56
467.171	634.56
467.391	636.56
467.61	655.56
467.829	661.56
468.049	641.56
468.268	643.56
468.488	604.56
468.707	612.56
468.927	636.56
469.146	616.56
469.365	666.56
469.585	649.56
469.804	628.56
470.023	669.56
470.243	652.56
470.462	664.56
470.681	698.56
470.901	695.56
471.12	664.56
471.339	632.56
471.558	639.56
471.777	662.56
471.997	663.56
472.216	659.56
472.435	634.56
472.654	669.56
472.873	630.56
473.092	643.56
473.311	633.56
473.53	640.56
473.749	604.56
473.968	665.56
474.187	738.56
474.406	763.56
474.625	681.56
474.844	629.56
475.063	621.56
475.282	640.56
475.501	655.56
475.72	658.56
475.939	648.56
476.158	635.56
476.377	643.56
476.596	656.56
476.814	672.56
477.033	682.56
477.252	681.56
477.471	699.56
477.69	691.56
477.908	730.56
478.127	731.56
478.346	735.56
478.564	757.56
478.783	775.56
479.002	749.56
479.22	756.56
479.439	767.56
479.658	782.56
479.876	785.56
480.095	807.56
480.313	844.56
480.532	840.56
480.751	831.56
480.969	841.56
481.188	849.56
481.406	875.56
481.624	812.56
481.843	751.56
482.061	755.56
482.28	755.56
482.498	730.56
482.717	740.56
482.935	749.56
483.153	736.56
483.372	740.56
483.59	744.56
483.808	759.56
484.027	730.56
484.245	740.56
484.463	739.56
484.681	762.56
484.9	778.56
485.118	761.56
485.336	767.56
485.554	767.56
485.772	762.56
485.99	806.56
486.209	784.56
486.427	772.56
486.645	761.56
486.863	789.56
487.081	793.56
487.299	779.56
487.517	813.56
487.735	827.56
487.953	799.56
488.171	793.56
488.389	799.56
488.607	796.56
488.825	811.56
489.043	825.56
489.261	804.56
489.479	824.56
489.696	799.56
489.914	813.56
490.132	819.56
490.35	809.56
490.568	834.56
490.786	822.56
491.003	835.56
491.221	832.56
491.439	856.56
491.657	868.56
491.874	873.56
492.092	854.56
492.31	864.56
492.527	887.56
492.745	913.56
492.963	875.56
493.18	884.56
493.398	905.56
493.615	927.56
493.833	875.56
494.05	901.56
494.268	935.56
494.485	904.56
494.703	909.56
494.92	929.56
495.138	889.56
495.355	927.56
495.573	923.56
495.79	924.56
496.008	929.56
496.225	938.56
496.442	933.56
496.66	931.56
496.877	955.56
497.094	942.56
497.312	977.56
497.529	1003.56
497.746	981.56
497.963	1037.56
498.181	1081.56
498.398	1107.56
498.615	1122.56
498.832	1160.56
499.049	1201.56
499.267	1271.56
499.484	1368.56
499.701	1421.56
499.918	1573.56
500.135	1704.56
500.352	1804.56
500.569	1909.56
500.786	1903.56
501.003	1842.56
501.22	1651.56
501.437	1549.56
501.654	1453.56
501.871	1342.56
502.088	1287.56
502.305	1210.56
502.522	1167.56
502.739	1116.56
502.956	1091.56
503.172	1047.56
503.389	994.56
503.606	995.56
503.823	1000.56
504.04	984.56
504.256	1009.56
504.473	996.56
504.69	1003.56
504.907	970.56
505.123	936.56
505.34	921.56
505.557	914.56
505.773	888.56
505.99	882.56
506.207	873.56
506.423	868.56
506.64	872.56
506.856	843.56
507.073	856.56
507.289	852.56
507.506	822.56
507.722	837.56
507.939	853.56
508.155	814.56
508.372	793.56
508.588	809.56
508.805	807.56
509.021	806.56
509.238	802.56
509.454	788.56
509.67	809.56
509.887	780.56
510.103	797.56
510.319	811.56
510.536	846.56
510.752	1251.56
510.968	1072.56
511.184	809.56
511.401	777.56
511.617	794.56
511.833	775.56
512.049	778.56
512.265	787.56
512.481	754.56
512.698	732.56
512.914	744.56
513.13	765.56
513.346	760.56
513.562	751.56
513.778	757.56
513.994	764.56
514.21	777.56
514.426	784.56
514.642	806.56
514.858	823.56
515.074	855.56
515.29	954.56
515.506	1247.56
515.721	1109.56
515.937	875.56
516.153	820.56
516.369	851.56
516.585	846.56
516.801	848.56
517.016	852.56
517.232	884.56
517.448	918.56
517.664	919.56
517.879	936.56
518.095	945.56
518.311	939.56
518.527	891.56
518.742	865.56
518.958	865.56
519.173	828.56
519.389	794.56
519.605	798.56
519.82	763.56
520.036	819.56
520.251	821.56
520.467	826.56
520.682	802.56
520.898	801.56
521.113	817.56
521.329	832.56
521.544	850.56
521.76	1001.56
521.975	1480.56
522.19	1539.56
522.406	936.56
522.621	794.56
522.836	751.56
523.052	752.56
523.267	709.56
523.482	723.56
523.698	701.56
523.913	685.56
524.128	681.56
524.343	664.56
524.559	667.56
524.774	679.56
524.989	676.56
525.204	691.56
525.419	675.56
525.634	676.56
525.849	653.56
526.064	630.56
526.28	648.56
526.495	658.56
526.71	653.56
526.925	655.56
527.14	631.56
527.355	652.56
527.57	621.56
527.785	638.56
527.999	632.56
528.214	648.56
528.429	651.56
528.644	658.56
528.859	624.56
529.074	661.56
529.289	652.56
529.503	707.56
529.718	687.56
529.933	659.56
530.148	648.56
530.363	665.56
530.577	643.56
530.792	638.56
531.007	632.56
531.221	628.56
531.436	637.56
531.651	642.56
531.865	624.56
532.08	628.56
532.295	627.56
532.509	633.56
532.724	640.56
532.938	630.56
533.153	639.56
533.367	616.56
533.582	660.56
533.796	622.56
534.011	636.56
534.225	632.56
534.44	611.56
534.654	632.56
534.868	629.56
535.083	624.56
535.297	636.56
535.511	628.56
535.726	628.56
535.94	636.56
536.154	602.56
536.369	627.56
536.583	598.56
536.797	598.56
537.011	607.56
537.225	615.56
537.44	607.56
537.654	593.56
537.868	582.56
538.082	593.56
538.296	592.56
538.51	597.56
538.724	607.56
538.938	593.56
539.153	593.56
539.367	581.56
539.581	588.56
539.795	582.56
540.009	584.56
540.222	588.56
540.436	590.56
540.65	595.56
540.864	602.56
541.078	594.56
541.292	581.56
541.506	581.56
541.72	598.56
541.934	585.56
542.147	595.56
542.361	582.56
542.575	583.56
542.789	592.56
543.002	569.56
543.216	581.56
543.43	600.56
543.644	585.56
543.857	585.56
544.071	568.56
544.285	590.56
544.498	588.56
544.712	592.56
544.925	576.56
545.139	571.56
545.352	588.56
545.566	595.56
545.779	575.56
545.993	595.56
546.206	624.56
546.42	604.56
546.633	594.56
546.847	590.56
547.06	593.56
547.274	610.56
547.487	584.56
547.7	584.56
547.914	587.56
548.127	616.56
548.34	591.56
548.554	601.56
548.767	599.56
548.98	572.56
549.193	577.56
549.407	569.56
549.62	580.56
549.833	605.56
550.046	601.56
550.259	572.56
550.473	591.56
550.686	606.56
550.899	601.56
551.112	593.56
551.325	587.56
551.538	588.56
551.751	569.56
551.964	576.56
552.177	581.56
552.39	596.56
552.603	603.56
552.816	616.56
553.029	627.56
553.242	661.56
553.455	612.56
553.667	620.56
553.88	646.56
554.093	644.56
554.306	627.56
554.519	596.56
554.732	593.56
554.944	594.56
555.157	587.56
555.37	575.56
555.583	559.56
555.795	571.56
556.008	553.56
556.221	548.56
556.433	513.56
556.646	521.56
556.859	523.56
557.071	528.56
557.284	526.56
557.496	521.56
557.709	532.56
557.921	522.56
558.134	516.56
558.346	508.56
558.559	519.56
558.771	492.56
558.984	516.56
559.196	497.56
559.409	485.56
559.621	481.56
559.833	481.56
560.046	503.56
560.258	517.56
560.47	490.56
560.683	495.56
560.895	512.56
561.107	510.56
561.32	516.56
561.532	508.56
561.744	508.56
561.956	513.56
562.168	516.56
562.381	501.56
562.593	514.56
562.805	511.56
563.017	500.56
563.229	513.56
563.441	515.56
563.653	524.56
563.865	511.56
564.077	554.56
564.289	554.56
564.501	532.56
564.713	549.56
564.925	562.56
565.137	562.56
565.349	571.56
565.561	593.56
565.773	604.56
565.985	596.56
566.197	637.56
566.408	673.56
566.62	722.56
566.832	745.56
567.044	755.56
567.255	771.56
567.467	800.56
567.679	827.56
567.891	837.56
568.102	882.56
568.314	823.56
568.526	775.56
568.737	724.56
568.949	687.56
569.161	621.56
569.372	592.56
569.584	586.56
569.795	585.56
570.007	550.56
570.218	577.56
570.43	575.56
570.641	547.56
570.853	532.56
571.064	555.56
571.276	536.56
571.487	493.56
571.698	500.56
571.91	500.56
572.121	485.56
572.333	482.56
572.544	447.56
572.755	453.56
572.966	471.56
573.178	467.56
573.389	461.56
573.6	458.56
573.811	442.56
574.023	431.56
574.234	451.56
574.445	458.56
574.656	428.56
574.867	449.56
575.078	453.56
575.289	450.56
575.501	432.56
575.712	436.56
575.923	425.56
576.134	439.56
576.345	426.56
576.556	425.56
576.767	435.56
576.978	425.56
577.188	424.56
577.399	397.56
577.61	415.56
577.821	427.56
578.032	415.56
578.243	428.56
578.454	602.56
578.665	526.56
578.875	412.56
579.086	416.56
579.297	405.56
579.508	417.56
579.718	411.56
579.929	412.56
580.14	411.56
580.35	406.56
580.561	401.56
580.772	405.56
580.982	381.56
581.193	384.56
581.403	407.56
581.614	415.56
581.825	397.56
582.035	390.56
582.246	372.56
582.456	385.56
582.667	389.56
582.877	393.56
583.087	380.56
583.298	393.56
583.508	379.56
583.719	375.56
583.929	381.56
584.139	377.56
584.35	387.56
584.56	379.56
584.77	398.56
584.981	388.56
585.191	398.56
585.401	392.56
585.611	390.56
585.821	377.56
586.032	363.56
586.242	383.56
586.452	390.56
586.662	371.56
586.872	390.56
587.082	391.56
587.292	373.56
587.502	383.56
587.713	372.56
587.923	377.56
588.133	394.56
588.343	359.56
588.553	365.56
588.762	381.56
588.972	381.56
589.182	373.56
589.392	370.56
589.602	377.56
589.812	379.56
590.022	386.56
590.232	375.56
590.441	364.56
590.651	387.56
590.861	397.56
591.071	394.56
591.281	397.56
591.49	395.56
591.7	386.56
591.91	402.56
592.119	391.56
592.329	410.56
592.539	411.56
592.748	425.56
592.958	441.56
593.167	449.56
593.377	458.56
593.587	473.56
593.796	466.56
594.006	460.56
594.215	472.56
594.424	443.56
594.634	471.56
594.843	444.56
595.053	434.56
595.262	416.56
595.472	405.56
595.681	409.56
595.89	416.56
596.1	402.56
596.309	378.56
596.518	368.56
596.727	371.56
596.937	352.56
597.146	358.56
597.355	356.56
597.564	344.56
597.774	345.56
597.983	361.56
598.192	343.56
598.401	328.56
598.61	328.56
598.819	326.56
599.028	326.56
599.237	352.56
599.446	348.56
599.655	340.56
599.864	332.56
600.073	341.56
600.282	326.56
600.491	335.56
600.7	328.56
600.909	340.56
601.118	324.56
601.327	338.56
601.536	323.56
601.745	327.56
601.953	337.56
602.162	337.56
602.371	332.56
602.58	322.56
602.789	329.56
602.997	323.56
603.206	325.56
603.415	312.56
603.623	306.56
603.832	305.56
604.041	301.56
604.249	323.56
604.458	311.56
604.666	321.56
604.875	315.56
605.084	303.56
605.292	306.56
605.501	305.56
605.709	314.56
605.918	321.56
606.126	320.56
606.334	330.56
606.543	307.56
606.751	301.56
606.96	308.56
607.168	290.56
607.376	298.56
607.585	292.56
607.793	305.56
608.001	310.56
608.21	313.56
608.418	299.56
608.626	308.56
608.834	299.56
609.043	293.56
609.251	298.56
609.459	309.56
609.667	309.56
609.875	312.56
610.083	305.56
610.291	307.56
610.499	309.56
610.707	295.56
610.916	309.56
611.124	303.56
611.332	293.56
611.54	307.56
611.748	301.56
611.955	300.56
612.163	313.56
612.371	296.56
612.579	285.56
612.787	308.56
612.995	291.56
613.203	292.56
613.411	297.56
613.618	293.56
613.826	293.56
614.034	310.56
614.242	314.56
614.449	287.56
614.657	287.56
614.865	296.56
615.072	298.56
615.28	311.56
615.488	299.56
615.695	288.56
615.903	296.56
616.111	305.56
616.318	308.56
616.526	315.56
616.733	305.56
616.941	308.56
617.148	280.56
617.356	287.56
617.563	283.56
617.771	299.56
617.978	298.56
618.185	304.56
618.393	289.56
618.6	296.56
618.807	296.56
619.015	286.56
619.222	285.56
619.429	279.56
619.637	274.56
619.844	282.56
620.051	279.56
620.258	275.56
620.466	275.56
620.673	283.56
620.88	257.56
621.087	281.56
621.294	284.56
621.501	292.56
621.708	288.56
621.915	279.56
622.122	267.56
622.329	268.56
622.536	286.56
622.743	282.56
622.95	269.56
623.157	266.56
623.364	271.56
623.571	265.56
623.778	269.56
623.985	268.56
624.192	288.56
624.399	274.56
624.606	274.56
624.812	270.56
625.019	245.56
625.226	262.56
625.433	263.56
625.639	269.56
625.846	264.56
626.053	247.56
626.259	264.56
626.466	255.56
626.673	261.56
626.879	245.56
627.086	245.56
627.293	258.56
627.499	254.56
627.706	244.56
627.912	253.56
628.119	245.56
628.325	246.56
628.532	246.56
628.738	240.56
628.945	259.56
629.151	258.56
629.357	251.56
629.564	231.56
629.77	253.56
629.976	245.56
630.183	241.56
630.389	237.56
630.595	255.56
630.802	243.56
631.008	228.56
631.214	223.56
631.42	253.56
631.627	239.56
631.833	242.56
632.039	217.56
632.245	221.56
632.451	214.56
632.657	236.56
632.863	227.56
633.069	228.56
633.275	235.56
633.481	225.56
633.688	217.56
633.893	242.56
634.099	223.56
634.305	226.56
634.511	249.56
634.717	222.56
634.923	211.56
635.129	212.56
635.335	213.56
635.541	213.56
635.747	218.56
635.952	214.56
636.158	229.56
636.364	225.56
636.57	221.56
636.775	226.56
636.981	234.56
637.187	212.56
637.392	202.56
637.598	216.56
637.804	225.56
638.009	211.56
638.215	229.56
638.421	205.56
638.626	205.56
638.832	217.56
639.037	210.56
639.243	191.56
639.448	230.56
639.654	211.56
639.859	199.56
640.065	203.56
640.27	220.56
640.475	197.56
640.681	204.56
640.886	209.56
641.091	212.56
641.297	200.56
641.502	181.56
641.707	191.56
641.913	185.56
642.118	192.56
642.323	191.56
642.528	210.56
642.733	205.56
642.939	211.56
643.144	208.56
643.349	168.56
643.554	193.56
643.759	189.56
643.964	200.56
644.169	204.56
644.374	193.56
644.579	205.56
644.784	214.56
644.989	200.56
645.194	212.56
645.399	202.56
645.604	199.56
645.809	189.56
646.014	202.56
646.219	209.56
646.423	197.56
646.628	203.56
646.833	200.56
647.038	186.56
647.243	202.56
647.447	202.56
647.652	211.56
647.857	211.56
648.062	202.56
648.266	202.56
648.471	192.56
648.676	216.56
648.88	211.56
649.085	201.56
649.289	173.56
649.494	216.56
649.698	211.56
649.903	222.56
650.107	202.56
650.312	198.56
650.516	183.56
650.721	183.56
650.925	192.56
651.13	175.56
651.334	166.56
651.539	173.56
651.743	182.56
651.947	179.56
652.152	166.56
652.356	167.56
652.56	167.56
652.764	147.56
652.969	149.56
653.173	164.56
653.377	158.56
653.581	166.56
653.785	157.56
653.99	169.56
654.194	170.56
654.398	159.56
654.602	151.56
654.806	149.56
655.01	162.56
655.214	163.56
655.418	159.56
655.622	148.56
655.826	154.56
656.03	163.56
656.234	164.56
656.438	160.56
656.642	151.56
656.846	144.56
657.049	153.56
657.253	157.56
657.457	149.56
657.661	141.56
657.865	129.56
658.068	111.56
658.272	108.56
658.476	133.56
658.68	120.56
658.883	115.56
659.087	107.56
659.291	95.56
659.494	111.56
659.698	120.56
659.901	103.56
660.105	105.56
660.309	94.56
660.512	98.56
660.716	90.56
660.919	93.56
661.123	101.56
661.326	91.56
661.53	86.56
661.733	93.56
661.936	95.56
662.14	93.56
662.343	98.56
662.546	85.56
662.75	83.56
662.953	91.56
663.156	75.56
663.36	84.56
663.563	73.56
663.766	81.56
663.969	81.56
664.173	96.56
664.376	86.56
664.579	89.56
664.782	87.56
664.985	88.56
665.188	84.56
665.391	83.56
665.594	91.56
665.797	94.56
666	73.56
666.203	85.56
666.406	85.56
666.609	94.56
666.812	91.56
667.015	80.56
667.218	76.56
667.421	84.56
667.624	86.56
667.827	91.56
668.03	76.56
668.232	79.56
668.435	86.56
668.638	75.56
668.841	84.56
669.043	83.56
669.246	79.56
669.449	72.56
669.651	83.56
669.854	87.56
670.057	81.56
670.259	92.56
670.462	79.56
670.665	90.56
670.867	91.56
671.07	81.56
671.272	77.56
671.475	68.56
671.677	92.56
671.88	82.56
672.082	78.56
672.284	75.56
672.487	81.56
672.689	83.56
672.892	75.56
