Data from 1963.PennyLincolnUp.Lamp.En5.5.200Scan.071719.P1._HRD10591_13-57-22-062.txt Node
Date: Thu Jul 18 13:57:22 EDT 2019
User: cochatt
Spectrometer: HR+D1059
Trigger mode: 1
Integration Time (sec): 1.000000E-1
Scans to average: 1
Electric dark correction enabled: true
Nonlinearity correction enabled: false
Boxcar width: 0
XAxis mode: Wavelengths
Number of Pixels in Spectrum: 2048
>>>>>Begin Spectral Data<<<<<
223.165	-8.19
223.4	-8.19
223.635	-8.19
223.869	-24.19
224.104	-11.19
224.338	-10.19
224.573	-18.19
224.808	-20.19
225.042	-28.19
225.277	-16.19
225.511	-4.19
225.746	-8.19
225.98	28.81
226.215	19.81
226.449	21.81
226.683	21.81
226.918	28.81
227.152	27.81
227.387	31.81
227.621	36.81
227.856	43.81
228.09	30.81
228.324	45.81
228.559	60.81
228.793	61.81
229.027	82.81
229.262	93.81
229.496	122.81
229.73	103.81
229.964	123.81
230.199	110.81
230.433	105.81
230.667	104.81
230.901	106.81
231.136	130.81
231.37	112.81
231.604	99.81
231.838	113.81
232.072	107.81
232.306	119.81
232.541	116.81
232.775	103.81
233.009	115.81
233.243	109.81
233.477	112.81
233.711	118.81
233.945	106.81
234.179	101.81
234.413	114.81
234.647	118.81
234.881	117.81
235.115	133.81
235.349	96.81
235.583	118.81
235.817	134.81
236.051	132.81
236.285	123.81
236.519	125.81
236.753	115.81
236.987	135.81
237.221	132.81
237.455	170.81
237.689	148.81
237.922	112.81
238.156	122.81
238.39	121.81
238.624	118.81
238.858	122.81
239.091	131.81
239.325	124.81
239.559	141.81
239.793	146.81
240.027	124.81
240.26	123.81
240.494	142.81
240.728	138.81
240.961	149.81
241.195	141.81
241.429	142.81
241.662	147.81
241.896	140.81
242.13	134.81
242.363	137.81
242.597	137.81
242.83	139.81
243.064	152.81
243.298	133.81
243.531	132.81
243.765	141.81
243.998	143.81
244.232	125.81
244.465	159.81
244.699	147.81
244.932	157.81
245.166	146.81
245.399	148.81
245.633	155.81
245.866	149.81
246.099	136.81
246.333	160.81
246.566	150.81
246.8	140.81
247.033	150.81
247.266	163.81
247.5	164.81
247.733	171.81
247.966	175.81
248.2	175.81
248.433	169.81
248.666	186.81
248.899	160.81
249.133	199.81
249.366	189.81
249.599	178.81
249.832	175.81
250.066	169.81
250.299	176.81
250.532	199.81
250.765	210.81
250.998	197.81
251.231	192.81
251.465	205.81
251.698	194.81
251.931	199.81
252.164	193.81
252.397	185.81
252.63	194.81
252.863	209.81
253.096	207.81
253.329	193.81
253.562	195.81
253.795	207.81
254.028	209.81
254.261	214.81
254.494	211.81
254.727	236.81
254.96	223.81
255.193	221.81
255.426	232.81
255.659	231.81
255.892	216.81
256.124	212.81
256.357	208.81
256.59	211.81
256.823	221.81
257.056	214.81
257.289	199.81
257.521	206.81
257.754	202.81
257.987	193.81
258.22	219.81
258.452	214.81
258.685	223.81
258.918	199.81
259.151	218.81
259.383	224.81
259.616	212.81
259.849	227.81
260.081	230.81
260.314	218.81
260.547	245.81
260.779	239.81
261.012	233.81
261.244	217.81
261.477	215.81
261.71	222.81
261.942	228.81
262.175	228.81
262.407	216.81
262.64	214.81
262.872	208.81
263.105	214.81
263.337	221.81
263.57	230.81
263.802	231.81
264.035	220.81
264.267	232.81
264.499	223.81
264.732	240.81
264.964	230.81
265.197	231.81
265.429	231.81
265.661	221.81
265.894	231.81
266.126	228.81
266.358	231.81
266.591	231.81
266.823	236.81
267.055	216.81
267.287	263.81
267.52	251.81
267.752	244.81
267.984	255.81
268.216	223.81
268.448	242.81
268.681	231.81
268.913	253.81
269.145	278.81
269.377	273.81
269.609	261.81
269.841	262.81
270.073	260.81
270.306	266.81
270.538	292.81
270.77	276.81
271.002	294.81
271.234	277.81
271.466	291.81
271.698	282.81
271.93	283.81
272.162	280.81
272.394	285.81
272.626	288.81
272.858	284.81
273.09	287.81
273.322	268.81
273.553	257.81
273.785	274.81
274.017	273.81
274.249	281.81
274.481	278.81
274.713	264.81
274.945	269.81
275.176	291.81
275.408	267.81
275.64	268.81
275.872	288.81
276.104	305.81
276.335	278.81
276.567	277.81
276.799	285.81
277.031	307.81
277.262	309.81
277.494	291.81
277.726	293.81
277.957	287.81
278.189	290.81
278.421	292.81
278.652	284.81
278.884	271.81
279.115	298.81
279.347	284.81
279.579	289.81
279.81	310.81
280.042	284.81
280.273	296.81
280.505	297.81
280.736	288.81
280.968	282.81
281.199	267.81
281.431	291.81
281.662	299.81
281.894	293.81
282.125	295.81
282.356	297.81
282.588	309.81
282.819	293.81
283.051	279.81
283.282	305.81
283.513	291.81
283.745	319.81
283.976	327.81
284.207	336.81
284.439	305.81
284.67	314.81
284.901	303.81
285.132	306.81
285.364	313.81
285.595	323.81
285.826	300.81
286.057	313.81
286.288	316.81
286.52	329.81
286.751	302.81
286.982	329.81
287.213	331.81
287.444	323.81
287.675	337.81
287.906	319.81
288.138	330.81
288.369	313.81
288.6	336.81
288.831	328.81
289.062	314.81
289.293	327.81
289.524	349.81
289.755	333.81
289.986	319.81
290.217	319.81
290.448	320.81
290.679	329.81
290.91	341.81
291.141	328.81
291.371	330.81
291.602	339.81
291.833	341.81
292.064	318.81
292.295	330.81
292.526	319.81
292.757	313.81
292.987	342.81
293.218	331.81
293.449	343.81
293.68	331.81
293.91	330.81
294.141	332.81
294.372	316.81
294.603	349.81
294.833	326.81
295.064	338.81
295.295	341.81
295.525	327.81
295.756	337.81
295.987	329.81
296.217	359.81
296.448	334.81
296.679	340.81
296.909	325.81
297.14	345.81
297.37	352.81
297.601	369.81
297.831	345.81
298.062	364.81
298.292	366.81
298.523	387.81
298.753	373.81
298.984	364.81
299.214	365.81
299.445	358.81
299.675	351.81
299.905	345.81
300.136	345.81
300.366	362.81
300.597	374.81
300.827	404.81
301.057	372.81
301.288	376.81
301.518	363.81
301.748	383.81
301.979	397.81
302.209	391.81
302.439	392.81
302.669	381.81
302.9	357.81
303.13	356.81
303.36	364.81
303.59	388.81
303.82	373.81
304.051	372.81
304.281	369.81
304.511	385.81
304.741	360.81
304.971	375.81
305.201	379.81
305.431	381.81
305.661	387.81
305.891	389.81
306.121	372.81
306.352	374.81
306.582	379.81
306.812	364.81
307.042	391.81
307.272	391.81
307.502	395.81
307.731	373.81
307.961	353.81
308.191	399.81
308.421	396.81
308.651	392.81
308.881	392.81
309.111	382.81
309.341	363.81
309.571	380.81
309.8	409.81
310.03	385.81
310.26	405.81
310.49	398.81
310.72	389.81
310.949	391.81
311.179	394.81
311.409	400.81
311.639	399.81
311.868	400.81
312.098	395.81
312.328	411.81
312.557	408.81
312.787	433.81
313.017	425.81
313.246	415.81
313.476	401.81
313.706	389.81
313.935	398.81
314.165	426.81
314.394	437.81
314.624	415.81
314.853	402.81
315.083	413.81
315.312	422.81
315.542	423.81
315.771	409.81
316.001	411.81
316.23	424.81
316.46	418.81
316.689	403.81
316.919	398.81
317.148	409.81
317.377	414.81
317.607	405.81
317.836	411.81
318.065	407.81
318.295	409.81
318.524	439.81
318.753	407.81
318.983	423.81
319.212	418.81
319.441	419.81
319.67	442.81
319.9	431.81
320.129	433.81
320.358	409.81
320.587	415.81
320.816	418.81
321.046	411.81
321.275	410.81
321.504	411.81
321.733	420.81
321.962	445.81
322.191	413.81
322.42	420.81
322.649	411.81
322.878	453.81
323.108	435.81
323.337	446.81
323.566	444.81
323.795	447.81
324.024	469.81
324.253	519.81
324.482	623.81
324.71	819.81
324.939	1105.81
325.168	981.81
325.397	608.81
325.626	520.81
325.855	462.81
326.084	474.81
326.313	468.81
326.542	471.81
326.77	511.81
326.999	528.81
327.228	592.81
327.457	811.81
327.686	958.81
327.914	681.81
328.143	531.81
328.372	510.81
328.6	493.81
328.829	490.81
329.058	515.81
329.287	483.81
329.515	489.81
329.744	484.81
329.972	492.81
330.201	493.81
330.43	495.81
330.658	524.81
330.887	525.81
331.115	522.81
331.344	507.81
331.572	501.81
331.801	481.81
332.03	517.81
332.258	492.81
332.486	511.81
332.715	506.81
332.943	523.81
333.172	532.81
333.4	561.81
333.629	548.81
333.857	573.81
334.085	553.81
334.314	561.81
334.542	570.81
334.771	585.81
334.999	564.81
335.227	560.81
335.455	549.81
335.684	545.81
335.912	547.81
336.14	550.81
336.369	519.81
336.597	507.81
336.825	535.81
337.053	512.81
337.281	521.81
337.51	523.81
337.738	516.81
337.966	500.81
338.194	497.81
338.422	501.81
338.65	483.81
338.878	485.81
339.106	496.81
339.334	495.81
339.562	501.81
339.79	490.81
340.018	476.81
340.246	492.81
340.474	488.81
340.702	496.81
340.93	478.81
341.158	478.81
341.386	484.81
341.614	478.81
341.842	474.81
342.07	472.81
342.298	483.81
342.526	464.81
342.754	452.81
342.981	457.81
343.209	468.81
343.437	497.81
343.665	540.81
343.893	553.81
344.12	564.81
344.348	525.81
344.576	521.81
344.804	515.81
345.031	497.81
345.259	496.81
345.487	465.81
345.714	479.81
345.942	455.81
346.17	480.81
346.397	463.81
346.625	460.81
346.853	456.81
347.08	463.81
347.308	471.81
347.535	463.81
347.763	465.81
347.99	471.81
348.218	452.81
348.445	464.81
348.673	479.81
348.9	467.81
349.128	473.81
349.355	452.81
349.583	455.81
349.81	455.81
350.037	453.81
350.265	455.81
350.492	460.81
350.72	456.81
350.947	439.81
351.174	465.81
351.402	439.81
351.629	441.81
351.856	469.81
352.083	455.81
352.311	471.81
352.538	451.81
352.765	452.81
352.992	453.81
353.22	442.81
353.447	430.81
353.674	442.81
353.901	441.81
354.128	433.81
354.355	456.81
354.583	458.81
354.81	425.81
355.037	432.81
355.264	434.81
355.491	427.81
355.718	456.81
355.945	472.81
356.172	440.81
356.399	444.81
356.626	422.81
356.853	427.81
357.08	448.81
357.307	472.81
357.534	456.81
357.761	453.81
357.988	442.81
358.215	454.81
358.441	468.81
358.668	431.81
358.895	441.81
359.122	441.81
359.349	460.81
359.576	468.81
359.802	458.81
360.029	457.81
360.256	457.81
360.483	466.81
360.709	461.81
360.936	461.81
361.163	454.81
361.39	456.81
361.616	454.81
361.843	470.81
362.07	458.81
362.296	467.81
362.523	447.81
362.749	444.81
362.976	435.81
363.203	465.81
363.429	445.81
363.656	451.81
363.882	448.81
364.109	467.81
364.335	421.81
364.562	456.81
364.788	446.81
365.015	456.81
365.241	453.81
365.468	459.81
365.694	449.81
365.92	439.81
366.147	457.81
366.373	477.81
366.599	431.81
366.826	459.81
367.052	440.81
367.278	447.81
367.505	445.81
367.731	454.81
367.957	463.81
368.184	467.81
368.41	469.81
368.636	465.81
368.862	451.81
369.089	453.81
369.315	450.81
369.541	479.81
369.767	455.81
369.993	459.81
370.219	478.81
370.445	465.81
370.672	474.81
370.898	470.81
371.124	458.81
371.35	471.81
371.576	476.81
371.802	477.81
372.028	470.81
372.254	481.81
372.48	473.81
372.706	475.81
372.932	498.81
373.158	467.81
373.384	471.81
373.61	471.81
373.835	492.81
374.061	463.81
374.287	479.81
374.513	476.81
374.739	513.81
374.965	511.81
375.191	492.81
375.416	513.81
375.642	499.81
375.868	504.81
376.094	473.81
376.319	479.81
376.545	487.81
376.771	490.81
376.997	474.81
377.222	476.81
377.448	477.81
377.674	482.81
377.899	482.81
378.125	481.81
378.35	488.81
378.576	483.81
378.802	465.81
379.027	467.81
379.253	471.81
379.478	467.81
379.704	475.81
379.929	491.81
380.155	484.81
380.38	468.81
380.606	473.81
380.831	477.81
381.057	495.81
381.282	470.81
381.507	473.81
381.733	488.81
381.958	476.81
382.184	489.81
382.409	486.81
382.634	483.81
382.86	512.81
383.085	486.81
383.31	526.81
383.535	503.81
383.761	520.81
383.986	524.81
384.211	516.81
384.436	559.81
384.662	545.81
384.887	562.81
385.112	553.81
385.337	541.81
385.562	554.81
385.787	560.81
386.013	561.81
386.238	560.81
386.463	551.81
386.688	541.81
386.913	551.81
387.138	559.81
387.363	575.81
387.588	556.81
387.813	537.81
388.038	549.81
388.263	547.81
388.488	581.81
388.713	549.81
388.938	556.81
389.163	527.81
389.387	535.81
389.612	547.81
389.837	535.81
390.062	530.81
390.287	553.81
390.512	524.81
390.736	540.81
390.961	555.81
391.186	581.81
391.411	561.81
391.636	581.81
391.86	571.81
392.085	599.81
392.31	595.81
392.534	573.81
392.759	577.81
392.984	575.81
393.208	543.81
393.433	575.81
393.658	606.81
393.882	570.81
394.107	571.81
394.331	574.81
394.556	573.81
394.78	592.81
395.005	592.81
395.229	565.81
395.454	596.81
395.678	595.81
395.903	596.81
396.127	596.81
396.352	605.81
396.576	587.81
396.801	573.81
397.025	588.81
397.249	617.81
397.474	595.81
397.698	587.81
397.922	617.81
398.147	602.81
398.371	633.81
398.595	639.81
398.82	631.81
399.044	663.81
399.268	727.81
399.492	792.81
399.717	869.81
399.941	888.81
400.165	848.81
400.389	808.81
400.613	741.81
400.837	701.81
401.062	664.81
401.286	679.81
401.51	645.81
401.734	671.81
401.958	655.81
402.182	655.81
402.406	668.81
402.63	702.81
402.854	703.81
403.078	685.81
403.302	667.81
403.526	709.81
403.75	694.81
403.974	716.81
404.198	713.81
404.422	698.81
404.645	710.81
404.869	724.81
405.093	742.81
405.317	757.81
405.541	783.81
405.765	755.81
405.988	734.81
406.212	719.81
406.436	711.81
406.66	736.81
406.883	739.81
407.107	773.81
407.331	825.81
407.555	864.81
407.778	832.81
408.002	803.81
408.226	778.81
408.449	762.81
408.673	712.81
408.896	753.81
409.12	770.81
409.344	762.81
409.567	722.81
409.791	701.81
410.014	676.81
410.238	700.81
410.461	708.81
410.685	716.81
410.908	684.81
411.132	704.81
411.355	709.81
411.578	698.81
411.802	689.81
412.025	698.81
412.249	693.81
412.472	711.81
412.695	718.81
412.919	694.81
413.142	659.81
413.365	652.81
413.589	693.81
413.812	656.81
414.035	667.81
414.258	659.81
414.482	632.81
414.705	660.81
414.928	663.81
415.151	659.81
415.374	654.81
415.597	646.81
415.821	654.81
416.044	613.81
416.267	627.81
416.49	641.81
416.713	656.81
416.936	682.81
417.159	645.81
417.382	637.81
417.605	627.81
417.828	661.81
418.051	647.81
418.274	655.81
418.497	632.81
418.72	657.81
418.943	660.81
419.166	684.81
419.389	711.81
419.611	717.81
419.834	683.81
420.057	678.81
420.28	685.81
420.503	656.81
420.726	650.81
420.948	659.81
421.171	678.81
421.394	714.81
421.617	650.81
421.839	643.81
422.062	648.81
422.285	665.81
422.507	698.81
422.73	723.81
422.953	730.81
423.175	676.81
423.398	689.81
423.621	677.81
423.843	715.81
424.066	685.81
424.288	704.81
424.511	717.81
424.733	760.81
424.956	774.81
425.178	731.81
425.401	690.81
425.623	759.81
425.846	680.81
426.068	671.81
426.291	632.81
426.513	654.81
426.735	657.81
426.958	653.81
427.18	719.81
427.402	760.81
427.625	821.81
427.847	746.81
428.069	679.81
428.292	636.81
428.514	617.81
428.736	603.81
428.958	609.81
429.181	580.81
429.403	589.81
429.625	589.81
429.847	625.81
430.069	663.81
430.292	637.81
430.514	607.81
430.736	609.81
430.958	608.81
431.18	603.81
431.402	596.81
431.624	579.81
431.846	607.81
432.068	594.81
432.29	586.81
432.512	583.81
432.734	569.81
432.956	604.81
433.178	594.81
433.4	586.81
433.622	575.81
433.844	596.81
434.066	597.81
434.287	605.81
434.509	632.81
434.731	657.81
434.953	655.81
435.175	659.81
435.397	647.81
435.618	673.81
435.84	672.81
436.062	720.81
436.284	712.81
436.505	658.81
436.727	636.81
436.949	624.81
437.17	606.81
437.392	635.81
437.614	620.81
437.835	611.81
438.057	654.81
438.278	709.81
438.5	744.81
438.721	752.81
438.943	751.81
439.165	657.81
439.386	632.81
439.608	623.81
439.829	632.81
440.05	632.81
440.272	656.81
440.493	626.81
440.715	597.81
440.936	622.81
441.158	623.81
441.379	642.81
441.6	649.81
441.822	663.81
442.043	660.81
442.264	727.81
442.486	733.81
442.707	673.81
442.928	641.81
443.149	643.81
443.371	637.81
443.592	682.81
443.813	741.81
444.034	779.81
444.255	706.81
444.476	711.81
444.698	723.81
444.919	712.81
445.14	828.81
445.361	748.81
445.582	693.81
445.803	698.81
446.024	742.81
446.245	736.81
446.466	694.81
446.687	643.81
446.908	646.81
447.129	597.81
447.35	583.81
447.571	573.81
447.792	575.81
448.013	597.81
448.234	592.81
448.455	615.81
448.675	663.81
448.896	706.81
449.117	671.81
449.338	627.81
449.559	706.81
449.779	771.81
450	643.81
450.221	574.81
450.442	585.81
450.662	546.81
450.883	572.81
451.104	564.81
451.324	561.81
451.545	544.81
451.766	539.81
451.986	542.81
452.207	532.81
452.428	523.81
452.648	544.81
452.869	557.81
453.089	535.81
453.31	526.81
453.53	553.81
453.751	528.81
453.971	555.81
454.192	531.81
454.412	520.81
454.633	520.81
454.853	525.81
455.073	531.81
455.294	546.81
455.514	582.81
455.734	562.81
455.955	510.81
456.175	507.81
456.395	499.81
456.616	498.81
456.836	514.81
457.056	512.81
457.276	508.81
457.497	504.81
457.717	507.81
457.937	513.81
458.157	523.81
458.377	542.81
458.598	575.81
458.818	569.81
459.038	599.81
459.258	649.81
459.478	613.81
459.698	612.81
459.918	619.81
460.138	632.81
460.358	659.81
460.578	665.81
460.798	667.81
461.018	670.81
461.238	685.81
461.458	651.81
461.678	664.81
461.898	645.81
462.118	653.81
462.338	690.81
462.558	735.81
462.777	719.81
462.997	765.81
463.217	801.81
463.437	813.81
463.657	774.81
463.876	736.81
464.096	736.81
464.316	749.81
464.536	725.81
464.755	722.81
464.975	702.81
465.195	682.81
465.414	707.81
465.634	639.81
465.854	613.81
466.073	620.81
466.293	586.81
466.512	569.81
466.732	608.81
466.951	577.81
467.171	574.81
467.391	569.81
467.61	574.81
467.829	575.81
468.049	559.81
468.268	587.81
468.488	564.81
468.707	568.81
468.927	563.81
469.146	559.81
469.365	553.81
469.585	572.81
469.804	577.81
470.023	575.81
470.243	588.81
470.462	594.81
470.681	598.81
470.901	593.81
471.12	599.81
471.339	591.81
471.558	563.81
471.777	572.81
471.997	578.81
472.216	575.81
472.435	586.81
472.654	553.81
472.873	572.81
473.092	577.81
473.311	551.81
473.53	565.81
473.749	571.81
473.968	578.81
474.187	626.81
474.406	620.81
474.625	578.81
474.844	566.81
475.063	583.81
475.282	573.81
475.501	547.81
475.72	568.81
475.939	589.81
476.158	584.81
476.377	598.81
476.596	586.81
476.814	596.81
477.033	608.81
477.252	607.81
477.471	633.81
477.69	616.81
477.908	611.81
478.127	639.81
478.346	655.81
478.564	674.81
478.783	673.81
479.002	676.81
479.22	685.81
479.439	689.81
479.658	667.81
479.876	699.81
480.095	694.81
480.313	723.81
480.532	753.81
480.751	748.81
480.969	724.81
481.188	726.81
481.406	748.81
481.624	693.81
481.843	654.81
482.061	648.81
482.28	662.81
482.498	637.81
482.717	635.81
482.935	670.81
483.153	659.81
483.372	648.81
483.59	654.81
483.808	681.81
484.027	656.81
484.245	651.81
484.463	669.81
484.681	671.81
484.9	675.81
485.118	673.81
485.336	677.81
485.554	657.81
485.772	681.81
485.99	679.81
486.209	673.81
486.427	704.81
486.645	707.81
486.863	698.81
487.081	700.81
487.299	696.81
487.517	686.81
487.735	719.81
487.953	709.81
488.171	699.81
488.389	711.81
488.607	692.81
488.825	701.81
489.043	707.81
489.261	713.81
489.479	688.81
489.696	703.81
489.914	718.81
490.132	707.81
490.35	684.81
490.568	717.81
490.786	725.81
491.003	732.81
491.221	747.81
491.439	722.81
491.657	723.81
491.874	745.81
492.092	736.81
492.31	751.81
492.527	753.81
492.745	743.81
492.963	753.81
493.18	763.81
493.398	784.81
493.615	792.81
493.833	772.81
494.05	769.81
494.268	771.81
494.485	778.81
494.703	788.81
494.92	792.81
495.138	781.81
495.355	785.81
495.573	769.81
495.79	809.81
496.008	807.81
496.225	805.81
496.442	804.81
496.66	821.81
496.877	837.81
497.094	829.81
497.312	827.81
497.529	861.81
497.746	868.81
497.963	896.81
498.181	896.81
498.398	938.81
498.615	989.81
498.832	1016.81
499.049	1076.81
499.267	1126.81
499.484	1205.81
499.701	1277.81
499.918	1335.81
500.135	1468.81
500.352	1651.81
500.569	1692.81
500.786	1660.81
501.003	1602.81
501.22	1484.81
501.437	1394.81
501.654	1309.81
501.871	1196.81
502.088	1160.81
502.305	1086.81
502.522	1027.81
502.739	999.81
502.956	980.81
503.172	919.81
503.389	911.81
503.606	873.81
503.823	869.81
504.04	885.81
504.256	905.81
504.473	879.81
504.69	897.81
504.907	889.81
505.123	840.81
505.34	819.81
505.557	783.81
505.773	775.81
505.99	766.81
506.207	758.81
506.423	730.81
506.64	744.81
506.856	705.81
507.073	735.81
507.289	713.81
507.506	720.81
507.722	735.81
507.939	712.81
508.155	704.81
508.372	713.81
508.588	680.81
508.805	688.81
509.021	668.81
509.238	692.81
509.454	704.81
509.67	695.81
509.887	700.81
510.103	689.81
510.319	663.81
510.536	692.81
510.752	885.81
510.968	787.81
511.184	675.81
511.401	659.81
511.617	652.81
511.833	666.81
512.049	674.81
512.265	667.81
512.481	653.81
512.698	648.81
512.914	637.81
513.13	664.81
513.346	641.81
513.562	667.81
513.778	675.81
513.994	644.81
514.21	666.81
514.426	671.81
514.642	682.81
514.858	681.81
515.074	691.81
515.29	748.81
515.506	873.81
515.721	835.81
515.937	711.81
516.153	729.81
516.369	739.81
516.585	734.81
516.801	747.81
517.016	769.81
517.232	775.81
517.448	794.81
517.664	824.81
517.879	821.81
518.095	801.81
518.311	791.81
518.527	782.81
518.742	739.81
518.958	738.81
519.173	737.81
519.389	727.81
519.605	700.81
519.82	691.81
520.036	677.81
520.251	696.81
520.467	695.81
520.682	699.81
520.898	666.81
521.113	665.81
521.329	680.81
521.544	688.81
521.76	754.81
521.975	938.81
522.19	1000.81
522.406	724.81
522.621	657.81
522.836	632.81
523.052	626.81
523.267	610.81
523.482	586.81
523.698	598.81
523.913	581.81
524.128	605.81
524.343	585.81
524.559	592.81
524.774	589.81
524.989	583.81
525.204	596.81
525.419	584.81
525.634	588.81
525.849	572.81
526.064	582.81
526.28	589.81
526.495	553.81
526.71	590.81
526.925	578.81
527.14	551.81
527.355	571.81
527.57	562.81
527.785	571.81
527.999	577.81
528.214	555.81
528.429	581.81
528.644	585.81
528.859	553.81
529.074	572.81
529.289	551.81
529.503	594.81
529.718	585.81
529.933	581.81
530.148	571.81
530.363	568.81
530.577	554.81
530.792	555.81
531.007	570.81
531.221	579.81
531.436	567.81
531.651	541.81
531.865	559.81
532.08	559.81
532.295	597.81
532.509	562.81
532.724	571.81
532.938	553.81
533.153	562.81
533.367	552.81
533.582	571.81
533.796	546.81
534.011	543.81
534.225	556.81
534.44	568.81
534.654	552.81
534.868	567.81
535.083	561.81
535.297	551.81
535.511	552.81
535.726	546.81
535.94	556.81
536.154	562.81
536.369	571.81
536.583	546.81
536.797	543.81
537.011	538.81
537.225	548.81
537.44	549.81
537.654	539.81
537.868	526.81
538.082	525.81
538.296	526.81
538.51	552.81
538.724	546.81
538.938	543.81
539.153	528.81
539.367	539.81
539.581	508.81
539.795	537.81
540.009	542.81
540.222	520.81
540.436	519.81
540.65	529.81
540.864	533.81
541.078	536.81
541.292	531.81
541.506	517.81
541.72	510.81
541.934	511.81
542.147	519.81
542.361	512.81
542.575	515.81
542.789	528.81
543.002	526.81
543.216	555.81
543.43	554.81
543.644	531.81
543.857	525.81
544.071	531.81
544.285	531.81
544.498	515.81
544.712	520.81
544.925	515.81
545.139	533.81
545.352	538.81
545.566	532.81
545.779	563.81
545.993	536.81
546.206	548.81
546.42	570.81
546.633	528.81
546.847	541.81
547.06	521.81
547.274	519.81
547.487	518.81
547.7	529.81
547.914	523.81
548.127	536.81
548.34	540.81
548.554	534.81
548.767	517.81
548.98	523.81
549.193	549.81
549.407	562.81
549.62	528.81
549.833	535.81
550.046	523.81
550.259	545.81
550.473	564.81
550.686	555.81
550.899	521.81
551.112	517.81
551.325	525.81
551.538	524.81
551.751	529.81
551.964	533.81
552.177	536.81
552.39	532.81
552.603	550.81
552.816	576.81
553.029	575.81
553.242	572.81
553.455	585.81
553.667	602.81
553.88	581.81
554.093	560.81
554.306	541.81
554.519	540.81
554.732	538.81
554.944	509.81
555.157	524.81
555.37	519.81
555.583	521.81
555.795	495.81
556.008	513.81
556.221	481.81
556.433	485.81
556.646	485.81
556.859	474.81
557.071	488.81
557.284	487.81
557.496	474.81
557.709	469.81
557.921	480.81
558.134	464.81
558.346	471.81
558.559	480.81
558.771	442.81
558.984	493.81
559.196	472.81
559.409	453.81
559.621	456.81
559.833	461.81
560.046	455.81
560.258	489.81
560.47	461.81
560.683	473.81
560.895	473.81
561.107	464.81
561.32	461.81
561.532	461.81
561.744	473.81
561.956	473.81
562.168	458.81
562.381	489.81
562.593	463.81
562.805	479.81
563.017	456.81
563.229	457.81
563.441	467.81
563.653	460.81
563.865	476.81
564.077	482.81
564.289	475.81
564.501	491.81
564.713	490.81
564.925	497.81
565.137	509.81
565.349	528.81
565.561	536.81
565.773	551.81
565.985	572.81
566.197	594.81
566.408	600.81
566.62	654.81
566.832	677.81
567.044	726.81
567.255	712.81
567.467	709.81
567.679	742.81
567.891	792.81
568.102	823.81
568.314	763.81
568.526	709.81
568.737	693.81
568.949	630.81
569.161	579.81
569.372	545.81
569.584	535.81
569.795	534.81
570.007	516.81
570.218	526.81
570.43	490.81
570.641	484.81
570.853	501.81
571.064	491.81
571.276	510.81
571.487	467.81
571.698	448.81
571.91	442.81
572.121	462.81
572.333	428.81
572.544	446.81
572.755	431.81
572.966	414.81
573.178	425.81
573.389	424.81
573.6	405.81
573.811	411.81
574.023	419.81
574.234	415.81
574.445	419.81
574.656	415.81
574.867	422.81
575.078	425.81
575.289	419.81
575.501	430.81
575.712	397.81
575.923	385.81
576.134	377.81
576.345	403.81
576.556	384.81
576.767	401.81
576.978	391.81
577.188	407.81
577.399	388.81
577.61	383.81
577.821	377.81
578.032	383.81
578.243	382.81
578.454	461.81
578.665	442.81
578.875	384.81
579.086	379.81
579.297	371.81
579.508	377.81
579.718	380.81
579.929	371.81
580.14	381.81
580.35	383.81
580.561	391.81
580.772	373.81
580.982	371.81
581.193	383.81
581.403	367.81
581.614	357.81
581.825	366.81
582.035	369.81
582.246	364.81
582.456	367.81
582.667	371.81
582.877	372.81
583.087	360.81
583.298	367.81
583.508	350.81
583.719	355.81
583.929	377.81
584.139	347.81
584.35	372.81
584.56	346.81
584.77	360.81
584.981	364.81
585.191	379.81
585.401	360.81
585.611	371.81
585.821	374.81
586.032	353.81
586.242	357.81
586.452	364.81
586.662	359.81
586.872	349.81
587.082	377.81
587.292	356.81
587.502	363.81
587.713	342.81
587.923	341.81
588.133	343.81
588.343	345.81
588.553	355.81
588.762	357.81
588.972	372.81
589.182	359.81
589.392	347.81
589.602	387.81
589.812	353.81
590.022	369.81
590.232	358.81
590.441	367.81
590.651	369.81
590.861	371.81
591.071	370.81
591.281	361.81
591.49	353.81
591.7	372.81
591.91	395.81
592.119	387.81
592.329	371.81
592.539	411.81
592.748	408.81
592.958	418.81
593.167	424.81
593.377	429.81
593.587	445.81
593.796	423.81
594.006	408.81
594.215	433.81
594.424	455.81
594.634	436.81
594.843	423.81
595.053	411.81
595.262	378.81
595.472	394.81
595.681	383.81
595.89	382.81
596.1	395.81
596.309	380.81
596.518	360.81
596.727	353.81
596.937	341.81
597.146	325.81
597.355	343.81
597.564	338.81
597.774	332.81
597.983	324.81
598.192	314.81
598.401	307.81
598.61	301.81
598.819	309.81
599.028	323.81
599.237	322.81
599.446	316.81
599.655	333.81
599.864	327.81
600.073	317.81
600.282	320.81
600.491	307.81
600.7	309.81
600.909	307.81
601.118	319.81
601.327	311.81
601.536	288.81
601.745	319.81
601.953	309.81
602.162	295.81
602.371	315.81
602.58	305.81
602.789	315.81
602.997	306.81
603.206	316.81
603.415	305.81
603.623	296.81
603.832	284.81
604.041	288.81
604.249	284.81
604.458	292.81
604.666	305.81
604.875	290.81
605.084	288.81
605.292	287.81
605.501	295.81
605.709	304.81
605.918	294.81
606.126	292.81
606.334	302.81
606.543	287.81
606.751	293.81
606.96	294.81
607.168	277.81
607.376	290.81
607.585	292.81
607.793	270.81
608.001	282.81
608.21	284.81
608.418	279.81
608.626	276.81
608.834	279.81
609.043	297.81
609.251	290.81
609.459	283.81
609.667	287.81
609.875	300.81
610.083	275.81
610.291	285.81
610.499	287.81
610.707	272.81
610.916	283.81
611.124	294.81
611.332	294.81
611.54	295.81
611.748	288.81
611.955	281.81
612.163	279.81
612.371	309.81
612.579	278.81
612.787	285.81
612.995	287.81
613.203	280.81
613.411	286.81
613.618	286.81
613.826	274.81
614.034	273.81
614.242	264.81
614.449	295.81
614.657	264.81
614.865	294.81
615.072	279.81
615.28	275.81
615.488	271.81
615.695	277.81
615.903	275.81
616.111	281.81
616.318	268.81
616.526	286.81
616.733	291.81
616.941	278.81
617.148	266.81
617.356	280.81
617.563	279.81
617.771	285.81
617.978	263.81
618.185	275.81
618.393	262.81
618.6	285.81
618.807	289.81
619.015	284.81
619.222	272.81
619.429	275.81
619.637	279.81
619.844	276.81
620.051	285.81
620.258	276.81
620.466	261.81
620.673	258.81
620.88	247.81
621.087	266.81
621.294	274.81
621.501	254.81
621.708	275.81
621.915	240.81
622.122	281.81
622.329	262.81
622.536	261.81
622.743	242.81
622.95	269.81
623.157	252.81
623.364	264.81
623.571	260.81
623.778	251.81
623.985	252.81
624.192	239.81
624.399	253.81
624.606	269.81
624.812	241.81
625.019	233.81
625.226	253.81
625.433	255.81
625.639	252.81
625.846	251.81
626.053	247.81
626.259	235.81
626.466	213.81
626.673	245.81
626.879	253.81
627.086	264.81
627.293	250.81
627.499	241.81
627.706	226.81
627.912	258.81
628.119	228.81
628.325	258.81
628.532	231.81
628.738	226.81
628.945	249.81
629.151	223.81
629.357	243.81
629.564	228.81
629.77	249.81
629.976	208.81
630.183	221.81
630.389	230.81
630.595	221.81
630.802	218.81
631.008	230.81
631.214	233.81
631.42	217.81
631.627	227.81
631.833	222.81
632.039	207.81
632.245	227.81
632.451	225.81
632.657	220.81
632.863	217.81
633.069	196.81
633.275	221.81
633.481	205.81
633.688	205.81
633.893	213.81
634.099	215.81
634.305	213.81
634.511	197.81
634.717	215.81
634.923	194.81
635.129	205.81
635.335	216.81
635.541	202.81
635.747	227.81
635.952	206.81
636.158	203.81
636.364	200.81
636.57	225.81
636.775	192.81
636.981	208.81
637.187	205.81
637.392	214.81
637.598	217.81
637.804	207.81
638.009	199.81
638.215	202.81
638.421	209.81
638.626	196.81
638.832	209.81
639.037	209.81
639.243	184.81
639.448	199.81
639.654	222.81
639.859	203.81
640.065	181.81
640.27	200.81
640.475	194.81
640.681	212.81
640.886	202.81
641.091	185.81
641.297	200.81
641.502	192.81
641.707	191.81
641.913	203.81
642.118	184.81
642.323	183.81
642.528	192.81
642.733	183.81
642.939	178.81
643.144	205.81
643.349	183.81
643.554	205.81
643.759	212.81
643.964	193.81
644.169	180.81
644.374	204.81
644.579	186.81
644.784	190.81
644.989	197.81
645.194	181.81
645.399	190.81
645.604	175.81
645.809	182.81
646.014	205.81
646.219	199.81
646.423	177.81
646.628	196.81
646.833	207.81
647.038	211.81
647.243	198.81
647.447	214.81
647.652	185.81
647.857	197.81
648.062	202.81
648.266	213.81
648.471	220.81
648.676	201.81
648.88	201.81
649.085	191.81
649.289	182.81
649.494	208.81
649.698	185.81
649.903	203.81
650.107	170.81
650.312	188.81
650.516	185.81
650.721	176.81
650.925	175.81
651.13	168.81
651.334	170.81
651.539	169.81
651.743	171.81
651.947	180.81
652.152	175.81
652.356	167.81
652.56	155.81
652.764	165.81
652.969	170.81
653.173	185.81
653.377	145.81
653.581	161.81
653.785	169.81
653.99	141.81
654.194	155.81
654.398	151.81
654.602	165.81
654.806	146.81
655.01	160.81
655.214	151.81
655.418	156.81
655.622	154.81
655.826	155.81
656.03	150.81
656.234	157.81
656.438	153.81
656.642	157.81
656.846	149.81
657.049	154.81
657.253	136.81
657.457	127.81
657.661	142.81
657.865	139.81
658.068	119.81
658.272	115.81
658.476	112.81
658.68	119.81
658.883	108.81
659.087	116.81
659.291	103.81
659.494	113.81
659.698	95.81
659.901	103.81
660.105	100.81
660.309	95.81
660.512	93.81
660.716	102.81
660.919	88.81
661.123	104.81
661.326	88.81
661.53	80.81
661.733	88.81
661.936	89.81
662.14	89.81
662.343	84.81
662.546	95.81
662.75	86.81
662.953	90.81
663.156	88.81
663.36	78.81
663.563	91.81
663.766	86.81
663.969	83.81
664.173	88.81
664.376	75.81
664.579	89.81
664.782	86.81
664.985	80.81
665.188	79.81
665.391	90.81
665.594	91.81
665.797	90.81
666	82.81
666.203	86.81
666.406	78.81
666.609	92.81
666.812	85.81
667.015	76.81
667.218	79.81
667.421	77.81
667.624	76.81
667.827	87.81
668.03	72.81
668.232	84.81
668.435	97.81
668.638	89.81
668.841	77.81
669.043	83.81
669.246	93.81
669.449	71.81
669.651	79.81
669.854	69.81
670.057	81.81
670.259	95.81
670.462	87.81
670.665	73.81
670.867	73.81
671.07	84.81
671.272	98.81
671.475	84.81
671.677	78.81
671.88	81.81
672.082	82.81
672.284	77.81
672.487	80.81
672.689	82.81
672.892	87.81
