Data from 1963.PennyLincolnUp.Lamp.En5.5.200Scan.071719.P1._HRD10591_14-00-30-064.txt Node
Date: Thu Jul 18 14:00:30 EDT 2019
User: cochatt
Spectrometer: HR+D1059
Trigger mode: 1
Integration Time (sec): 1.000000E-1
Scans to average: 1
Electric dark correction enabled: true
Nonlinearity correction enabled: false
Boxcar width: 0
XAxis mode: Wavelengths
Number of Pixels in Spectrum: 2048
>>>>>Begin Spectral Data<<<<<
223.165	-18.19
223.4	-18.19
223.635	-18.19
223.869	-9.19
224.104	-19.19
224.338	-15.19
224.573	-10.19
224.808	-9.19
225.042	-10.19
225.277	0.81
225.511	-0.19
225.746	6.81
225.98	1.81
226.215	2.81
226.449	20.81
226.683	10.81
226.918	19.81
227.152	27.81
227.387	43.81
227.621	40.81
227.856	43.81
228.09	51.81
228.324	54.81
228.559	54.81
228.793	54.81
229.027	84.81
229.262	94.81
229.496	115.81
229.73	137.81
229.964	152.81
230.199	118.81
230.433	123.81
230.667	127.81
230.901	123.81
231.136	119.81
231.37	124.81
231.604	127.81
231.838	107.81
232.072	121.81
232.306	133.81
232.541	131.81
232.775	124.81
233.009	113.81
233.243	109.81
233.477	133.81
233.711	112.81
233.945	141.81
234.179	117.81
234.413	130.81
234.647	128.81
234.881	109.81
235.115	117.81
235.349	132.81
235.583	127.81
235.817	124.81
236.051	139.81
236.285	124.81
236.519	124.81
236.753	132.81
236.987	133.81
237.221	170.81
237.455	215.81
237.689	189.81
237.922	157.81
238.156	149.81
238.39	128.81
238.624	127.81
238.858	145.81
239.091	139.81
239.325	131.81
239.559	152.81
239.793	156.81
240.027	163.81
240.26	159.81
240.494	172.81
240.728	165.81
240.961	145.81
241.195	142.81
241.429	163.81
241.662	149.81
241.896	154.81
242.13	159.81
242.363	132.81
242.597	155.81
242.83	163.81
243.064	156.81
243.298	163.81
243.531	163.81
243.765	153.81
243.998	155.81
244.232	148.81
244.465	157.81
244.699	156.81
244.932	171.81
245.166	173.81
245.399	168.81
245.633	159.81
245.866	170.81
246.099	181.81
246.333	166.81
246.566	175.81
246.8	160.81
247.033	166.81
247.266	186.81
247.5	177.81
247.733	173.81
247.966	201.81
248.2	179.81
248.433	211.81
248.666	173.81
248.899	198.81
249.133	193.81
249.366	210.81
249.599	223.81
249.832	196.81
250.066	204.81
250.299	217.81
250.532	206.81
250.765	237.81
250.998	232.81
251.231	243.81
251.465	227.81
251.698	221.81
251.931	209.81
252.164	215.81
252.397	197.81
252.63	210.81
252.863	224.81
253.096	228.81
253.329	259.81
253.562	243.81
253.795	241.81
254.028	250.81
254.261	220.81
254.494	226.81
254.727	264.81
254.96	277.81
255.193	286.81
255.426	263.81
255.659	264.81
255.892	253.81
256.124	251.81
256.357	267.81
256.59	251.81
256.823	224.81
257.056	233.81
257.289	223.81
257.521	245.81
257.754	228.81
257.987	224.81
258.22	227.81
258.452	220.81
258.685	227.81
258.918	233.81
259.151	233.81
259.383	256.81
259.616	255.81
259.849	267.81
260.081	250.81
260.314	269.81
260.547	281.81
260.779	264.81
261.012	277.81
261.244	251.81
261.477	276.81
261.71	258.81
261.942	258.81
262.175	285.81
262.407	245.81
262.64	243.81
262.872	242.81
263.105	229.81
263.337	230.81
263.57	253.81
263.802	255.81
264.035	236.81
264.267	241.81
264.499	241.81
264.732	244.81
264.964	245.81
265.197	234.81
265.429	253.81
265.661	258.81
265.894	243.81
266.126	284.81
266.358	249.81
266.591	244.81
266.823	269.81
267.055	267.81
267.287	260.81
267.52	265.81
267.752	270.81
267.984	277.81
268.216	275.81
268.448	272.81
268.681	261.81
268.913	276.81
269.145	303.81
269.377	313.81
269.609	311.81
269.841	282.81
270.073	303.81
270.306	324.81
270.538	344.81
270.77	324.81
271.002	330.81
271.234	335.81
271.466	333.81
271.698	331.81
271.93	348.81
272.162	358.81
272.394	356.81
272.626	327.81
272.858	339.81
273.09	321.81
273.322	297.81
273.553	326.81
273.785	311.81
274.017	297.81
274.249	315.81
274.481	284.81
274.713	306.81
274.945	316.81
275.176	309.81
275.408	309.81
275.64	321.81
275.872	313.81
276.104	308.81
276.335	311.81
276.567	323.81
276.799	337.81
277.031	339.81
277.262	346.81
277.494	367.81
277.726	336.81
277.957	347.81
278.189	327.81
278.421	326.81
278.652	319.81
278.884	285.81
279.115	309.81
279.347	333.81
279.579	325.81
279.81	339.81
280.042	326.81
280.273	336.81
280.505	328.81
280.736	320.81
280.968	324.81
281.199	328.81
281.431	331.81
281.662	327.81
281.894	340.81
282.125	328.81
282.356	336.81
282.588	363.81
282.819	363.81
283.051	332.81
283.282	320.81
283.513	342.81
283.745	339.81
283.976	337.81
284.207	343.81
284.439	341.81
284.67	361.81
284.901	347.81
285.132	344.81
285.364	333.81
285.595	340.81
285.826	324.81
286.057	360.81
286.288	367.81
286.52	330.81
286.751	343.81
286.982	343.81
287.213	368.81
287.444	368.81
287.675	347.81
287.906	367.81
288.138	381.81
288.369	371.81
288.6	379.81
288.831	378.81
289.062	379.81
289.293	368.81
289.524	378.81
289.755	361.81
289.986	375.81
290.217	387.81
290.448	370.81
290.679	375.81
290.91	357.81
291.141	355.81
291.371	371.81
291.602	388.81
291.833	368.81
292.064	383.81
292.295	362.81
292.526	383.81
292.757	396.81
292.987	368.81
293.218	348.81
293.449	385.81
293.68	362.81
293.91	371.81
294.141	357.81
294.372	363.81
294.603	363.81
294.833	382.81
295.064	391.81
295.295	382.81
295.525	374.81
295.756	387.81
295.987	411.81
296.217	407.81
296.448	399.81
296.679	376.81
296.909	399.81
297.14	376.81
297.37	379.81
297.601	398.81
297.831	378.81
298.062	385.81
298.292	377.81
298.523	382.81
298.753	404.81
298.984	421.81
299.214	396.81
299.445	413.81
299.675	377.81
299.905	397.81
300.136	402.81
300.366	392.81
300.597	411.81
300.827	405.81
301.057	409.81
301.288	431.81
301.518	439.81
301.748	428.81
301.979	436.81
302.209	433.81
302.439	434.81
302.669	422.81
302.9	412.81
303.13	411.81
303.36	427.81
303.59	420.81
303.82	424.81
304.051	435.81
304.281	427.81
304.511	420.81
304.741	405.81
304.971	418.81
305.201	397.81
305.431	426.81
305.661	449.81
305.891	431.81
306.121	425.81
306.352	423.81
306.582	422.81
306.812	413.81
307.042	413.81
307.272	423.81
307.502	419.81
307.731	433.81
307.961	419.81
308.191	411.81
308.421	442.81
308.651	433.81
308.881	419.81
309.111	421.81
309.341	433.81
309.571	442.81
309.8	467.81
310.03	455.81
310.26	454.81
310.49	437.81
310.72	454.81
310.949	468.81
311.179	476.81
311.409	445.81
311.639	442.81
311.868	452.81
312.098	461.81
312.328	451.81
312.557	476.81
312.787	472.81
313.017	488.81
313.246	477.81
313.476	463.81
313.706	452.81
313.935	470.81
314.165	476.81
314.394	498.81
314.624	488.81
314.853	481.81
315.083	482.81
315.312	475.81
315.542	472.81
315.771	452.81
316.001	465.81
316.23	474.81
316.46	455.81
316.689	469.81
316.919	481.81
317.148	457.81
317.377	479.81
317.607	459.81
317.836	439.81
318.065	477.81
318.295	452.81
318.524	481.81
318.753	465.81
318.983	465.81
319.212	465.81
319.441	456.81
319.67	488.81
319.9	493.81
320.129	480.81
320.358	455.81
320.587	492.81
320.816	483.81
321.046	480.81
321.275	485.81
321.504	492.81
321.733	509.81
321.962	479.81
322.191	486.81
322.42	499.81
322.649	495.81
322.878	500.81
323.108	538.81
323.337	534.81
323.566	515.81
323.795	552.81
324.024	585.81
324.253	668.81
324.482	859.81
324.71	1256.81
324.939	1793.81
325.168	1595.81
325.397	913.81
325.626	673.81
325.855	609.81
326.084	587.81
326.313	570.81
326.542	580.81
326.77	598.81
326.999	657.81
327.228	835.81
327.457	1203.81
327.686	1452.81
327.914	980.81
328.143	716.81
328.372	666.81
328.6	630.81
328.829	606.81
329.058	603.81
329.287	625.81
329.515	609.81
329.744	559.81
329.972	593.81
330.201	587.81
330.43	634.81
330.658	647.81
330.887	648.81
331.115	639.81
331.344	612.81
331.572	602.81
331.801	580.81
332.03	576.81
332.258	563.81
332.486	582.81
332.715	582.81
332.943	604.81
333.172	632.81
333.4	649.81
333.629	643.81
333.857	640.81
334.085	645.81
334.314	659.81
334.542	684.81
334.771	701.81
334.999	644.81
335.227	607.81
335.455	609.81
335.684	614.81
335.912	588.81
336.14	589.81
336.369	586.81
336.597	594.81
336.825	597.81
337.053	578.81
337.281	569.81
337.51	583.81
337.738	583.81
337.966	568.81
338.194	573.81
338.422	550.81
338.65	593.81
338.878	553.81
339.106	558.81
339.334	556.81
339.562	575.81
339.79	556.81
340.018	561.81
340.246	536.81
340.474	537.81
340.702	564.81
340.93	563.81
341.158	538.81
341.386	558.81
341.614	550.81
341.842	524.81
342.07	541.81
342.298	514.81
342.526	514.81
342.754	530.81
342.981	522.81
343.209	530.81
343.437	548.81
343.665	579.81
343.893	605.81
344.12	613.81
344.348	611.81
344.576	611.81
344.804	562.81
345.031	563.81
345.259	574.81
345.487	565.81
345.714	548.81
345.942	539.81
346.17	549.81
346.397	515.81
346.625	514.81
346.853	518.81
347.08	516.81
347.308	516.81
347.535	524.81
347.763	526.81
347.99	535.81
348.218	525.81
348.445	529.81
348.673	543.81
348.9	529.81
349.128	535.81
349.355	490.81
349.583	511.81
349.81	505.81
350.037	511.81
350.265	491.81
350.492	515.81
350.72	508.81
350.947	512.81
351.174	498.81
351.402	519.81
351.629	524.81
351.856	495.81
352.083	513.81
352.311	522.81
352.538	503.81
352.765	524.81
352.992	536.81
353.22	517.81
353.447	484.81
353.674	528.81
353.901	495.81
354.128	489.81
354.355	503.81
354.583	488.81
354.81	491.81
355.037	490.81
355.264	505.81
355.491	490.81
355.718	497.81
355.945	503.81
356.172	485.81
356.399	490.81
356.626	498.81
356.853	502.81
357.08	511.81
357.307	493.81
357.534	511.81
357.761	485.81
357.988	511.81
358.215	497.81
358.441	500.81
358.668	500.81
358.895	489.81
359.122	513.81
359.349	502.81
359.576	529.81
359.802	532.81
360.029	544.81
360.256	548.81
360.483	541.81
360.709	516.81
360.936	539.81
361.163	523.81
361.39	520.81
361.616	521.81
361.843	523.81
362.07	500.81
362.296	511.81
362.523	525.81
362.749	524.81
362.976	514.81
363.203	524.81
363.429	482.81
363.656	514.81
363.882	499.81
364.109	512.81
364.335	511.81
364.562	498.81
364.788	511.81
365.015	520.81
365.241	511.81
365.468	499.81
365.694	491.81
365.92	504.81
366.147	499.81
366.373	486.81
366.599	507.81
366.826	507.81
367.052	509.81
367.278	515.81
367.505	513.81
367.731	500.81
367.957	502.81
368.184	490.81
368.41	509.81
368.636	520.81
368.862	539.81
369.089	532.81
369.315	526.81
369.541	522.81
369.767	521.81
369.993	529.81
370.219	525.81
370.445	511.81
370.672	518.81
370.898	526.81
371.124	519.81
371.35	520.81
371.576	513.81
371.802	519.81
372.028	528.81
372.254	518.81
372.48	536.81
372.706	533.81
372.932	560.81
373.158	534.81
373.384	550.81
373.61	509.81
373.835	537.81
374.061	529.81
374.287	550.81
374.513	526.81
374.739	539.81
374.965	549.81
375.191	546.81
375.416	552.81
375.642	551.81
375.868	531.81
376.094	558.81
376.319	555.81
376.545	538.81
376.771	538.81
376.997	509.81
377.222	516.81
377.448	511.81
377.674	514.81
377.899	517.81
378.125	533.81
378.35	518.81
378.576	506.81
378.802	519.81
379.027	528.81
379.253	535.81
379.478	526.81
379.704	518.81
379.929	517.81
380.155	543.81
380.38	530.81
380.606	533.81
380.831	525.81
381.057	511.81
381.282	524.81
381.507	525.81
381.733	545.81
381.958	513.81
382.184	508.81
382.409	537.81
382.634	518.81
382.86	530.81
383.085	568.81
383.31	549.81
383.535	567.81
383.761	561.81
383.986	574.81
384.211	581.81
384.436	595.81
384.662	572.81
384.887	581.81
385.112	579.81
385.337	603.81
385.562	608.81
385.787	584.81
386.013	615.81
386.238	599.81
386.463	611.81
386.688	591.81
386.913	610.81
387.138	593.81
387.363	593.81
387.588	606.81
387.813	611.81
388.038	597.81
388.263	612.81
388.488	618.81
388.713	631.81
388.938	609.81
389.163	611.81
389.387	600.81
389.612	603.81
389.837	605.81
390.062	587.81
390.287	597.81
390.512	577.81
390.736	604.81
390.961	581.81
391.186	623.81
391.411	612.81
391.636	643.81
391.86	671.81
392.085	657.81
392.31	655.81
392.534	633.81
392.759	625.81
392.984	621.81
393.208	625.81
393.433	629.81
393.658	646.81
393.882	610.81
394.107	615.81
394.331	652.81
394.556	635.81
394.78	605.81
395.005	645.81
395.229	603.81
395.454	647.81
395.678	657.81
395.903	657.81
396.127	687.81
396.352	683.81
396.576	652.81
396.801	638.81
397.025	635.81
397.249	668.81
397.474	646.81
397.698	661.81
397.922	684.81
398.147	687.81
398.371	675.81
398.595	702.81
398.82	719.81
399.044	744.81
399.268	786.81
399.492	866.81
399.717	953.81
399.941	977.81
400.165	938.81
400.389	896.81
400.613	856.81
400.837	808.81
401.062	755.81
401.286	723.81
401.51	739.81
401.734	716.81
401.958	732.81
402.182	745.81
402.406	727.81
402.63	766.81
402.854	749.81
403.078	763.81
403.302	740.81
403.526	779.81
403.75	788.81
403.974	797.81
404.198	776.81
404.422	800.81
404.645	799.81
404.869	781.81
405.093	816.81
405.317	852.81
405.541	892.81
405.765	814.81
405.988	807.81
406.212	816.81
406.436	819.81
406.66	821.81
406.883	788.81
407.107	871.81
407.331	907.81
407.555	983.81
407.778	979.81
408.002	921.81
408.226	851.81
408.449	846.81
408.673	815.81
408.896	844.81
409.12	889.81
409.344	829.81
409.567	761.81
409.791	799.81
410.014	772.81
410.238	765.81
410.461	772.81
410.685	744.81
410.908	770.81
411.132	799.81
411.355	823.81
411.578	795.81
411.802	726.81
412.025	752.81
412.249	756.81
412.472	766.81
412.695	819.81
412.919	802.81
413.142	765.81
413.365	741.81
413.589	754.81
413.812	711.81
414.035	721.81
414.258	709.81
414.482	714.81
414.705	715.81
414.928	724.81
415.151	732.81
415.374	723.81
415.597	718.81
415.821	709.81
416.044	718.81
416.267	716.81
416.49	727.81
416.713	717.81
416.936	695.81
417.159	678.81
417.382	708.81
417.605	707.81
417.828	723.81
418.051	745.81
418.274	740.81
418.497	743.81
418.72	725.81
418.943	698.81
419.166	751.81
419.389	779.81
419.611	806.81
419.834	768.81
420.057	777.81
420.28	755.81
420.503	732.81
420.726	722.81
420.948	737.81
421.171	783.81
421.394	805.81
421.617	744.81
421.839	728.81
422.062	708.81
422.285	703.81
422.507	792.81
422.73	843.81
422.953	831.81
423.175	778.81
423.398	759.81
423.621	761.81
423.843	799.81
424.066	795.81
424.288	787.81
424.511	785.81
424.733	826.81
424.956	873.81
425.178	847.81
425.401	863.81
425.623	901.81
425.846	753.81
426.068	754.81
426.291	731.81
426.513	756.81
426.735	743.81
426.958	793.81
427.18	833.81
427.402	960.81
427.625	993.81
427.847	895.81
428.069	819.81
428.292	764.81
428.514	714.81
428.736	689.81
428.958	691.81
429.181	682.81
429.403	671.81
429.625	669.81
429.847	716.81
430.069	769.81
430.292	753.81
430.514	674.81
430.736	685.81
430.958	675.81
431.18	672.81
431.402	679.81
431.624	671.81
431.846	646.81
432.068	665.81
432.29	669.81
432.512	691.81
432.734	673.81
432.956	666.81
433.178	708.81
433.4	670.81
433.622	663.81
433.844	678.81
434.066	672.81
434.287	680.81
434.509	684.81
434.731	716.81
434.953	714.81
435.175	741.81
435.397	737.81
435.618	773.81
435.84	755.81
436.062	820.81
436.284	900.81
436.505	763.81
436.727	712.81
436.949	679.81
437.17	692.81
437.392	676.81
437.614	663.81
437.835	699.81
438.057	755.81
438.278	864.81
438.5	871.81
438.721	948.81
438.943	892.81
439.165	782.81
439.386	740.81
439.608	717.81
439.829	709.81
440.05	716.81
440.272	768.81
440.493	730.81
440.715	727.81
440.936	704.81
441.158	698.81
441.379	703.81
441.6	748.81
441.822	748.81
442.043	777.81
442.264	841.81
442.486	883.81
442.707	767.81
442.928	789.81
443.149	757.81
443.371	778.81
443.592	816.81
443.813	889.81
444.034	965.81
444.255	850.81
444.476	841.81
444.698	828.81
444.919	827.81
445.14	885.81
445.361	852.81
445.582	803.81
445.803	850.81
446.024	911.81
446.245	908.81
446.466	859.81
446.687	743.81
446.908	744.81
447.129	703.81
447.35	677.81
447.571	690.81
447.792	655.81
448.013	655.81
448.234	663.81
448.455	711.81
448.675	803.81
448.896	929.81
449.117	791.81
449.338	730.81
449.559	820.81
449.779	961.81
450	763.81
450.221	689.81
450.442	657.81
450.662	639.81
450.883	671.81
451.104	667.81
451.324	637.81
451.545	628.81
451.766	607.81
451.986	599.81
452.207	625.81
452.428	628.81
452.648	614.81
452.869	616.81
453.089	624.81
453.31	632.81
453.53	610.81
453.751	608.81
453.971	592.81
454.192	624.81
454.412	596.81
454.633	603.81
454.853	597.81
455.073	586.81
455.294	613.81
455.514	673.81
455.734	640.81
455.955	614.81
456.175	595.81
456.395	576.81
456.616	580.81
456.836	577.81
457.056	569.81
457.276	561.81
457.497	572.81
457.717	602.81
457.937	588.81
458.157	573.81
458.377	599.81
458.598	610.81
458.818	675.81
459.038	754.81
459.258	783.81
459.478	701.81
459.698	689.81
459.918	688.81
460.138	697.81
460.358	718.81
460.578	725.81
460.798	723.81
461.018	733.81
461.238	704.81
461.458	723.81
461.678	728.81
461.898	723.81
462.118	731.81
462.338	768.81
462.558	777.81
462.777	775.81
462.997	846.81
463.217	894.81
463.437	900.81
463.657	846.81
463.876	821.81
464.096	808.81
464.316	796.81
464.536	837.81
464.755	801.81
464.975	795.81
465.195	767.81
465.414	809.81
465.634	745.81
465.854	698.81
466.073	666.81
466.293	675.81
466.512	657.81
466.732	645.81
466.951	645.81
467.171	659.81
467.391	655.81
467.61	653.81
467.829	629.81
468.049	616.81
468.268	635.81
468.488	663.81
468.707	595.81
468.927	601.81
469.146	617.81
469.365	602.81
469.585	620.81
469.804	641.81
470.023	654.81
470.243	643.81
470.462	677.81
470.681	660.81
470.901	660.81
471.12	653.81
471.339	680.81
471.558	647.81
471.777	646.81
471.997	655.81
472.216	652.81
472.435	687.81
472.654	643.81
472.873	611.81
473.092	633.81
473.311	650.81
473.53	637.81
473.749	634.81
473.968	651.81
474.187	730.81
474.406	755.81
474.625	672.81
474.844	627.81
475.063	638.81
475.282	624.81
475.501	621.81
475.72	623.81
475.939	629.81
476.158	653.81
476.377	643.81
476.596	664.81
476.814	659.81
477.033	691.81
477.252	671.81
477.471	672.81
477.69	721.81
477.908	685.81
478.127	728.81
478.346	722.81
478.564	724.81
478.783	763.81
479.002	781.81
479.22	771.81
479.439	766.81
479.658	780.81
479.876	805.81
480.095	804.81
480.313	817.81
480.532	822.81
480.751	847.81
480.969	838.81
481.188	868.81
481.406	899.81
481.624	791.81
481.843	788.81
482.061	763.81
482.28	736.81
482.498	743.81
482.717	737.81
482.935	737.81
483.153	729.81
483.372	711.81
483.59	736.81
483.808	751.81
484.027	751.81
484.245	726.81
484.463	738.81
484.681	764.81
484.9	745.81
485.118	746.81
485.336	743.81
485.554	723.81
485.772	772.81
485.99	767.81
486.209	777.81
486.427	774.81
486.645	817.81
486.863	823.81
487.081	787.81
487.299	797.81
487.517	790.81
487.735	787.81
487.953	794.81
488.171	776.81
488.389	800.81
488.607	797.81
488.825	794.81
489.043	772.81
489.261	796.81
489.479	769.81
489.696	793.81
489.914	799.81
490.132	824.81
490.35	801.81
490.568	791.81
490.786	841.81
491.003	848.81
491.221	875.81
491.439	873.81
491.657	874.81
491.874	867.81
492.092	870.81
492.31	886.81
492.527	879.81
492.745	917.81
492.963	929.81
493.18	896.81
493.398	891.81
493.615	925.81
493.833	902.81
494.05	931.81
494.268	925.81
494.485	887.81
494.703	921.81
494.92	914.81
495.138	921.81
495.355	917.81
495.573	911.81
495.79	938.81
496.008	909.81
496.225	914.81
496.442	924.81
496.66	921.81
496.877	948.81
497.094	959.81
497.312	964.81
497.529	991.81
497.746	1001.81
497.963	1018.81
498.181	1059.81
498.398	1083.81
498.615	1115.81
498.832	1168.81
499.049	1213.81
499.267	1226.81
499.484	1351.81
499.701	1418.81
499.918	1543.81
500.135	1660.81
500.352	1811.81
500.569	1841.81
500.786	1835.81
501.003	1811.81
501.22	1681.81
501.437	1571.81
501.654	1425.81
501.871	1372.81
502.088	1301.81
502.305	1234.81
502.522	1156.81
502.739	1155.81
502.956	1071.81
503.172	1037.81
503.389	1035.81
503.606	1000.81
503.823	1015.81
504.04	978.81
504.256	985.81
504.473	992.81
504.69	998.81
504.907	998.81
505.123	941.81
505.34	930.81
505.557	896.81
505.773	873.81
505.99	895.81
506.207	879.81
506.423	868.81
506.64	835.81
506.856	832.81
507.073	836.81
507.289	837.81
507.506	827.81
507.722	824.81
507.939	867.81
508.155	832.81
508.372	800.81
508.588	799.81
508.805	789.81
509.021	830.81
509.238	845.81
509.454	797.81
509.67	819.81
509.887	787.81
510.103	796.81
510.319	787.81
510.536	870.81
510.752	1292.81
510.968	1109.81
511.184	818.81
511.401	771.81
511.617	796.81
511.833	757.81
512.049	751.81
512.265	786.81
512.481	745.81
512.698	794.81
512.914	746.81
513.13	747.81
513.346	763.81
513.562	771.81
513.778	764.81
513.994	752.81
514.21	764.81
514.426	821.81
514.642	776.81
514.858	825.81
515.074	863.81
515.29	937.81
515.506	1302.81
515.721	1167.81
515.937	871.81
516.153	852.81
516.369	852.81
516.585	850.81
516.801	845.81
517.016	863.81
517.232	865.81
517.448	892.81
517.664	946.81
517.879	931.81
518.095	907.81
518.311	911.81
518.527	873.81
518.742	861.81
518.958	854.81
519.173	817.81
519.389	821.81
519.605	807.81
519.82	781.81
520.036	789.81
520.251	803.81
520.467	807.81
520.682	799.81
520.898	793.81
521.113	770.81
521.329	817.81
521.544	883.81
521.76	1045.81
521.975	1519.81
522.19	1556.81
522.406	921.81
522.621	785.81
522.836	705.81
523.052	719.81
523.267	694.81
523.482	678.81
523.698	689.81
523.913	684.81
524.128	689.81
524.343	695.81
524.559	673.81
524.774	668.81
524.989	663.81
525.204	659.81
525.419	663.81
525.634	690.81
525.849	667.81
526.064	669.81
526.28	659.81
526.495	645.81
526.71	660.81
526.925	661.81
527.14	631.81
527.355	659.81
527.57	645.81
527.785	643.81
527.999	619.81
528.214	631.81
528.429	641.81
528.644	647.81
528.859	629.81
529.074	653.81
529.289	653.81
529.503	704.81
529.718	678.81
529.933	652.81
530.148	669.81
530.363	638.81
530.577	641.81
530.792	637.81
531.007	626.81
531.221	645.81
531.436	635.81
531.651	636.81
531.865	628.81
532.08	646.81
532.295	648.81
532.509	621.81
532.724	631.81
532.938	630.81
533.153	636.81
533.367	651.81
533.582	650.81
533.796	636.81
534.011	634.81
534.225	616.81
534.44	615.81
534.654	633.81
534.868	617.81
535.083	610.81
535.297	651.81
535.511	629.81
535.726	619.81
535.94	633.81
536.154	607.81
536.369	602.81
536.583	595.81
536.797	596.81
537.011	598.81
537.225	600.81
537.44	579.81
537.654	575.81
537.868	589.81
538.082	586.81
538.296	597.81
538.51	597.81
538.724	586.81
538.938	589.81
539.153	596.81
539.367	611.81
539.581	587.81
539.795	596.81
540.009	561.81
540.222	578.81
540.436	578.81
540.65	583.81
540.864	609.81
541.078	593.81
541.292	587.81
541.506	596.81
541.72	559.81
541.934	568.81
542.147	596.81
542.361	601.81
542.575	573.81
542.789	570.81
543.002	588.81
543.216	570.81
543.43	570.81
543.644	571.81
543.857	562.81
544.071	580.81
544.285	595.81
544.498	597.81
544.712	594.81
544.925	576.81
545.139	594.81
545.352	569.81
545.566	580.81
545.779	585.81
545.993	593.81
546.206	598.81
546.42	591.81
546.633	594.81
546.847	593.81
547.06	603.81
547.274	581.81
547.487	576.81
547.7	579.81
547.914	589.81
548.127	575.81
548.34	575.81
548.554	572.81
548.767	589.81
548.98	591.81
549.193	577.81
549.407	569.81
549.62	587.81
549.833	566.81
550.046	570.81
550.259	596.81
550.473	557.81
550.686	573.81
550.899	587.81
551.112	568.81
551.325	590.81
551.538	572.81
551.751	568.81
551.964	556.81
552.177	569.81
552.39	585.81
552.603	612.81
552.816	601.81
553.029	611.81
553.242	625.81
553.455	625.81
553.667	643.81
553.88	649.81
554.093	629.81
554.306	610.81
554.519	594.81
554.732	616.81
554.944	601.81
555.157	569.81
555.37	564.81
555.583	560.81
555.795	550.81
556.008	541.81
556.221	537.81
556.433	539.81
556.646	523.81
556.859	540.81
557.071	518.81
557.284	519.81
557.496	520.81
557.709	528.81
557.921	513.81
558.134	499.81
558.346	498.81
558.559	479.81
558.771	503.81
558.984	519.81
559.196	520.81
559.409	507.81
559.621	477.81
559.833	492.81
560.046	486.81
560.258	504.81
560.47	521.81
560.683	484.81
560.895	509.81
561.107	500.81
561.32	510.81
561.532	475.81
561.744	503.81
561.956	507.81
562.168	514.81
562.381	498.81
562.593	510.81
562.805	513.81
563.017	501.81
563.229	519.81
563.441	513.81
563.653	543.81
563.865	515.81
564.077	526.81
564.289	524.81
564.501	533.81
564.713	573.81
564.925	538.81
565.137	576.81
565.349	567.81
565.561	583.81
565.773	617.81
565.985	627.81
566.197	627.81
566.408	679.81
566.62	705.81
566.832	739.81
567.044	746.81
567.255	747.81
567.467	780.81
567.679	773.81
567.891	828.81
568.102	860.81
568.314	817.81
568.526	757.81
568.737	712.81
568.949	646.81
569.161	628.81
569.372	618.81
569.584	589.81
569.795	554.81
570.007	574.81
570.218	594.81
570.43	573.81
570.641	541.81
570.853	520.81
571.064	525.81
571.276	505.81
571.487	516.81
571.698	501.81
571.91	465.81
572.121	484.81
572.333	489.81
572.544	461.81
572.755	472.81
572.966	437.81
573.178	455.81
573.389	447.81
573.6	421.81
573.811	442.81
574.023	444.81
574.234	446.81
574.445	438.81
574.656	447.81
574.867	444.81
575.078	439.81
575.289	442.81
575.501	425.81
575.712	410.81
575.923	442.81
576.134	439.81
576.345	427.81
576.556	431.81
576.767	422.81
576.978	408.81
577.188	428.81
577.399	406.81
577.61	414.81
577.821	419.81
578.032	430.81
578.243	447.81
578.454	581.81
578.665	499.81
578.875	421.81
579.086	413.81
579.297	401.81
579.508	395.81
579.718	396.81
579.929	382.81
580.14	385.81
580.35	402.81
580.561	422.81
580.772	396.81
580.982	379.81
581.193	389.81
581.403	375.81
581.614	387.81
581.825	384.81
582.035	377.81
582.246	375.81
582.456	387.81
582.667	376.81
582.877	379.81
583.087	383.81
583.298	408.81
583.508	383.81
583.719	362.81
583.929	375.81
584.139	394.81
584.35	383.81
584.56	385.81
584.77	388.81
584.981	396.81
585.191	375.81
585.401	385.81
585.611	380.81
585.821	380.81
586.032	385.81
586.242	402.81
586.452	397.81
586.662	386.81
586.872	372.81
587.082	373.81
587.292	366.81
587.502	376.81
587.713	376.81
587.923	371.81
588.133	371.81
588.343	392.81
588.553	379.81
588.762	377.81
588.972	379.81
589.182	371.81
589.392	377.81
589.602	370.81
589.812	380.81
590.022	389.81
590.232	387.81
590.441	372.81
590.651	369.81
590.861	370.81
591.071	369.81
591.281	390.81
591.49	392.81
591.7	398.81
591.91	409.81
592.119	413.81
592.329	400.81
592.539	415.81
592.748	448.81
592.958	450.81
593.167	461.81
593.377	466.81
593.587	465.81
593.796	452.81
594.006	470.81
594.215	467.81
594.424	474.81
594.634	456.81
594.843	444.81
595.053	428.81
595.262	411.81
595.472	424.81
595.681	396.81
595.89	395.81
596.1	389.81
596.309	370.81
596.518	368.81
596.727	363.81
596.937	371.81
597.146	346.81
597.355	347.81
597.564	351.81
597.774	352.81
597.983	341.81
598.192	348.81
598.401	343.81
598.61	353.81
598.819	333.81
599.028	333.81
599.237	351.81
599.446	331.81
599.655	341.81
599.864	351.81
600.073	333.81
600.282	333.81
600.491	332.81
600.7	340.81
600.909	323.81
601.118	340.81
601.327	320.81
601.536	317.81
601.745	315.81
601.953	320.81
602.162	318.81
602.371	316.81
602.58	303.81
602.789	325.81
602.997	310.81
603.206	319.81
603.415	301.81
603.623	311.81
603.832	299.81
604.041	306.81
604.249	305.81
604.458	317.81
604.666	303.81
604.875	313.81
605.084	303.81
605.292	314.81
605.501	309.81
605.709	297.81
605.918	305.81
606.126	297.81
606.334	293.81
606.543	292.81
606.751	314.81
606.96	301.81
607.168	303.81
607.376	296.81
607.585	308.81
607.793	324.81
608.001	286.81
608.21	293.81
608.418	297.81
608.626	287.81
608.834	294.81
609.043	314.81
609.251	308.81
609.459	276.81
609.667	289.81
609.875	296.81
610.083	295.81
610.291	300.81
610.499	310.81
610.707	284.81
610.916	311.81
611.124	315.81
611.332	288.81
611.54	307.81
611.748	305.81
611.955	297.81
612.163	286.81
612.371	301.81
612.579	293.81
612.787	276.81
612.995	299.81
613.203	285.81
613.411	304.81
613.618	298.81
613.826	292.81
614.034	299.81
614.242	283.81
614.449	288.81
614.657	271.81
614.865	298.81
615.072	284.81
615.28	293.81
615.488	309.81
615.695	292.81
615.903	275.81
616.111	284.81
616.318	296.81
616.526	283.81
616.733	281.81
616.941	289.81
617.148	320.81
617.356	259.81
617.563	283.81
617.771	292.81
617.978	291.81
618.185	294.81
618.393	295.81
618.6	294.81
618.807	277.81
619.015	296.81
619.222	287.81
619.429	291.81
619.637	287.81
619.844	285.81
620.051	283.81
620.258	280.81
620.466	268.81
620.673	263.81
620.88	257.81
621.087	264.81
621.294	265.81
621.501	276.81
621.708	286.81
621.915	275.81
622.122	272.81
622.329	257.81
622.536	265.81
622.743	274.81
622.95	281.81
623.157	265.81
623.364	259.81
623.571	259.81
623.778	265.81
623.985	282.81
624.192	253.81
624.399	245.81
624.606	256.81
624.812	245.81
625.019	255.81
625.226	250.81
625.433	235.81
625.639	255.81
625.846	232.81
626.053	235.81
626.259	259.81
626.466	257.81
626.673	256.81
626.879	243.81
627.086	256.81
627.293	263.81
627.499	245.81
627.706	259.81
627.912	227.81
628.119	249.81
628.325	233.81
628.532	249.81
628.738	257.81
628.945	251.81
629.151	255.81
629.357	233.81
629.564	249.81
629.77	236.81
629.976	224.81
630.183	246.81
630.389	230.81
630.595	234.81
630.802	234.81
631.008	222.81
631.214	228.81
631.42	233.81
631.627	238.81
631.833	225.81
632.039	232.81
632.245	225.81
632.451	249.81
632.657	220.81
632.863	242.81
633.069	211.81
633.275	239.81
633.481	212.81
633.688	205.81
633.893	220.81
634.099	230.81
634.305	223.81
634.511	219.81
634.717	197.81
634.923	225.81
635.129	220.81
635.335	224.81
635.541	224.81
635.747	221.81
635.952	216.81
636.158	209.81
636.364	225.81
636.57	223.81
636.775	217.81
636.981	213.81
637.187	222.81
637.392	228.81
637.598	216.81
637.804	222.81
638.009	221.81
638.215	215.81
638.421	215.81
638.626	209.81
638.832	201.81
639.037	198.81
639.243	198.81
639.448	226.81
639.654	200.81
639.859	214.81
640.065	197.81
640.27	224.81
640.475	214.81
640.681	202.81
640.886	209.81
641.091	205.81
641.297	198.81
641.502	199.81
641.707	194.81
641.913	193.81
642.118	203.81
642.323	209.81
642.528	211.81
642.733	205.81
642.939	202.81
643.144	195.81
643.349	207.81
643.554	208.81
643.759	192.81
643.964	183.81
644.169	204.81
644.374	197.81
644.579	188.81
644.784	184.81
644.989	175.81
645.194	186.81
645.399	182.81
645.604	201.81
645.809	187.81
646.014	187.81
646.219	215.81
646.423	189.81
646.628	196.81
646.833	198.81
647.038	198.81
647.243	210.81
647.447	181.81
647.652	195.81
647.857	198.81
648.062	207.81
648.266	214.81
648.471	198.81
648.676	221.81
648.88	215.81
649.085	201.81
649.289	202.81
649.494	183.81
649.698	221.81
649.903	212.81
650.107	192.81
650.312	191.81
650.516	188.81
650.721	183.81
650.925	175.81
651.13	174.81
651.334	183.81
651.539	189.81
651.743	162.81
651.947	164.81
652.152	164.81
652.356	166.81
652.56	167.81
652.764	162.81
652.969	155.81
653.173	163.81
653.377	161.81
653.581	159.81
653.785	162.81
653.99	146.81
654.194	147.81
654.398	152.81
654.602	157.81
654.806	167.81
655.01	163.81
655.214	153.81
655.418	149.81
655.622	151.81
655.826	142.81
656.03	160.81
656.234	158.81
656.438	151.81
656.642	155.81
656.846	154.81
657.049	147.81
657.253	130.81
657.457	145.81
657.661	141.81
657.865	135.81
658.068	128.81
658.272	103.81
658.476	115.81
658.68	120.81
658.883	115.81
659.087	100.81
659.291	95.81
659.494	96.81
659.698	97.81
659.901	108.81
660.105	102.81
660.309	98.81
660.512	100.81
660.716	94.81
660.919	114.81
661.123	97.81
661.326	99.81
661.53	82.81
661.733	96.81
661.936	94.81
662.14	94.81
662.343	88.81
662.546	82.81
662.75	85.81
662.953	90.81
663.156	77.81
663.36	87.81
663.563	84.81
663.766	87.81
663.969	89.81
664.173	91.81
664.376	87.81
664.579	71.81
664.782	77.81
664.985	79.81
665.188	75.81
665.391	74.81
665.594	84.81
665.797	78.81
666	75.81
666.203	77.81
666.406	92.81
666.609	87.81
666.812	71.81
667.015	60.81
667.218	89.81
667.421	73.81
667.624	70.81
667.827	92.81
668.03	75.81
668.232	82.81
668.435	83.81
668.638	71.81
668.841	77.81
669.043	86.81
669.246	77.81
669.449	89.81
669.651	77.81
669.854	92.81
670.057	87.81
670.259	76.81
670.462	83.81
670.665	60.81
670.867	85.81
671.07	79.81
671.272	77.81
671.475	75.81
671.677	68.81
671.88	74.81
672.082	87.81
672.284	88.81
672.487	72.81
672.689	77.81
672.892	91.81
