Data from 1963.PennyLincolnUp.Lamp.En5.5.200Scan.071719.P1._HRD10591_14-00-27-064.txt Node
Date: Thu Jul 18 14:00:27 EDT 2019
User: cochatt
Spectrometer: HR+D1059
Trigger mode: 1
Integration Time (sec): 1.000000E-1
Scans to average: 1
Electric dark correction enabled: true
Nonlinearity correction enabled: false
Boxcar width: 0
XAxis mode: Wavelengths
Number of Pixels in Spectrum: 2048
>>>>>Begin Spectral Data<<<<<
223.165	8.06
223.4	8.06
223.635	8.06
223.869	-21.94
224.104	-15.94
224.338	-7.94
224.573	-16.94
224.808	-17.94
225.042	5.06
225.277	-0.94
225.511	-1.94
225.746	-4.94
225.98	0.06
226.215	6.06
226.449	18.06
226.683	11.06
226.918	15.06
227.152	25.06
227.387	24.06
227.621	32.06
227.856	53.06
228.09	43.06
228.324	47.06
228.559	48.06
228.793	64.06
229.027	107.06
229.262	109.06
229.496	111.06
229.73	123.06
229.964	148.06
230.199	134.06
230.433	123.06
230.667	117.06
230.901	128.06
231.136	116.06
231.37	109.06
231.604	116.06
231.838	122.06
232.072	116.06
232.306	109.06
232.541	123.06
232.775	123.06
233.009	136.06
233.243	130.06
233.477	120.06
233.711	132.06
233.945	124.06
234.179	131.06
234.413	125.06
234.647	112.06
234.881	123.06
235.115	119.06
235.349	125.06
235.583	129.06
235.817	126.06
236.051	127.06
236.285	142.06
236.519	136.06
236.753	139.06
236.987	152.06
237.221	177.06
237.455	197.06
237.689	174.06
237.922	139.06
238.156	147.06
238.39	153.06
238.624	142.06
238.858	130.06
239.091	145.06
239.325	125.06
239.559	132.06
239.793	147.06
240.027	147.06
240.26	152.06
240.494	145.06
240.728	159.06
240.961	161.06
241.195	158.06
241.429	155.06
241.662	153.06
241.896	157.06
242.13	153.06
242.363	150.06
242.597	151.06
242.83	155.06
243.064	156.06
243.298	172.06
243.531	154.06
243.765	138.06
243.998	154.06
244.232	155.06
244.465	158.06
244.699	155.06
244.932	172.06
245.166	140.06
245.399	158.06
245.633	160.06
245.866	162.06
246.099	170.06
246.333	167.06
246.566	162.06
246.8	176.06
247.033	167.06
247.266	188.06
247.5	186.06
247.733	196.06
247.966	182.06
248.2	183.06
248.433	175.06
248.666	190.06
248.899	201.06
249.133	225.06
249.366	210.06
249.599	213.06
249.832	181.06
250.066	210.06
250.299	207.06
250.532	219.06
250.765	232.06
250.998	226.06
251.231	233.06
251.465	226.06
251.698	231.06
251.931	218.06
252.164	205.06
252.397	215.06
252.63	225.06
252.863	223.06
253.096	230.06
253.329	248.06
253.562	231.06
253.795	243.06
254.028	233.06
254.261	232.06
254.494	247.06
254.727	257.06
254.96	288.06
255.193	263.06
255.426	245.06
255.659	249.06
255.892	245.06
256.124	253.06
256.357	266.06
256.59	243.06
256.823	216.06
257.056	249.06
257.289	228.06
257.521	233.06
257.754	232.06
257.987	240.06
258.22	233.06
258.452	240.06
258.685	229.06
258.918	236.06
259.151	234.06
259.383	243.06
259.616	225.06
259.849	251.06
260.081	265.06
260.314	288.06
260.547	282.06
260.779	266.06
261.012	253.06
261.244	258.06
261.477	252.06
261.71	250.06
261.942	247.06
262.175	252.06
262.407	260.06
262.64	255.06
262.872	247.06
263.105	253.06
263.337	249.06
263.57	243.06
263.802	241.06
264.035	240.06
264.267	235.06
264.499	248.06
264.732	255.06
264.964	251.06
265.197	244.06
265.429	241.06
265.661	244.06
265.894	265.06
266.126	261.06
266.358	260.06
266.591	258.06
266.823	273.06
267.055	265.06
267.287	269.06
267.52	258.06
267.752	263.06
267.984	259.06
268.216	284.06
268.448	259.06
268.681	282.06
268.913	287.06
269.145	290.06
269.377	288.06
269.609	311.06
269.841	306.06
270.073	300.06
270.306	320.06
270.538	320.06
270.77	334.06
271.002	329.06
271.234	315.06
271.466	331.06
271.698	336.06
271.93	352.06
272.162	354.06
272.394	334.06
272.626	335.06
272.858	320.06
273.09	310.06
273.322	309.06
273.553	313.06
273.785	314.06
274.017	322.06
274.249	304.06
274.481	300.06
274.713	310.06
274.945	301.06
275.176	307.06
275.408	313.06
275.64	316.06
275.872	311.06
276.104	329.06
276.335	319.06
276.567	314.06
276.799	340.06
277.031	343.06
277.262	365.06
277.494	344.06
277.726	324.06
277.957	323.06
278.189	330.06
278.421	325.06
278.652	307.06
278.884	320.06
279.115	297.06
279.347	323.06
279.579	307.06
279.81	310.06
280.042	317.06
280.273	319.06
280.505	329.06
280.736	316.06
280.968	328.06
281.199	308.06
281.431	328.06
281.662	330.06
281.894	309.06
282.125	323.06
282.356	349.06
282.588	340.06
282.819	351.06
283.051	331.06
283.282	333.06
283.513	349.06
283.745	349.06
283.976	340.06
284.207	341.06
284.439	326.06
284.67	325.06
284.901	339.06
285.132	343.06
285.364	362.06
285.595	363.06
285.826	338.06
286.057	351.06
286.288	367.06
286.52	356.06
286.751	343.06
286.982	351.06
287.213	337.06
287.444	345.06
287.675	354.06
287.906	363.06
288.138	363.06
288.369	386.06
288.6	355.06
288.831	347.06
289.062	368.06
289.293	359.06
289.524	376.06
289.755	371.06
289.986	353.06
290.217	359.06
290.448	365.06
290.679	364.06
290.91	365.06
291.141	360.06
291.371	356.06
291.602	363.06
291.833	380.06
292.064	351.06
292.295	369.06
292.526	357.06
292.757	375.06
292.987	342.06
293.218	367.06
293.449	380.06
293.68	366.06
293.91	382.06
294.141	379.06
294.372	379.06
294.603	387.06
294.833	361.06
295.064	337.06
295.295	375.06
295.525	401.06
295.756	374.06
295.987	387.06
296.217	413.06
296.448	401.06
296.679	411.06
296.909	398.06
297.14	387.06
297.37	391.06
297.601	386.06
297.831	356.06
298.062	369.06
298.292	379.06
298.523	383.06
298.753	413.06
298.984	400.06
299.214	385.06
299.445	397.06
299.675	394.06
299.905	401.06
300.136	417.06
300.366	394.06
300.597	385.06
300.827	416.06
301.057	397.06
301.288	447.06
301.518	418.06
301.748	411.06
301.979	415.06
302.209	415.06
302.439	405.06
302.669	425.06
302.9	423.06
303.13	413.06
303.36	409.06
303.59	442.06
303.82	430.06
304.051	437.06
304.281	418.06
304.511	418.06
304.741	442.06
304.971	412.06
305.201	411.06
305.431	420.06
305.661	431.06
305.891	423.06
306.121	406.06
306.352	423.06
306.582	426.06
306.812	409.06
307.042	416.06
307.272	413.06
307.502	423.06
307.731	439.06
307.961	426.06
308.191	415.06
308.421	416.06
308.651	437.06
308.881	411.06
309.111	405.06
309.341	443.06
309.571	446.06
309.8	425.06
310.03	423.06
310.26	439.06
310.49	445.06
310.72	456.06
310.949	468.06
311.179	462.06
311.409	445.06
311.639	457.06
311.868	453.06
312.098	452.06
312.328	453.06
312.557	464.06
312.787	475.06
313.017	487.06
313.246	481.06
313.476	451.06
313.706	454.06
313.935	471.06
314.165	466.06
314.394	495.06
314.624	475.06
314.853	457.06
315.083	466.06
315.312	467.06
315.542	447.06
315.771	458.06
316.001	456.06
316.23	459.06
316.46	428.06
316.689	472.06
316.919	464.06
317.148	472.06
317.377	489.06
317.607	463.06
317.836	475.06
318.065	450.06
318.295	484.06
318.524	465.06
318.753	448.06
318.983	449.06
319.212	444.06
319.441	463.06
319.67	473.06
319.9	471.06
320.129	464.06
320.358	470.06
320.587	475.06
320.816	453.06
321.046	481.06
321.275	485.06
321.504	467.06
321.733	485.06
321.962	485.06
322.191	491.06
322.42	504.06
322.649	505.06
322.878	532.06
323.108	509.06
323.337	531.06
323.566	543.06
323.795	584.06
324.024	563.06
324.253	653.06
324.482	866.06
324.71	1280.06
324.939	1775.06
325.168	1592.06
325.397	871.06
325.626	687.06
325.855	572.06
326.084	551.06
326.313	563.06
326.542	585.06
326.77	595.06
326.999	648.06
327.228	799.06
327.457	1187.06
327.686	1432.06
327.914	993.06
328.143	714.06
328.372	653.06
328.6	625.06
328.829	601.06
329.058	623.06
329.287	641.06
329.515	604.06
329.744	567.06
329.972	552.06
330.201	603.06
330.43	647.06
330.658	634.06
330.887	657.06
331.115	642.06
331.344	582.06
331.572	579.06
331.801	588.06
332.03	589.06
332.258	602.06
332.486	585.06
332.715	570.06
332.943	604.06
333.172	598.06
333.4	609.06
333.629	648.06
333.857	637.06
334.085	634.06
334.314	643.06
334.542	681.06
334.771	680.06
334.999	661.06
335.227	653.06
335.455	633.06
335.684	613.06
335.912	593.06
336.14	567.06
336.369	606.06
336.597	583.06
336.825	567.06
337.053	582.06
337.281	556.06
337.51	545.06
337.738	577.06
337.966	569.06
338.194	561.06
338.422	555.06
338.65	550.06
338.878	576.06
339.106	562.06
339.334	560.06
339.562	552.06
339.79	565.06
340.018	541.06
340.246	540.06
340.474	548.06
340.702	584.06
340.93	538.06
341.158	536.06
341.386	540.06
341.614	549.06
341.842	524.06
342.07	542.06
342.298	537.06
342.526	527.06
342.754	536.06
342.981	523.06
343.209	532.06
343.437	545.06
343.665	559.06
343.893	590.06
344.12	604.06
344.348	618.06
344.576	576.06
344.804	577.06
345.031	577.06
345.259	549.06
345.487	528.06
345.714	534.06
345.942	537.06
346.17	530.06
346.397	541.06
346.625	515.06
346.853	543.06
347.08	517.06
347.308	501.06
347.535	519.06
347.763	513.06
347.99	529.06
348.218	515.06
348.445	509.06
348.673	512.06
348.9	519.06
349.128	517.06
349.355	529.06
349.583	499.06
349.81	500.06
350.037	521.06
350.265	499.06
350.492	511.06
350.72	500.06
350.947	505.06
351.174	520.06
351.402	552.06
351.629	497.06
351.856	503.06
352.083	526.06
352.311	509.06
352.538	505.06
352.765	513.06
352.992	510.06
353.22	502.06
353.447	501.06
353.674	513.06
353.901	485.06
354.128	487.06
354.355	489.06
354.583	480.06
354.81	495.06
355.037	485.06
355.264	500.06
355.491	478.06
355.718	502.06
355.945	493.06
356.172	483.06
356.399	482.06
356.626	485.06
356.853	497.06
357.08	486.06
357.307	482.06
357.534	500.06
357.761	491.06
357.988	521.06
358.215	487.06
358.441	496.06
358.668	491.06
358.895	480.06
359.122	498.06
359.349	519.06
359.576	519.06
359.802	523.06
360.029	516.06
360.256	546.06
360.483	530.06
360.709	510.06
360.936	507.06
361.163	513.06
361.39	508.06
361.616	536.06
361.843	548.06
362.07	511.06
362.296	536.06
362.523	509.06
362.749	521.06
362.976	500.06
363.203	497.06
363.429	511.06
363.656	517.06
363.882	506.06
364.109	521.06
364.335	473.06
364.562	508.06
364.788	484.06
365.015	499.06
365.241	486.06
365.468	511.06
365.694	504.06
365.92	507.06
366.147	486.06
366.373	488.06
366.599	513.06
366.826	501.06
367.052	517.06
367.278	492.06
367.505	503.06
367.731	531.06
367.957	505.06
368.184	520.06
368.41	511.06
368.636	529.06
368.862	524.06
369.089	545.06
369.315	536.06
369.541	509.06
369.767	500.06
369.993	512.06
370.219	487.06
370.445	525.06
370.672	509.06
370.898	523.06
371.124	517.06
371.35	531.06
371.576	517.06
371.802	514.06
372.028	513.06
372.254	531.06
372.48	533.06
372.706	534.06
372.932	529.06
373.158	524.06
373.384	541.06
373.61	514.06
373.835	513.06
374.061	536.06
374.287	527.06
374.513	541.06
374.739	536.06
374.965	553.06
375.191	549.06
375.416	556.06
375.642	556.06
375.868	552.06
376.094	531.06
376.319	497.06
376.545	538.06
376.771	525.06
376.997	517.06
377.222	527.06
377.448	521.06
377.674	521.06
377.899	543.06
378.125	522.06
378.35	522.06
378.576	532.06
378.802	511.06
379.027	514.06
379.253	527.06
379.478	526.06
379.704	517.06
379.929	523.06
380.155	545.06
380.38	503.06
380.606	519.06
380.831	511.06
381.057	537.06
381.282	540.06
381.507	513.06
381.733	526.06
381.958	523.06
382.184	527.06
382.409	545.06
382.634	549.06
382.86	527.06
383.085	548.06
383.31	549.06
383.535	563.06
383.761	545.06
383.986	583.06
384.211	586.06
384.436	577.06
384.662	606.06
384.887	591.06
385.112	580.06
385.337	584.06
385.562	593.06
385.787	620.06
386.013	599.06
386.238	625.06
386.463	605.06
386.688	600.06
386.913	592.06
387.138	589.06
387.363	598.06
387.588	595.06
387.813	606.06
388.038	578.06
388.263	603.06
388.488	616.06
388.713	612.06
388.938	603.06
389.163	582.06
389.387	598.06
389.612	571.06
389.837	585.06
390.062	594.06
390.287	584.06
390.512	568.06
390.736	587.06
390.961	587.06
391.186	625.06
391.411	638.06
391.636	651.06
391.86	641.06
392.085	647.06
392.31	646.06
392.534	647.06
392.759	624.06
392.984	607.06
393.208	623.06
393.433	617.06
393.658	641.06
393.882	611.06
394.107	629.06
394.331	653.06
394.556	609.06
394.78	635.06
395.005	639.06
395.229	615.06
395.454	640.06
395.678	654.06
395.903	642.06
396.127	694.06
396.352	673.06
396.576	651.06
396.801	632.06
397.025	623.06
397.249	630.06
397.474	668.06
397.698	675.06
397.922	671.06
398.147	696.06
398.371	703.06
398.595	696.06
398.82	714.06
399.044	737.06
399.268	789.06
399.492	891.06
399.717	967.06
399.941	966.06
400.165	925.06
400.389	866.06
400.613	818.06
400.837	791.06
401.062	735.06
401.286	735.06
401.51	728.06
401.734	710.06
401.958	724.06
402.182	721.06
402.406	744.06
402.63	760.06
402.854	770.06
403.078	755.06
403.302	794.06
403.526	791.06
403.75	791.06
403.974	787.06
404.198	775.06
404.422	806.06
404.645	797.06
404.869	797.06
405.093	815.06
405.317	842.06
405.541	885.06
405.765	823.06
405.988	779.06
406.212	809.06
406.436	829.06
406.66	821.06
406.883	811.06
407.107	874.06
407.331	893.06
407.555	1001.06
407.778	998.06
408.002	913.06
408.226	853.06
408.449	837.06
408.673	854.06
408.896	854.06
409.12	845.06
409.344	837.06
409.567	777.06
409.791	789.06
410.014	786.06
410.238	773.06
410.461	772.06
410.685	771.06
410.908	769.06
411.132	800.06
411.355	811.06
411.578	774.06
411.802	740.06
412.025	748.06
412.249	747.06
412.472	740.06
412.695	799.06
412.919	782.06
413.142	751.06
413.365	736.06
413.589	735.06
413.812	717.06
414.035	727.06
414.258	721.06
414.482	704.06
414.705	729.06
414.928	699.06
415.151	713.06
415.374	727.06
415.597	721.06
415.821	682.06
416.044	712.06
416.267	696.06
416.49	715.06
416.713	713.06
416.936	707.06
417.159	717.06
417.382	701.06
417.605	728.06
417.828	707.06
418.051	722.06
418.274	716.06
418.497	715.06
418.72	729.06
418.943	696.06
419.166	744.06
419.389	787.06
419.611	797.06
419.834	788.06
420.057	762.06
420.28	739.06
420.503	739.06
420.726	737.06
420.948	721.06
421.171	776.06
421.394	797.06
421.617	769.06
421.839	740.06
422.062	725.06
422.285	741.06
422.507	776.06
422.73	857.06
422.953	841.06
423.175	777.06
423.398	772.06
423.621	775.06
423.843	776.06
424.066	789.06
424.288	761.06
424.511	790.06
424.733	809.06
424.956	866.06
425.178	879.06
425.401	836.06
425.623	874.06
425.846	752.06
426.068	762.06
426.291	726.06
426.513	734.06
426.735	736.06
426.958	774.06
427.18	825.06
427.402	943.06
427.625	1029.06
427.847	906.06
428.069	801.06
428.292	748.06
428.514	706.06
428.736	711.06
428.958	691.06
429.181	668.06
429.403	672.06
429.625	671.06
429.847	700.06
430.069	755.06
430.292	763.06
430.514	687.06
430.736	678.06
430.958	677.06
431.18	645.06
431.402	663.06
431.624	639.06
431.846	653.06
432.068	676.06
432.29	671.06
432.512	645.06
432.734	689.06
432.956	678.06
433.178	668.06
433.4	684.06
433.622	697.06
433.844	671.06
434.066	650.06
434.287	671.06
434.509	677.06
434.731	697.06
434.953	714.06
435.175	724.06
435.397	738.06
435.618	746.06
435.84	740.06
436.062	833.06
436.284	868.06
436.505	749.06
436.727	741.06
436.949	699.06
437.17	681.06
437.392	683.06
437.614	680.06
437.835	684.06
438.057	779.06
438.278	886.06
438.5	846.06
438.721	915.06
438.943	924.06
439.165	747.06
439.386	726.06
439.608	715.06
439.829	710.06
440.05	712.06
440.272	773.06
440.493	734.06
440.715	701.06
440.936	694.06
441.158	699.06
441.379	730.06
441.6	739.06
441.822	752.06
442.043	793.06
442.264	845.06
442.486	864.06
442.707	783.06
442.928	771.06
443.149	760.06
443.371	783.06
443.592	821.06
443.813	897.06
444.034	951.06
444.255	869.06
444.476	804.06
444.698	830.06
444.919	839.06
445.14	896.06
445.361	845.06
445.582	799.06
445.803	849.06
446.024	881.06
446.245	890.06
446.466	834.06
446.687	758.06
446.908	706.06
447.129	685.06
447.35	681.06
447.571	660.06
447.792	679.06
448.013	649.06
448.234	671.06
448.455	694.06
448.675	800.06
448.896	906.06
449.117	785.06
449.338	749.06
449.559	849.06
449.779	959.06
450	775.06
450.221	676.06
450.442	648.06
450.662	635.06
450.883	661.06
451.104	645.06
451.324	643.06
451.545	616.06
451.766	629.06
451.986	593.06
452.207	618.06
452.428	618.06
452.648	609.06
452.869	607.06
453.089	613.06
453.31	621.06
453.53	629.06
453.751	590.06
453.971	600.06
454.192	621.06
454.412	594.06
454.633	603.06
454.853	600.06
455.073	614.06
455.294	601.06
455.514	651.06
455.734	661.06
455.955	596.06
456.175	564.06
456.395	581.06
456.616	560.06
456.836	591.06
457.056	582.06
457.276	561.06
457.497	589.06
457.717	581.06
457.937	585.06
458.157	581.06
458.377	602.06
458.598	628.06
458.818	671.06
459.038	730.06
459.258	772.06
459.478	701.06
459.698	670.06
459.918	691.06
460.138	703.06
460.358	717.06
460.578	708.06
460.798	714.06
461.018	742.06
461.238	715.06
461.458	715.06
461.678	717.06
461.898	733.06
462.118	740.06
462.338	763.06
462.558	785.06
462.777	791.06
462.997	845.06
463.217	865.06
463.437	895.06
463.657	838.06
463.876	797.06
464.096	815.06
464.316	807.06
464.536	806.06
464.755	788.06
464.975	786.06
465.195	799.06
465.414	842.06
465.634	757.06
465.854	716.06
466.073	667.06
466.293	682.06
466.512	650.06
466.732	658.06
466.951	627.06
467.171	612.06
467.391	655.06
467.61	639.06
467.829	616.06
468.049	653.06
468.268	629.06
468.488	615.06
468.707	617.06
468.927	599.06
469.146	617.06
469.365	603.06
469.585	601.06
469.804	658.06
470.023	655.06
470.243	666.06
470.462	657.06
470.681	670.06
470.901	665.06
471.12	653.06
471.339	662.06
471.558	663.06
471.777	636.06
471.997	641.06
472.216	632.06
472.435	662.06
472.654	643.06
472.873	627.06
473.092	618.06
473.311	637.06
473.53	631.06
473.749	632.06
473.968	642.06
474.187	731.06
474.406	728.06
474.625	665.06
474.844	655.06
475.063	637.06
475.282	610.06
475.501	649.06
475.72	663.06
475.939	647.06
476.158	651.06
476.377	649.06
476.596	608.06
476.814	673.06
477.033	687.06
477.252	662.06
477.471	684.06
477.69	712.06
477.908	734.06
478.127	722.06
478.346	732.06
478.564	727.06
478.783	755.06
479.002	762.06
479.22	751.06
479.439	754.06
479.658	753.06
479.876	792.06
480.095	804.06
480.313	818.06
480.532	828.06
480.751	833.06
480.969	834.06
481.188	864.06
481.406	840.06
481.624	796.06
481.843	780.06
482.061	739.06
482.28	721.06
482.498	729.06
482.717	739.06
482.935	728.06
483.153	710.06
483.372	745.06
483.59	730.06
483.808	746.06
484.027	733.06
484.245	749.06
484.463	741.06
484.681	754.06
484.9	761.06
485.118	769.06
485.336	744.06
485.554	772.06
485.772	791.06
485.99	813.06
486.209	754.06
486.427	799.06
486.645	779.06
486.863	780.06
487.081	793.06
487.299	793.06
487.517	765.06
487.735	763.06
487.953	803.06
488.171	781.06
488.389	759.06
488.607	791.06
488.825	785.06
489.043	801.06
489.261	781.06
489.479	802.06
489.696	789.06
489.914	791.06
490.132	821.06
490.35	795.06
490.568	796.06
490.786	829.06
491.003	844.06
491.221	844.06
491.439	866.06
491.657	861.06
491.874	884.06
492.092	888.06
492.31	884.06
492.527	890.06
492.745	877.06
492.963	903.06
493.18	891.06
493.398	900.06
493.615	891.06
493.833	907.06
494.05	892.06
494.268	915.06
494.485	892.06
494.703	908.06
494.92	922.06
495.138	944.06
495.355	919.06
495.573	923.06
495.79	933.06
496.008	914.06
496.225	901.06
496.442	903.06
496.66	939.06
496.877	930.06
497.094	932.06
497.312	947.06
497.529	947.06
497.746	980.06
497.963	1020.06
498.181	1052.06
498.398	1076.06
498.615	1085.06
498.832	1150.06
499.049	1201.06
499.267	1244.06
499.484	1323.06
499.701	1415.06
499.918	1506.06
500.135	1658.06
500.352	1807.06
500.569	1855.06
500.786	1870.06
501.003	1736.06
501.22	1659.06
501.437	1545.06
501.654	1399.06
501.871	1361.06
502.088	1314.06
502.305	1202.06
502.522	1162.06
502.739	1122.06
502.956	1109.06
503.172	1015.06
503.389	999.06
503.606	1001.06
503.823	1003.06
504.04	959.06
504.256	972.06
504.473	991.06
504.69	990.06
504.907	986.06
505.123	945.06
505.34	945.06
505.557	905.06
505.773	882.06
505.99	895.06
506.207	837.06
506.423	859.06
506.64	849.06
506.856	844.06
507.073	857.06
507.289	853.06
507.506	823.06
507.722	829.06
507.939	852.06
508.155	839.06
508.372	796.06
508.588	801.06
508.805	818.06
509.021	797.06
509.238	809.06
509.454	817.06
509.67	789.06
509.887	773.06
510.103	792.06
510.319	799.06
510.536	851.06
510.752	1263.06
510.968	1055.06
511.184	802.06
511.401	779.06
511.617	785.06
511.833	743.06
512.049	742.06
512.265	745.06
512.481	768.06
512.698	747.06
512.914	741.06
513.13	754.06
513.346	751.06
513.562	735.06
513.778	730.06
513.994	757.06
514.21	770.06
514.426	771.06
514.642	794.06
514.858	816.06
515.074	844.06
515.29	946.06
515.506	1271.06
515.721	1143.06
515.937	849.06
516.153	826.06
516.369	834.06
516.585	805.06
516.801	833.06
517.016	847.06
517.232	859.06
517.448	888.06
517.664	923.06
517.879	912.06
518.095	931.06
518.311	932.06
518.527	869.06
518.742	854.06
518.958	826.06
519.173	807.06
519.389	811.06
519.605	769.06
519.82	759.06
520.036	782.06
520.251	811.06
520.467	811.06
520.682	803.06
520.898	800.06
521.113	788.06
521.329	839.06
521.544	887.06
521.76	994.06
521.975	1493.06
522.19	1503.06
522.406	941.06
522.621	760.06
522.836	722.06
523.052	716.06
523.267	723.06
523.482	694.06
523.698	697.06
523.913	668.06
524.128	677.06
524.343	679.06
524.559	668.06
524.774	661.06
524.989	654.06
525.204	673.06
525.419	660.06
525.634	662.06
525.849	646.06
526.064	637.06
526.28	659.06
526.495	635.06
526.71	648.06
526.925	646.06
527.14	636.06
527.355	646.06
527.57	635.06
527.785	625.06
527.999	660.06
528.214	643.06
528.429	628.06
528.644	652.06
528.859	631.06
529.074	635.06
529.289	638.06
529.503	698.06
529.718	667.06
529.933	653.06
530.148	645.06
530.363	628.06
530.577	633.06
530.792	641.06
531.007	614.06
531.221	608.06
531.436	621.06
531.651	657.06
531.865	647.06
532.08	631.06
532.295	636.06
532.509	644.06
532.724	615.06
532.938	637.06
533.153	620.06
533.367	629.06
533.582	636.06
533.796	598.06
534.011	617.06
534.225	614.06
534.44	592.06
534.654	631.06
534.868	619.06
535.083	622.06
535.297	607.06
535.511	623.06
535.726	637.06
535.94	629.06
536.154	632.06
536.369	611.06
536.583	591.06
536.797	590.06
537.011	597.06
537.225	603.06
537.44	603.06
537.654	604.06
537.868	586.06
538.082	578.06
538.296	585.06
538.51	576.06
538.724	586.06
538.938	597.06
539.153	607.06
539.367	615.06
539.581	595.06
539.795	585.06
540.009	582.06
540.222	600.06
540.436	593.06
540.65	587.06
540.864	564.06
541.078	570.06
541.292	564.06
541.506	572.06
541.72	583.06
541.934	559.06
542.147	563.06
542.361	556.06
542.575	567.06
542.789	571.06
543.002	559.06
543.216	584.06
543.43	607.06
543.644	571.06
543.857	573.06
544.071	587.06
544.285	586.06
544.498	587.06
544.712	589.06
544.925	581.06
545.139	604.06
545.352	588.06
545.566	568.06
545.779	591.06
545.993	588.06
546.206	600.06
546.42	588.06
546.633	590.06
546.847	586.06
547.06	589.06
547.274	578.06
547.487	573.06
547.7	574.06
547.914	580.06
548.127	586.06
548.34	603.06
548.554	580.06
548.767	583.06
548.98	591.06
549.193	582.06
549.407	588.06
549.62	599.06
549.833	602.06
550.046	585.06
550.259	567.06
550.473	585.06
550.686	586.06
550.899	565.06
551.112	578.06
551.325	547.06
551.538	577.06
551.751	563.06
551.964	562.06
552.177	573.06
552.39	590.06
552.603	589.06
552.816	597.06
553.029	612.06
553.242	614.06
553.455	618.06
553.667	621.06
553.88	650.06
554.093	612.06
554.306	616.06
554.519	592.06
554.732	579.06
554.944	568.06
555.157	577.06
555.37	545.06
555.583	560.06
555.795	540.06
556.008	531.06
556.221	546.06
556.433	540.06
556.646	530.06
556.859	529.06
557.071	509.06
557.284	515.06
557.496	481.06
557.709	511.06
557.921	485.06
558.134	519.06
558.346	495.06
558.559	502.06
558.771	513.06
558.984	485.06
559.196	480.06
559.409	499.06
559.621	497.06
559.833	510.06
560.046	473.06
560.258	490.06
560.47	501.06
560.683	514.06
560.895	488.06
561.107	511.06
561.32	502.06
561.532	499.06
561.744	505.06
561.956	503.06
562.168	509.06
562.381	520.06
562.593	509.06
562.805	515.06
563.017	511.06
563.229	513.06
563.441	501.06
563.653	500.06
563.865	504.06
564.077	499.06
564.289	544.06
564.501	529.06
564.713	524.06
564.925	537.06
565.137	551.06
565.349	563.06
565.561	603.06
565.773	615.06
565.985	606.06
566.197	616.06
566.408	652.06
566.62	695.06
566.832	747.06
567.044	742.06
567.255	768.06
567.467	757.06
567.679	796.06
567.891	816.06
568.102	832.06
568.314	820.06
568.526	743.06
568.737	703.06
568.949	669.06
569.161	641.06
569.372	590.06
569.584	572.06
569.795	549.06
570.007	547.06
570.218	587.06
570.43	564.06
570.641	539.06
570.853	531.06
571.064	545.06
571.276	523.06
571.487	517.06
571.698	501.06
571.91	474.06
572.121	457.06
572.333	450.06
572.544	460.06
572.755	448.06
572.966	456.06
573.178	443.06
573.389	452.06
573.6	452.06
573.811	458.06
574.023	442.06
574.234	455.06
574.445	441.06
574.656	434.06
574.867	419.06
575.078	434.06
575.289	448.06
575.501	424.06
575.712	421.06
575.923	425.06
576.134	419.06
576.345	443.06
576.556	427.06
576.767	416.06
576.978	433.06
577.188	420.06
577.399	411.06
577.61	427.06
577.821	433.06
578.032	411.06
578.243	443.06
578.454	600.06
578.665	483.06
578.875	413.06
579.086	383.06
579.297	370.06
579.508	407.06
579.718	380.06
579.929	401.06
580.14	392.06
580.35	397.06
580.561	389.06
580.772	385.06
580.982	381.06
581.193	388.06
581.403	386.06
581.614	377.06
581.825	387.06
582.035	383.06
582.246	388.06
582.456	386.06
582.667	396.06
582.877	383.06
583.087	356.06
583.298	362.06
583.508	382.06
583.719	386.06
583.929	367.06
584.139	376.06
584.35	366.06
584.56	372.06
584.77	389.06
584.981	370.06
585.191	357.06
585.401	396.06
585.611	360.06
585.821	384.06
586.032	373.06
586.242	368.06
586.452	375.06
586.662	381.06
586.872	386.06
587.082	376.06
587.292	369.06
587.502	360.06
587.713	368.06
587.923	353.06
588.133	377.06
588.343	363.06
588.553	366.06
588.762	389.06
588.972	381.06
589.182	381.06
589.392	367.06
589.602	374.06
589.812	375.06
590.022	383.06
590.232	361.06
590.441	385.06
590.651	383.06
590.861	378.06
591.071	394.06
591.281	392.06
591.49	394.06
591.7	400.06
591.91	401.06
592.119	403.06
592.329	428.06
592.539	430.06
592.748	438.06
592.958	422.06
593.167	436.06
593.377	435.06
593.587	472.06
593.796	466.06
594.006	448.06
594.215	439.06
594.424	465.06
594.634	459.06
594.843	452.06
595.053	438.06
595.262	402.06
595.472	405.06
595.681	397.06
595.89	406.06
596.1	378.06
596.309	369.06
596.518	373.06
596.727	355.06
596.937	361.06
597.146	344.06
597.355	370.06
597.564	335.06
597.774	348.06
597.983	327.06
598.192	336.06
598.401	342.06
598.61	322.06
598.819	324.06
599.028	317.06
599.237	330.06
599.446	338.06
599.655	320.06
599.864	324.06
600.073	330.06
600.282	317.06
600.491	324.06
600.7	335.06
600.909	310.06
601.118	322.06
601.327	323.06
601.536	335.06
601.745	341.06
601.953	329.06
602.162	319.06
602.371	317.06
602.58	302.06
602.789	313.06
602.997	313.06
603.206	315.06
603.415	310.06
603.623	313.06
603.832	310.06
604.041	300.06
604.249	312.06
604.458	315.06
604.666	312.06
604.875	311.06
605.084	293.06
605.292	332.06
605.501	307.06
605.709	297.06
605.918	288.06
606.126	322.06
606.334	306.06
606.543	305.06
606.751	305.06
606.96	297.06
607.168	319.06
607.376	306.06
607.585	305.06
607.793	325.06
608.001	308.06
608.21	306.06
608.418	296.06
608.626	286.06
608.834	289.06
609.043	295.06
609.251	298.06
609.459	305.06
609.667	291.06
609.875	292.06
610.083	300.06
610.291	288.06
610.499	289.06
610.707	303.06
610.916	284.06
611.124	311.06
611.332	290.06
611.54	305.06
611.748	295.06
611.955	297.06
612.163	273.06
612.371	300.06
612.579	295.06
612.787	295.06
612.995	294.06
613.203	284.06
613.411	288.06
613.618	285.06
613.826	287.06
614.034	284.06
614.242	284.06
614.449	306.06
614.657	308.06
614.865	289.06
615.072	294.06
615.28	303.06
615.488	301.06
615.695	305.06
615.903	281.06
616.111	309.06
616.318	307.06
616.526	303.06
616.733	299.06
616.941	275.06
617.148	284.06
617.356	281.06
617.563	289.06
617.771	295.06
617.978	283.06
618.185	324.06
618.393	301.06
618.6	282.06
618.807	294.06
619.015	299.06
619.222	280.06
619.429	259.06
619.637	298.06
619.844	293.06
620.051	273.06
620.258	265.06
620.466	263.06
620.673	264.06
620.88	264.06
621.087	248.06
621.294	276.06
621.501	263.06
621.708	270.06
621.915	253.06
622.122	277.06
622.329	280.06
622.536	274.06
622.743	272.06
622.95	279.06
623.157	268.06
623.364	261.06
623.571	267.06
623.778	250.06
623.985	277.06
624.192	249.06
624.399	268.06
624.606	262.06
624.812	249.06
625.019	264.06
625.226	258.06
625.433	267.06
625.639	264.06
625.846	255.06
626.053	247.06
626.259	240.06
626.466	249.06
626.673	240.06
626.879	255.06
627.086	256.06
627.293	252.06
627.499	263.06
627.706	254.06
627.912	243.06
628.119	259.06
628.325	238.06
628.532	236.06
628.738	247.06
628.945	253.06
629.151	239.06
629.357	220.06
629.564	249.06
629.77	229.06
629.976	223.06
630.183	232.06
630.389	245.06
630.595	236.06
630.802	222.06
631.008	236.06
631.214	217.06
631.42	225.06
631.627	230.06
631.833	223.06
632.039	225.06
632.245	221.06
632.451	227.06
632.657	232.06
632.863	231.06
633.069	217.06
633.275	228.06
633.481	227.06
633.688	223.06
633.893	224.06
634.099	220.06
634.305	211.06
634.511	227.06
634.717	212.06
634.923	208.06
635.129	204.06
635.335	217.06
635.541	206.06
635.747	222.06
635.952	220.06
636.158	227.06
636.364	229.06
636.57	205.06
636.775	207.06
636.981	213.06
637.187	223.06
637.392	208.06
637.598	200.06
637.804	220.06
638.009	202.06
638.215	191.06
638.421	199.06
638.626	211.06
638.832	199.06
639.037	197.06
639.243	210.06
639.448	205.06
639.654	212.06
639.859	191.06
640.065	201.06
640.27	211.06
640.475	205.06
640.681	199.06
640.886	197.06
641.091	211.06
641.297	201.06
641.502	200.06
641.707	195.06
641.913	206.06
642.118	208.06
642.323	176.06
642.528	211.06
642.733	198.06
642.939	174.06
643.144	189.06
643.349	186.06
643.554	213.06
643.759	195.06
643.964	190.06
644.169	185.06
644.374	187.06
644.579	196.06
644.784	200.06
644.989	204.06
645.194	189.06
645.399	203.06
645.604	197.06
645.809	198.06
646.014	195.06
646.219	194.06
646.423	208.06
646.628	212.06
646.833	194.06
647.038	210.06
647.243	199.06
647.447	200.06
647.652	195.06
647.857	202.06
648.062	198.06
648.266	207.06
648.471	218.06
648.676	194.06
648.88	198.06
649.085	217.06
649.289	207.06
649.494	172.06
649.698	213.06
649.903	220.06
650.107	189.06
650.312	208.06
650.516	192.06
650.721	175.06
650.925	163.06
651.13	173.06
651.334	169.06
651.539	187.06
651.743	177.06
651.947	177.06
652.152	153.06
652.356	173.06
652.56	171.06
652.764	153.06
652.969	168.06
653.173	160.06
653.377	170.06
653.581	163.06
653.785	164.06
653.99	163.06
654.194	149.06
654.398	165.06
654.602	128.06
654.806	164.06
655.01	144.06
655.214	158.06
655.418	166.06
655.622	140.06
655.826	153.06
656.03	147.06
656.234	149.06
656.438	153.06
656.642	172.06
656.846	155.06
657.049	137.06
657.253	141.06
657.457	136.06
657.661	134.06
657.865	133.06
658.068	130.06
658.272	107.06
658.476	115.06
658.68	124.06
658.883	115.06
659.087	119.06
659.291	119.06
659.494	92.06
659.698	119.06
659.901	102.06
660.105	102.06
660.309	94.06
660.512	89.06
660.716	106.06
660.919	96.06
661.123	109.06
661.326	102.06
661.53	90.06
661.733	94.06
661.936	75.06
662.14	82.06
662.343	87.06
662.546	85.06
662.75	85.06
662.953	80.06
663.156	89.06
663.36	83.06
663.563	79.06
663.766	88.06
663.969	99.06
664.173	88.06
664.376	82.06
664.579	86.06
664.782	88.06
664.985	70.06
665.188	91.06
665.391	102.06
665.594	83.06
665.797	84.06
666	82.06
666.203	79.06
666.406	90.06
666.609	87.06
666.812	87.06
667.015	87.06
667.218	90.06
667.421	90.06
667.624	74.06
667.827	77.06
668.03	94.06
668.232	80.06
668.435	74.06
668.638	83.06
668.841	74.06
669.043	81.06
669.246	83.06
669.449	89.06
669.651	89.06
669.854	81.06
670.057	75.06
670.259	85.06
670.462	88.06
670.665	81.06
670.867	82.06
671.07	95.06
671.272	81.06
671.475	83.06
671.677	83.06
671.88	84.06
672.082	96.06
672.284	81.06
672.487	75.06
672.689	77.06
672.892	82.06
