Data from 1963.PennyLincolnUp.Lamp.En5.5.200Scan.071719.P1._HRD10591_13-58-59-063.txt Node
Date: Thu Jul 18 13:58:59 EDT 2019
User: cochatt
Spectrometer: HR+D1059
Trigger mode: 1
Integration Time (sec): 1.000000E-1
Scans to average: 1
Electric dark correction enabled: true
Nonlinearity correction enabled: false
Boxcar width: 0
XAxis mode: Wavelengths
Number of Pixels in Spectrum: 2048
>>>>>Begin Spectral Data<<<<<
223.165	-16.62
223.4	-16.62
223.635	-16.62
223.869	-24.62
224.104	-22.62
224.338	-11.62
224.573	-5.62
224.808	-16.62
225.042	-6.62
225.277	-8.62
225.511	-2.62
225.746	11.38
225.98	4.38
226.215	5.38
226.449	6.38
226.683	23.38
226.918	24.38
227.152	40.38
227.387	24.38
227.621	37.38
227.856	34.38
228.09	54.38
228.324	40.38
228.559	56.38
228.793	70.38
229.027	78.38
229.262	105.38
229.496	101.38
229.73	125.38
229.964	139.38
230.199	144.38
230.433	119.38
230.667	104.38
230.901	114.38
231.136	103.38
231.37	104.38
231.604	113.38
231.838	115.38
232.072	113.38
232.306	123.38
232.541	109.38
232.775	117.38
233.009	121.38
233.243	126.38
233.477	119.38
233.711	136.38
233.945	121.38
234.179	114.38
234.413	125.38
234.647	143.38
234.881	117.38
235.115	119.38
235.349	133.38
235.583	123.38
235.817	123.38
236.051	139.38
236.285	134.38
236.519	132.38
236.753	140.38
236.987	139.38
237.221	172.38
237.455	216.38
237.689	179.38
237.922	137.38
238.156	135.38
238.39	132.38
238.624	136.38
238.858	131.38
239.091	147.38
239.325	150.38
239.559	123.38
239.793	137.38
240.027	141.38
240.26	134.38
240.494	151.38
240.728	146.38
240.961	159.38
241.195	161.38
241.429	163.38
241.662	145.38
241.896	146.38
242.13	149.38
242.363	152.38
242.597	140.38
242.83	157.38
243.064	145.38
243.298	146.38
243.531	167.38
243.765	149.38
243.998	143.38
244.232	160.38
244.465	147.38
244.699	164.38
244.932	163.38
245.166	160.38
245.399	164.38
245.633	174.38
245.866	164.38
246.099	163.38
246.333	174.38
246.566	175.38
246.8	171.38
247.033	172.38
247.266	177.38
247.5	182.38
247.733	186.38
247.966	172.38
248.2	173.38
248.433	176.38
248.666	186.38
248.899	194.38
249.133	215.38
249.366	224.38
249.599	200.38
249.832	193.38
250.066	189.38
250.299	210.38
250.532	207.38
250.765	228.38
250.998	235.38
251.231	225.38
251.465	221.38
251.698	219.38
251.931	209.38
252.164	209.38
252.397	209.38
252.63	195.38
252.863	217.38
253.096	244.38
253.329	251.38
253.562	245.38
253.795	247.38
254.028	226.38
254.261	216.38
254.494	234.38
254.727	251.38
254.96	279.38
255.193	271.38
255.426	256.38
255.659	244.38
255.892	266.38
256.124	248.38
256.357	248.38
256.59	228.38
256.823	245.38
257.056	232.38
257.289	221.38
257.521	236.38
257.754	230.38
257.987	224.38
258.22	237.38
258.452	226.38
258.685	226.38
258.918	229.38
259.151	235.38
259.383	240.38
259.616	243.38
259.849	244.38
260.081	249.38
260.314	267.38
260.547	281.38
260.779	249.38
261.012	246.38
261.244	244.38
261.477	230.38
261.71	258.38
261.942	261.38
262.175	248.38
262.407	256.38
262.64	244.38
262.872	237.38
263.105	241.38
263.337	247.38
263.57	247.38
263.802	231.38
264.035	248.38
264.267	241.38
264.499	240.38
264.732	244.38
264.964	245.38
265.197	237.38
265.429	234.38
265.661	245.38
265.894	246.38
266.126	268.38
266.358	251.38
266.591	257.38
266.823	251.38
267.055	247.38
267.287	252.38
267.52	265.38
267.752	257.38
267.984	258.38
268.216	268.38
268.448	277.38
268.681	262.38
268.913	276.38
269.145	295.38
269.377	299.38
269.609	297.38
269.841	273.38
270.073	285.38
270.306	327.38
270.538	330.38
270.77	338.38
271.002	316.38
271.234	327.38
271.466	340.38
271.698	324.38
271.93	322.38
272.162	343.38
272.394	331.38
272.626	337.38
272.858	301.38
273.09	301.38
273.322	310.38
273.553	294.38
273.785	289.38
274.017	311.38
274.249	319.38
274.481	284.38
274.713	293.38
274.945	283.38
275.176	303.38
275.408	315.38
275.64	314.38
275.872	298.38
276.104	290.38
276.335	285.38
276.567	309.38
276.799	322.38
277.031	331.38
277.262	357.38
277.494	366.38
277.726	341.38
277.957	329.38
278.189	333.38
278.421	296.38
278.652	337.38
278.884	323.38
279.115	307.38
279.347	318.38
279.579	317.38
279.81	321.38
280.042	320.38
280.273	319.38
280.505	300.38
280.736	337.38
280.968	313.38
281.199	327.38
281.431	324.38
281.662	320.38
281.894	316.38
282.125	322.38
282.356	340.38
282.588	350.38
282.819	363.38
283.051	343.38
283.282	339.38
283.513	333.38
283.745	341.38
283.976	347.38
284.207	347.38
284.439	347.38
284.67	336.38
284.901	333.38
285.132	330.38
285.364	334.38
285.595	347.38
285.826	333.38
286.057	339.38
286.288	339.38
286.52	359.38
286.751	346.38
286.982	355.38
287.213	353.38
287.444	365.38
287.675	372.38
287.906	364.38
288.138	367.38
288.369	368.38
288.6	350.38
288.831	342.38
289.062	376.38
289.293	379.38
289.524	374.38
289.755	358.38
289.986	363.38
290.217	346.38
290.448	354.38
290.679	346.38
290.91	369.38
291.141	348.38
291.371	353.38
291.602	363.38
291.833	377.38
292.064	359.38
292.295	357.38
292.526	368.38
292.757	365.38
292.987	371.38
293.218	365.38
293.449	373.38
293.68	367.38
293.91	347.38
294.141	377.38
294.372	354.38
294.603	371.38
294.833	384.38
295.064	359.38
295.295	370.38
295.525	361.38
295.756	350.38
295.987	391.38
296.217	397.38
296.448	399.38
296.679	394.38
296.909	368.38
297.14	388.38
297.37	347.38
297.601	395.38
297.831	388.38
298.062	408.38
298.292	372.38
298.523	393.38
298.753	389.38
298.984	397.38
299.214	393.38
299.445	377.38
299.675	393.38
299.905	387.38
300.136	407.38
300.366	384.38
300.597	385.38
300.827	419.38
301.057	403.38
301.288	421.38
301.518	428.38
301.748	417.38
301.979	413.38
302.209	406.38
302.439	381.38
302.669	397.38
302.9	426.38
303.13	406.38
303.36	415.38
303.59	427.38
303.82	421.38
304.051	423.38
304.281	423.38
304.511	392.38
304.741	390.38
304.971	404.38
305.201	411.38
305.431	408.38
305.661	403.38
305.891	399.38
306.121	400.38
306.352	416.38
306.582	436.38
306.812	399.38
307.042	426.38
307.272	405.38
307.502	407.38
307.731	428.38
307.961	414.38
308.191	415.38
308.421	420.38
308.651	419.38
308.881	408.38
309.111	403.38
309.341	418.38
309.571	436.38
309.8	442.38
310.03	451.38
310.26	446.38
310.49	450.38
310.72	447.38
310.949	456.38
311.179	469.38
311.409	440.38
311.639	429.38
311.868	441.38
312.098	439.38
312.328	442.38
312.557	473.38
312.787	474.38
313.017	446.38
313.246	463.38
313.476	452.38
313.706	445.38
313.935	463.38
314.165	452.38
314.394	463.38
314.624	447.38
314.853	452.38
315.083	467.38
315.312	457.38
315.542	458.38
315.771	453.38
316.001	447.38
316.23	457.38
316.46	445.38
316.689	458.38
316.919	475.38
317.148	459.38
317.377	452.38
317.607	487.38
317.836	464.38
318.065	442.38
318.295	469.38
318.524	456.38
318.753	460.38
318.983	465.38
319.212	450.38
319.441	455.38
319.67	462.38
319.9	475.38
320.129	442.38
320.358	438.38
320.587	457.38
320.816	464.38
321.046	460.38
321.275	488.38
321.504	478.38
321.733	464.38
321.962	473.38
322.191	476.38
322.42	484.38
322.649	484.38
322.878	510.38
323.108	485.38
323.337	521.38
323.566	535.38
323.795	527.38
324.024	577.38
324.253	638.38
324.482	823.38
324.71	1168.38
324.939	1679.38
325.168	1488.38
325.397	825.38
325.626	628.38
325.855	581.38
326.084	572.38
326.313	553.38
326.542	563.38
326.77	571.38
326.999	625.38
327.228	809.38
327.457	1099.38
327.686	1314.38
327.914	941.38
328.143	685.38
328.372	633.38
328.6	620.38
328.829	571.38
329.058	583.38
329.287	602.38
329.515	583.38
329.744	560.38
329.972	563.38
330.201	592.38
330.43	591.38
330.658	608.38
330.887	610.38
331.115	592.38
331.344	582.38
331.572	550.38
331.801	563.38
332.03	552.38
332.258	563.38
332.486	565.38
332.715	556.38
332.943	593.38
333.172	608.38
333.4	595.38
333.629	615.38
333.857	641.38
334.085	668.38
334.314	650.38
334.542	681.38
334.771	684.38
334.999	650.38
335.227	623.38
335.455	594.38
335.684	595.38
335.912	578.38
336.14	573.38
336.369	575.38
336.597	589.38
336.825	588.38
337.053	578.38
337.281	569.38
337.51	549.38
337.738	569.38
337.966	540.38
338.194	549.38
338.422	559.38
338.65	536.38
338.878	547.38
339.106	557.38
339.334	546.38
339.562	529.38
339.79	547.38
340.018	531.38
340.246	511.38
340.474	520.38
340.702	529.38
340.93	538.38
341.158	504.38
341.386	523.38
341.614	533.38
341.842	513.38
342.07	543.38
342.298	533.38
342.526	537.38
342.754	503.38
342.981	521.38
343.209	530.38
343.437	549.38
343.665	567.38
343.893	586.38
344.12	615.38
344.348	603.38
344.576	569.38
344.804	576.38
345.031	561.38
345.259	536.38
345.487	511.38
345.714	545.38
345.942	532.38
346.17	512.38
346.397	524.38
346.625	516.38
346.853	505.38
347.08	505.38
347.308	519.38
347.535	517.38
347.763	539.38
347.99	538.38
348.218	517.38
348.445	500.38
348.673	518.38
348.9	499.38
349.128	504.38
349.355	494.38
349.583	499.38
349.81	500.38
350.037	507.38
350.265	517.38
350.492	502.38
350.72	504.38
350.947	517.38
351.174	526.38
351.402	500.38
351.629	519.38
351.856	497.38
352.083	502.38
352.311	514.38
352.538	512.38
352.765	497.38
352.992	511.38
353.22	492.38
353.447	484.38
353.674	508.38
353.901	473.38
354.128	478.38
354.355	511.38
354.583	515.38
354.81	502.38
355.037	496.38
355.264	477.38
355.491	482.38
355.718	483.38
355.945	464.38
356.172	496.38
356.399	493.38
356.626	466.38
356.853	476.38
357.08	506.38
357.307	492.38
357.534	485.38
357.761	513.38
357.988	482.38
358.215	474.38
358.441	490.38
358.668	495.38
358.895	497.38
359.122	494.38
359.349	495.38
359.576	530.38
359.802	500.38
360.029	547.38
360.256	532.38
360.483	523.38
360.709	497.38
360.936	502.38
361.163	490.38
361.39	521.38
361.616	501.38
361.843	487.38
362.07	525.38
362.296	518.38
362.523	488.38
362.749	503.38
362.976	487.38
363.203	489.38
363.429	477.38
363.656	519.38
363.882	501.38
364.109	511.38
364.335	478.38
364.562	488.38
364.788	466.38
365.015	495.38
365.241	497.38
365.468	508.38
365.694	501.38
365.92	479.38
366.147	463.38
366.373	499.38
366.599	515.38
366.826	503.38
367.052	482.38
367.278	495.38
367.505	517.38
367.731	486.38
367.957	475.38
368.184	499.38
368.41	510.38
368.636	511.38
368.862	517.38
369.089	523.38
369.315	504.38
369.541	500.38
369.767	526.38
369.993	495.38
370.219	516.38
370.445	498.38
370.672	503.38
370.898	528.38
371.124	529.38
371.35	493.38
371.576	521.38
371.802	513.38
372.028	520.38
372.254	523.38
372.48	522.38
372.706	521.38
372.932	520.38
373.158	551.38
373.384	537.38
373.61	532.38
373.835	528.38
374.061	519.38
374.287	529.38
374.513	536.38
374.739	529.38
374.965	550.38
375.191	557.38
375.416	554.38
375.642	547.38
375.868	550.38
376.094	539.38
376.319	530.38
376.545	520.38
376.771	511.38
376.997	530.38
377.222	512.38
377.448	522.38
377.674	502.38
377.899	515.38
378.125	501.38
378.35	508.38
378.576	512.38
378.802	508.38
379.027	519.38
379.253	523.38
379.478	500.38
379.704	495.38
379.929	521.38
380.155	515.38
380.38	501.38
380.606	511.38
380.831	509.38
381.057	531.38
381.282	531.38
381.507	529.38
381.733	536.38
381.958	524.38
382.184	528.38
382.409	537.38
382.634	544.38
382.86	547.38
383.085	553.38
383.31	550.38
383.535	540.38
383.761	562.38
383.986	567.38
384.211	564.38
384.436	572.38
384.662	582.38
384.887	588.38
385.112	604.38
385.337	614.38
385.562	596.38
385.787	587.38
386.013	616.38
386.238	619.38
386.463	615.38
386.688	625.38
386.913	597.38
387.138	601.38
387.363	597.38
387.588	589.38
387.813	588.38
388.038	551.38
388.263	599.38
388.488	591.38
388.713	597.38
388.938	601.38
389.163	588.38
389.387	588.38
389.612	579.38
389.837	593.38
390.062	591.38
390.287	582.38
390.512	589.38
390.736	583.38
390.961	608.38
391.186	596.38
391.411	616.38
391.636	618.38
391.86	653.38
392.085	639.38
392.31	649.38
392.534	630.38
392.759	643.38
392.984	631.38
393.208	641.38
393.433	625.38
393.658	619.38
393.882	611.38
394.107	624.38
394.331	617.38
394.556	593.38
394.78	633.38
395.005	613.38
395.229	625.38
395.454	645.38
395.678	660.38
395.903	640.38
396.127	699.38
396.352	669.38
396.576	626.38
396.801	627.38
397.025	614.38
397.249	621.38
397.474	658.38
397.698	647.38
397.922	681.38
398.147	676.38
398.371	662.38
398.595	714.38
398.82	687.38
399.044	719.38
399.268	810.38
399.492	856.38
399.717	949.38
399.941	975.38
400.165	933.38
400.389	895.38
400.613	812.38
400.837	780.38
401.062	736.38
401.286	727.38
401.51	716.38
401.734	700.38
401.958	730.38
402.182	716.38
402.406	749.38
402.63	759.38
402.854	760.38
403.078	737.38
403.302	775.38
403.526	761.38
403.75	777.38
403.974	800.38
404.198	786.38
404.422	795.38
404.645	789.38
404.869	797.38
405.093	801.38
405.317	858.38
405.541	856.38
405.765	839.38
405.988	793.38
406.212	799.38
406.436	815.38
406.66	832.38
406.883	812.38
407.107	864.38
407.331	872.38
407.555	947.38
407.778	955.38
408.002	896.38
408.226	839.38
408.449	829.38
408.673	813.38
408.896	842.38
409.12	869.38
409.344	863.38
409.567	770.38
409.791	782.38
410.014	735.38
410.238	761.38
410.461	783.38
410.685	741.38
410.908	779.38
411.132	786.38
411.355	808.38
411.578	787.38
411.802	756.38
412.025	741.38
412.249	756.38
412.472	787.38
412.695	805.38
412.919	769.38
413.142	746.38
413.365	713.38
413.589	766.38
413.812	715.38
414.035	677.38
414.258	715.38
414.482	726.38
414.705	732.38
414.928	717.38
415.151	712.38
415.374	717.38
415.597	701.38
415.821	684.38
416.044	699.38
416.267	698.38
416.49	714.38
416.713	679.38
416.936	692.38
417.159	713.38
417.382	678.38
417.605	688.38
417.828	714.38
418.051	729.38
418.274	714.38
418.497	690.38
418.72	724.38
418.943	718.38
419.166	740.38
419.389	782.38
419.611	785.38
419.834	752.38
420.057	749.38
420.28	725.38
420.503	740.38
420.726	707.38
420.948	727.38
421.171	773.38
421.394	769.38
421.617	717.38
421.839	738.38
422.062	725.38
422.285	737.38
422.507	801.38
422.73	850.38
422.953	815.38
423.175	779.38
423.398	772.38
423.621	747.38
423.843	782.38
424.066	748.38
424.288	781.38
424.511	770.38
424.733	817.38
424.956	861.38
425.178	841.38
425.401	832.38
425.623	861.38
425.846	761.38
426.068	749.38
426.291	735.38
426.513	731.38
426.735	729.38
426.958	757.38
427.18	813.38
427.402	946.38
427.625	1019.38
427.847	850.38
428.069	797.38
428.292	733.38
428.514	682.38
428.736	710.38
428.958	672.38
429.181	682.38
429.403	662.38
429.625	663.38
429.847	688.38
430.069	751.38
430.292	738.38
430.514	676.38
430.736	668.38
430.958	654.38
431.18	618.38
431.402	645.38
431.624	653.38
431.846	657.38
432.068	669.38
432.29	635.38
432.512	658.38
432.734	679.38
432.956	665.38
433.178	672.38
433.4	673.38
433.622	673.38
433.844	662.38
434.066	676.38
434.287	656.38
434.509	681.38
434.731	706.38
434.953	714.38
435.175	742.38
435.397	754.38
435.618	739.38
435.84	751.38
436.062	803.38
436.284	855.38
436.505	727.38
436.727	708.38
436.949	707.38
437.17	672.38
437.392	673.38
437.614	687.38
437.835	698.38
438.057	770.38
438.278	828.38
438.5	817.38
438.721	876.38
438.943	867.38
439.165	745.38
439.386	685.38
439.608	717.38
439.829	683.38
440.05	722.38
440.272	771.38
440.493	734.38
440.715	694.38
440.936	679.38
441.158	688.38
441.379	701.38
441.6	730.38
441.822	771.38
442.043	783.38
442.264	835.38
442.486	859.38
442.707	773.38
442.928	740.38
443.149	759.38
443.371	781.38
443.592	815.38
443.813	865.38
444.034	915.38
444.255	839.38
444.476	784.38
444.698	822.38
444.919	843.38
445.14	925.38
445.361	874.38
445.582	797.38
445.803	831.38
446.024	865.38
446.245	872.38
446.466	820.38
446.687	731.38
446.908	705.38
447.129	672.38
447.35	658.38
447.571	644.38
447.792	646.38
448.013	645.38
448.234	636.38
448.455	693.38
448.675	769.38
448.896	874.38
449.117	776.38
449.338	740.38
449.559	831.38
449.779	929.38
450	785.38
450.221	679.38
450.442	636.38
450.662	647.38
450.883	631.38
451.104	614.38
451.324	628.38
451.545	626.38
451.766	617.38
451.986	611.38
452.207	592.38
452.428	599.38
452.648	591.38
452.869	608.38
453.089	603.38
453.31	593.38
453.53	586.38
453.751	597.38
453.971	603.38
454.192	598.38
454.412	577.38
454.633	569.38
454.853	595.38
455.073	604.38
455.294	603.38
455.514	662.38
455.734	648.38
455.955	577.38
456.175	589.38
456.395	540.38
456.616	559.38
456.836	561.38
457.056	562.38
457.276	553.38
457.497	558.38
457.717	563.38
457.937	562.38
458.157	581.38
458.377	600.38
458.598	625.38
458.818	681.38
459.038	723.38
459.258	738.38
459.478	702.38
459.698	644.38
459.918	676.38
460.138	688.38
460.358	706.38
460.578	707.38
460.798	714.38
461.018	712.38
461.238	727.38
461.458	710.38
461.678	722.38
461.898	718.38
462.118	732.38
462.338	726.38
462.558	744.38
462.777	812.38
462.997	858.38
463.217	872.38
463.437	872.38
463.657	815.38
463.876	812.38
464.096	789.38
464.316	798.38
464.536	792.38
464.755	753.38
464.975	773.38
465.195	789.38
465.414	808.38
465.634	707.38
465.854	703.38
466.073	679.38
466.293	629.38
466.512	611.38
466.732	609.38
466.951	627.38
467.171	601.38
467.391	618.38
467.61	645.38
467.829	643.38
468.049	637.38
468.268	625.38
468.488	618.38
468.707	612.38
468.927	609.38
469.146	618.38
469.365	619.38
469.585	602.38
469.804	630.38
470.023	652.38
470.243	635.38
470.462	638.38
470.681	649.38
470.901	679.38
471.12	641.38
471.339	626.38
471.558	636.38
471.777	619.38
471.997	623.38
472.216	634.38
472.435	662.38
472.654	615.38
472.873	626.38
473.092	627.38
473.311	612.38
473.53	595.38
473.749	639.38
473.968	651.38
474.187	742.38
474.406	763.38
474.625	660.38
474.844	625.38
475.063	619.38
475.282	608.38
475.501	614.38
475.72	625.38
475.939	614.38
476.158	648.38
476.377	660.38
476.596	644.38
476.814	647.38
477.033	653.38
477.252	668.38
477.471	643.38
477.69	684.38
477.908	689.38
478.127	696.38
478.346	722.38
478.564	712.38
478.783	730.38
479.002	729.38
479.22	743.38
479.439	737.38
479.658	761.38
479.876	755.38
480.095	785.38
480.313	797.38
480.532	846.38
480.751	818.38
480.969	802.38
481.188	845.38
481.406	855.38
481.624	779.38
481.843	730.38
482.061	756.38
482.28	736.38
482.498	718.38
482.717	736.38
482.935	712.38
483.153	724.38
483.372	706.38
483.59	716.38
483.808	713.38
484.027	732.38
484.245	739.38
484.463	753.38
484.681	729.38
484.9	767.38
485.118	755.38
485.336	755.38
485.554	763.38
485.772	768.38
485.99	745.38
486.209	777.38
486.427	764.38
486.645	742.38
486.863	786.38
487.081	767.38
487.299	764.38
487.517	747.38
487.735	779.38
487.953	759.38
488.171	763.38
488.389	773.38
488.607	769.38
488.825	761.38
489.043	764.38
489.261	778.38
489.479	780.38
489.696	773.38
489.914	806.38
490.132	792.38
490.35	812.38
490.568	787.38
490.786	804.38
491.003	840.38
491.221	851.38
491.439	846.38
491.657	827.38
491.874	867.38
492.092	857.38
492.31	864.38
492.527	849.38
492.745	871.38
492.963	883.38
493.18	862.38
493.398	888.38
493.615	874.38
493.833	883.38
494.05	889.38
494.268	891.38
494.485	885.38
494.703	893.38
494.92	895.38
495.138	875.38
495.355	896.38
495.573	923.38
495.79	874.38
496.008	899.38
496.225	905.38
496.442	902.38
496.66	943.38
496.877	945.38
497.094	957.38
497.312	954.38
497.529	934.38
497.746	951.38
497.963	984.38
498.181	1035.38
498.398	1063.38
498.615	1072.38
498.832	1129.38
499.049	1194.38
499.267	1232.38
499.484	1348.38
499.701	1421.38
499.918	1485.38
500.135	1632.38
500.352	1763.38
500.569	1801.38
500.786	1843.38
501.003	1767.38
501.22	1648.38
501.437	1523.38
501.654	1421.38
501.871	1361.38
502.088	1261.38
502.305	1199.38
502.522	1173.38
502.739	1109.38
502.956	1071.38
503.172	1009.38
503.389	996.38
503.606	967.38
503.823	935.38
504.04	976.38
504.256	960.38
504.473	964.38
504.69	976.38
504.907	1005.38
505.123	931.38
505.34	904.38
505.557	877.38
505.773	879.38
505.99	841.38
506.207	855.38
506.423	846.38
506.64	853.38
506.856	821.38
507.073	852.38
507.289	811.38
507.506	831.38
507.722	782.38
507.939	781.38
508.155	799.38
508.372	775.38
508.588	780.38
508.805	781.38
509.021	770.38
509.238	795.38
509.454	784.38
509.67	801.38
509.887	771.38
510.103	775.38
510.319	792.38
510.536	836.38
510.752	1195.38
510.968	1045.38
511.184	762.38
511.401	767.38
511.617	747.38
511.833	749.38
512.049	745.38
512.265	737.38
512.481	767.38
512.698	720.38
512.914	726.38
513.13	753.38
513.346	732.38
513.562	730.38
513.778	733.38
513.994	753.38
514.21	735.38
514.426	771.38
514.642	771.38
514.858	813.38
515.074	801.38
515.29	915.38
515.506	1201.38
515.721	1081.38
515.937	831.38
516.153	807.38
516.369	797.38
516.585	808.38
516.801	842.38
517.016	840.38
517.232	868.38
517.448	877.38
517.664	910.38
517.879	933.38
518.095	885.38
518.311	892.38
518.527	848.38
518.742	846.38
518.958	818.38
519.173	838.38
519.389	783.38
519.605	795.38
519.82	781.38
520.036	786.38
520.251	778.38
520.467	781.38
520.682	791.38
520.898	790.38
521.113	783.38
521.329	776.38
521.544	831.38
521.76	945.38
521.975	1392.38
522.19	1453.38
522.406	914.38
522.621	773.38
522.836	735.38
523.052	717.38
523.267	690.38
523.482	684.38
523.698	651.38
523.913	671.38
524.128	671.38
524.343	665.38
524.559	679.38
524.774	653.38
524.989	642.38
525.204	668.38
525.419	654.38
525.634	690.38
525.849	667.38
526.064	659.38
526.28	643.38
526.495	654.38
526.71	649.38
526.925	632.38
527.14	623.38
527.355	631.38
527.57	612.38
527.785	636.38
527.999	623.38
528.214	585.38
528.429	619.38
528.644	659.38
528.859	620.38
529.074	633.38
529.289	633.38
529.503	684.38
529.718	658.38
529.933	637.38
530.148	638.38
530.363	636.38
530.577	601.38
530.792	610.38
531.007	633.38
531.221	625.38
531.436	617.38
531.651	633.38
531.865	631.38
532.08	626.38
532.295	631.38
532.509	599.38
532.724	616.38
532.938	609.38
533.153	618.38
533.367	613.38
533.582	632.38
533.796	605.38
534.011	618.38
534.225	625.38
534.44	619.38
534.654	610.38
534.868	587.38
535.083	614.38
535.297	627.38
535.511	595.38
535.726	623.38
535.94	595.38
536.154	631.38
536.369	616.38
536.583	599.38
536.797	567.38
537.011	572.38
537.225	578.38
537.44	596.38
537.654	590.38
537.868	587.38
538.082	579.38
538.296	590.38
538.51	560.38
538.724	585.38
538.938	585.38
539.153	596.38
539.367	594.38
539.581	594.38
539.795	577.38
540.009	574.38
540.222	573.38
540.436	589.38
540.65	584.38
540.864	580.38
541.078	570.38
541.292	573.38
541.506	572.38
541.72	557.38
541.934	567.38
542.147	586.38
542.361	575.38
542.575	569.38
542.789	566.38
543.002	576.38
543.216	568.38
543.43	591.38
543.644	551.38
543.857	573.38
544.071	574.38
544.285	575.38
544.498	577.38
544.712	584.38
544.925	572.38
545.139	581.38
545.352	581.38
545.566	567.38
545.779	576.38
545.993	581.38
546.206	588.38
546.42	581.38
546.633	576.38
546.847	570.38
547.06	565.38
547.274	586.38
547.487	572.38
547.7	573.38
547.914	583.38
548.127	572.38
548.34	589.38
548.554	597.38
548.767	565.38
548.98	576.38
549.193	576.38
549.407	608.38
549.62	586.38
549.833	592.38
550.046	559.38
550.259	567.38
550.473	564.38
550.686	575.38
550.899	583.38
551.112	583.38
551.325	570.38
551.538	593.38
551.751	568.38
551.964	585.38
552.177	589.38
552.39	583.38
552.603	591.38
552.816	588.38
553.029	612.38
553.242	628.38
553.455	611.38
553.667	633.38
553.88	637.38
554.093	607.38
554.306	599.38
554.519	593.38
554.732	578.38
554.944	563.38
555.157	588.38
555.37	553.38
555.583	553.38
555.795	564.38
556.008	535.38
556.221	537.38
556.433	550.38
556.646	531.38
556.859	520.38
557.071	522.38
557.284	524.38
557.496	517.38
557.709	514.38
557.921	497.38
558.134	497.38
558.346	503.38
558.559	508.38
558.771	469.38
558.984	510.38
559.196	511.38
559.409	509.38
559.621	504.38
559.833	501.38
560.046	493.38
560.258	513.38
560.47	499.38
560.683	475.38
560.895	487.38
561.107	497.38
561.32	495.38
561.532	484.38
561.744	495.38
561.956	511.38
562.168	499.38
562.381	498.38
562.593	508.38
562.805	507.38
563.017	519.38
563.229	504.38
563.441	507.38
563.653	491.38
563.865	505.38
564.077	525.38
564.289	515.38
564.501	530.38
564.713	509.38
564.925	535.38
565.137	554.38
565.349	562.38
565.561	599.38
565.773	593.38
565.985	605.38
566.197	617.38
566.408	654.38
566.62	692.38
566.832	723.38
567.044	755.38
567.255	764.38
567.467	763.38
567.679	795.38
567.891	842.38
568.102	844.38
568.314	830.38
568.526	760.38
568.737	691.38
568.949	658.38
569.161	618.38
569.372	600.38
569.584	589.38
569.795	554.38
570.007	554.38
570.218	568.38
570.43	534.38
570.641	499.38
570.853	524.38
571.064	519.38
571.276	528.38
571.487	509.38
571.698	487.38
571.91	461.38
572.121	488.38
572.333	494.38
572.544	464.38
572.755	459.38
572.966	468.38
573.178	481.38
573.389	444.38
573.6	447.38
573.811	435.38
574.023	436.38
574.234	449.38
574.445	446.38
574.656	412.38
574.867	454.38
575.078	415.38
575.289	415.38
575.501	423.38
575.712	423.38
575.923	429.38
576.134	420.38
576.345	440.38
576.556	414.38
576.767	441.38
576.978	417.38
577.188	418.38
577.399	418.38
577.61	432.38
577.821	395.38
578.032	413.38
578.243	420.38
578.454	590.38
578.665	464.38
578.875	421.38
579.086	388.38
579.297	392.38
579.508	392.38
579.718	396.38
579.929	401.38
580.14	404.38
580.35	397.38
580.561	388.38
580.772	405.38
580.982	378.38
581.193	406.38
581.403	393.38
581.614	399.38
581.825	396.38
582.035	391.38
582.246	384.38
582.456	395.38
582.667	384.38
582.877	369.38
583.087	379.38
583.298	364.38
583.508	371.38
583.719	371.38
583.929	389.38
584.139	346.38
584.35	363.38
584.56	392.38
584.77	369.38
584.981	380.38
585.191	379.38
585.401	376.38
585.611	395.38
585.821	364.38
586.032	385.38
586.242	373.38
586.452	372.38
586.662	380.38
586.872	387.38
587.082	367.38
587.292	371.38
587.502	366.38
587.713	383.38
587.923	368.38
588.133	352.38
588.343	364.38
588.553	358.38
588.762	378.38
588.972	367.38
589.182	373.38
589.392	369.38
589.602	360.38
589.812	368.38
590.022	386.38
590.232	371.38
590.441	381.38
590.651	397.38
590.861	386.38
591.071	400.38
591.281	393.38
591.49	381.38
591.7	386.38
591.91	390.38
592.119	398.38
592.329	411.38
592.539	449.38
592.748	421.38
592.958	460.38
593.167	416.38
593.377	427.38
593.587	446.38
593.796	447.38
594.006	453.38
594.215	455.38
594.424	443.38
594.634	434.38
594.843	425.38
595.053	403.38
595.262	417.38
595.472	425.38
595.681	401.38
595.89	390.38
596.1	380.38
596.309	378.38
596.518	354.38
596.727	350.38
596.937	356.38
597.146	361.38
597.355	365.38
597.564	345.38
597.774	343.38
597.983	336.38
598.192	329.38
598.401	348.38
598.61	337.38
598.819	353.38
599.028	314.38
599.237	311.38
599.446	333.38
599.655	322.38
599.864	328.38
600.073	335.38
600.282	338.38
600.491	309.38
600.7	332.38
600.909	318.38
601.118	325.38
601.327	330.38
601.536	325.38
601.745	311.38
601.953	329.38
602.162	321.38
602.371	298.38
602.58	296.38
602.789	308.38
602.997	313.38
603.206	328.38
603.415	319.38
603.623	327.38
603.832	319.38
604.041	292.38
604.249	305.38
604.458	303.38
604.666	308.38
604.875	320.38
605.084	288.38
605.292	287.38
605.501	299.38
605.709	292.38
605.918	298.38
606.126	292.38
606.334	314.38
606.543	301.38
606.751	313.38
606.96	281.38
607.168	304.38
607.376	305.38
607.585	318.38
607.793	290.38
608.001	315.38
608.21	307.38
608.418	295.38
608.626	281.38
608.834	298.38
609.043	289.38
609.251	291.38
609.459	294.38
609.667	303.38
609.875	292.38
610.083	302.38
610.291	306.38
610.499	278.38
610.707	304.38
610.916	295.38
611.124	295.38
611.332	299.38
611.54	295.38
611.748	307.38
611.955	281.38
612.163	285.38
612.371	293.38
612.579	307.38
612.787	284.38
612.995	283.38
613.203	292.38
613.411	267.38
613.618	278.38
613.826	283.38
614.034	288.38
614.242	295.38
614.449	287.38
614.657	275.38
614.865	284.38
615.072	297.38
615.28	268.38
615.488	303.38
615.695	296.38
615.903	285.38
616.111	285.38
616.318	303.38
616.526	287.38
616.733	303.38
616.941	298.38
617.148	300.38
617.356	284.38
617.563	277.38
617.771	298.38
617.978	294.38
618.185	285.38
618.393	270.38
618.6	269.38
618.807	287.38
619.015	303.38
619.222	266.38
619.429	275.38
619.637	278.38
619.844	283.38
620.051	275.38
620.258	279.38
620.466	263.38
620.673	264.38
620.88	267.38
621.087	269.38
621.294	263.38
621.501	276.38
621.708	263.38
621.915	261.38
622.122	279.38
622.329	259.38
622.536	263.38
622.743	280.38
622.95	272.38
623.157	244.38
623.364	255.38
623.571	268.38
623.778	271.38
623.985	263.38
624.192	252.38
624.399	265.38
624.606	268.38
624.812	248.38
625.019	248.38
625.226	262.38
625.433	265.38
625.639	257.38
625.846	247.38
626.053	242.38
626.259	237.38
626.466	253.38
626.673	255.38
626.879	242.38
627.086	244.38
627.293	251.38
627.499	246.38
627.706	237.38
627.912	245.38
628.119	231.38
628.325	234.38
628.532	240.38
628.738	252.38
628.945	234.38
629.151	228.38
629.357	248.38
629.564	225.38
629.77	241.38
629.976	233.38
630.183	255.38
630.389	241.38
630.595	233.38
630.802	239.38
631.008	239.38
631.214	226.38
631.42	229.38
631.627	221.38
631.833	216.38
632.039	230.38
632.245	242.38
632.451	239.38
632.657	210.38
632.863	234.38
633.069	215.38
633.275	217.38
633.481	220.38
633.688	217.38
633.893	228.38
634.099	223.38
634.305	230.38
634.511	224.38
634.717	224.38
634.923	217.38
635.129	223.38
635.335	214.38
635.541	217.38
635.747	224.38
635.952	205.38
636.158	229.38
636.364	204.38
636.57	232.38
636.775	226.38
636.981	216.38
637.187	226.38
637.392	194.38
637.598	205.38
637.804	219.38
638.009	214.38
638.215	216.38
638.421	210.38
638.626	202.38
638.832	203.38
639.037	224.38
639.243	207.38
639.448	192.38
639.654	195.38
639.859	204.38
640.065	187.38
640.27	204.38
640.475	204.38
640.681	203.38
640.886	212.38
641.091	212.38
641.297	219.38
641.502	184.38
641.707	203.38
641.913	200.38
642.118	186.38
642.323	192.38
642.528	197.38
642.733	196.38
642.939	196.38
643.144	191.38
643.349	202.38
643.554	205.38
643.759	185.38
643.964	187.38
644.169	189.38
644.374	190.38
644.579	190.38
644.784	205.38
644.989	200.38
645.194	199.38
645.399	200.38
645.604	205.38
645.809	185.38
646.014	199.38
646.219	193.38
646.423	196.38
646.628	197.38
646.833	164.38
647.038	197.38
647.243	204.38
647.447	203.38
647.652	185.38
647.857	192.38
648.062	203.38
648.266	196.38
648.471	197.38
648.676	211.38
648.88	215.38
649.085	199.38
649.289	185.38
649.494	197.38
649.698	203.38
649.903	202.38
650.107	199.38
650.312	198.38
650.516	178.38
650.721	169.38
650.925	185.38
651.13	162.38
651.334	183.38
651.539	162.38
651.743	169.38
651.947	184.38
652.152	164.38
652.356	177.38
652.56	157.38
652.764	162.38
652.969	162.38
653.173	157.38
653.377	163.38
653.581	164.38
653.785	147.38
653.99	148.38
654.194	148.38
654.398	164.38
654.602	152.38
654.806	146.38
655.01	147.38
655.214	166.38
655.418	149.38
655.622	147.38
655.826	147.38
656.03	155.38
656.234	164.38
656.438	163.38
656.642	176.38
656.846	149.38
657.049	147.38
657.253	131.38
657.457	147.38
657.661	145.38
657.865	127.38
658.068	111.38
658.272	129.38
658.476	122.38
658.68	101.38
658.883	100.38
659.087	117.38
659.291	107.38
659.494	106.38
659.698	87.38
659.901	96.38
660.105	90.38
660.309	115.38
660.512	101.38
660.716	94.38
660.919	79.38
661.123	83.38
661.326	92.38
661.53	83.38
661.733	83.38
661.936	92.38
662.14	91.38
662.343	94.38
662.546	92.38
662.75	79.38
662.953	98.38
663.156	77.38
663.36	84.38
663.563	81.38
663.766	83.38
663.969	89.38
664.173	88.38
664.376	91.38
664.579	83.38
664.782	82.38
664.985	76.38
665.188	81.38
665.391	99.38
665.594	90.38
665.797	76.38
666	76.38
666.203	79.38
666.406	83.38
666.609	102.38
666.812	88.38
667.015	71.38
667.218	91.38
667.421	85.38
667.624	83.38
667.827	81.38
668.03	74.38
668.232	69.38
668.435	79.38
668.638	84.38
668.841	87.38
669.043	68.38
669.246	91.38
669.449	77.38
669.651	83.38
669.854	87.38
670.057	86.38
670.259	83.38
670.462	83.38
670.665	92.38
670.867	84.38
671.07	80.38
671.272	77.38
671.475	65.38
671.677	83.38
671.88	83.38
672.082	70.38
672.284	81.38
672.487	78.38
672.689	83.38
672.892	77.38
