Data from 1963.PennyLincolnUp.Lamp.En5.5.200Scan.071719.P1._HRD10591_13-57-13-062.txt Node
Date: Thu Jul 18 13:57:13 EDT 2019
User: cochatt
Spectrometer: HR+D1059
Trigger mode: 1
Integration Time (sec): 1.000000E-1
Scans to average: 1
Electric dark correction enabled: true
Nonlinearity correction enabled: false
Boxcar width: 0
XAxis mode: Wavelengths
Number of Pixels in Spectrum: 2048
>>>>>Begin Spectral Data<<<<<
223.165	-24.19
223.4	-24.19
223.635	-24.19
223.869	-10.19
224.104	-27.19
224.338	1.81
224.573	-14.19
224.808	-10.19
225.042	-5.19
225.277	-6.19
225.511	-6.19
225.746	-3.19
225.98	5.81
226.215	17.81
226.449	21.81
226.683	20.81
226.918	26.81
227.152	11.81
227.387	29.81
227.621	32.81
227.856	40.81
228.09	38.81
228.324	38.81
228.559	39.81
228.793	70.81
229.027	89.81
229.262	111.81
229.496	103.81
229.73	113.81
229.964	129.81
230.199	117.81
230.433	115.81
230.667	106.81
230.901	105.81
231.136	103.81
231.37	117.81
231.604	119.81
231.838	100.81
232.072	116.81
232.306	109.81
232.541	119.81
232.775	109.81
233.009	123.81
233.243	112.81
233.477	116.81
233.711	103.81
233.945	121.81
234.179	114.81
234.413	118.81
234.647	115.81
234.881	111.81
235.115	119.81
235.349	115.81
235.583	117.81
235.817	115.81
236.051	120.81
236.285	124.81
236.519	118.81
236.753	122.81
236.987	133.81
237.221	163.81
237.455	187.81
237.689	156.81
237.922	123.81
238.156	141.81
238.39	124.81
238.624	133.81
238.858	126.81
239.091	126.81
239.325	141.81
239.559	140.81
239.793	114.81
240.027	136.81
240.26	153.81
240.494	141.81
240.728	152.81
240.961	148.81
241.195	138.81
241.429	136.81
241.662	141.81
241.896	134.81
242.13	137.81
242.363	131.81
242.597	134.81
242.83	145.81
243.064	149.81
243.298	151.81
243.531	154.81
243.765	145.81
243.998	143.81
244.232	136.81
244.465	169.81
244.699	163.81
244.932	146.81
245.166	138.81
245.399	142.81
245.633	139.81
245.866	150.81
246.099	148.81
246.333	141.81
246.566	154.81
246.8	160.81
247.033	168.81
247.266	159.81
247.5	186.81
247.733	170.81
247.966	170.81
248.2	174.81
248.433	183.81
248.666	179.81
248.899	186.81
249.133	198.81
249.366	173.81
249.599	186.81
249.832	177.81
250.066	166.81
250.299	169.81
250.532	170.81
250.765	183.81
250.998	217.81
251.231	215.81
251.465	208.81
251.698	201.81
251.931	204.81
252.164	197.81
252.397	184.81
252.63	209.81
252.863	208.81
253.096	206.81
253.329	211.81
253.562	201.81
253.795	199.81
254.028	200.81
254.261	227.81
254.494	200.81
254.727	224.81
254.96	226.81
255.193	233.81
255.426	233.81
255.659	220.81
255.892	223.81
256.124	221.81
256.357	209.81
256.59	210.81
256.823	204.81
257.056	212.81
257.289	192.81
257.521	196.81
257.754	210.81
257.987	219.81
258.22	220.81
258.452	223.81
258.685	202.81
258.918	220.81
259.151	208.81
259.383	202.81
259.616	219.81
259.849	223.81
260.081	218.81
260.314	228.81
260.547	242.81
260.779	223.81
261.012	226.81
261.244	230.81
261.477	236.81
261.71	215.81
261.942	226.81
262.175	219.81
262.407	220.81
262.64	235.81
262.872	245.81
263.105	221.81
263.337	226.81
263.57	230.81
263.802	235.81
264.035	210.81
264.267	213.81
264.499	226.81
264.732	224.81
264.964	234.81
265.197	231.81
265.429	222.81
265.661	243.81
265.894	225.81
266.126	246.81
266.358	241.81
266.591	214.81
266.823	253.81
267.055	247.81
267.287	244.81
267.52	235.81
267.752	243.81
267.984	246.81
268.216	242.81
268.448	219.81
268.681	263.81
268.913	239.81
269.145	285.81
269.377	286.81
269.609	254.81
269.841	271.81
270.073	276.81
270.306	268.81
270.538	273.81
270.77	285.81
271.002	281.81
271.234	291.81
271.466	284.81
271.698	285.81
271.93	306.81
272.162	310.81
272.394	290.81
272.626	271.81
272.858	287.81
273.09	272.81
273.322	277.81
273.553	278.81
273.785	285.81
274.017	276.81
274.249	286.81
274.481	283.81
274.713	263.81
274.945	288.81
275.176	281.81
275.408	270.81
275.64	282.81
275.872	287.81
276.104	283.81
276.335	296.81
276.567	269.81
276.799	297.81
277.031	316.81
277.262	318.81
277.494	316.81
277.726	285.81
277.957	293.81
278.189	294.81
278.421	287.81
278.652	290.81
278.884	296.81
279.115	297.81
279.347	299.81
279.579	293.81
279.81	308.81
280.042	309.81
280.273	317.81
280.505	297.81
280.736	300.81
280.968	302.81
281.199	297.81
281.431	299.81
281.662	310.81
281.894	311.81
282.125	313.81
282.356	331.81
282.588	309.81
282.819	319.81
283.051	309.81
283.282	314.81
283.513	324.81
283.745	338.81
283.976	310.81
284.207	304.81
284.439	322.81
284.67	337.81
284.901	327.81
285.132	332.81
285.364	306.81
285.595	325.81
285.826	313.81
286.057	321.81
286.288	327.81
286.52	324.81
286.751	317.81
286.982	317.81
287.213	334.81
287.444	330.81
287.675	324.81
287.906	338.81
288.138	347.81
288.369	334.81
288.6	331.81
288.831	350.81
289.062	344.81
289.293	358.81
289.524	332.81
289.755	347.81
289.986	346.81
290.217	365.81
290.448	347.81
290.679	353.81
290.91	335.81
291.141	324.81
291.371	344.81
291.602	329.81
291.833	330.81
292.064	335.81
292.295	345.81
292.526	342.81
292.757	351.81
292.987	336.81
293.218	333.81
293.449	354.81
293.68	333.81
293.91	360.81
294.141	357.81
294.372	345.81
294.603	340.81
294.833	350.81
295.064	349.81
295.295	340.81
295.525	345.81
295.756	342.81
295.987	354.81
296.217	372.81
296.448	361.81
296.679	359.81
296.909	358.81
297.14	348.81
297.37	363.81
297.601	362.81
297.831	369.81
298.062	364.81
298.292	350.81
298.523	361.81
298.753	363.81
298.984	363.81
299.214	369.81
299.445	389.81
299.675	383.81
299.905	357.81
300.136	372.81
300.366	383.81
300.597	358.81
300.827	367.81
301.057	388.81
301.288	388.81
301.518	392.81
301.748	390.81
301.979	393.81
302.209	372.81
302.439	388.81
302.669	360.81
302.9	383.81
303.13	375.81
303.36	393.81
303.59	401.81
303.82	396.81
304.051	393.81
304.281	375.81
304.511	398.81
304.741	383.81
304.971	380.81
305.201	379.81
305.431	403.81
305.661	384.81
305.891	394.81
306.121	405.81
306.352	384.81
306.582	393.81
306.812	399.81
307.042	398.81
307.272	373.81
307.502	381.81
307.731	400.81
307.961	391.81
308.191	364.81
308.421	374.81
308.651	393.81
308.881	392.81
309.111	393.81
309.341	386.81
309.571	399.81
309.8	388.81
310.03	396.81
310.26	407.81
310.49	397.81
310.72	411.81
310.949	414.81
311.179	412.81
311.409	405.81
311.639	415.81
311.868	406.81
312.098	412.81
312.328	408.81
312.557	434.81
312.787	404.81
313.017	414.81
313.246	411.81
313.476	421.81
313.706	436.81
313.935	447.81
314.165	447.81
314.394	403.81
314.624	443.81
314.853	433.81
315.083	421.81
315.312	421.81
315.542	419.81
315.771	420.81
316.001	428.81
316.23	437.81
316.46	426.81
316.689	419.81
316.919	439.81
317.148	433.81
317.377	428.81
317.607	405.81
317.836	427.81
318.065	442.81
318.295	415.81
318.524	414.81
318.753	408.81
318.983	405.81
319.212	413.81
319.441	436.81
319.67	427.81
319.9	425.81
320.129	441.81
320.358	466.81
320.587	433.81
320.816	444.81
321.046	430.81
321.275	426.81
321.504	425.81
321.733	436.81
321.962	436.81
322.191	438.81
322.42	431.81
322.649	449.81
322.878	448.81
323.108	467.81
323.337	467.81
323.566	471.81
323.795	485.81
324.024	474.81
324.253	547.81
324.482	670.81
324.71	918.81
324.939	1238.81
325.168	1121.81
325.397	655.81
325.626	525.81
325.855	490.81
326.084	495.81
326.313	494.81
326.542	499.81
326.77	528.81
326.999	544.81
327.228	654.81
327.457	879.81
327.686	1018.81
327.914	732.81
328.143	568.81
328.372	539.81
328.6	526.81
328.829	503.81
329.058	513.81
329.287	516.81
329.515	513.81
329.744	519.81
329.972	498.81
330.201	509.81
330.43	522.81
330.658	535.81
330.887	550.81
331.115	543.81
331.344	525.81
331.572	492.81
331.801	517.81
332.03	495.81
332.258	517.81
332.486	531.81
332.715	538.81
332.943	570.81
333.172	553.81
333.4	564.81
333.629	563.81
333.857	579.81
334.085	577.81
334.314	593.81
334.542	586.81
334.771	602.81
334.999	569.81
335.227	565.81
335.455	560.81
335.684	551.81
335.912	539.81
336.14	530.81
336.369	536.81
336.597	513.81
336.825	529.81
337.053	535.81
337.281	544.81
337.51	531.81
337.738	532.81
337.966	513.81
338.194	508.81
338.422	511.81
338.65	536.81
338.878	521.81
339.106	525.81
339.334	511.81
339.562	502.81
339.79	486.81
340.018	498.81
340.246	513.81
340.474	500.81
340.702	492.81
340.93	502.81
341.158	471.81
341.386	490.81
341.614	481.81
341.842	480.81
342.07	475.81
342.298	509.81
342.526	475.81
342.754	491.81
342.981	522.81
343.209	483.81
343.437	503.81
343.665	545.81
343.893	561.81
344.12	576.81
344.348	542.81
344.576	554.81
344.804	530.81
345.031	500.81
345.259	498.81
345.487	516.81
345.714	477.81
345.942	468.81
346.17	495.81
346.397	460.81
346.625	473.81
346.853	475.81
347.08	453.81
347.308	485.81
347.535	470.81
347.763	486.81
347.99	473.81
348.218	462.81
348.445	456.81
348.673	463.81
348.9	481.81
349.128	483.81
349.355	470.81
349.583	463.81
349.81	461.81
350.037	471.81
350.265	456.81
350.492	473.81
350.72	472.81
350.947	484.81
351.174	472.81
351.402	488.81
351.629	489.81
351.856	465.81
352.083	468.81
352.311	456.81
352.538	484.81
352.765	484.81
352.992	481.81
353.22	453.81
353.447	473.81
353.674	456.81
353.901	468.81
354.128	471.81
354.355	463.81
354.583	474.81
354.81	468.81
355.037	449.81
355.264	455.81
355.491	472.81
355.718	449.81
355.945	457.81
356.172	455.81
356.399	464.81
356.626	464.81
356.853	454.81
357.08	474.81
357.307	450.81
357.534	426.81
357.761	449.81
357.988	469.81
358.215	473.81
358.441	456.81
358.668	450.81
358.895	457.81
359.122	466.81
359.349	451.81
359.576	470.81
359.802	459.81
360.029	471.81
360.256	491.81
360.483	466.81
360.709	480.81
360.936	455.81
361.163	479.81
361.39	476.81
361.616	487.81
361.843	484.81
362.07	462.81
362.296	489.81
362.523	461.81
362.749	474.81
362.976	466.81
363.203	448.81
363.429	430.81
363.656	454.81
363.882	481.81
364.109	492.81
364.335	481.81
364.562	460.81
364.788	451.81
365.015	456.81
365.241	460.81
365.468	465.81
365.694	486.81
365.92	475.81
366.147	468.81
366.373	463.81
366.599	454.81
366.826	449.81
367.052	480.81
367.278	492.81
367.505	471.81
367.731	479.81
367.957	465.81
368.184	454.81
368.41	482.81
368.636	471.81
368.862	477.81
369.089	483.81
369.315	462.81
369.541	461.81
369.767	460.81
369.993	467.81
370.219	472.81
370.445	477.81
370.672	496.81
370.898	488.81
371.124	484.81
371.35	477.81
371.576	465.81
371.802	469.81
372.028	499.81
372.254	480.81
372.48	485.81
372.706	496.81
372.932	487.81
373.158	487.81
373.384	502.81
373.61	531.81
373.835	492.81
374.061	513.81
374.287	498.81
374.513	505.81
374.739	502.81
374.965	523.81
375.191	522.81
375.416	552.81
375.642	507.81
375.868	495.81
376.094	517.81
376.319	501.81
376.545	499.81
376.771	476.81
376.997	489.81
377.222	485.81
377.448	475.81
377.674	491.81
377.899	496.81
378.125	498.81
378.35	483.81
378.576	499.81
378.802	492.81
379.027	493.81
379.253	532.81
379.478	476.81
379.704	470.81
379.929	495.81
380.155	493.81
380.38	493.81
380.606	496.81
380.831	500.81
381.057	491.81
381.282	485.81
381.507	506.81
381.733	515.81
381.958	497.81
382.184	504.81
382.409	494.81
382.634	554.81
382.86	514.81
383.085	523.81
383.31	534.81
383.535	527.81
383.761	536.81
383.986	540.81
384.211	532.81
384.436	556.81
384.662	551.81
384.887	575.81
385.112	598.81
385.337	599.81
385.562	606.81
385.787	586.81
386.013	578.81
386.238	602.81
386.463	593.81
386.688	600.81
386.913	579.81
387.138	556.81
387.363	572.81
387.588	563.81
387.813	585.81
388.038	567.81
388.263	598.81
388.488	609.81
388.713	589.81
388.938	540.81
389.163	552.81
389.387	566.81
389.612	561.81
389.837	559.81
390.062	554.81
390.287	566.81
390.512	549.81
390.736	583.81
390.961	570.81
391.186	570.81
391.411	593.81
391.636	581.81
391.86	612.81
392.085	604.81
392.31	600.81
392.534	612.81
392.759	598.81
392.984	626.81
393.208	623.81
393.433	691.81
393.658	700.81
393.882	614.81
394.107	626.81
394.331	597.81
394.556	600.81
394.78	605.81
395.005	595.81
395.229	601.81
395.454	604.81
395.678	582.81
395.903	615.81
396.127	630.81
396.352	623.81
396.576	610.81
396.801	623.81
397.025	668.81
397.249	658.81
397.474	637.81
397.698	640.81
397.922	637.81
398.147	642.81
398.371	651.81
398.595	657.81
398.82	661.81
399.044	714.81
399.268	741.81
399.492	826.81
399.717	906.81
399.941	929.81
400.165	869.81
400.389	819.81
400.613	757.81
400.837	720.81
401.062	712.81
401.286	701.81
401.51	676.81
401.734	671.81
401.958	692.81
402.182	674.81
402.406	687.81
402.63	700.81
402.854	711.81
403.078	726.81
403.302	739.81
403.526	721.81
403.75	724.81
403.974	731.81
404.198	713.81
404.422	751.81
404.645	774.81
404.869	731.81
405.093	753.81
405.317	744.81
405.541	799.81
405.765	786.81
405.988	727.81
406.212	753.81
406.436	778.81
406.66	767.81
406.883	736.81
407.107	793.81
407.331	852.81
407.555	901.81
407.778	879.81
408.002	854.81
408.226	818.81
408.449	777.81
408.673	783.81
408.896	773.81
409.12	785.81
409.344	773.81
409.567	738.81
409.791	743.81
410.014	724.81
410.238	699.81
410.461	703.81
410.685	737.81
410.908	725.81
411.132	724.81
411.355	731.81
411.578	752.81
411.802	705.81
412.025	691.81
412.249	708.81
412.472	729.81
412.695	754.81
412.919	725.81
413.142	677.81
413.365	682.81
413.589	683.81
413.812	684.81
414.035	680.81
414.258	661.81
414.482	684.81
414.705	691.81
414.928	697.81
415.151	667.81
415.374	695.81
415.597	672.81
415.821	664.81
416.044	662.81
416.267	663.81
416.49	658.81
416.713	644.81
416.936	661.81
417.159	665.81
417.382	693.81
417.605	665.81
417.828	681.81
418.051	673.81
418.274	701.81
418.497	692.81
418.72	688.81
418.943	665.81
419.166	700.81
419.389	760.81
419.611	742.81
419.834	695.81
420.057	677.81
420.28	694.81
420.503	673.81
420.726	707.81
420.948	682.81
421.171	694.81
421.394	712.81
421.617	711.81
421.839	692.81
422.062	674.81
422.285	671.81
422.507	720.81
422.73	786.81
422.953	777.81
423.175	707.81
423.398	685.81
423.621	716.81
423.843	725.81
424.066	709.81
424.288	724.81
424.511	722.81
424.733	765.81
424.956	793.81
425.178	779.81
425.401	777.81
425.623	769.81
425.846	714.81
426.068	693.81
426.291	660.81
426.513	663.81
426.735	689.81
426.958	708.81
427.18	737.81
427.402	809.81
427.625	868.81
427.847	770.81
428.069	707.81
428.292	668.81
428.514	647.81
428.736	644.81
428.958	639.81
429.181	647.81
429.403	638.81
429.625	625.81
429.847	629.81
430.069	688.81
430.292	695.81
430.514	628.81
430.736	599.81
430.958	608.81
431.18	612.81
431.402	627.81
431.624	620.81
431.846	616.81
432.068	599.81
432.29	617.81
432.512	630.81
432.734	652.81
432.956	632.81
433.178	623.81
433.4	626.81
433.622	624.81
433.844	651.81
434.066	625.81
434.287	645.81
434.509	650.81
434.731	667.81
434.953	694.81
435.175	703.81
435.397	695.81
435.618	703.81
435.84	694.81
436.062	731.81
436.284	777.81
436.505	691.81
436.727	663.81
436.949	648.81
437.17	636.81
437.392	604.81
437.614	630.81
437.835	656.81
438.057	690.81
438.278	730.81
438.5	767.81
438.721	781.81
438.943	790.81
439.165	667.81
439.386	667.81
439.608	669.81
439.829	667.81
440.05	647.81
440.272	697.81
440.493	656.81
440.715	648.81
440.936	652.81
441.158	642.81
441.379	656.81
441.6	679.81
441.822	689.81
442.043	714.81
442.264	747.81
442.486	775.81
442.707	725.81
442.928	691.81
443.149	708.81
443.371	697.81
443.592	771.81
443.813	800.81
444.034	844.81
444.255	764.81
444.476	736.81
444.698	736.81
444.919	793.81
445.14	857.81
445.361	815.81
445.582	727.81
445.803	743.81
446.024	757.81
446.245	773.81
446.466	723.81
446.687	659.81
446.908	644.81
447.129	631.81
447.35	639.81
447.571	610.81
447.792	625.81
448.013	612.81
448.234	627.81
448.455	618.81
448.675	709.81
448.896	751.81
449.117	671.81
449.338	659.81
449.559	731.81
449.779	808.81
450	671.81
450.221	628.81
450.442	593.81
450.662	606.81
450.883	599.81
451.104	611.81
451.324	584.81
451.545	587.81
451.766	557.81
451.986	569.81
452.207	586.81
452.428	556.81
452.648	554.81
452.869	552.81
453.089	555.81
453.31	590.81
453.53	555.81
453.751	552.81
453.971	544.81
454.192	569.81
454.412	532.81
454.633	547.81
454.853	561.81
455.073	551.81
455.294	572.81
455.514	599.81
455.734	592.81
455.955	542.81
456.175	571.81
456.395	543.81
456.616	512.81
456.836	531.81
457.056	531.81
457.276	518.81
457.497	554.81
457.717	547.81
457.937	552.81
458.157	538.81
458.377	561.81
458.598	573.81
458.818	616.81
459.038	640.81
459.258	654.81
459.478	636.81
459.698	640.81
459.918	632.81
460.138	660.81
460.358	716.81
460.578	671.81
460.798	685.81
461.018	697.81
461.238	696.81
461.458	693.81
461.678	681.81
461.898	716.81
462.118	724.81
462.338	749.81
462.558	761.81
462.777	729.81
462.997	788.81
463.217	871.81
463.437	849.81
463.657	790.81
463.876	764.81
464.096	769.81
464.316	769.81
464.536	777.81
464.755	768.81
464.975	741.81
465.195	749.81
465.414	737.81
465.634	673.81
465.854	653.81
466.073	640.81
466.293	636.81
466.512	633.81
466.732	610.81
466.951	595.81
467.171	614.81
467.391	609.81
467.61	627.81
467.829	599.81
468.049	598.81
468.268	584.81
468.488	591.81
468.707	572.81
468.927	587.81
469.146	568.81
469.365	589.81
469.585	575.81
469.804	610.81
470.023	614.81
470.243	600.81
470.462	604.81
470.681	602.81
470.901	631.81
471.12	603.81
471.339	609.81
471.558	591.81
471.777	606.81
471.997	593.81
472.216	592.81
472.435	615.81
472.654	605.81
472.873	585.81
473.092	599.81
473.311	563.81
473.53	596.81
473.749	615.81
473.968	600.81
474.187	636.81
474.406	671.81
474.625	640.81
474.844	594.81
475.063	586.81
475.282	601.81
475.501	626.81
475.72	630.81
475.939	600.81
476.158	615.81
476.377	634.81
476.596	620.81
476.814	627.81
477.033	621.81
477.252	619.81
477.471	651.81
477.69	659.81
477.908	659.81
478.127	692.81
478.346	718.81
478.564	699.81
478.783	692.81
479.002	727.81
479.22	712.81
479.439	731.81
479.658	724.81
479.876	747.81
480.095	776.81
480.313	797.81
480.532	759.81
480.751	776.81
480.969	764.81
481.188	756.81
481.406	777.81
481.624	710.81
481.843	713.81
482.061	705.81
482.28	721.81
482.498	687.81
482.717	687.81
482.935	693.81
483.153	680.81
483.372	680.81
483.59	707.81
483.808	693.81
484.027	725.81
484.245	689.81
484.463	706.81
484.681	736.81
484.9	705.81
485.118	713.81
485.336	736.81
485.554	716.81
485.772	744.81
485.99	742.81
486.209	729.81
486.427	736.81
486.645	738.81
486.863	754.81
487.081	745.81
487.299	745.81
487.517	745.81
487.735	729.81
487.953	743.81
488.171	732.81
488.389	710.81
488.607	734.81
488.825	738.81
489.043	728.81
489.261	725.81
489.479	746.81
489.696	736.81
489.914	758.81
490.132	746.81
490.35	751.81
490.568	757.81
490.786	753.81
491.003	759.81
491.221	780.81
491.439	781.81
491.657	775.81
491.874	800.81
492.092	838.81
492.31	772.81
492.527	789.81
492.745	803.81
492.963	832.81
493.18	832.81
493.398	812.81
493.615	829.81
493.833	847.81
494.05	831.81
494.268	832.81
494.485	849.81
494.703	825.81
494.92	833.81
495.138	835.81
495.355	822.81
495.573	815.81
495.79	855.81
496.008	846.81
496.225	861.81
496.442	847.81
496.66	860.81
496.877	858.81
497.094	883.81
497.312	885.81
497.529	922.81
497.746	943.81
497.963	940.81
498.181	945.81
498.398	1003.81
498.615	1067.81
498.832	1103.81
499.049	1139.81
499.267	1208.81
499.484	1252.81
499.701	1351.81
499.918	1442.81
500.135	1609.81
500.352	1753.81
500.569	1765.81
500.786	1769.81
501.003	1730.81
501.22	1577.81
501.437	1472.81
501.654	1341.81
501.871	1267.81
502.088	1210.81
502.305	1139.81
502.522	1083.81
502.739	1061.81
502.956	1001.81
503.172	994.81
503.389	947.81
503.606	922.81
503.823	926.81
504.04	899.81
504.256	906.81
504.473	928.81
504.69	935.81
504.907	917.81
505.123	895.81
505.34	869.81
505.557	820.81
505.773	806.81
505.99	789.81
506.207	795.81
506.423	803.81
506.64	786.81
506.856	774.81
507.073	757.81
507.289	748.81
507.506	757.81
507.722	749.81
507.939	744.81
508.155	730.81
508.372	723.81
508.588	711.81
508.805	720.81
509.021	717.81
509.238	751.81
509.454	725.81
509.67	716.81
509.887	701.81
510.103	733.81
510.319	715.81
510.536	765.81
510.752	953.81
510.968	859.81
511.184	725.81
511.401	687.81
511.617	689.81
511.833	670.81
512.049	694.81
512.265	687.81
512.481	690.81
512.698	680.81
512.914	706.81
513.13	676.81
513.346	687.81
513.562	687.81
513.778	695.81
513.994	691.81
514.21	695.81
514.426	707.81
514.642	714.81
514.858	723.81
515.074	735.81
515.29	785.81
515.506	923.81
515.721	855.81
515.937	777.81
516.153	755.81
516.369	738.81
516.585	755.81
516.801	765.81
517.016	795.81
517.232	834.81
517.448	828.81
517.664	863.81
517.879	864.81
518.095	859.81
518.311	869.81
518.527	817.81
518.742	797.81
518.958	787.81
519.173	778.81
519.389	772.81
519.605	751.81
519.82	743.81
520.036	714.81
520.251	715.81
520.467	711.81
520.682	740.81
520.898	705.81
521.113	697.81
521.329	723.81
521.544	741.81
521.76	796.81
521.975	1049.81
522.19	1040.81
522.406	786.81
522.621	695.81
522.836	635.81
523.052	657.81
523.267	614.81
523.482	631.81
523.698	617.81
523.913	623.81
524.128	633.81
524.343	629.81
524.559	633.81
524.774	625.81
524.989	617.81
525.204	613.81
525.419	627.81
525.634	592.81
525.849	618.81
526.064	625.81
526.28	618.81
526.495	597.81
526.71	601.81
526.925	589.81
527.14	587.81
527.355	596.81
527.57	601.81
527.785	594.81
527.999	622.81
528.214	609.81
528.429	610.81
528.644	603.81
528.859	603.81
529.074	616.81
529.289	605.81
529.503	636.81
529.718	613.81
529.933	601.81
530.148	627.81
530.363	627.81
530.577	581.81
530.792	611.81
531.007	593.81
531.221	599.81
531.436	610.81
531.651	596.81
531.865	567.81
532.08	604.81
532.295	609.81
532.509	578.81
532.724	608.81
532.938	602.81
533.153	592.81
533.367	596.81
533.582	583.81
533.796	609.81
534.011	604.81
534.225	609.81
534.44	595.81
534.654	571.81
534.868	604.81
535.083	576.81
535.297	603.81
535.511	556.81
535.726	579.81
535.94	578.81
536.154	567.81
536.369	582.81
536.583	577.81
536.797	581.81
537.011	561.81
537.225	563.81
537.44	570.81
537.654	547.81
537.868	560.81
538.082	571.81
538.296	577.81
538.51	567.81
538.724	581.81
538.938	578.81
539.153	541.81
539.367	559.81
539.581	551.81
539.795	551.81
540.009	562.81
540.222	573.81
540.436	545.81
540.65	559.81
540.864	552.81
541.078	549.81
541.292	553.81
541.506	554.81
541.72	555.81
541.934	574.81
542.147	553.81
542.361	539.81
542.575	564.81
542.789	564.81
543.002	540.81
543.216	561.81
543.43	571.81
543.644	554.81
543.857	564.81
544.071	582.81
544.285	536.81
544.498	534.81
544.712	552.81
544.925	566.81
545.139	572.81
545.352	572.81
545.566	559.81
545.779	592.81
545.993	571.81
546.206	566.81
546.42	564.81
546.633	567.81
546.847	578.81
547.06	550.81
547.274	566.81
547.487	565.81
547.7	553.81
547.914	566.81
548.127	559.81
548.34	580.81
548.554	576.81
548.767	572.81
548.98	589.81
549.193	573.81
549.407	575.81
549.62	568.81
549.833	579.81
550.046	585.81
550.259	576.81
550.473	566.81
550.686	545.81
550.899	581.81
551.112	551.81
551.325	543.81
551.538	573.81
551.751	547.81
551.964	572.81
552.177	563.81
552.39	576.81
552.603	585.81
552.816	594.81
553.029	618.81
553.242	596.81
553.455	628.81
553.667	613.81
553.88	626.81
554.093	611.81
554.306	569.81
554.519	576.81
554.732	559.81
554.944	570.81
555.157	538.81
555.37	538.81
555.583	565.81
555.795	558.81
556.008	528.81
556.221	513.81
556.433	510.81
556.646	527.81
556.859	501.81
557.071	501.81
557.284	505.81
557.496	506.81
557.709	511.81
557.921	502.81
558.134	489.81
558.346	493.81
558.559	497.81
558.771	491.81
558.984	486.81
559.196	495.81
559.409	519.81
559.621	490.81
559.833	484.81
560.046	507.81
560.258	480.81
560.47	519.81
560.683	499.81
560.895	464.81
561.107	498.81
561.32	505.81
561.532	512.81
561.744	479.81
561.956	483.81
562.168	479.81
562.381	491.81
562.593	495.81
562.805	515.81
563.017	504.81
563.229	519.81
563.441	506.81
563.653	511.81
563.865	504.81
564.077	500.81
564.289	529.81
564.501	540.81
564.713	540.81
564.925	551.81
565.137	569.81
565.349	560.81
565.561	549.81
565.773	581.81
565.985	626.81
566.197	659.81
566.408	665.81
566.62	707.81
566.832	727.81
567.044	751.81
567.255	773.81
567.467	773.81
567.679	793.81
567.891	858.81
568.102	833.81
568.314	823.81
568.526	753.81
568.737	711.81
568.949	673.81
569.161	639.81
569.372	611.81
569.584	575.81
569.795	559.81
570.007	537.81
570.218	556.81
570.43	536.81
570.641	527.81
570.853	513.81
571.064	531.81
571.276	536.81
571.487	503.81
571.698	501.81
571.91	480.81
572.121	483.81
572.333	459.81
572.544	463.81
572.755	454.81
572.966	441.81
573.178	440.81
573.389	450.81
573.6	440.81
573.811	446.81
574.023	457.81
574.234	448.81
574.445	443.81
574.656	424.81
574.867	422.81
575.078	458.81
575.289	437.81
575.501	441.81
575.712	429.81
575.923	422.81
576.134	412.81
576.345	428.81
576.556	424.81
576.767	430.81
576.978	405.81
577.188	407.81
577.399	424.81
577.61	407.81
577.821	404.81
578.032	413.81
578.243	407.81
578.454	523.81
578.665	438.81
578.875	404.81
579.086	391.81
579.297	390.81
579.508	390.81
579.718	405.81
579.929	408.81
580.14	398.81
580.35	397.81
580.561	409.81
580.772	388.81
580.982	372.81
581.193	384.81
581.403	392.81
581.614	411.81
581.825	395.81
582.035	393.81
582.246	391.81
582.456	403.81
582.667	372.81
582.877	376.81
583.087	367.81
583.298	376.81
583.508	372.81
583.719	399.81
583.929	387.81
584.139	379.81
584.35	363.81
584.56	373.81
584.77	369.81
584.981	372.81
585.191	372.81
585.401	366.81
585.611	376.81
585.821	376.81
586.032	386.81
586.242	377.81
586.452	362.81
586.662	389.81
586.872	372.81
587.082	371.81
587.292	372.81
587.502	384.81
587.713	376.81
587.923	381.81
588.133	366.81
588.343	364.81
588.553	385.81
588.762	364.81
588.972	380.81
589.182	387.81
589.392	406.81
589.602	410.81
589.812	403.81
590.022	373.81
590.232	386.81
590.441	383.81
590.651	391.81
590.861	389.81
591.071	385.81
591.281	399.81
591.49	424.81
591.7	412.81
591.91	410.81
592.119	392.81
592.329	421.81
592.539	427.81
592.748	427.81
592.958	457.81
593.167	458.81
593.377	458.81
593.587	465.81
593.796	468.81
594.006	454.81
594.215	461.81
594.424	452.81
594.634	472.81
594.843	436.81
595.053	459.81
595.262	422.81
595.472	412.81
595.681	392.81
595.89	395.81
596.1	391.81
596.309	373.81
596.518	374.81
596.727	351.81
596.937	361.81
597.146	367.81
597.355	363.81
597.564	367.81
597.774	340.81
597.983	337.81
598.192	342.81
598.401	335.81
598.61	351.81
598.819	351.81
599.028	340.81
599.237	345.81
599.446	336.81
599.655	328.81
599.864	346.81
600.073	329.81
600.282	323.81
600.491	344.81
600.7	323.81
600.909	317.81
601.118	327.81
601.327	340.81
601.536	316.81
601.745	322.81
601.953	307.81
602.162	333.81
602.371	326.81
602.58	321.81
602.789	324.81
602.997	312.81
603.206	315.81
603.415	314.81
603.623	315.81
603.832	308.81
604.041	329.81
604.249	309.81
604.458	322.81
604.666	320.81
604.875	304.81
605.084	328.81
605.292	311.81
605.501	314.81
605.709	309.81
605.918	316.81
606.126	297.81
606.334	305.81
606.543	315.81
606.751	315.81
606.96	313.81
607.168	295.81
607.376	301.81
607.585	324.81
607.793	300.81
608.001	300.81
608.21	291.81
608.418	304.81
608.626	323.81
608.834	305.81
609.043	308.81
609.251	294.81
609.459	311.81
609.667	294.81
609.875	301.81
610.083	305.81
610.291	302.81
610.499	312.81
610.707	319.81
610.916	305.81
611.124	313.81
611.332	300.81
611.54	310.81
611.748	299.81
611.955	333.81
612.163	314.81
612.371	299.81
612.579	305.81
612.787	289.81
612.995	315.81
613.203	298.81
613.411	297.81
613.618	285.81
613.826	291.81
614.034	280.81
614.242	300.81
614.449	276.81
614.657	314.81
614.865	282.81
615.072	296.81
615.28	294.81
615.488	292.81
615.695	292.81
615.903	284.81
616.111	279.81
616.318	310.81
616.526	315.81
616.733	307.81
616.941	287.81
617.148	293.81
617.356	292.81
617.563	300.81
617.771	306.81
617.978	307.81
618.185	297.81
618.393	297.81
618.6	307.81
618.807	300.81
619.015	298.81
619.222	285.81
619.429	287.81
619.637	298.81
619.844	299.81
620.051	266.81
620.258	293.81
620.466	261.81
620.673	284.81
620.88	282.81
621.087	277.81
621.294	288.81
621.501	287.81
621.708	264.81
621.915	287.81
622.122	295.81
622.329	266.81
622.536	280.81
622.743	272.81
622.95	274.81
623.157	278.81
623.364	264.81
623.571	285.81
623.778	289.81
623.985	278.81
624.192	279.81
624.399	270.81
624.606	267.81
624.812	244.81
625.019	283.81
625.226	249.81
625.433	279.81
625.639	278.81
625.846	265.81
626.053	256.81
626.259	264.81
626.466	257.81
626.673	266.81
626.879	255.81
627.086	258.81
627.293	261.81
627.499	266.81
627.706	260.81
627.912	249.81
628.119	248.81
628.325	261.81
628.532	250.81
628.738	239.81
628.945	234.81
629.151	255.81
629.357	241.81
629.564	239.81
629.77	240.81
629.976	251.81
630.183	223.81
630.389	239.81
630.595	236.81
630.802	246.81
631.008	228.81
631.214	239.81
631.42	231.81
631.627	242.81
631.833	234.81
632.039	234.81
632.245	230.81
632.451	223.81
632.657	226.81
632.863	244.81
633.069	225.81
633.275	228.81
633.481	222.81
633.688	219.81
633.893	234.81
634.099	224.81
634.305	216.81
634.511	225.81
634.717	225.81
634.923	209.81
635.129	218.81
635.335	218.81
635.541	219.81
635.747	206.81
635.952	229.81
636.158	221.81
636.364	230.81
636.57	219.81
636.775	235.81
636.981	224.81
637.187	210.81
637.392	211.81
637.598	211.81
637.804	218.81
638.009	222.81
638.215	236.81
638.421	221.81
638.626	220.81
638.832	220.81
639.037	223.81
639.243	203.81
639.448	213.81
639.654	210.81
639.859	220.81
640.065	213.81
640.27	220.81
640.475	205.81
640.681	198.81
640.886	210.81
641.091	195.81
641.297	200.81
641.502	216.81
641.707	198.81
641.913	175.81
642.118	204.81
642.323	207.81
642.528	202.81
642.733	194.81
642.939	208.81
643.144	205.81
643.349	211.81
643.554	209.81
643.759	202.81
643.964	198.81
644.169	194.81
644.374	204.81
644.579	217.81
644.784	186.81
644.989	210.81
645.194	207.81
645.399	195.81
645.604	204.81
645.809	220.81
646.014	199.81
646.219	205.81
646.423	199.81
646.628	186.81
646.833	213.81
647.038	203.81
647.243	203.81
647.447	203.81
647.652	200.81
647.857	225.81
648.062	207.81
648.266	215.81
648.471	198.81
648.676	214.81
648.88	226.81
649.085	212.81
649.289	208.81
649.494	199.81
649.698	210.81
649.903	202.81
650.107	197.81
650.312	201.81
650.516	185.81
650.721	209.81
650.925	206.81
651.13	183.81
651.334	188.81
651.539	185.81
651.743	181.81
651.947	172.81
652.152	181.81
652.356	187.81
652.56	186.81
652.764	165.81
652.969	178.81
653.173	170.81
653.377	159.81
653.581	150.81
653.785	176.81
653.99	164.81
654.194	156.81
654.398	176.81
654.602	159.81
654.806	153.81
655.01	167.81
655.214	163.81
655.418	167.81
655.622	160.81
655.826	170.81
656.03	171.81
656.234	172.81
656.438	176.81
656.642	180.81
656.846	178.81
657.049	159.81
657.253	159.81
657.457	175.81
657.661	137.81
657.865	141.81
658.068	140.81
658.272	135.81
658.476	123.81
658.68	121.81
658.883	121.81
659.087	121.81
659.291	123.81
659.494	97.81
659.698	97.81
659.901	103.81
660.105	83.81
660.309	119.81
660.512	111.81
660.716	92.81
660.919	87.81
661.123	98.81
661.326	101.81
661.53	100.81
661.733	85.81
661.936	87.81
662.14	86.81
662.343	82.81
662.546	100.81
662.75	93.81
662.953	83.81
663.156	88.81
663.36	86.81
663.563	87.81
663.766	80.81
663.969	87.81
664.173	88.81
664.376	90.81
664.579	93.81
664.782	88.81
664.985	87.81
665.188	90.81
665.391	75.81
665.594	86.81
665.797	82.81
666	58.81
666.203	83.81
666.406	85.81
666.609	91.81
666.812	84.81
667.015	71.81
667.218	91.81
667.421	82.81
667.624	82.81
667.827	81.81
668.03	80.81
668.232	85.81
668.435	87.81
668.638	86.81
668.841	94.81
669.043	93.81
669.246	90.81
669.449	82.81
669.651	89.81
669.854	97.81
670.057	85.81
670.259	85.81
670.462	70.81
670.665	78.81
670.867	71.81
671.07	80.81
671.272	78.81
671.475	82.81
671.677	69.81
671.88	88.81
672.082	75.81
672.284	75.81
672.487	74.81
672.689	77.81
672.892	84.81
