Data from 1963.PennyLincolnUp.Lamp.En5.5.200Scan.071719.P1._HRD10591_13-59-55-064.txt Node
Date: Thu Jul 18 13:59:55 EDT 2019
User: cochatt
Spectrometer: HR+D1059
Trigger mode: 1
Integration Time (sec): 1.000000E-1
Scans to average: 1
Electric dark correction enabled: true
Nonlinearity correction enabled: false
Boxcar width: 0
XAxis mode: Wavelengths
Number of Pixels in Spectrum: 2048
>>>>>Begin Spectral Data<<<<<
223.165	-10.94
223.4	-10.94
223.635	-10.94
223.869	-24.94
224.104	-13.94
224.338	-15.94
224.573	-12.94
224.808	-11.94
225.042	0.06
225.277	3.06
225.511	3.06
225.746	-2.94
225.98	12.06
226.215	10.06
226.449	8.06
226.683	12.06
226.918	23.06
227.152	22.06
227.387	26.06
227.621	59.06
227.856	37.06
228.09	42.06
228.324	42.06
228.559	39.06
228.793	75.06
229.027	90.06
229.262	100.06
229.496	110.06
229.73	122.06
229.964	143.06
230.199	125.06
230.433	120.06
230.667	122.06
230.901	107.06
231.136	130.06
231.37	122.06
231.604	121.06
231.838	115.06
232.072	114.06
232.306	117.06
232.541	134.06
232.775	135.06
233.009	133.06
233.243	117.06
233.477	130.06
233.711	133.06
233.945	124.06
234.179	122.06
234.413	130.06
234.647	127.06
234.881	116.06
235.115	120.06
235.349	124.06
235.583	134.06
235.817	116.06
236.051	131.06
236.285	136.06
236.519	125.06
236.753	146.06
236.987	146.06
237.221	184.06
237.455	202.06
237.689	172.06
237.922	156.06
238.156	146.06
238.39	143.06
238.624	123.06
238.858	145.06
239.091	125.06
239.325	132.06
239.559	135.06
239.793	143.06
240.027	146.06
240.26	152.06
240.494	163.06
240.728	155.06
240.961	169.06
241.195	149.06
241.429	157.06
241.662	154.06
241.896	147.06
242.13	150.06
242.363	150.06
242.597	137.06
242.83	152.06
243.064	151.06
243.298	153.06
243.531	160.06
243.765	167.06
243.998	159.06
244.232	152.06
244.465	161.06
244.699	158.06
244.932	162.06
245.166	168.06
245.399	168.06
245.633	170.06
245.866	165.06
246.099	166.06
246.333	168.06
246.566	174.06
246.8	152.06
247.033	162.06
247.266	175.06
247.5	192.06
247.733	196.06
247.966	181.06
248.2	186.06
248.433	181.06
248.666	195.06
248.899	186.06
249.133	199.06
249.366	227.06
249.599	224.06
249.832	192.06
250.066	202.06
250.299	197.06
250.532	195.06
250.765	212.06
250.998	246.06
251.231	262.06
251.465	247.06
251.698	205.06
251.931	235.06
252.164	228.06
252.397	218.06
252.63	208.06
252.863	230.06
253.096	219.06
253.329	233.06
253.562	241.06
253.795	235.06
254.028	236.06
254.261	215.06
254.494	230.06
254.727	248.06
254.96	263.06
255.193	282.06
255.426	276.06
255.659	250.06
255.892	265.06
256.124	240.06
256.357	258.06
256.59	252.06
256.823	226.06
257.056	232.06
257.289	257.06
257.521	220.06
257.754	219.06
257.987	230.06
258.22	228.06
258.452	236.06
258.685	229.06
258.918	223.06
259.151	234.06
259.383	238.06
259.616	230.06
259.849	261.06
260.081	252.06
260.314	262.06
260.547	277.06
260.779	261.06
261.012	244.06
261.244	253.06
261.477	231.06
261.71	252.06
261.942	254.06
262.175	255.06
262.407	274.06
262.64	245.06
262.872	242.06
263.105	248.06
263.337	250.06
263.57	246.06
263.802	242.06
264.035	229.06
264.267	254.06
264.499	256.06
264.732	236.06
264.964	243.06
265.197	244.06
265.429	256.06
265.661	234.06
265.894	257.06
266.126	246.06
266.358	260.06
266.591	252.06
266.823	270.06
267.055	261.06
267.287	260.06
267.52	247.06
267.752	256.06
267.984	277.06
268.216	280.06
268.448	264.06
268.681	282.06
268.913	276.06
269.145	301.06
269.377	298.06
269.609	316.06
269.841	281.06
270.073	301.06
270.306	314.06
270.538	332.06
270.77	321.06
271.002	328.06
271.234	326.06
271.466	322.06
271.698	344.06
271.93	349.06
272.162	347.06
272.394	334.06
272.626	329.06
272.858	321.06
273.09	314.06
273.322	309.06
273.553	302.06
273.785	300.06
274.017	308.06
274.249	293.06
274.481	297.06
274.713	296.06
274.945	317.06
275.176	312.06
275.408	307.06
275.64	325.06
275.872	313.06
276.104	302.06
276.335	308.06
276.567	321.06
276.799	342.06
277.031	323.06
277.262	363.06
277.494	349.06
277.726	352.06
277.957	318.06
278.189	318.06
278.421	332.06
278.652	323.06
278.884	324.06
279.115	342.06
279.347	320.06
279.579	302.06
279.81	326.06
280.042	309.06
280.273	327.06
280.505	322.06
280.736	321.06
280.968	333.06
281.199	310.06
281.431	322.06
281.662	329.06
281.894	333.06
282.125	325.06
282.356	341.06
282.588	340.06
282.819	365.06
283.051	351.06
283.282	329.06
283.513	337.06
283.745	336.06
283.976	337.06
284.207	339.06
284.439	342.06
284.67	339.06
284.901	351.06
285.132	347.06
285.364	342.06
285.595	360.06
285.826	338.06
286.057	338.06
286.288	345.06
286.52	334.06
286.751	348.06
286.982	342.06
287.213	348.06
287.444	346.06
287.675	351.06
287.906	384.06
288.138	370.06
288.369	377.06
288.6	349.06
288.831	370.06
289.062	363.06
289.293	363.06
289.524	343.06
289.755	353.06
289.986	354.06
290.217	351.06
290.448	357.06
290.679	353.06
290.91	384.06
291.141	363.06
291.371	363.06
291.602	363.06
291.833	378.06
292.064	370.06
292.295	377.06
292.526	358.06
292.757	378.06
292.987	362.06
293.218	353.06
293.449	353.06
293.68	380.06
293.91	370.06
294.141	355.06
294.372	349.06
294.603	394.06
294.833	372.06
295.064	376.06
295.295	360.06
295.525	390.06
295.756	375.06
295.987	350.06
296.217	399.06
296.448	391.06
296.679	383.06
296.909	389.06
297.14	370.06
297.37	378.06
297.601	375.06
297.831	390.06
298.062	376.06
298.292	407.06
298.523	393.06
298.753	395.06
298.984	368.06
299.214	416.06
299.445	416.06
299.675	396.06
299.905	391.06
300.136	390.06
300.366	396.06
300.597	404.06
300.827	396.06
301.057	411.06
301.288	421.06
301.518	403.06
301.748	428.06
301.979	409.06
302.209	445.06
302.439	414.06
302.669	421.06
302.9	396.06
303.13	441.06
303.36	407.06
303.59	432.06
303.82	418.06
304.051	448.06
304.281	412.06
304.511	407.06
304.741	396.06
304.971	412.06
305.201	416.06
305.431	421.06
305.661	414.06
305.891	407.06
306.121	419.06
306.352	421.06
306.582	417.06
306.812	417.06
307.042	419.06
307.272	397.06
307.502	410.06
307.731	425.06
307.961	430.06
308.191	405.06
308.421	419.06
308.651	407.06
308.881	406.06
309.111	410.06
309.341	422.06
309.571	406.06
309.8	430.06
310.03	452.06
310.26	434.06
310.49	422.06
310.72	454.06
310.949	468.06
311.179	459.06
311.409	468.06
311.639	462.06
311.868	454.06
312.098	452.06
312.328	453.06
312.557	470.06
312.787	443.06
313.017	474.06
313.246	483.06
313.476	470.06
313.706	441.06
313.935	469.06
314.165	479.06
314.394	462.06
314.624	468.06
314.853	479.06
315.083	471.06
315.312	460.06
315.542	469.06
315.771	460.06
316.001	449.06
316.23	448.06
316.46	461.06
316.689	450.06
316.919	459.06
317.148	469.06
317.377	477.06
317.607	475.06
317.836	469.06
318.065	456.06
318.295	456.06
318.524	475.06
318.753	471.06
318.983	463.06
319.212	473.06
319.441	455.06
319.67	487.06
319.9	466.06
320.129	442.06
320.358	469.06
320.587	456.06
320.816	454.06
321.046	453.06
321.275	480.06
321.504	466.06
321.733	480.06
321.962	480.06
322.191	484.06
322.42	501.06
322.649	527.06
322.878	504.06
323.108	537.06
323.337	536.06
323.566	546.06
323.795	567.06
324.024	596.06
324.253	664.06
324.482	837.06
324.71	1230.06
324.939	1798.06
325.168	1538.06
325.397	871.06
325.626	657.06
325.855	589.06
326.084	564.06
326.313	545.06
326.542	538.06
326.77	577.06
326.999	653.06
327.228	808.06
327.457	1153.06
327.686	1416.06
327.914	954.06
328.143	696.06
328.372	654.06
328.6	615.06
328.829	608.06
329.058	622.06
329.287	633.06
329.515	594.06
329.744	573.06
329.972	598.06
330.201	595.06
330.43	630.06
330.658	653.06
330.887	658.06
331.115	633.06
331.344	602.06
331.572	580.06
331.801	559.06
332.03	577.06
332.258	573.06
332.486	565.06
332.715	599.06
332.943	605.06
333.172	612.06
333.4	636.06
333.629	607.06
333.857	664.06
334.085	669.06
334.314	661.06
334.542	664.06
334.771	685.06
334.999	664.06
335.227	618.06
335.455	633.06
335.684	596.06
335.912	612.06
336.14	589.06
336.369	585.06
336.597	590.06
336.825	581.06
337.053	577.06
337.281	582.06
337.51	569.06
337.738	573.06
337.966	548.06
338.194	577.06
338.422	557.06
338.65	572.06
338.878	551.06
339.106	545.06
339.334	544.06
339.562	547.06
339.79	537.06
340.018	540.06
340.246	542.06
340.474	548.06
340.702	553.06
340.93	560.06
341.158	526.06
341.386	525.06
341.614	555.06
341.842	540.06
342.07	544.06
342.298	537.06
342.526	532.06
342.754	536.06
342.981	522.06
343.209	541.06
343.437	567.06
343.665	566.06
343.893	593.06
344.12	636.06
344.348	576.06
344.576	586.06
344.804	552.06
345.031	539.06
345.259	577.06
345.487	560.06
345.714	532.06
345.942	524.06
346.17	505.06
346.397	490.06
346.625	530.06
346.853	520.06
347.08	504.06
347.308	518.06
347.535	533.06
347.763	517.06
347.99	502.06
348.218	531.06
348.445	544.06
348.673	517.06
348.9	513.06
349.128	492.06
349.355	502.06
349.583	512.06
349.81	509.06
350.037	516.06
350.265	491.06
350.492	493.06
350.72	491.06
350.947	485.06
351.174	498.06
351.402	504.06
351.629	500.06
351.856	516.06
352.083	500.06
352.311	516.06
352.538	524.06
352.765	522.06
352.992	498.06
353.22	523.06
353.447	531.06
353.674	512.06
353.901	502.06
354.128	504.06
354.355	474.06
354.583	500.06
354.81	494.06
355.037	509.06
355.264	500.06
355.491	479.06
355.718	496.06
355.945	492.06
356.172	492.06
356.399	478.06
356.626	489.06
356.853	502.06
357.08	507.06
357.307	489.06
357.534	475.06
357.761	489.06
357.988	502.06
358.215	491.06
358.441	506.06
358.668	499.06
358.895	488.06
359.122	489.06
359.349	489.06
359.576	524.06
359.802	528.06
360.029	523.06
360.256	550.06
360.483	521.06
360.709	521.06
360.936	511.06
361.163	490.06
361.39	533.06
361.616	493.06
361.843	508.06
362.07	504.06
362.296	514.06
362.523	512.06
362.749	482.06
362.976	518.06
363.203	504.06
363.429	492.06
363.656	496.06
363.882	530.06
364.109	516.06
364.335	492.06
364.562	501.06
364.788	496.06
365.015	487.06
365.241	507.06
365.468	491.06
365.694	492.06
365.92	511.06
366.147	470.06
366.373	491.06
366.599	516.06
366.826	498.06
367.052	497.06
367.278	501.06
367.505	504.06
367.731	498.06
367.957	496.06
368.184	513.06
368.41	512.06
368.636	515.06
368.862	536.06
369.089	523.06
369.315	498.06
369.541	493.06
369.767	480.06
369.993	522.06
370.219	525.06
370.445	522.06
370.672	474.06
370.898	503.06
371.124	508.06
371.35	512.06
371.576	516.06
371.802	526.06
372.028	511.06
372.254	512.06
372.48	517.06
372.706	547.06
372.932	533.06
373.158	532.06
373.384	545.06
373.61	526.06
373.835	493.06
374.061	512.06
374.287	509.06
374.513	534.06
374.739	553.06
374.965	561.06
375.191	560.06
375.416	570.06
375.642	541.06
375.868	528.06
376.094	536.06
376.319	523.06
376.545	514.06
376.771	530.06
376.997	514.06
377.222	518.06
377.448	507.06
377.674	511.06
377.899	526.06
378.125	525.06
378.35	523.06
378.576	511.06
378.802	523.06
379.027	525.06
379.253	526.06
379.478	518.06
379.704	514.06
379.929	523.06
380.155	545.06
380.38	524.06
380.606	533.06
380.831	516.06
381.057	526.06
381.282	526.06
381.507	484.06
381.733	540.06
381.958	510.06
382.184	530.06
382.409	533.06
382.634	544.06
382.86	532.06
383.085	507.06
383.31	534.06
383.535	564.06
383.761	539.06
383.986	562.06
384.211	571.06
384.436	572.06
384.662	585.06
384.887	586.06
385.112	594.06
385.337	581.06
385.562	592.06
385.787	613.06
386.013	619.06
386.238	609.06
386.463	614.06
386.688	616.06
386.913	592.06
387.138	618.06
387.363	615.06
387.588	609.06
387.813	602.06
388.038	605.06
388.263	595.06
388.488	592.06
388.713	605.06
388.938	605.06
389.163	602.06
389.387	593.06
389.612	582.06
389.837	590.06
390.062	598.06
390.287	573.06
390.512	590.06
390.736	597.06
390.961	582.06
391.186	607.06
391.411	642.06
391.636	628.06
391.86	634.06
392.085	617.06
392.31	640.06
392.534	654.06
392.759	624.06
392.984	629.06
393.208	618.06
393.433	621.06
393.658	616.06
393.882	625.06
394.107	601.06
394.331	609.06
394.556	610.06
394.78	636.06
395.005	630.06
395.229	640.06
395.454	665.06
395.678	628.06
395.903	648.06
396.127	651.06
396.352	662.06
396.576	617.06
396.801	621.06
397.025	629.06
397.249	649.06
397.474	647.06
397.698	653.06
397.922	662.06
398.147	655.06
398.371	680.06
398.595	685.06
398.82	727.06
399.044	757.06
399.268	785.06
399.492	867.06
399.717	942.06
399.941	966.06
400.165	926.06
400.389	892.06
400.613	799.06
400.837	778.06
401.062	749.06
401.286	724.06
401.51	732.06
401.734	713.06
401.958	723.06
402.182	714.06
402.406	736.06
402.63	768.06
402.854	757.06
403.078	752.06
403.302	768.06
403.526	769.06
403.75	767.06
403.974	765.06
404.198	789.06
404.422	791.06
404.645	784.06
404.869	776.06
405.093	811.06
405.317	862.06
405.541	865.06
405.765	774.06
405.988	785.06
406.212	798.06
406.436	808.06
406.66	811.06
406.883	797.06
407.107	863.06
407.331	891.06
407.555	952.06
407.778	1002.06
408.002	899.06
408.226	872.06
408.449	842.06
408.673	817.06
408.896	827.06
409.12	870.06
409.344	846.06
409.567	783.06
409.791	778.06
410.014	776.06
410.238	760.06
410.461	769.06
410.685	755.06
410.908	756.06
411.132	770.06
411.355	805.06
411.578	803.06
411.802	768.06
412.025	737.06
412.249	771.06
412.472	763.06
412.695	790.06
412.919	792.06
413.142	738.06
413.365	710.06
413.589	734.06
413.812	707.06
414.035	707.06
414.258	716.06
414.482	728.06
414.705	720.06
414.928	707.06
415.151	696.06
415.374	713.06
415.597	705.06
415.821	699.06
416.044	699.06
416.267	692.06
416.49	702.06
416.713	676.06
416.936	708.06
417.159	682.06
417.382	706.06
417.605	697.06
417.828	723.06
418.051	723.06
418.274	738.06
418.497	719.06
418.72	726.06
418.943	684.06
419.166	753.06
419.389	768.06
419.611	773.06
419.834	760.06
420.057	755.06
420.28	747.06
420.503	716.06
420.726	708.06
420.948	723.06
421.171	749.06
421.394	795.06
421.617	736.06
421.839	714.06
422.062	714.06
422.285	726.06
422.507	766.06
422.73	843.06
422.953	827.06
423.175	781.06
423.398	748.06
423.621	759.06
423.843	780.06
424.066	776.06
424.288	779.06
424.511	776.06
424.733	818.06
424.956	883.06
425.178	850.06
425.401	834.06
425.623	868.06
425.846	769.06
426.068	741.06
426.291	734.06
426.513	727.06
426.735	743.06
426.958	757.06
427.18	830.06
427.402	929.06
427.625	1042.06
427.847	886.06
428.069	812.06
428.292	741.06
428.514	695.06
428.736	696.06
428.958	679.06
429.181	669.06
429.403	664.06
429.625	675.06
429.847	682.06
430.069	745.06
430.292	726.06
430.514	675.06
430.736	672.06
430.958	640.06
431.18	647.06
431.402	648.06
431.624	633.06
431.846	658.06
432.068	654.06
432.29	657.06
432.512	642.06
432.734	663.06
432.956	650.06
433.178	676.06
433.4	653.06
433.622	647.06
433.844	661.06
434.066	658.06
434.287	667.06
434.509	670.06
434.731	678.06
434.953	702.06
435.175	721.06
435.397	741.06
435.618	735.06
435.84	756.06
436.062	832.06
436.284	900.06
436.505	767.06
436.727	706.06
436.949	691.06
437.17	680.06
437.392	673.06
437.614	668.06
437.835	706.06
438.057	799.06
438.278	848.06
438.5	844.06
438.721	920.06
438.943	882.06
439.165	741.06
439.386	700.06
439.608	697.06
439.829	729.06
440.05	735.06
440.272	768.06
440.493	740.06
440.715	707.06
440.936	708.06
441.158	691.06
441.379	667.06
441.6	714.06
441.822	717.06
442.043	774.06
442.264	820.06
442.486	882.06
442.707	802.06
442.928	751.06
443.149	754.06
443.371	769.06
443.592	817.06
443.813	888.06
444.034	936.06
444.255	853.06
444.476	797.06
444.698	811.06
444.919	840.06
445.14	902.06
445.361	832.06
445.582	792.06
445.803	832.06
446.024	870.06
446.245	860.06
446.466	822.06
446.687	747.06
446.908	705.06
447.129	678.06
447.35	675.06
447.571	676.06
447.792	654.06
448.013	658.06
448.234	648.06
448.455	699.06
448.675	779.06
448.896	917.06
449.117	750.06
449.338	727.06
449.559	839.06
449.779	934.06
450	781.06
450.221	671.06
450.442	660.06
450.662	630.06
450.883	637.06
451.104	649.06
451.324	616.06
451.545	617.06
451.766	602.06
451.986	603.06
452.207	604.06
452.428	613.06
452.648	599.06
452.869	586.06
453.089	619.06
453.31	625.06
453.53	604.06
453.751	594.06
453.971	589.06
454.192	598.06
454.412	579.06
454.633	596.06
454.853	578.06
455.073	587.06
455.294	611.06
455.514	672.06
455.734	624.06
455.955	573.06
456.175	572.06
456.395	578.06
456.616	558.06
456.836	559.06
457.056	568.06
457.276	557.06
457.497	564.06
457.717	557.06
457.937	585.06
458.157	586.06
458.377	588.06
458.598	635.06
458.818	664.06
459.038	727.06
459.258	752.06
459.478	673.06
459.698	662.06
459.918	664.06
460.138	684.06
460.358	717.06
460.578	736.06
460.798	742.06
461.018	757.06
461.238	734.06
461.458	724.06
461.678	710.06
461.898	746.06
462.118	709.06
462.338	750.06
462.558	761.06
462.777	781.06
462.997	828.06
463.217	864.06
463.437	888.06
463.657	837.06
463.876	776.06
464.096	784.06
464.316	788.06
464.536	786.06
464.755	800.06
464.975	766.06
465.195	780.06
465.414	832.06
465.634	739.06
465.854	695.06
466.073	671.06
466.293	652.06
466.512	646.06
466.732	638.06
466.951	660.06
467.171	640.06
467.391	637.06
467.61	621.06
467.829	629.06
468.049	618.06
468.268	631.06
468.488	608.06
468.707	597.06
468.927	604.06
469.146	595.06
469.365	628.06
469.585	585.06
469.804	612.06
470.023	646.06
470.243	648.06
470.462	661.06
470.681	675.06
470.901	661.06
471.12	661.06
471.339	632.06
471.558	661.06
471.777	626.06
471.997	617.06
472.216	635.06
472.435	650.06
472.654	640.06
472.873	632.06
473.092	631.06
473.311	614.06
473.53	618.06
473.749	632.06
473.968	650.06
474.187	717.06
474.406	754.06
474.625	637.06
474.844	601.06
475.063	617.06
475.282	620.06
475.501	621.06
475.72	635.06
475.939	635.06
476.158	644.06
476.377	650.06
476.596	621.06
476.814	662.06
477.033	637.06
477.252	668.06
477.471	685.06
477.69	692.06
477.908	708.06
478.127	681.06
478.346	707.06
478.564	714.06
478.783	760.06
479.002	742.06
479.22	741.06
479.439	770.06
479.658	779.06
479.876	745.06
480.095	771.06
480.313	827.06
480.532	830.06
480.751	813.06
480.969	800.06
481.188	841.06
481.406	865.06
481.624	814.06
481.843	762.06
482.061	734.06
482.28	716.06
482.498	719.06
482.717	732.06
482.935	715.06
483.153	724.06
483.372	723.06
483.59	735.06
483.808	709.06
484.027	722.06
484.245	740.06
484.463	712.06
484.681	754.06
484.9	753.06
485.118	763.06
485.336	737.06
485.554	774.06
485.772	753.06
485.99	788.06
486.209	786.06
486.427	757.06
486.645	781.06
486.863	786.06
487.081	772.06
487.299	778.06
487.517	785.06
487.735	750.06
487.953	790.06
488.171	788.06
488.389	761.06
488.607	770.06
488.825	761.06
489.043	785.06
489.261	779.06
489.479	803.06
489.696	789.06
489.914	809.06
490.132	790.06
490.35	804.06
490.568	803.06
490.786	844.06
491.003	825.06
491.221	842.06
491.439	853.06
491.657	855.06
491.874	836.06
492.092	853.06
492.31	858.06
492.527	877.06
492.745	874.06
492.963	878.06
493.18	895.06
493.398	892.06
493.615	903.06
493.833	884.06
494.05	925.06
494.268	889.06
494.485	881.06
494.703	896.06
494.92	897.06
495.138	932.06
495.355	901.06
495.573	919.06
495.79	916.06
496.008	927.06
496.225	920.06
496.442	913.06
496.66	900.06
496.877	901.06
497.094	934.06
497.312	964.06
497.529	969.06
497.746	965.06
497.963	990.06
498.181	1032.06
498.398	1067.06
498.615	1110.06
498.832	1167.06
499.049	1150.06
499.267	1235.06
499.484	1346.06
499.701	1412.06
499.918	1528.06
500.135	1662.06
500.352	1762.06
500.569	1867.06
500.786	1846.06
501.003	1769.06
501.22	1675.06
501.437	1520.06
501.654	1390.06
501.871	1333.06
502.088	1256.06
502.305	1208.06
502.522	1174.06
502.739	1105.06
502.956	1058.06
503.172	1069.06
503.389	1019.06
503.606	965.06
503.823	988.06
504.04	934.06
504.256	958.06
504.473	988.06
504.69	993.06
504.907	962.06
505.123	931.06
505.34	910.06
505.557	887.06
505.773	900.06
505.99	880.06
506.207	857.06
506.423	868.06
506.64	806.06
506.856	847.06
507.073	837.06
507.289	843.06
507.506	789.06
507.722	806.06
507.939	822.06
508.155	832.06
508.372	792.06
508.588	789.06
508.805	788.06
509.021	774.06
509.238	821.06
509.454	797.06
509.67	822.06
509.887	770.06
510.103	772.06
510.319	790.06
510.536	864.06
510.752	1249.06
510.968	1078.06
511.184	776.06
511.401	775.06
511.617	742.06
511.833	741.06
512.049	728.06
512.265	725.06
512.481	736.06
512.698	759.06
512.914	746.06
513.13	746.06
513.346	740.06
513.562	718.06
513.778	740.06
513.994	735.06
514.21	759.06
514.426	766.06
514.642	804.06
514.858	834.06
515.074	834.06
515.29	920.06
515.506	1235.06
515.721	1122.06
515.937	874.06
516.153	801.06
516.369	830.06
516.585	828.06
516.801	827.06
517.016	856.06
517.232	860.06
517.448	887.06
517.664	900.06
517.879	894.06
518.095	889.06
518.311	894.06
518.527	856.06
518.742	847.06
518.958	815.06
519.173	792.06
519.389	804.06
519.605	788.06
519.82	794.06
520.036	786.06
520.251	756.06
520.467	781.06
520.682	788.06
520.898	773.06
521.113	760.06
521.329	796.06
521.544	853.06
521.76	1017.06
521.975	1497.06
522.19	1518.06
522.406	936.06
522.621	748.06
522.836	703.06
523.052	736.06
523.267	695.06
523.482	672.06
523.698	675.06
523.913	674.06
524.128	655.06
524.343	653.06
524.559	646.06
524.774	653.06
524.989	675.06
525.204	642.06
525.419	649.06
525.634	646.06
525.849	649.06
526.064	652.06
526.28	651.06
526.495	637.06
526.71	642.06
526.925	638.06
527.14	634.06
527.355	619.06
527.57	638.06
527.785	611.06
527.999	618.06
528.214	633.06
528.429	619.06
528.644	624.06
528.859	614.06
529.074	631.06
529.289	622.06
529.503	695.06
529.718	682.06
529.933	640.06
530.148	647.06
530.363	632.06
530.577	627.06
530.792	614.06
531.007	625.06
531.221	646.06
531.436	623.06
531.651	616.06
531.865	620.06
532.08	626.06
532.295	623.06
532.509	634.06
532.724	612.06
532.938	600.06
533.153	631.06
533.367	615.06
533.582	610.06
533.796	603.06
534.011	610.06
534.225	626.06
534.44	601.06
534.654	586.06
534.868	589.06
535.083	597.06
535.297	611.06
535.511	598.06
535.726	603.06
535.94	617.06
536.154	627.06
536.369	600.06
536.583	594.06
536.797	571.06
537.011	597.06
537.225	578.06
537.44	586.06
537.654	582.06
537.868	570.06
538.082	585.06
538.296	568.06
538.51	579.06
538.724	584.06
538.938	573.06
539.153	564.06
539.367	578.06
539.581	584.06
539.795	578.06
540.009	567.06
540.222	576.06
540.436	586.06
540.65	576.06
540.864	584.06
541.078	570.06
541.292	588.06
541.506	573.06
541.72	589.06
541.934	567.06
542.147	580.06
542.361	569.06
542.575	572.06
542.789	561.06
543.002	591.06
543.216	576.06
543.43	561.06
543.644	574.06
543.857	582.06
544.071	589.06
544.285	581.06
544.498	578.06
544.712	587.06
544.925	582.06
545.139	595.06
545.352	576.06
545.566	561.06
545.779	580.06
545.993	586.06
546.206	579.06
546.42	568.06
546.633	572.06
546.847	580.06
547.06	582.06
547.274	590.06
547.487	545.06
547.7	574.06
547.914	572.06
548.127	570.06
548.34	582.06
548.554	572.06
548.767	557.06
548.98	593.06
549.193	592.06
549.407	582.06
549.62	595.06
549.833	572.06
550.046	561.06
550.259	584.06
550.473	574.06
550.686	563.06
550.899	566.06
551.112	553.06
551.325	551.06
551.538	570.06
551.751	576.06
551.964	578.06
552.177	587.06
552.39	563.06
552.603	588.06
552.816	608.06
553.029	611.06
553.242	649.06
553.455	627.06
553.667	627.06
553.88	634.06
554.093	599.06
554.306	598.06
554.519	594.06
554.732	593.06
554.944	585.06
555.157	578.06
555.37	560.06
555.583	538.06
555.795	545.06
556.008	522.06
556.221	545.06
556.433	530.06
556.646	525.06
556.859	507.06
557.071	532.06
557.284	530.06
557.496	521.06
557.709	527.06
557.921	516.06
558.134	518.06
558.346	491.06
558.559	505.06
558.771	506.06
558.984	498.06
559.196	487.06
559.409	498.06
559.621	490.06
559.833	480.06
560.046	504.06
560.258	486.06
560.47	508.06
560.683	496.06
560.895	477.06
561.107	504.06
561.32	507.06
561.532	503.06
561.744	510.06
561.956	504.06
562.168	491.06
562.381	499.06
562.593	490.06
562.805	490.06
563.017	508.06
563.229	486.06
563.441	492.06
563.653	504.06
563.865	524.06
564.077	517.06
564.289	509.06
564.501	545.06
564.713	557.06
564.925	567.06
565.137	532.06
565.349	552.06
565.561	580.06
565.773	579.06
565.985	614.06
566.197	630.06
566.408	660.06
566.62	707.06
566.832	718.06
567.044	757.06
567.255	745.06
567.467	782.06
567.679	791.06
567.891	826.06
568.102	819.06
568.314	804.06
568.526	776.06
568.737	729.06
568.949	685.06
569.161	628.06
569.372	612.06
569.584	566.06
569.795	554.06
570.007	557.06
570.218	596.06
570.43	572.06
570.641	523.06
570.853	528.06
571.064	530.06
571.276	538.06
571.487	500.06
571.698	465.06
571.91	477.06
572.121	481.06
572.333	469.06
572.544	453.06
572.755	427.06
572.966	445.06
573.178	438.06
573.389	444.06
573.6	448.06
573.811	433.06
574.023	435.06
574.234	439.06
574.445	442.06
574.656	437.06
574.867	441.06
575.078	442.06
575.289	440.06
575.501	425.06
575.712	426.06
575.923	415.06
576.134	425.06
576.345	437.06
576.556	432.06
576.767	422.06
576.978	429.06
577.188	413.06
577.399	413.06
577.61	416.06
577.821	392.06
578.032	420.06
578.243	402.06
578.454	584.06
578.665	466.06
578.875	404.06
579.086	384.06
579.297	385.06
579.508	383.06
579.718	406.06
579.929	383.06
580.14	381.06
580.35	366.06
580.561	384.06
580.772	386.06
580.982	396.06
581.193	378.06
581.403	394.06
581.614	368.06
581.825	382.06
582.035	372.06
582.246	374.06
582.456	374.06
582.667	395.06
582.877	402.06
583.087	395.06
583.298	378.06
583.508	388.06
583.719	376.06
583.929	381.06
584.139	364.06
584.35	368.06
584.56	372.06
584.77	362.06
584.981	364.06
585.191	365.06
585.401	380.06
585.611	356.06
585.821	386.06
586.032	368.06
586.242	378.06
586.452	374.06
586.662	383.06
586.872	373.06
587.082	357.06
587.292	383.06
587.502	359.06
587.713	366.06
587.923	358.06
588.133	363.06
588.343	380.06
588.553	370.06
588.762	345.06
588.972	370.06
589.182	383.06
589.392	382.06
589.602	379.06
589.812	371.06
590.022	376.06
590.232	384.06
590.441	366.06
590.651	392.06
590.861	363.06
591.071	384.06
591.281	376.06
591.49	376.06
591.7	393.06
591.91	386.06
592.119	403.06
592.329	389.06
592.539	399.06
592.748	421.06
592.958	422.06
593.167	438.06
593.377	458.06
593.587	456.06
593.796	451.06
594.006	450.06
594.215	452.06
594.424	457.06
594.634	434.06
594.843	432.06
595.053	434.06
595.262	385.06
595.472	392.06
595.681	379.06
595.89	389.06
596.1	392.06
596.309	380.06
596.518	374.06
596.727	362.06
596.937	336.06
597.146	357.06
597.355	346.06
597.564	342.06
597.774	353.06
597.983	344.06
598.192	336.06
598.401	338.06
598.61	337.06
598.819	338.06
599.028	321.06
599.237	327.06
599.446	328.06
599.655	328.06
599.864	344.06
600.073	330.06
600.282	321.06
600.491	336.06
600.7	323.06
600.909	318.06
601.118	328.06
601.327	328.06
601.536	317.06
601.745	324.06
601.953	310.06
602.162	310.06
602.371	301.06
602.58	319.06
602.789	313.06
602.997	301.06
603.206	314.06
603.415	289.06
603.623	290.06
603.832	337.06
604.041	313.06
604.249	318.06
604.458	308.06
604.666	307.06
604.875	292.06
605.084	286.06
605.292	285.06
605.501	308.06
605.709	304.06
605.918	293.06
606.126	300.06
606.334	313.06
606.543	297.06
606.751	314.06
606.96	306.06
607.168	292.06
607.376	299.06
607.585	310.06
607.793	305.06
608.001	304.06
608.21	306.06
608.418	309.06
608.626	281.06
608.834	308.06
609.043	301.06
609.251	284.06
609.459	288.06
609.667	301.06
609.875	297.06
610.083	285.06
610.291	292.06
610.499	299.06
610.707	299.06
610.916	297.06
611.124	295.06
611.332	320.06
611.54	296.06
611.748	290.06
611.955	297.06
612.163	310.06
612.371	278.06
612.579	275.06
612.787	304.06
612.995	284.06
613.203	275.06
613.411	291.06
613.618	309.06
613.826	297.06
614.034	284.06
614.242	301.06
614.449	299.06
614.657	280.06
614.865	288.06
615.072	280.06
615.28	301.06
615.488	290.06
615.695	284.06
615.903	302.06
616.111	300.06
616.318	276.06
616.526	307.06
616.733	301.06
616.941	279.06
617.148	293.06
617.356	290.06
617.563	295.06
617.771	275.06
617.978	275.06
618.185	277.06
618.393	272.06
618.6	287.06
618.807	277.06
619.015	294.06
619.222	297.06
619.429	283.06
619.637	291.06
619.844	286.06
620.051	271.06
620.258	296.06
620.466	281.06
620.673	285.06
620.88	282.06
621.087	291.06
621.294	268.06
621.501	270.06
621.708	273.06
621.915	274.06
622.122	268.06
622.329	259.06
622.536	275.06
622.743	276.06
622.95	283.06
623.157	276.06
623.364	277.06
623.571	265.06
623.778	271.06
623.985	273.06
624.192	257.06
624.399	258.06
624.606	271.06
624.812	264.06
625.019	252.06
625.226	266.06
625.433	262.06
625.639	267.06
625.846	283.06
626.053	273.06
626.259	262.06
626.466	267.06
626.673	256.06
626.879	233.06
627.086	244.06
627.293	240.06
627.499	261.06
627.706	248.06
627.912	244.06
628.119	242.06
628.325	261.06
628.532	262.06
628.738	250.06
628.945	268.06
629.151	251.06
629.357	249.06
629.564	245.06
629.77	241.06
629.976	239.06
630.183	234.06
630.389	248.06
630.595	224.06
630.802	225.06
631.008	220.06
631.214	229.06
631.42	222.06
631.627	245.06
631.833	235.06
632.039	227.06
632.245	215.06
632.451	235.06
632.657	220.06
632.863	228.06
633.069	232.06
633.275	235.06
633.481	203.06
633.688	227.06
633.893	208.06
634.099	219.06
634.305	220.06
634.511	224.06
634.717	233.06
634.923	216.06
635.129	226.06
635.335	211.06
635.541	214.06
635.747	206.06
635.952	221.06
636.158	214.06
636.364	216.06
636.57	212.06
636.775	219.06
636.981	204.06
637.187	225.06
637.392	212.06
637.598	211.06
637.804	206.06
638.009	198.06
638.215	196.06
638.421	223.06
638.626	214.06
638.832	205.06
639.037	190.06
639.243	190.06
639.448	201.06
639.654	203.06
639.859	199.06
640.065	212.06
640.27	195.06
640.475	195.06
640.681	195.06
640.886	210.06
641.091	192.06
641.297	205.06
641.502	209.06
641.707	201.06
641.913	201.06
642.118	193.06
642.323	199.06
642.528	181.06
642.733	200.06
642.939	189.06
643.144	195.06
643.349	193.06
643.554	202.06
643.759	197.06
643.964	202.06
644.169	197.06
644.374	196.06
644.579	198.06
644.784	194.06
644.989	183.06
645.194	193.06
645.399	188.06
645.604	196.06
645.809	197.06
646.014	195.06
646.219	192.06
646.423	199.06
646.628	187.06
646.833	198.06
647.038	193.06
647.243	198.06
647.447	193.06
647.652	198.06
647.857	199.06
648.062	194.06
648.266	192.06
648.471	201.06
648.676	214.06
648.88	198.06
649.085	182.06
649.289	197.06
649.494	214.06
649.698	212.06
649.903	192.06
650.107	182.06
650.312	189.06
650.516	188.06
650.721	191.06
650.925	172.06
651.13	184.06
651.334	186.06
651.539	170.06
651.743	164.06
651.947	183.06
652.152	188.06
652.356	166.06
652.56	168.06
652.764	164.06
652.969	148.06
653.173	176.06
653.377	168.06
653.581	170.06
653.785	148.06
653.99	160.06
654.194	135.06
654.398	161.06
654.602	161.06
654.806	161.06
655.01	156.06
655.214	148.06
655.418	149.06
655.622	147.06
655.826	158.06
656.03	165.06
656.234	160.06
656.438	153.06
656.642	163.06
656.846	164.06
657.049	158.06
657.253	142.06
657.457	150.06
657.661	131.06
657.865	127.06
658.068	125.06
658.272	123.06
658.476	116.06
658.68	120.06
658.883	99.06
659.087	104.06
659.291	113.06
659.494	110.06
659.698	120.06
659.901	105.06
660.105	101.06
660.309	106.06
660.512	107.06
660.716	97.06
660.919	101.06
661.123	115.06
661.326	87.06
661.53	82.06
661.733	100.06
661.936	91.06
662.14	83.06
662.343	88.06
662.546	90.06
662.75	84.06
662.953	88.06
663.156	100.06
663.36	83.06
663.563	91.06
663.766	90.06
663.969	81.06
664.173	85.06
664.376	89.06
664.579	83.06
664.782	70.06
664.985	94.06
665.188	73.06
665.391	82.06
665.594	99.06
665.797	81.06
666	76.06
666.203	76.06
666.406	79.06
666.609	78.06
666.812	85.06
667.015	77.06
667.218	77.06
667.421	91.06
667.624	87.06
667.827	82.06
668.03	90.06
668.232	67.06
668.435	102.06
668.638	82.06
668.841	86.06
669.043	90.06
669.246	81.06
669.449	85.06
669.651	92.06
669.854	83.06
670.057	86.06
670.259	99.06
670.462	98.06
670.665	79.06
670.867	77.06
671.07	99.06
671.272	88.06
671.475	86.06
671.677	83.06
671.88	79.06
672.082	81.06
672.284	85.06
672.487	94.06
672.689	87.06
672.892	83.06
