Data from 1963.PennyLincolnUp.Lamp.En5.5.200Scan.071719.P1._HRD10591_13-59-53-063.txt Node
Date: Thu Jul 18 13:59:53 EDT 2019
User: cochatt
Spectrometer: HR+D1059
Trigger mode: 1
Integration Time (sec): 1.000000E-1
Scans to average: 1
Electric dark correction enabled: true
Nonlinearity correction enabled: false
Boxcar width: 0
XAxis mode: Wavelengths
Number of Pixels in Spectrum: 2048
>>>>>Begin Spectral Data<<<<<
223.165	-12.19
223.4	-12.19
223.635	-12.19
223.869	-31.19
224.104	-21.19
224.338	-17.19
224.573	-7.19
224.808	-7.19
225.042	-3.19
225.277	0.81
225.511	1.81
225.746	2.81
225.98	10.81
226.215	-0.19
226.449	1.81
226.683	20.81
226.918	25.81
227.152	34.81
227.387	33.81
227.621	25.81
227.856	35.81
228.09	46.81
228.324	25.81
228.559	53.81
228.793	73.81
229.027	96.81
229.262	105.81
229.496	104.81
229.73	133.81
229.964	137.81
230.199	122.81
230.433	120.81
230.667	125.81
230.901	121.81
231.136	112.81
231.37	109.81
231.604	135.81
231.838	112.81
232.072	111.81
232.306	121.81
232.541	126.81
232.775	127.81
233.009	131.81
233.243	104.81
233.477	121.81
233.711	132.81
233.945	122.81
234.179	107.81
234.413	114.81
234.647	121.81
234.881	119.81
235.115	131.81
235.349	122.81
235.583	118.81
235.817	122.81
236.051	118.81
236.285	123.81
236.519	122.81
236.753	128.81
236.987	148.81
237.221	163.81
237.455	225.81
237.689	167.81
237.922	150.81
238.156	122.81
238.39	133.81
238.624	140.81
238.858	133.81
239.091	133.81
239.325	139.81
239.559	129.81
239.793	131.81
240.027	140.81
240.26	154.81
240.494	176.81
240.728	155.81
240.961	167.81
241.195	167.81
241.429	157.81
241.662	153.81
241.896	136.81
242.13	149.81
242.363	139.81
242.597	160.81
242.83	155.81
243.064	125.81
243.298	147.81
243.531	159.81
243.765	157.81
243.998	154.81
244.232	150.81
244.465	152.81
244.699	157.81
244.932	149.81
245.166	166.81
245.399	169.81
245.633	160.81
245.866	175.81
246.099	153.81
246.333	159.81
246.566	167.81
246.8	168.81
247.033	170.81
247.266	169.81
247.5	183.81
247.733	181.81
247.966	176.81
248.2	202.81
248.433	188.81
248.666	194.81
248.899	196.81
249.133	201.81
249.366	221.81
249.599	193.81
249.832	202.81
250.066	203.81
250.299	204.81
250.532	206.81
250.765	221.81
250.998	237.81
251.231	238.81
251.465	246.81
251.698	222.81
251.931	222.81
252.164	203.81
252.397	195.81
252.63	228.81
252.863	226.81
253.096	237.81
253.329	243.81
253.562	245.81
253.795	229.81
254.028	240.81
254.261	233.81
254.494	259.81
254.727	257.81
254.96	287.81
255.193	258.81
255.426	261.81
255.659	261.81
255.892	238.81
256.124	251.81
256.357	254.81
256.59	239.81
256.823	228.81
257.056	237.81
257.289	242.81
257.521	237.81
257.754	206.81
257.987	217.81
258.22	237.81
258.452	237.81
258.685	218.81
258.918	238.81
259.151	237.81
259.383	224.81
259.616	247.81
259.849	242.81
260.081	277.81
260.314	263.81
260.547	271.81
260.779	266.81
261.012	246.81
261.244	230.81
261.477	262.81
261.71	241.81
261.942	241.81
262.175	261.81
262.407	264.81
262.64	240.81
262.872	244.81
263.105	228.81
263.337	231.81
263.57	252.81
263.802	251.81
264.035	233.81
264.267	271.81
264.499	241.81
264.732	243.81
264.964	250.81
265.197	256.81
265.429	259.81
265.661	253.81
265.894	253.81
266.126	274.81
266.358	251.81
266.591	267.81
266.823	263.81
267.055	261.81
267.287	267.81
267.52	270.81
267.752	257.81
267.984	263.81
268.216	278.81
268.448	280.81
268.681	264.81
268.913	262.81
269.145	307.81
269.377	300.81
269.609	314.81
269.841	293.81
270.073	298.81
270.306	303.81
270.538	333.81
270.77	343.81
271.002	336.81
271.234	328.81
271.466	324.81
271.698	317.81
271.93	342.81
272.162	339.81
272.394	341.81
272.626	346.81
272.858	319.81
273.09	318.81
273.322	313.81
273.553	283.81
273.785	306.81
274.017	295.81
274.249	311.81
274.481	293.81
274.713	316.81
274.945	312.81
275.176	325.81
275.408	301.81
275.64	302.81
275.872	323.81
276.104	311.81
276.335	291.81
276.567	308.81
276.799	319.81
277.031	341.81
277.262	344.81
277.494	355.81
277.726	337.81
277.957	314.81
278.189	337.81
278.421	301.81
278.652	315.81
278.884	322.81
279.115	313.81
279.347	310.81
279.579	330.81
279.81	327.81
280.042	313.81
280.273	316.81
280.505	300.81
280.736	318.81
280.968	316.81
281.199	305.81
281.431	319.81
281.662	325.81
281.894	336.81
282.125	330.81
282.356	349.81
282.588	371.81
282.819	359.81
283.051	341.81
283.282	329.81
283.513	352.81
283.745	336.81
283.976	341.81
284.207	344.81
284.439	339.81
284.67	337.81
284.901	343.81
285.132	344.81
285.364	342.81
285.595	345.81
285.826	336.81
286.057	337.81
286.288	357.81
286.52	336.81
286.751	355.81
286.982	323.81
287.213	330.81
287.444	347.81
287.675	365.81
287.906	355.81
288.138	354.81
288.369	351.81
288.6	359.81
288.831	341.81
289.062	365.81
289.293	350.81
289.524	345.81
289.755	353.81
289.986	345.81
290.217	353.81
290.448	365.81
290.679	368.81
290.91	369.81
291.141	371.81
291.371	361.81
291.602	381.81
291.833	369.81
292.064	375.81
292.295	372.81
292.526	354.81
292.757	359.81
292.987	356.81
293.218	354.81
293.449	375.81
293.68	365.81
293.91	362.81
294.141	377.81
294.372	359.81
294.603	376.81
294.833	359.81
295.064	358.81
295.295	386.81
295.525	372.81
295.756	383.81
295.987	377.81
296.217	381.81
296.448	400.81
296.679	401.81
296.909	373.81
297.14	377.81
297.37	401.81
297.601	401.81
297.831	380.81
298.062	377.81
298.292	374.81
298.523	373.81
298.753	385.81
298.984	387.81
299.214	388.81
299.445	393.81
299.675	402.81
299.905	410.81
300.136	403.81
300.366	400.81
300.597	401.81
300.827	392.81
301.057	397.81
301.288	431.81
301.518	421.81
301.748	421.81
301.979	395.81
302.209	403.81
302.439	427.81
302.669	432.81
302.9	421.81
303.13	391.81
303.36	413.81
303.59	424.81
303.82	419.81
304.051	406.81
304.281	416.81
304.511	420.81
304.741	415.81
304.971	418.81
305.201	403.81
305.431	410.81
305.661	403.81
305.891	417.81
306.121	419.81
306.352	419.81
306.582	433.81
306.812	401.81
307.042	401.81
307.272	416.81
307.502	424.81
307.731	433.81
307.961	421.81
308.191	400.81
308.421	412.81
308.651	412.81
308.881	420.81
309.111	421.81
309.341	415.81
309.571	414.81
309.8	431.81
310.03	447.81
310.26	438.81
310.49	439.81
310.72	445.81
310.949	454.81
311.179	454.81
311.409	463.81
311.639	431.81
311.868	452.81
312.098	447.81
312.328	456.81
312.557	452.81
312.787	454.81
313.017	474.81
313.246	465.81
313.476	457.81
313.706	454.81
313.935	463.81
314.165	485.81
314.394	488.81
314.624	484.81
314.853	474.81
315.083	453.81
315.312	473.81
315.542	453.81
315.771	433.81
316.001	451.81
316.23	468.81
316.46	465.81
316.689	443.81
316.919	453.81
317.148	472.81
317.377	450.81
317.607	470.81
317.836	488.81
318.065	459.81
318.295	461.81
318.524	478.81
318.753	454.81
318.983	456.81
319.212	464.81
319.441	459.81
319.67	459.81
319.9	465.81
320.129	454.81
320.358	463.81
320.587	460.81
320.816	461.81
321.046	496.81
321.275	475.81
321.504	453.81
321.733	470.81
321.962	477.81
322.191	497.81
322.42	482.81
322.649	506.81
322.878	518.81
323.108	513.81
323.337	536.81
323.566	563.81
323.795	548.81
324.024	588.81
324.253	685.81
324.482	863.81
324.71	1237.81
324.939	1789.81
325.168	1556.81
325.397	847.81
325.626	667.81
325.855	588.81
326.084	557.81
326.313	567.81
326.542	570.81
326.77	595.81
326.999	670.81
327.228	826.81
327.457	1160.81
327.686	1441.81
327.914	977.81
328.143	724.81
328.372	661.81
328.6	631.81
328.829	601.81
329.058	604.81
329.287	593.81
329.515	592.81
329.744	573.81
329.972	576.81
330.201	603.81
330.43	609.81
330.658	623.81
330.887	639.81
331.115	660.81
331.344	569.81
331.572	579.81
331.801	586.81
332.03	590.81
332.258	584.81
332.486	565.81
332.715	589.81
332.943	590.81
333.172	602.81
333.4	624.81
333.629	637.81
333.857	613.81
334.085	664.81
334.314	678.81
334.542	657.81
334.771	672.81
334.999	696.81
335.227	630.81
335.455	615.81
335.684	598.81
335.912	601.81
336.14	600.81
336.369	593.81
336.597	564.81
336.825	585.81
337.053	580.81
337.281	568.81
337.51	568.81
337.738	573.81
337.966	567.81
338.194	575.81
338.422	545.81
338.65	559.81
338.878	553.81
339.106	544.81
339.334	546.81
339.562	545.81
339.79	522.81
340.018	552.81
340.246	541.81
340.474	557.81
340.702	536.81
340.93	515.81
341.158	515.81
341.386	519.81
341.614	529.81
341.842	548.81
342.07	554.81
342.298	526.81
342.526	525.81
342.754	513.81
342.981	522.81
343.209	530.81
343.437	557.81
343.665	559.81
343.893	597.81
344.12	613.81
344.348	593.81
344.576	584.81
344.804	586.81
345.031	565.81
345.259	565.81
345.487	541.81
345.714	542.81
345.942	545.81
346.17	522.81
346.397	540.81
346.625	533.81
346.853	507.81
347.08	499.81
347.308	512.81
347.535	527.81
347.763	512.81
347.99	514.81
348.218	522.81
348.445	538.81
348.673	531.81
348.9	516.81
349.128	493.81
349.355	517.81
349.583	495.81
349.81	498.81
350.037	513.81
350.265	509.81
350.492	515.81
350.72	512.81
350.947	514.81
351.174	513.81
351.402	523.81
351.629	484.81
351.856	498.81
352.083	500.81
352.311	513.81
352.538	533.81
352.765	533.81
352.992	515.81
353.22	507.81
353.447	489.81
353.674	509.81
353.901	488.81
354.128	499.81
354.355	487.81
354.583	521.81
354.81	513.81
355.037	491.81
355.264	504.81
355.491	466.81
355.718	477.81
355.945	510.81
356.172	501.81
356.399	501.81
356.626	469.81
356.853	501.81
357.08	482.81
357.307	471.81
357.534	492.81
357.761	475.81
357.988	493.81
358.215	471.81
358.441	485.81
358.668	472.81
358.895	494.81
359.122	487.81
359.349	511.81
359.576	529.81
359.802	521.81
360.029	522.81
360.256	558.81
360.483	541.81
360.709	505.81
360.936	521.81
361.163	516.81
361.39	520.81
361.616	542.81
361.843	527.81
362.07	520.81
362.296	488.81
362.523	509.81
362.749	506.81
362.976	505.81
363.203	502.81
363.429	494.81
363.656	494.81
363.882	508.81
364.109	498.81
364.335	488.81
364.562	515.81
364.788	490.81
365.015	514.81
365.241	477.81
365.468	497.81
365.694	521.81
365.92	499.81
366.147	500.81
366.373	486.81
366.599	493.81
366.826	485.81
367.052	494.81
367.278	500.81
367.505	517.81
367.731	508.81
367.957	511.81
368.184	485.81
368.41	509.81
368.636	497.81
368.862	530.81
369.089	523.81
369.315	504.81
369.541	519.81
369.767	506.81
369.993	502.81
370.219	510.81
370.445	502.81
370.672	517.81
370.898	491.81
371.124	508.81
371.35	504.81
371.576	543.81
371.802	525.81
372.028	501.81
372.254	515.81
372.48	530.81
372.706	523.81
372.932	553.81
373.158	549.81
373.384	523.81
373.61	537.81
373.835	527.81
374.061	523.81
374.287	537.81
374.513	536.81
374.739	564.81
374.965	547.81
375.191	544.81
375.416	547.81
375.642	565.81
375.868	541.81
376.094	538.81
376.319	531.81
376.545	506.81
376.771	531.81
376.997	527.81
377.222	537.81
377.448	512.81
377.674	509.81
377.899	506.81
378.125	514.81
378.35	528.81
378.576	516.81
378.802	511.81
379.027	536.81
379.253	524.81
379.478	498.81
379.704	527.81
379.929	540.81
380.155	514.81
380.38	523.81
380.606	521.81
380.831	524.81
381.057	508.81
381.282	532.81
381.507	519.81
381.733	517.81
381.958	525.81
382.184	535.81
382.409	529.81
382.634	527.81
382.86	541.81
383.085	539.81
383.31	560.81
383.535	553.81
383.761	557.81
383.986	568.81
384.211	563.81
384.436	551.81
384.662	593.81
384.887	569.81
385.112	616.81
385.337	591.81
385.562	585.81
385.787	611.81
386.013	632.81
386.238	625.81
386.463	616.81
386.688	619.81
386.913	598.81
387.138	610.81
387.363	595.81
387.588	614.81
387.813	614.81
388.038	583.81
388.263	601.81
388.488	610.81
388.713	585.81
388.938	598.81
389.163	610.81
389.387	570.81
389.612	594.81
389.837	599.81
390.062	592.81
390.287	598.81
390.512	584.81
390.736	597.81
390.961	617.81
391.186	612.81
391.411	615.81
391.636	612.81
391.86	660.81
392.085	672.81
392.31	647.81
392.534	630.81
392.759	610.81
392.984	618.81
393.208	596.81
393.433	606.81
393.658	632.81
393.882	603.81
394.107	623.81
394.331	633.81
394.556	619.81
394.78	618.81
395.005	631.81
395.229	632.81
395.454	648.81
395.678	656.81
395.903	666.81
396.127	654.81
396.352	651.81
396.576	644.81
396.801	626.81
397.025	621.81
397.249	659.81
397.474	634.81
397.698	649.81
397.922	670.81
398.147	693.81
398.371	697.81
398.595	704.81
398.82	723.81
399.044	734.81
399.268	783.81
399.492	866.81
399.717	945.81
399.941	937.81
400.165	920.81
400.389	872.81
400.613	828.81
400.837	797.81
401.062	726.81
401.286	704.81
401.51	725.81
401.734	708.81
401.958	724.81
402.182	721.81
402.406	734.81
402.63	735.81
402.854	755.81
403.078	777.81
403.302	771.81
403.526	774.81
403.75	791.81
403.974	769.81
404.198	792.81
404.422	781.81
404.645	802.81
404.869	788.81
405.093	821.81
405.317	837.81
405.541	863.81
405.765	817.81
405.988	791.81
406.212	783.81
406.436	791.81
406.66	859.81
406.883	826.81
407.107	835.81
407.331	903.81
407.555	985.81
407.778	942.81
408.002	913.81
408.226	871.81
408.449	851.81
408.673	811.81
408.896	848.81
409.12	883.81
409.344	826.81
409.567	816.81
409.791	801.81
410.014	752.81
410.238	757.81
410.461	793.81
410.685	783.81
410.908	762.81
411.132	782.81
411.355	819.81
411.578	793.81
411.802	752.81
412.025	753.81
412.249	766.81
412.472	787.81
412.695	810.81
412.919	821.81
413.142	743.81
413.365	716.81
413.589	711.81
413.812	735.81
414.035	700.81
414.258	712.81
414.482	725.81
414.705	738.81
414.928	720.81
415.151	701.81
415.374	692.81
415.597	698.81
415.821	668.81
416.044	690.81
416.267	693.81
416.49	689.81
416.713	686.81
416.936	719.81
417.159	685.81
417.382	685.81
417.605	695.81
417.828	693.81
418.051	721.81
418.274	734.81
418.497	721.81
418.72	739.81
418.943	710.81
419.166	769.81
419.389	797.81
419.611	777.81
419.834	765.81
420.057	791.81
420.28	747.81
420.503	731.81
420.726	706.81
420.948	730.81
421.171	767.81
421.394	769.81
421.617	711.81
421.839	718.81
422.062	719.81
422.285	728.81
422.507	769.81
422.73	864.81
422.953	833.81
423.175	770.81
423.398	743.81
423.621	763.81
423.843	784.81
424.066	789.81
424.288	760.81
424.511	783.81
424.733	839.81
424.956	893.81
425.178	855.81
425.401	827.81
425.623	848.81
425.846	792.81
426.068	753.81
426.291	738.81
426.513	742.81
426.735	741.81
426.958	774.81
427.18	807.81
427.402	952.81
427.625	994.81
427.847	896.81
428.069	822.81
428.292	763.81
428.514	685.81
428.736	695.81
428.958	681.81
429.181	678.81
429.403	649.81
429.625	660.81
429.847	687.81
430.069	797.81
430.292	764.81
430.514	685.81
430.736	667.81
430.958	658.81
431.18	651.81
431.402	655.81
431.624	650.81
431.846	649.81
432.068	654.81
432.29	678.81
432.512	670.81
432.734	661.81
432.956	649.81
433.178	690.81
433.4	657.81
433.622	655.81
433.844	667.81
434.066	644.81
434.287	651.81
434.509	687.81
434.731	708.81
434.953	706.81
435.175	721.81
435.397	733.81
435.618	733.81
435.84	750.81
436.062	808.81
436.284	871.81
436.505	758.81
436.727	725.81
436.949	697.81
437.17	690.81
437.392	678.81
437.614	664.81
437.835	678.81
438.057	773.81
438.278	861.81
438.5	834.81
438.721	913.81
438.943	897.81
439.165	759.81
439.386	727.81
439.608	706.81
439.829	703.81
440.05	730.81
440.272	741.81
440.493	738.81
440.715	723.81
440.936	686.81
441.158	676.81
441.379	701.81
441.6	730.81
441.822	751.81
442.043	797.81
442.264	835.81
442.486	864.81
442.707	787.81
442.928	782.81
443.149	740.81
443.371	788.81
443.592	806.81
443.813	881.81
444.034	937.81
444.255	827.81
444.476	795.81
444.698	801.81
444.919	821.81
445.14	911.81
445.361	825.81
445.582	804.81
445.803	778.81
446.024	888.81
446.245	876.81
446.466	843.81
446.687	757.81
446.908	718.81
447.129	675.81
447.35	662.81
447.571	669.81
447.792	634.81
448.013	662.81
448.234	662.81
448.455	689.81
448.675	783.81
448.896	896.81
449.117	791.81
449.338	739.81
449.559	831.81
449.779	928.81
450	742.81
450.221	682.81
450.442	659.81
450.662	641.81
450.883	636.81
451.104	651.81
451.324	674.81
451.545	637.81
451.766	632.81
451.986	598.81
452.207	595.81
452.428	594.81
452.648	610.81
452.869	593.81
453.089	607.81
453.31	602.81
453.53	617.81
453.751	606.81
453.971	607.81
454.192	611.81
454.412	597.81
454.633	582.81
454.853	595.81
455.073	587.81
455.294	621.81
455.514	665.81
455.734	643.81
455.955	574.81
456.175	576.81
456.395	574.81
456.616	576.81
456.836	568.81
457.056	552.81
457.276	541.81
457.497	577.81
457.717	578.81
457.937	593.81
458.157	587.81
458.377	600.81
458.598	624.81
458.818	665.81
459.038	751.81
459.258	777.81
459.478	710.81
459.698	671.81
459.918	675.81
460.138	694.81
460.358	719.81
460.578	710.81
460.798	719.81
461.018	752.81
461.238	712.81
461.458	724.81
461.678	729.81
461.898	722.81
462.118	696.81
462.338	751.81
462.558	742.81
462.777	797.81
462.997	845.81
463.217	878.81
463.437	908.81
463.657	844.81
463.876	809.81
464.096	809.81
464.316	792.81
464.536	819.81
464.755	791.81
464.975	787.81
465.195	800.81
465.414	835.81
465.634	763.81
465.854	714.81
466.073	655.81
466.293	671.81
466.512	627.81
466.732	629.81
466.951	650.81
467.171	643.81
467.391	650.81
467.61	632.81
467.829	658.81
468.049	631.81
468.268	626.81
468.488	613.81
468.707	614.81
468.927	606.81
469.146	614.81
469.365	621.81
469.585	609.81
469.804	628.81
470.023	645.81
470.243	638.81
470.462	637.81
470.681	682.81
470.901	641.81
471.12	613.81
471.339	629.81
471.558	644.81
471.777	629.81
471.997	631.81
472.216	614.81
472.435	649.81
472.654	629.81
472.873	622.81
473.092	614.81
473.311	617.81
473.53	607.81
473.749	630.81
473.968	656.81
474.187	717.81
474.406	761.81
474.625	670.81
474.844	616.81
475.063	631.81
475.282	625.81
475.501	601.81
475.72	618.81
475.939	623.81
476.158	637.81
476.377	667.81
476.596	629.81
476.814	643.81
477.033	651.81
477.252	633.81
477.471	652.81
477.69	691.81
477.908	708.81
478.127	731.81
478.346	736.81
478.564	713.81
478.783	720.81
479.002	755.81
479.22	751.81
479.439	760.81
479.658	762.81
479.876	762.81
480.095	758.81
480.313	815.81
480.532	803.81
480.751	789.81
480.969	815.81
481.188	819.81
481.406	853.81
481.624	771.81
481.843	761.81
482.061	750.81
482.28	713.81
482.498	735.81
482.717	730.81
482.935	712.81
483.153	709.81
483.372	711.81
483.59	754.81
483.808	710.81
484.027	731.81
484.245	720.81
484.463	725.81
484.681	732.81
484.9	743.81
485.118	749.81
485.336	751.81
485.554	754.81
485.772	784.81
485.99	750.81
486.209	771.81
486.427	769.81
486.645	765.81
486.863	813.81
487.081	781.81
487.299	778.81
487.517	777.81
487.735	785.81
487.953	779.81
488.171	795.81
488.389	774.81
488.607	768.81
488.825	785.81
489.043	788.81
489.261	813.81
489.479	814.81
489.696	802.81
489.914	802.81
490.132	808.81
490.35	811.81
490.568	808.81
490.786	800.81
491.003	827.81
491.221	840.81
491.439	839.81
491.657	836.81
491.874	871.81
492.092	862.81
492.31	850.81
492.527	840.81
492.745	901.81
492.963	909.81
493.18	887.81
493.398	908.81
493.615	888.81
493.833	922.81
494.05	927.81
494.268	890.81
494.485	887.81
494.703	905.81
494.92	912.81
495.138	909.81
495.355	906.81
495.573	891.81
495.79	904.81
496.008	911.81
496.225	890.81
496.442	903.81
496.66	914.81
496.877	930.81
497.094	939.81
497.312	963.81
497.529	949.81
497.746	1005.81
497.963	1008.81
498.181	1044.81
498.398	1073.81
498.615	1085.81
498.832	1133.81
499.049	1206.81
499.267	1279.81
499.484	1329.81
499.701	1434.81
499.918	1496.81
500.135	1648.81
500.352	1752.81
500.569	1846.81
500.786	1829.81
501.003	1766.81
501.22	1665.81
501.437	1541.81
501.654	1425.81
501.871	1347.81
502.088	1228.81
502.305	1204.81
502.522	1182.81
502.739	1112.81
502.956	1046.81
503.172	1007.81
503.389	998.81
503.606	974.81
503.823	989.81
504.04	976.81
504.256	951.81
504.473	977.81
504.69	954.81
504.907	957.81
505.123	910.81
505.34	923.81
505.557	872.81
505.773	897.81
505.99	874.81
506.207	869.81
506.423	836.81
506.64	873.81
506.856	842.81
507.073	832.81
507.289	801.81
507.506	818.81
507.722	846.81
507.939	838.81
508.155	813.81
508.372	791.81
508.588	793.81
508.805	805.81
509.021	797.81
509.238	797.81
509.454	799.81
509.67	793.81
509.887	762.81
510.103	769.81
510.319	803.81
510.536	878.81
510.752	1238.81
510.968	1066.81
511.184	785.81
511.401	795.81
511.617	794.81
511.833	739.81
512.049	751.81
512.265	746.81
512.481	767.81
512.698	742.81
512.914	745.81
513.13	746.81
513.346	719.81
513.562	729.81
513.778	750.81
513.994	742.81
514.21	753.81
514.426	749.81
514.642	780.81
514.858	784.81
515.074	856.81
515.29	904.81
515.506	1248.81
515.721	1117.81
515.937	850.81
516.153	830.81
516.369	833.81
516.585	818.81
516.801	837.81
517.016	838.81
517.232	872.81
517.448	901.81
517.664	943.81
517.879	897.81
518.095	906.81
518.311	894.81
518.527	869.81
518.742	841.81
518.958	822.81
519.173	808.81
519.389	791.81
519.605	802.81
519.82	753.81
520.036	781.81
520.251	793.81
520.467	814.81
520.682	814.81
520.898	790.81
521.113	800.81
521.329	777.81
521.544	827.81
521.76	980.81
521.975	1503.81
522.19	1539.81
522.406	952.81
522.621	760.81
522.836	733.81
523.052	710.81
523.267	715.81
523.482	685.81
523.698	671.81
523.913	673.81
524.128	693.81
524.343	671.81
524.559	663.81
524.774	651.81
524.989	635.81
525.204	682.81
525.419	682.81
525.634	644.81
525.849	637.81
526.064	643.81
526.28	649.81
526.495	634.81
526.71	640.81
526.925	625.81
527.14	622.81
527.355	612.81
527.57	639.81
527.785	608.81
527.999	635.81
528.214	641.81
528.429	640.81
528.644	636.81
528.859	648.81
529.074	635.81
529.289	648.81
529.503	713.81
529.718	683.81
529.933	644.81
530.148	647.81
530.363	641.81
530.577	642.81
530.792	642.81
531.007	625.81
531.221	634.81
531.436	641.81
531.651	621.81
531.865	647.81
532.08	635.81
532.295	623.81
532.509	635.81
532.724	609.81
532.938	626.81
533.153	629.81
533.367	595.81
533.582	607.81
533.796	630.81
534.011	607.81
534.225	606.81
534.44	601.81
534.654	606.81
534.868	591.81
535.083	610.81
535.297	610.81
535.511	609.81
535.726	607.81
535.94	605.81
536.154	616.81
536.369	601.81
536.583	585.81
536.797	601.81
537.011	584.81
537.225	590.81
537.44	587.81
537.654	584.81
537.868	573.81
538.082	567.81
538.296	610.81
538.51	590.81
538.724	583.81
538.938	563.81
539.153	572.81
539.367	607.81
539.581	570.81
539.795	566.81
540.009	564.81
540.222	575.81
540.436	602.81
540.65	570.81
540.864	564.81
541.078	586.81
541.292	574.81
541.506	569.81
541.72	535.81
541.934	549.81
542.147	557.81
542.361	597.81
542.575	559.81
542.789	578.81
543.002	562.81
543.216	566.81
543.43	577.81
543.644	583.81
543.857	591.81
544.071	601.81
544.285	587.81
544.498	574.81
544.712	569.81
544.925	581.81
545.139	564.81
545.352	590.81
545.566	600.81
545.779	586.81
545.993	608.81
546.206	592.81
546.42	581.81
546.633	575.81
546.847	582.81
547.06	585.81
547.274	571.81
547.487	569.81
547.7	568.81
547.914	570.81
548.127	594.81
548.34	574.81
548.554	589.81
548.767	578.81
548.98	596.81
549.193	583.81
549.407	597.81
549.62	600.81
549.833	614.81
550.046	588.81
550.259	571.81
550.473	587.81
550.686	563.81
550.899	570.81
551.112	579.81
551.325	569.81
551.538	565.81
551.751	564.81
551.964	578.81
552.177	568.81
552.39	601.81
552.603	589.81
552.816	598.81
553.029	614.81
553.242	622.81
553.455	637.81
553.667	615.81
553.88	635.81
554.093	601.81
554.306	600.81
554.519	583.81
554.732	592.81
554.944	570.81
555.157	549.81
555.37	559.81
555.583	548.81
555.795	567.81
556.008	551.81
556.221	522.81
556.433	506.81
556.646	517.81
556.859	503.81
557.071	507.81
557.284	515.81
557.496	513.81
557.709	505.81
557.921	514.81
558.134	492.81
558.346	510.81
558.559	486.81
558.771	499.81
558.984	490.81
559.196	513.81
559.409	489.81
559.621	489.81
559.833	517.81
560.046	475.81
560.258	471.81
560.47	497.81
560.683	492.81
560.895	499.81
561.107	500.81
561.32	488.81
561.532	497.81
561.744	493.81
561.956	514.81
562.168	490.81
562.381	506.81
562.593	480.81
562.805	510.81
563.017	499.81
563.229	505.81
563.441	518.81
563.653	481.81
563.865	515.81
564.077	506.81
564.289	532.81
564.501	526.81
564.713	525.81
564.925	550.81
565.137	530.81
565.349	553.81
565.561	561.81
565.773	592.81
565.985	612.81
566.197	628.81
566.408	641.81
566.62	682.81
566.832	722.81
567.044	751.81
567.255	730.81
567.467	738.81
567.679	788.81
567.891	827.81
568.102	836.81
568.314	803.81
568.526	754.81
568.737	734.81
568.949	672.81
569.161	635.81
569.372	613.81
569.584	552.81
569.795	580.81
570.007	546.81
570.218	563.81
570.43	546.81
570.641	508.81
570.853	534.81
571.064	543.81
571.276	537.81
571.487	496.81
571.698	486.81
571.91	487.81
572.121	467.81
572.333	465.81
572.544	447.81
572.755	453.81
572.966	450.81
573.178	476.81
573.389	465.81
573.6	441.81
573.811	437.81
574.023	461.81
574.234	445.81
574.445	448.81
574.656	453.81
574.867	434.81
575.078	418.81
575.289	418.81
575.501	434.81
575.712	437.81
575.923	426.81
576.134	430.81
576.345	429.81
576.556	419.81
576.767	435.81
576.978	415.81
577.188	408.81
577.399	402.81
577.61	403.81
577.821	414.81
578.032	411.81
578.243	427.81
578.454	605.81
578.665	474.81
578.875	425.81
579.086	394.81
579.297	381.81
579.508	399.81
579.718	402.81
579.929	389.81
580.14	382.81
580.35	361.81
580.561	389.81
580.772	401.81
580.982	396.81
581.193	397.81
581.403	380.81
581.614	391.81
581.825	377.81
582.035	385.81
582.246	399.81
582.456	390.81
582.667	381.81
582.877	367.81
583.087	382.81
583.298	401.81
583.508	405.81
583.719	375.81
583.929	374.81
584.139	366.81
584.35	374.81
584.56	365.81
584.77	380.81
584.981	370.81
585.191	379.81
585.401	373.81
585.611	359.81
585.821	385.81
586.032	371.81
586.242	362.81
586.452	373.81
586.662	383.81
586.872	366.81
587.082	359.81
587.292	373.81
587.502	367.81
587.713	363.81
587.923	361.81
588.133	370.81
588.343	367.81
588.553	372.81
588.762	354.81
588.972	368.81
589.182	386.81
589.392	385.81
589.602	385.81
589.812	369.81
590.022	381.81
590.232	381.81
590.441	374.81
590.651	370.81
590.861	388.81
591.071	398.81
591.281	385.81
591.49	388.81
591.7	403.81
591.91	391.81
592.119	386.81
592.329	404.81
592.539	439.81
592.748	417.81
592.958	440.81
593.167	453.81
593.377	423.81
593.587	447.81
593.796	463.81
594.006	458.81
594.215	452.81
594.424	458.81
594.634	457.81
594.843	430.81
595.053	398.81
595.262	398.81
595.472	395.81
595.681	385.81
595.89	374.81
596.1	371.81
596.309	384.81
596.518	365.81
596.727	362.81
596.937	349.81
597.146	343.81
597.355	358.81
597.564	381.81
597.774	349.81
597.983	337.81
598.192	325.81
598.401	331.81
598.61	345.81
598.819	311.81
599.028	337.81
599.237	315.81
599.446	333.81
599.655	329.81
599.864	314.81
600.073	317.81
600.282	313.81
600.491	316.81
600.7	331.81
600.909	333.81
601.118	306.81
601.327	315.81
601.536	329.81
601.745	321.81
601.953	318.81
602.162	307.81
602.371	321.81
602.58	305.81
602.789	320.81
602.997	316.81
603.206	299.81
603.415	320.81
603.623	309.81
603.832	305.81
604.041	294.81
604.249	302.81
604.458	301.81
604.666	321.81
604.875	307.81
605.084	309.81
605.292	293.81
605.501	301.81
605.709	306.81
605.918	289.81
606.126	301.81
606.334	310.81
606.543	313.81
606.751	305.81
606.96	296.81
607.168	310.81
607.376	303.81
607.585	281.81
607.793	295.81
608.001	312.81
608.21	293.81
608.418	289.81
608.626	290.81
608.834	293.81
609.043	311.81
609.251	299.81
609.459	273.81
609.667	277.81
609.875	270.81
610.083	289.81
610.291	271.81
610.499	273.81
610.707	285.81
610.916	294.81
611.124	289.81
611.332	308.81
611.54	309.81
611.748	303.81
611.955	287.81
612.163	286.81
612.371	292.81
612.579	295.81
612.787	277.81
612.995	288.81
613.203	276.81
613.411	278.81
613.618	288.81
613.826	285.81
614.034	302.81
614.242	285.81
614.449	275.81
614.657	282.81
614.865	292.81
615.072	293.81
615.28	292.81
615.488	291.81
615.695	285.81
615.903	279.81
616.111	294.81
616.318	289.81
616.526	302.81
616.733	274.81
616.941	283.81
617.148	281.81
617.356	266.81
617.563	294.81
617.771	265.81
617.978	302.81
618.185	279.81
618.393	274.81
618.6	278.81
618.807	274.81
619.015	266.81
619.222	286.81
619.429	293.81
619.637	286.81
619.844	270.81
620.051	289.81
620.258	286.81
620.466	277.81
620.673	255.81
620.88	262.81
621.087	273.81
621.294	284.81
621.501	270.81
621.708	271.81
621.915	264.81
622.122	274.81
622.329	263.81
622.536	268.81
622.743	269.81
622.95	274.81
623.157	253.81
623.364	271.81
623.571	271.81
623.778	272.81
623.985	279.81
624.192	246.81
624.399	250.81
624.606	246.81
624.812	269.81
625.019	260.81
625.226	249.81
625.433	246.81
625.639	234.81
625.846	243.81
626.053	261.81
626.259	240.81
626.466	265.81
626.673	251.81
626.879	255.81
627.086	249.81
627.293	249.81
627.499	239.81
627.706	240.81
627.912	235.81
628.119	243.81
628.325	240.81
628.532	246.81
628.738	225.81
628.945	243.81
629.151	237.81
629.357	242.81
629.564	248.81
629.77	231.81
629.976	235.81
630.183	241.81
630.389	215.81
630.595	226.81
630.802	239.81
631.008	229.81
631.214	219.81
631.42	234.81
631.627	245.81
631.833	233.81
632.039	218.81
632.245	207.81
632.451	228.81
632.657	228.81
632.863	237.81
633.069	234.81
633.275	230.81
633.481	237.81
633.688	199.81
633.893	224.81
634.099	210.81
634.305	221.81
634.511	222.81
634.717	217.81
634.923	218.81
635.129	221.81
635.335	210.81
635.541	209.81
635.747	215.81
635.952	211.81
636.158	225.81
636.364	217.81
636.57	223.81
636.775	216.81
636.981	200.81
637.187	207.81
637.392	197.81
637.598	198.81
637.804	223.81
638.009	178.81
638.215	192.81
638.421	217.81
638.626	206.81
638.832	191.81
639.037	203.81
639.243	194.81
639.448	211.81
639.654	207.81
639.859	215.81
640.065	209.81
640.27	198.81
640.475	198.81
640.681	190.81
640.886	212.81
641.091	200.81
641.297	225.81
641.502	185.81
641.707	196.81
641.913	178.81
642.118	209.81
642.323	193.81
642.528	189.81
642.733	213.81
642.939	202.81
643.144	187.81
643.349	198.81
643.554	183.81
643.759	183.81
643.964	185.81
644.169	193.81
644.374	196.81
644.579	197.81
644.784	206.81
644.989	183.81
645.194	190.81
645.399	206.81
645.604	186.81
645.809	181.81
646.014	199.81
646.219	208.81
646.423	199.81
646.628	200.81
646.833	190.81
647.038	186.81
647.243	184.81
647.447	200.81
647.652	197.81
647.857	188.81
648.062	193.81
648.266	195.81
648.471	195.81
648.676	196.81
648.88	182.81
649.085	186.81
649.289	206.81
649.494	197.81
649.698	222.81
649.903	201.81
650.107	191.81
650.312	205.81
650.516	190.81
650.721	196.81
650.925	188.81
651.13	184.81
651.334	175.81
651.539	173.81
651.743	184.81
651.947	164.81
652.152	175.81
652.356	162.81
652.56	171.81
652.764	158.81
652.969	168.81
653.173	163.81
653.377	135.81
653.581	149.81
653.785	159.81
653.99	157.81
654.194	157.81
654.398	151.81
654.602	166.81
654.806	145.81
655.01	161.81
655.214	152.81
655.418	139.81
655.622	148.81
655.826	167.81
656.03	146.81
656.234	146.81
656.438	153.81
656.642	153.81
656.846	145.81
657.049	137.81
657.253	134.81
657.457	133.81
657.661	123.81
657.865	124.81
658.068	116.81
658.272	108.81
658.476	121.81
658.68	110.81
658.883	87.81
659.087	102.81
659.291	95.81
659.494	124.81
659.698	97.81
659.901	103.81
660.105	98.81
660.309	96.81
660.512	93.81
660.716	96.81
660.919	99.81
661.123	85.81
661.326	92.81
661.53	83.81
661.733	92.81
661.936	74.81
662.14	81.81
662.343	80.81
662.546	85.81
662.75	83.81
662.953	91.81
663.156	81.81
663.36	67.81
663.563	88.81
663.766	85.81
663.969	81.81
664.173	80.81
664.376	94.81
664.579	81.81
664.782	79.81
664.985	90.81
665.188	58.81
665.391	72.81
665.594	75.81
665.797	74.81
666	82.81
666.203	84.81
666.406	73.81
666.609	69.81
666.812	78.81
667.015	83.81
667.218	75.81
667.421	85.81
667.624	83.81
667.827	79.81
668.03	75.81
668.232	79.81
668.435	80.81
668.638	73.81
668.841	79.81
669.043	66.81
669.246	82.81
669.449	61.81
669.651	70.81
669.854	84.81
670.057	93.81
670.259	76.81
670.462	91.81
670.665	81.81
670.867	74.81
671.07	69.81
671.272	85.81
671.475	78.81
671.677	76.81
671.88	66.81
672.082	76.81
672.284	84.81
672.487	90.81
672.689	93.81
672.892	74.81
