Data from 1963.PennyLincolnUp.Lamp.En5.5.200Scan.071719.P1._HRD10591_13-58-36-063.txt Node
Date: Thu Jul 18 13:58:36 EDT 2019
User: cochatt
Spectrometer: HR+D1059
Trigger mode: 1
Integration Time (sec): 1.000000E-1
Scans to average: 1
Electric dark correction enabled: true
Nonlinearity correction enabled: false
Boxcar width: 0
XAxis mode: Wavelengths
Number of Pixels in Spectrum: 2048
>>>>>Begin Spectral Data<<<<<
223.165	-18.12
223.4	-18.12
223.635	-18.12
223.869	-3.12
224.104	-14.12
224.338	-12.12
224.573	-12.12
224.808	-4.12
225.042	-16.12
225.277	-3.12
225.511	-13.12
225.746	-1.12
225.98	9.88
226.215	-0.12
226.449	11.88
226.683	16.88
226.918	26.88
227.152	31.88
227.387	45.88
227.621	48.88
227.856	33.88
228.09	32.88
228.324	45.88
228.559	59.88
228.793	75.88
229.027	97.88
229.262	90.88
229.496	98.88
229.73	121.88
229.964	123.88
230.199	125.88
230.433	117.88
230.667	113.88
230.901	121.88
231.136	112.88
231.37	115.88
231.604	130.88
231.838	127.88
232.072	125.88
232.306	122.88
232.541	112.88
232.775	117.88
233.009	117.88
233.243	124.88
233.477	124.88
233.711	128.88
233.945	110.88
234.179	127.88
234.413	128.88
234.647	117.88
234.881	128.88
235.115	129.88
235.349	122.88
235.583	132.88
235.817	131.88
236.051	141.88
236.285	129.88
236.519	123.88
236.753	119.88
236.987	132.88
237.221	171.88
237.455	215.88
237.689	171.88
237.922	142.88
238.156	143.88
238.39	132.88
238.624	130.88
238.858	141.88
239.091	137.88
239.325	131.88
239.559	144.88
239.793	138.88
240.027	152.88
240.26	160.88
240.494	165.88
240.728	138.88
240.961	153.88
241.195	162.88
241.429	143.88
241.662	140.88
241.896	148.88
242.13	150.88
242.363	157.88
242.597	151.88
242.83	161.88
243.064	156.88
243.298	153.88
243.531	135.88
243.765	149.88
243.998	157.88
244.232	161.88
244.465	143.88
244.699	171.88
244.932	167.88
245.166	158.88
245.399	158.88
245.633	157.88
245.866	170.88
246.099	149.88
246.333	177.88
246.566	183.88
246.8	163.88
247.033	177.88
247.266	183.88
247.5	172.88
247.733	171.88
247.966	186.88
248.2	203.88
248.433	186.88
248.666	188.88
248.899	174.88
249.133	200.88
249.366	199.88
249.599	203.88
249.832	167.88
250.066	204.88
250.299	211.88
250.532	213.88
250.765	190.88
250.998	232.88
251.231	244.88
251.465	234.88
251.698	207.88
251.931	212.88
252.164	215.88
252.397	204.88
252.63	216.88
252.863	231.88
253.096	216.88
253.329	206.88
253.562	220.88
253.795	219.88
254.028	237.88
254.261	230.88
254.494	249.88
254.727	259.88
254.96	257.88
255.193	269.88
255.426	246.88
255.659	234.88
255.892	225.88
256.124	239.88
256.357	239.88
256.59	235.88
256.823	234.88
257.056	230.88
257.289	231.88
257.521	220.88
257.754	228.88
257.987	230.88
258.22	246.88
258.452	211.88
258.685	227.88
258.918	237.88
259.151	221.88
259.383	222.88
259.616	237.88
259.849	230.88
260.081	235.88
260.314	243.88
260.547	276.88
260.779	247.88
261.012	247.88
261.244	218.88
261.477	247.88
261.71	244.88
261.942	246.88
262.175	248.88
262.407	260.88
262.64	232.88
262.872	251.88
263.105	230.88
263.337	229.88
263.57	228.88
263.802	227.88
264.035	234.88
264.267	235.88
264.499	248.88
264.732	229.88
264.964	237.88
265.197	243.88
265.429	251.88
265.661	243.88
265.894	256.88
266.126	247.88
266.358	251.88
266.591	249.88
266.823	265.88
267.055	239.88
267.287	248.88
267.52	263.88
267.752	263.88
267.984	257.88
268.216	267.88
268.448	254.88
268.681	252.88
268.913	270.88
269.145	296.88
269.377	301.88
269.609	287.88
269.841	287.88
270.073	294.88
270.306	294.88
270.538	311.88
270.77	327.88
271.002	319.88
271.234	312.88
271.466	320.88
271.698	318.88
271.93	324.88
272.162	334.88
272.394	330.88
272.626	303.88
272.858	308.88
273.09	299.88
273.322	310.88
273.553	287.88
273.785	278.88
274.017	286.88
274.249	296.88
274.481	275.88
274.713	302.88
274.945	315.88
275.176	312.88
275.408	290.88
275.64	295.88
275.872	289.88
276.104	293.88
276.335	291.88
276.567	303.88
276.799	292.88
277.031	327.88
277.262	332.88
277.494	333.88
277.726	323.88
277.957	314.88
278.189	319.88
278.421	296.88
278.652	317.88
278.884	314.88
279.115	319.88
279.347	296.88
279.579	308.88
279.81	288.88
280.042	330.88
280.273	307.88
280.505	306.88
280.736	304.88
280.968	310.88
281.199	317.88
281.431	304.88
281.662	310.88
281.894	312.88
282.125	327.88
282.356	308.88
282.588	335.88
282.819	327.88
283.051	328.88
283.282	319.88
283.513	354.88
283.745	326.88
283.976	345.88
284.207	319.88
284.439	335.88
284.67	338.88
284.901	311.88
285.132	330.88
285.364	342.88
285.595	334.88
285.826	331.88
286.057	340.88
286.288	347.88
286.52	316.88
286.751	352.88
286.982	337.88
287.213	323.88
287.444	321.88
287.675	343.88
287.906	347.88
288.138	358.88
288.369	358.88
288.6	352.88
288.831	351.88
289.062	356.88
289.293	335.88
289.524	349.88
289.755	340.88
289.986	350.88
290.217	362.88
290.448	344.88
290.679	355.88
290.91	340.88
291.141	350.88
291.371	353.88
291.602	369.88
291.833	347.88
292.064	348.88
292.295	361.88
292.526	354.88
292.757	337.88
292.987	348.88
293.218	345.88
293.449	353.88
293.68	352.88
293.91	358.88
294.141	353.88
294.372	353.88
294.603	376.88
294.833	378.88
295.064	379.88
295.295	368.88
295.525	363.88
295.756	367.88
295.987	367.88
296.217	384.88
296.448	365.88
296.679	378.88
296.909	364.88
297.14	366.88
297.37	380.88
297.601	368.88
297.831	389.88
298.062	359.88
298.292	387.88
298.523	394.88
298.753	356.88
298.984	393.88
299.214	371.88
299.445	371.88
299.675	380.88
299.905	391.88
300.136	389.88
300.366	383.88
300.597	358.88
300.827	402.88
301.057	401.88
301.288	402.88
301.518	408.88
301.748	410.88
301.979	402.88
302.209	406.88
302.439	420.88
302.669	400.88
302.9	424.88
303.13	408.88
303.36	416.88
303.59	410.88
303.82	396.88
304.051	399.88
304.281	420.88
304.511	384.88
304.741	397.88
304.971	408.88
305.201	397.88
305.431	405.88
305.661	396.88
305.891	385.88
306.121	393.88
306.352	407.88
306.582	415.88
306.812	404.88
307.042	407.88
307.272	384.88
307.502	390.88
307.731	397.88
307.961	404.88
308.191	405.88
308.421	389.88
308.651	420.88
308.881	406.88
309.111	400.88
309.341	391.88
309.571	394.88
309.8	415.88
310.03	421.88
310.26	428.88
310.49	423.88
310.72	444.88
310.949	443.88
311.179	430.88
311.409	443.88
311.639	467.88
311.868	431.88
312.098	454.88
312.328	453.88
312.557	453.88
312.787	449.88
313.017	468.88
313.246	458.88
313.476	449.88
313.706	457.88
313.935	438.88
314.165	458.88
314.394	456.88
314.624	452.88
314.853	451.88
315.083	430.88
315.312	443.88
315.542	422.88
315.771	439.88
316.001	435.88
316.23	452.88
316.46	431.88
316.689	432.88
316.919	457.88
317.148	450.88
317.377	452.88
317.607	445.88
317.836	462.88
318.065	430.88
318.295	433.88
318.524	441.88
318.753	463.88
318.983	448.88
319.212	441.88
319.441	444.88
319.67	446.88
319.9	429.88
320.129	455.88
320.358	439.88
320.587	465.88
320.816	464.88
321.046	443.88
321.275	468.88
321.504	465.88
321.733	450.88
321.962	455.88
322.191	469.88
322.42	477.88
322.649	478.88
322.878	454.88
323.108	494.88
323.337	481.88
323.566	509.88
323.795	493.88
324.024	538.88
324.253	612.88
324.482	776.88
324.71	1084.88
324.939	1509.88
325.168	1341.88
325.397	778.88
325.626	583.88
325.855	557.88
326.084	513.88
326.313	519.88
326.542	485.88
326.77	565.88
326.999	588.88
327.228	726.88
327.457	1011.88
327.686	1210.88
327.914	868.88
328.143	642.88
328.372	572.88
328.6	577.88
328.829	573.88
329.058	556.88
329.287	556.88
329.515	553.88
329.744	531.88
329.972	558.88
330.201	555.88
330.43	573.88
330.658	569.88
330.887	605.88
331.115	594.88
331.344	571.88
331.572	520.88
331.801	545.88
332.03	563.88
332.258	544.88
332.486	549.88
332.715	540.88
332.943	587.88
333.172	599.88
333.4	598.88
333.629	581.88
333.857	608.88
334.085	616.88
334.314	599.88
334.542	620.88
334.771	632.88
334.999	609.88
335.227	596.88
335.455	589.88
335.684	584.88
335.912	577.88
336.14	565.88
336.369	540.88
336.597	576.88
336.825	571.88
337.053	549.88
337.281	543.88
337.51	536.88
337.738	547.88
337.966	533.88
338.194	558.88
338.422	526.88
338.65	526.88
338.878	542.88
339.106	494.88
339.334	537.88
339.562	515.88
339.79	517.88
340.018	503.88
340.246	499.88
340.474	526.88
340.702	533.88
340.93	529.88
341.158	511.88
341.386	517.88
341.614	511.88
341.842	505.88
342.07	518.88
342.298	494.88
342.526	482.88
342.754	498.88
342.981	515.88
343.209	488.88
343.437	491.88
343.665	552.88
343.893	560.88
344.12	576.88
344.348	557.88
344.576	566.88
344.804	551.88
345.031	540.88
345.259	539.88
345.487	528.88
345.714	488.88
345.942	498.88
346.17	499.88
346.397	495.88
346.625	499.88
346.853	476.88
347.08	499.88
347.308	492.88
347.535	487.88
347.763	482.88
347.99	477.88
348.218	513.88
348.445	504.88
348.673	471.88
348.9	481.88
349.128	479.88
349.355	480.88
349.583	485.88
349.81	466.88
350.037	482.88
350.265	485.88
350.492	462.88
350.72	458.88
350.947	472.88
351.174	485.88
351.402	485.88
351.629	515.88
351.856	485.88
352.083	519.88
352.311	483.88
352.538	494.88
352.765	495.88
352.992	484.88
353.22	469.88
353.447	486.88
353.674	484.88
353.901	479.88
354.128	474.88
354.355	479.88
354.583	481.88
354.81	461.88
355.037	470.88
355.264	473.88
355.491	484.88
355.718	466.88
355.945	487.88
356.172	462.88
356.399	484.88
356.626	484.88
356.853	462.88
357.08	472.88
357.307	475.88
357.534	475.88
357.761	465.88
357.988	489.88
358.215	463.88
358.441	474.88
358.668	487.88
358.895	480.88
359.122	480.88
359.349	442.88
359.576	483.88
359.802	510.88
360.029	515.88
360.256	511.88
360.483	493.88
360.709	503.88
360.936	493.88
361.163	489.88
361.39	473.88
361.616	492.88
361.843	486.88
362.07	461.88
362.296	484.88
362.523	483.88
362.749	493.88
362.976	486.88
363.203	489.88
363.429	462.88
363.656	489.88
363.882	483.88
364.109	472.88
364.335	456.88
364.562	466.88
364.788	457.88
365.015	480.88
365.241	473.88
365.468	463.88
365.694	478.88
365.92	475.88
366.147	472.88
366.373	480.88
366.599	476.88
366.826	473.88
367.052	472.88
367.278	477.88
367.505	464.88
367.731	489.88
367.957	476.88
368.184	497.88
368.41	497.88
368.636	501.88
368.862	503.88
369.089	496.88
369.315	486.88
369.541	480.88
369.767	506.88
369.993	467.88
370.219	491.88
370.445	514.88
370.672	487.88
370.898	499.88
371.124	485.88
371.35	496.88
371.576	502.88
371.802	515.88
372.028	490.88
372.254	496.88
372.48	517.88
372.706	536.88
372.932	511.88
373.158	529.88
373.384	532.88
373.61	517.88
373.835	520.88
374.061	512.88
374.287	511.88
374.513	500.88
374.739	500.88
374.965	544.88
375.191	529.88
375.416	522.88
375.642	536.88
375.868	497.88
376.094	515.88
376.319	508.88
376.545	509.88
376.771	530.88
376.997	482.88
377.222	497.88
377.448	529.88
377.674	507.88
377.899	487.88
378.125	493.88
378.35	476.88
378.576	506.88
378.802	499.88
379.027	519.88
379.253	489.88
379.478	491.88
379.704	491.88
379.929	504.88
380.155	510.88
380.38	483.88
380.606	491.88
380.831	515.88
381.057	522.88
381.282	513.88
381.507	535.88
381.733	528.88
381.958	507.88
382.184	512.88
382.409	516.88
382.634	530.88
382.86	533.88
383.085	551.88
383.31	541.88
383.535	550.88
383.761	536.88
383.986	537.88
384.211	573.88
384.436	562.88
384.662	561.88
384.887	565.88
385.112	581.88
385.337	589.88
385.562	588.88
385.787	594.88
386.013	594.88
386.238	616.88
386.463	597.88
386.688	587.88
386.913	556.88
387.138	581.88
387.363	578.88
387.588	602.88
387.813	581.88
388.038	586.88
388.263	608.88
388.488	585.88
388.713	589.88
388.938	605.88
389.163	577.88
389.387	584.88
389.612	567.88
389.837	584.88
390.062	563.88
390.287	585.88
390.512	594.88
390.736	570.88
390.961	586.88
391.186	574.88
391.411	592.88
391.636	591.88
391.86	621.88
392.085	639.88
392.31	608.88
392.534	631.88
392.759	611.88
392.984	601.88
393.208	581.88
393.433	608.88
393.658	588.88
393.882	612.88
394.107	609.88
394.331	611.88
394.556	604.88
394.78	601.88
395.005	605.88
395.229	618.88
395.454	621.88
395.678	637.88
395.903	635.88
396.127	640.88
396.352	632.88
396.576	615.88
396.801	635.88
397.025	613.88
397.249	610.88
397.474	633.88
397.698	619.88
397.922	635.88
398.147	655.88
398.371	662.88
398.595	665.88
398.82	696.88
399.044	740.88
399.268	755.88
399.492	839.88
399.717	937.88
399.941	921.88
400.165	877.88
400.389	873.88
400.613	765.88
400.837	720.88
401.062	720.88
401.286	733.88
401.51	725.88
401.734	699.88
401.958	716.88
402.182	693.88
402.406	698.88
402.63	704.88
402.854	728.88
403.078	740.88
403.302	747.88
403.526	771.88
403.75	773.88
403.974	754.88
404.198	761.88
404.422	776.88
404.645	773.88
404.869	769.88
405.093	769.88
405.317	803.88
405.541	840.88
405.765	801.88
405.988	738.88
406.212	764.88
406.436	777.88
406.66	791.88
406.883	798.88
407.107	835.88
407.331	847.88
407.555	923.88
407.778	925.88
408.002	886.88
408.226	825.88
408.449	814.88
408.673	779.88
408.896	808.88
409.12	829.88
409.344	782.88
409.567	756.88
409.791	774.88
410.014	748.88
410.238	730.88
410.461	741.88
410.685	741.88
410.908	747.88
411.132	748.88
411.355	774.88
411.578	729.88
411.802	711.88
412.025	706.88
412.249	772.88
412.472	721.88
412.695	771.88
412.919	746.88
413.142	728.88
413.365	713.88
413.589	703.88
413.812	693.88
414.035	683.88
414.258	691.88
414.482	687.88
414.705	679.88
414.928	698.88
415.151	678.88
415.374	687.88
415.597	684.88
415.821	686.88
416.044	682.88
416.267	661.88
416.49	672.88
416.713	664.88
416.936	659.88
417.159	667.88
417.382	673.88
417.605	689.88
417.828	699.88
418.051	701.88
418.274	702.88
418.497	695.88
418.72	688.88
418.943	695.88
419.166	728.88
419.389	779.88
419.611	773.88
419.834	744.88
420.057	717.88
420.28	700.88
420.503	727.88
420.726	697.88
420.948	720.88
421.171	730.88
421.394	732.88
421.617	711.88
421.839	711.88
422.062	704.88
422.285	707.88
422.507	736.88
422.73	798.88
422.953	799.88
423.175	730.88
423.398	741.88
423.621	709.88
423.843	748.88
424.066	720.88
424.288	729.88
424.511	749.88
424.733	791.88
424.956	827.88
425.178	821.88
425.401	823.88
425.623	820.88
425.846	741.88
426.068	707.88
426.291	707.88
426.513	676.88
426.735	713.88
426.958	723.88
427.18	780.88
427.402	877.88
427.625	925.88
427.847	839.88
428.069	759.88
428.292	727.88
428.514	661.88
428.736	668.88
428.958	640.88
429.181	606.88
429.403	639.88
429.625	669.88
429.847	671.88
430.069	719.88
430.292	696.88
430.514	640.88
430.736	659.88
430.958	651.88
431.18	636.88
431.402	637.88
431.624	639.88
431.846	644.88
432.068	643.88
432.29	642.88
432.512	653.88
432.734	650.88
432.956	638.88
433.178	632.88
433.4	635.88
433.622	642.88
433.844	674.88
434.066	661.88
434.287	657.88
434.509	657.88
434.731	687.88
434.953	719.88
435.175	721.88
435.397	726.88
435.618	704.88
435.84	715.88
436.062	785.88
436.284	834.88
436.505	751.88
436.727	691.88
436.949	667.88
437.17	652.88
437.392	651.88
437.614	643.88
437.835	673.88
438.057	734.88
438.278	798.88
438.5	812.88
438.721	860.88
438.943	846.88
439.165	727.88
439.386	689.88
439.608	651.88
439.829	685.88
440.05	667.88
440.272	713.88
440.493	697.88
440.715	677.88
440.936	659.88
441.158	668.88
441.379	669.88
441.6	703.88
441.822	679.88
442.043	716.88
442.264	784.88
442.486	813.88
442.707	751.88
442.928	713.88
443.149	711.88
443.371	732.88
443.592	787.88
443.813	831.88
444.034	871.88
444.255	811.88
444.476	757.88
444.698	775.88
444.919	783.88
445.14	917.88
445.361	823.88
445.582	761.88
445.803	785.88
446.024	838.88
446.245	855.88
446.466	783.88
446.687	696.88
446.908	684.88
447.129	624.88
447.35	637.88
447.571	625.88
447.792	637.88
448.013	621.88
448.234	649.88
448.455	661.88
448.675	750.88
448.896	840.88
449.117	734.88
449.338	686.88
449.559	787.88
449.779	830.88
450	725.88
450.221	640.88
450.442	623.88
450.662	600.88
450.883	621.88
451.104	607.88
451.324	607.88
451.545	586.88
451.766	614.88
451.986	593.88
452.207	591.88
452.428	595.88
452.648	559.88
452.869	573.88
453.089	591.88
453.31	611.88
453.53	580.88
453.751	576.88
453.971	566.88
454.192	597.88
454.412	578.88
454.633	559.88
454.853	571.88
455.073	551.88
455.294	562.88
455.514	621.88
455.734	610.88
455.955	565.88
456.175	557.88
456.395	539.88
456.616	562.88
456.836	528.88
457.056	540.88
457.276	549.88
457.497	560.88
457.717	568.88
457.937	554.88
458.157	556.88
458.377	558.88
458.598	587.88
458.818	627.88
459.038	686.88
459.258	713.88
459.478	675.88
459.698	653.88
459.918	654.88
460.138	639.88
460.358	687.88
460.578	698.88
460.798	706.88
461.018	716.88
461.238	686.88
461.458	671.88
461.678	703.88
461.898	703.88
462.118	680.88
462.338	728.88
462.558	758.88
462.777	750.88
462.997	794.88
463.217	866.88
463.437	861.88
463.657	823.88
463.876	767.88
464.096	781.88
464.316	769.88
464.536	785.88
464.755	784.88
464.975	765.88
465.195	761.88
465.414	768.88
465.634	691.88
465.854	677.88
466.073	639.88
466.293	646.88
466.512	624.88
466.732	609.88
466.951	591.88
467.171	595.88
467.391	620.88
467.61	615.88
467.829	614.88
468.049	602.88
468.268	587.88
468.488	615.88
468.707	580.88
468.927	584.88
469.146	600.88
469.365	597.88
469.585	599.88
469.804	628.88
470.023	620.88
470.243	641.88
470.462	631.88
470.681	642.88
470.901	675.88
471.12	628.88
471.339	611.88
471.558	591.88
471.777	616.88
471.997	608.88
472.216	609.88
472.435	639.88
472.654	634.88
472.873	607.88
473.092	618.88
473.311	596.88
473.53	601.88
473.749	604.88
473.968	623.88
474.187	678.88
474.406	697.88
474.625	651.88
474.844	614.88
475.063	616.88
475.282	601.88
475.501	615.88
475.72	626.88
475.939	627.88
476.158	635.88
476.377	611.88
476.596	611.88
476.814	648.88
477.033	622.88
477.252	645.88
477.471	658.88
477.69	672.88
477.908	675.88
478.127	697.88
478.346	693.88
478.564	699.88
478.783	715.88
479.002	728.88
479.22	716.88
479.439	757.88
479.658	740.88
479.876	737.88
480.095	773.88
480.313	766.88
480.532	795.88
480.751	762.88
480.969	758.88
481.188	767.88
481.406	808.88
481.624	773.88
481.843	719.88
482.061	705.88
482.28	714.88
482.498	695.88
482.717	699.88
482.935	704.88
483.153	697.88
483.372	701.88
483.59	675.88
483.808	685.88
484.027	717.88
484.245	736.88
484.463	715.88
484.681	740.88
484.9	711.88
485.118	715.88
485.336	729.88
485.554	720.88
485.772	703.88
485.99	735.88
486.209	741.88
486.427	755.88
486.645	729.88
486.863	772.88
487.081	727.88
487.299	734.88
487.517	757.88
487.735	771.88
487.953	733.88
488.171	743.88
488.389	772.88
488.607	760.88
488.825	751.88
489.043	753.88
489.261	749.88
489.479	761.88
489.696	743.88
489.914	752.88
490.132	742.88
490.35	791.88
490.568	785.88
490.786	781.88
491.003	782.88
491.221	792.88
491.439	809.88
491.657	810.88
491.874	813.88
492.092	812.88
492.31	824.88
492.527	831.88
492.745	820.88
492.963	828.88
493.18	855.88
493.398	852.88
493.615	834.88
493.833	857.88
494.05	858.88
494.268	865.88
494.485	859.88
494.703	844.88
494.92	836.88
495.138	863.88
495.355	844.88
495.573	902.88
495.79	849.88
496.008	839.88
496.225	870.88
496.442	852.88
496.66	884.88
496.877	897.88
497.094	908.88
497.312	888.88
497.529	919.88
497.746	944.88
497.963	957.88
498.181	984.88
498.398	1052.88
498.615	1024.88
498.832	1096.88
499.049	1158.88
499.267	1191.88
499.484	1281.88
499.701	1421.88
499.918	1459.88
500.135	1582.88
500.352	1721.88
500.569	1787.88
500.786	1760.88
501.003	1681.88
501.22	1616.88
501.437	1469.88
501.654	1363.88
501.871	1326.88
502.088	1224.88
502.305	1169.88
502.522	1083.88
502.739	1065.88
502.956	1035.88
503.172	987.88
503.389	995.88
503.606	954.88
503.823	946.88
504.04	937.88
504.256	941.88
504.473	949.88
504.69	974.88
504.907	931.88
505.123	904.88
505.34	880.88
505.557	869.88
505.773	830.88
505.99	811.88
506.207	828.88
506.423	830.88
506.64	809.88
506.856	795.88
507.073	755.88
507.289	778.88
507.506	763.88
507.722	781.88
507.939	806.88
508.155	759.88
508.372	791.88
508.588	798.88
508.805	772.88
509.021	741.88
509.238	753.88
509.454	728.88
509.67	772.88
509.887	740.88
510.103	733.88
510.319	738.88
510.536	796.88
510.752	1108.88
510.968	942.88
511.184	727.88
511.401	727.88
511.617	733.88
511.833	712.88
512.049	709.88
512.265	698.88
512.481	715.88
512.698	726.88
512.914	705.88
513.13	720.88
513.346	724.88
513.562	687.88
513.778	712.88
513.994	719.88
514.21	725.88
514.426	704.88
514.642	739.88
514.858	737.88
515.074	781.88
515.29	843.88
515.506	1104.88
515.721	995.88
515.937	797.88
516.153	778.88
516.369	788.88
516.585	775.88
516.801	800.88
517.016	808.88
517.232	811.88
517.448	839.88
517.664	872.88
517.879	879.88
518.095	906.88
518.311	863.88
518.527	832.88
518.742	807.88
518.958	798.88
519.173	772.88
519.389	789.88
519.605	742.88
519.82	740.88
520.036	707.88
520.251	721.88
520.467	761.88
520.682	757.88
520.898	726.88
521.113	718.88
521.329	761.88
521.544	799.88
521.76	910.88
521.975	1276.88
522.19	1305.88
522.406	860.88
522.621	729.88
522.836	688.88
523.052	669.88
523.267	671.88
523.482	676.88
523.698	657.88
523.913	652.88
524.128	648.88
524.343	650.88
524.559	633.88
524.774	633.88
524.989	625.88
525.204	617.88
525.419	627.88
525.634	633.88
525.849	608.88
526.064	601.88
526.28	622.88
526.495	607.88
526.71	607.88
526.925	625.88
527.14	613.88
527.355	633.88
527.57	612.88
527.785	613.88
527.999	594.88
528.214	611.88
528.429	592.88
528.644	620.88
528.859	588.88
529.074	582.88
529.289	606.88
529.503	681.88
529.718	649.88
529.933	615.88
530.148	590.88
530.363	628.88
530.577	627.88
530.792	612.88
531.007	607.88
531.221	589.88
531.436	605.88
531.651	608.88
531.865	584.88
532.08	604.88
532.295	594.88
532.509	588.88
532.724	615.88
532.938	599.88
533.153	634.88
533.367	597.88
533.582	605.88
533.796	610.88
534.011	606.88
534.225	605.88
534.44	595.88
534.654	584.88
534.868	583.88
535.083	568.88
535.297	608.88
535.511	610.88
535.726	603.88
535.94	590.88
536.154	574.88
536.369	586.88
536.583	592.88
536.797	596.88
537.011	583.88
537.225	574.88
537.44	556.88
537.654	540.88
537.868	552.88
538.082	550.88
538.296	595.88
538.51	557.88
538.724	585.88
538.938	572.88
539.153	575.88
539.367	601.88
539.581	575.88
539.795	568.88
540.009	556.88
540.222	550.88
540.436	572.88
540.65	583.88
540.864	539.88
541.078	561.88
541.292	556.88
541.506	559.88
541.72	555.88
541.934	550.88
542.147	572.88
542.361	560.88
542.575	550.88
542.789	560.88
543.002	562.88
543.216	575.88
543.43	567.88
543.644	559.88
543.857	553.88
544.071	561.88
544.285	567.88
544.498	556.88
544.712	583.88
544.925	571.88
545.139	567.88
545.352	559.88
545.566	558.88
545.779	573.88
545.993	580.88
546.206	589.88
546.42	568.88
546.633	570.88
546.847	547.88
547.06	526.88
547.274	560.88
547.487	550.88
547.7	557.88
547.914	562.88
548.127	561.88
548.34	553.88
548.554	568.88
548.767	568.88
548.98	567.88
549.193	574.88
549.407	571.88
549.62	565.88
549.833	587.88
550.046	565.88
550.259	552.88
550.473	539.88
550.686	582.88
550.899	555.88
551.112	561.88
551.325	554.88
551.538	518.88
551.751	544.88
551.964	545.88
552.177	551.88
552.39	556.88
552.603	570.88
552.816	580.88
553.029	609.88
553.242	609.88
553.455	593.88
553.667	604.88
553.88	617.88
554.093	597.88
554.306	583.88
554.519	572.88
554.732	578.88
554.944	539.88
555.157	545.88
555.37	549.88
555.583	524.88
555.795	529.88
556.008	531.88
556.221	513.88
556.433	515.88
556.646	526.88
556.859	516.88
557.071	507.88
557.284	493.88
557.496	515.88
557.709	491.88
557.921	479.88
558.134	489.88
558.346	501.88
558.559	494.88
558.771	484.88
558.984	480.88
559.196	469.88
559.409	492.88
559.621	483.88
559.833	486.88
560.046	500.88
560.258	480.88
560.47	464.88
560.683	497.88
560.895	462.88
561.107	481.88
561.32	483.88
561.532	492.88
561.744	492.88
561.956	488.88
562.168	488.88
562.381	493.88
562.593	493.88
562.805	496.88
563.017	493.88
563.229	470.88
563.441	505.88
563.653	513.88
563.865	516.88
564.077	501.88
564.289	504.88
564.501	506.88
564.713	510.88
564.925	540.88
565.137	545.88
565.349	553.88
565.561	566.88
565.773	563.88
565.985	602.88
566.197	593.88
566.408	644.88
566.62	669.88
566.832	693.88
567.044	712.88
567.255	721.88
567.467	726.88
567.679	777.88
567.891	823.88
568.102	821.88
568.314	800.88
568.526	744.88
568.737	691.88
568.949	655.88
569.161	606.88
569.372	595.88
569.584	559.88
569.795	548.88
570.007	512.88
570.218	530.88
570.43	546.88
570.641	527.88
570.853	509.88
571.064	488.88
571.276	528.88
571.487	493.88
571.698	492.88
571.91	480.88
572.121	455.88
572.333	463.88
572.544	448.88
572.755	471.88
572.966	444.88
573.178	445.88
573.389	448.88
573.6	424.88
573.811	429.88
574.023	430.88
574.234	419.88
574.445	458.88
574.656	451.88
574.867	453.88
575.078	409.88
575.289	449.88
575.501	436.88
575.712	424.88
575.923	403.88
576.134	411.88
576.345	405.88
576.556	393.88
576.767	419.88
576.978	406.88
577.188	412.88
577.399	428.88
577.61	404.88
577.821	396.88
578.032	414.88
578.243	414.88
578.454	564.88
578.665	465.88
578.875	411.88
579.086	397.88
579.297	385.88
579.508	383.88
579.718	386.88
579.929	398.88
580.14	376.88
580.35	391.88
580.561	387.88
580.772	390.88
580.982	383.88
581.193	375.88
581.403	388.88
581.614	375.88
581.825	387.88
582.035	375.88
582.246	375.88
582.456	378.88
582.667	391.88
582.877	381.88
583.087	365.88
583.298	372.88
583.508	377.88
583.719	371.88
583.929	381.88
584.139	381.88
584.35	373.88
584.56	377.88
584.77	351.88
584.981	364.88
585.191	363.88
585.401	365.88
585.611	361.88
585.821	358.88
586.032	391.88
586.242	362.88
586.452	365.88
586.662	347.88
586.872	364.88
587.082	362.88
587.292	360.88
587.502	350.88
587.713	371.88
587.923	362.88
588.133	379.88
588.343	359.88
588.553	375.88
588.762	384.88
588.972	348.88
589.182	364.88
589.392	362.88
589.602	377.88
589.812	363.88
590.022	376.88
590.232	367.88
590.441	377.88
590.651	384.88
590.861	364.88
591.071	373.88
591.281	380.88
591.49	376.88
591.7	389.88
591.91	380.88
592.119	384.88
592.329	406.88
592.539	413.88
592.748	412.88
592.958	421.88
593.167	428.88
593.377	459.88
593.587	428.88
593.796	440.88
594.006	429.88
594.215	423.88
594.424	435.88
594.634	428.88
594.843	427.88
595.053	402.88
595.262	412.88
595.472	392.88
595.681	371.88
595.89	384.88
596.1	383.88
596.309	361.88
596.518	356.88
596.727	355.88
596.937	362.88
597.146	358.88
597.355	350.88
597.564	351.88
597.774	331.88
597.983	335.88
598.192	344.88
598.401	324.88
598.61	343.88
598.819	338.88
599.028	323.88
599.237	323.88
599.446	340.88
599.655	331.88
599.864	317.88
600.073	324.88
600.282	313.88
600.491	337.88
600.7	318.88
600.909	318.88
601.118	315.88
601.327	331.88
601.536	292.88
601.745	303.88
601.953	305.88
602.162	327.88
602.371	316.88
602.58	303.88
602.789	315.88
602.997	309.88
603.206	318.88
603.415	307.88
603.623	303.88
603.832	310.88
604.041	291.88
604.249	311.88
604.458	319.88
604.666	280.88
604.875	292.88
605.084	294.88
605.292	308.88
605.501	296.88
605.709	306.88
605.918	298.88
606.126	299.88
606.334	298.88
606.543	282.88
606.751	303.88
606.96	313.88
607.168	293.88
607.376	285.88
607.585	302.88
607.793	318.88
608.001	309.88
608.21	282.88
608.418	296.88
608.626	286.88
608.834	287.88
609.043	270.88
609.251	291.88
609.459	274.88
609.667	292.88
609.875	255.88
610.083	291.88
610.291	277.88
610.499	288.88
610.707	289.88
610.916	293.88
611.124	289.88
611.332	307.88
611.54	293.88
611.748	284.88
611.955	294.88
612.163	304.88
612.371	293.88
612.579	285.88
612.787	281.88
612.995	294.88
613.203	314.88
613.411	271.88
613.618	286.88
613.826	285.88
614.034	295.88
614.242	279.88
614.449	276.88
614.657	281.88
614.865	265.88
615.072	282.88
615.28	287.88
615.488	286.88
615.695	305.88
615.903	288.88
616.111	286.88
616.318	300.88
616.526	310.88
616.733	284.88
616.941	291.88
617.148	297.88
617.356	283.88
617.563	281.88
617.771	301.88
617.978	285.88
618.185	278.88
618.393	264.88
618.6	296.88
618.807	264.88
619.015	284.88
619.222	264.88
619.429	280.88
619.637	275.88
619.844	274.88
620.051	271.88
620.258	287.88
620.466	268.88
620.673	251.88
620.88	270.88
621.087	277.88
621.294	277.88
621.501	276.88
621.708	248.88
621.915	266.88
622.122	252.88
622.329	273.88
622.536	283.88
622.743	265.88
622.95	265.88
623.157	269.88
623.364	284.88
623.571	256.88
623.778	283.88
623.985	274.88
624.192	247.88
624.399	262.88
624.606	264.88
624.812	255.88
625.019	264.88
625.226	253.88
625.433	269.88
625.639	235.88
625.846	250.88
626.053	259.88
626.259	249.88
626.466	260.88
626.673	237.88
626.879	238.88
627.086	253.88
627.293	257.88
627.499	269.88
627.706	236.88
627.912	236.88
628.119	257.88
628.325	229.88
628.532	233.88
628.738	239.88
628.945	236.88
629.151	239.88
629.357	233.88
629.564	239.88
629.77	250.88
629.976	240.88
630.183	234.88
630.389	237.88
630.595	240.88
630.802	235.88
631.008	234.88
631.214	224.88
631.42	223.88
631.627	236.88
631.833	215.88
632.039	225.88
632.245	221.88
632.451	200.88
632.657	225.88
632.863	225.88
633.069	225.88
633.275	222.88
633.481	222.88
633.688	224.88
633.893	219.88
634.099	220.88
634.305	226.88
634.511	218.88
634.717	224.88
634.923	202.88
635.129	222.88
635.335	220.88
635.541	196.88
635.747	224.88
635.952	225.88
636.158	220.88
636.364	217.88
636.57	224.88
636.775	222.88
636.981	216.88
637.187	206.88
637.392	194.88
637.598	208.88
637.804	222.88
638.009	208.88
638.215	209.88
638.421	208.88
638.626	208.88
638.832	205.88
639.037	204.88
639.243	201.88
639.448	210.88
639.654	212.88
639.859	202.88
640.065	204.88
640.27	227.88
640.475	195.88
640.681	207.88
640.886	206.88
641.091	204.88
641.297	204.88
641.502	181.88
641.707	197.88
641.913	191.88
642.118	191.88
642.323	199.88
642.528	198.88
642.733	195.88
642.939	198.88
643.144	196.88
643.349	208.88
643.554	199.88
643.759	204.88
643.964	195.88
644.169	184.88
644.374	183.88
644.579	202.88
644.784	204.88
644.989	199.88
645.194	198.88
645.399	188.88
645.604	192.88
645.809	196.88
646.014	202.88
646.219	203.88
646.423	200.88
646.628	177.88
646.833	195.88
647.038	170.88
647.243	205.88
647.447	207.88
647.652	206.88
647.857	200.88
648.062	214.88
648.266	211.88
648.471	201.88
648.676	201.88
648.88	194.88
649.085	209.88
649.289	209.88
649.494	213.88
649.698	209.88
649.903	215.88
650.107	195.88
650.312	193.88
650.516	187.88
650.721	169.88
650.925	184.88
651.13	179.88
651.334	182.88
651.539	168.88
651.743	191.88
651.947	191.88
652.152	152.88
652.356	145.88
652.56	156.88
652.764	180.88
652.969	144.88
653.173	153.88
653.377	148.88
653.581	159.88
653.785	168.88
653.99	175.88
654.194	158.88
654.398	152.88
654.602	156.88
654.806	143.88
655.01	156.88
655.214	163.88
655.418	154.88
655.622	157.88
655.826	164.88
656.03	152.88
656.234	162.88
656.438	132.88
656.642	138.88
656.846	150.88
657.049	153.88
657.253	143.88
657.457	154.88
657.661	131.88
657.865	127.88
658.068	127.88
658.272	129.88
658.476	122.88
658.68	128.88
658.883	121.88
659.087	106.88
659.291	119.88
659.494	113.88
659.698	107.88
659.901	101.88
660.105	104.88
660.309	107.88
660.512	106.88
660.716	92.88
660.919	107.88
661.123	112.88
661.326	106.88
661.53	89.88
661.733	101.88
661.936	92.88
662.14	102.88
662.343	89.88
662.546	92.88
662.75	102.88
662.953	95.88
663.156	86.88
663.36	95.88
663.563	95.88
663.766	79.88
663.969	89.88
664.173	88.88
664.376	94.88
664.579	95.88
664.782	93.88
664.985	82.88
665.188	73.88
665.391	80.88
665.594	86.88
665.797	85.88
666	78.88
666.203	83.88
666.406	88.88
666.609	73.88
666.812	89.88
667.015	75.88
667.218	87.88
667.421	87.88
667.624	87.88
667.827	85.88
668.03	80.88
668.232	105.88
668.435	81.88
668.638	92.88
668.841	90.88
669.043	93.88
669.246	84.88
669.449	101.88
669.651	81.88
669.854	84.88
670.057	88.88
670.259	74.88
670.462	91.88
670.665	88.88
670.867	93.88
671.07	100.88
671.272	99.88
671.475	88.88
671.677	83.88
671.88	84.88
672.082	87.88
672.284	96.88
672.487	89.88
672.689	79.88
672.892	81.88
