Data from 1964.PennyLincolnUp.Lamp.En5.5.200Scan.071719.P1._HRD10591_14-04-19-909.txt Node
Date: Thu Jul 18 14:04:19 EDT 2019
User: cochatt
Spectrometer: HR+D1059
Trigger mode: 1
Integration Time (sec): 1.000000E-1
Scans to average: 1
Electric dark correction enabled: true
Nonlinearity correction enabled: false
Boxcar width: 0
XAxis mode: Wavelengths
Number of Pixels in Spectrum: 2048
>>>>>Begin Spectral Data<<<<<
223.165	-31.25
223.4	-31.25
223.635	-31.25
223.869	-15.25
224.104	-10.25
224.338	-22.25
224.573	-15.25
224.808	-11.25
225.042	-11.25
225.277	-4.25
225.511	-1.25
225.746	-2.25
225.98	13.75
226.215	11.75
226.449	15.75
226.683	18.75
226.918	26.75
227.152	37.75
227.387	31.75
227.621	30.75
227.856	40.75
228.09	47.75
228.324	35.75
228.559	50.75
228.793	70.75
229.027	74.75
229.262	105.75
229.496	107.75
229.73	88.75
229.964	126.75
230.199	102.75
230.433	101.75
230.667	95.75
230.901	106.75
231.136	98.75
231.37	104.75
231.604	114.75
231.838	99.75
232.072	104.75
232.306	110.75
232.541	108.75
232.775	101.75
233.009	101.75
233.243	104.75
233.477	120.75
233.711	92.75
233.945	98.75
234.179	121.75
234.413	122.75
234.647	113.75
234.881	111.75
235.115	107.75
235.349	113.75
235.583	112.75
235.817	98.75
236.051	116.75
236.285	107.75
236.519	136.75
236.753	118.75
236.987	128.75
237.221	138.75
237.455	194.75
237.689	153.75
237.922	118.75
238.156	125.75
238.39	116.75
238.624	116.75
238.858	129.75
239.091	123.75
239.325	102.75
239.559	112.75
239.793	118.75
240.027	124.75
240.26	146.75
240.494	119.75
240.728	138.75
240.961	129.75
241.195	119.75
241.429	134.75
241.662	126.75
241.896	131.75
242.13	121.75
242.363	124.75
242.597	122.75
242.83	137.75
243.064	138.75
243.298	140.75
243.531	136.75
243.765	123.75
243.998	143.75
244.232	140.75
244.465	137.75
244.699	125.75
244.932	146.75
245.166	163.75
245.399	142.75
245.633	140.75
245.866	144.75
246.099	137.75
246.333	145.75
246.566	145.75
246.8	138.75
247.033	151.75
247.266	146.75
247.5	158.75
247.733	162.75
247.966	158.75
248.2	152.75
248.433	180.75
248.666	157.75
248.899	140.75
249.133	175.75
249.366	180.75
249.599	194.75
249.832	166.75
250.066	177.75
250.299	182.75
250.532	181.75
250.765	168.75
250.998	214.75
251.231	204.75
251.465	204.75
251.698	193.75
251.931	171.75
252.164	186.75
252.397	182.75
252.63	184.75
252.863	183.75
253.096	195.75
253.329	199.75
253.562	202.75
253.795	211.75
254.028	194.75
254.261	204.75
254.494	208.75
254.727	209.75
254.96	227.75
255.193	255.75
255.426	239.75
255.659	230.75
255.892	207.75
256.124	210.75
256.357	226.75
256.59	206.75
256.823	200.75
257.056	218.75
257.289	194.75
257.521	203.75
257.754	228.75
257.987	217.75
258.22	209.75
258.452	213.75
258.685	195.75
258.918	211.75
259.151	202.75
259.383	215.75
259.616	204.75
259.849	211.75
260.081	224.75
260.314	221.75
260.547	233.75
260.779	218.75
261.012	215.75
261.244	223.75
261.477	221.75
261.71	204.75
261.942	220.75
262.175	216.75
262.407	220.75
262.64	221.75
262.872	203.75
263.105	206.75
263.337	217.75
263.57	206.75
263.802	225.75
264.035	197.75
264.267	222.75
264.499	193.75
264.732	195.75
264.964	202.75
265.197	196.75
265.429	203.75
265.661	207.75
265.894	202.75
266.126	226.75
266.358	233.75
266.591	221.75
266.823	227.75
267.055	231.75
267.287	240.75
267.52	222.75
267.752	240.75
267.984	224.75
268.216	235.75
268.448	230.75
268.681	226.75
268.913	224.75
269.145	261.75
269.377	260.75
269.609	257.75
269.841	270.75
270.073	269.75
270.306	275.75
270.538	261.75
270.77	276.75
271.002	284.75
271.234	294.75
271.466	270.75
271.698	265.75
271.93	279.75
272.162	291.75
272.394	276.75
272.626	281.75
272.858	273.75
273.09	274.75
273.322	262.75
273.553	261.75
273.785	259.75
274.017	271.75
274.249	248.75
274.481	265.75
274.713	261.75
274.945	262.75
275.176	260.75
275.408	264.75
275.64	282.75
275.872	270.75
276.104	291.75
276.335	269.75
276.567	266.75
276.799	276.75
277.031	302.75
277.262	299.75
277.494	308.75
277.726	308.75
277.957	288.75
278.189	267.75
278.421	268.75
278.652	265.75
278.884	275.75
279.115	276.75
279.347	282.75
279.579	273.75
279.81	254.75
280.042	264.75
280.273	273.75
280.505	272.75
280.736	254.75
280.968	287.75
281.199	275.75
281.431	279.75
281.662	284.75
281.894	292.75
282.125	286.75
282.356	286.75
282.588	297.75
282.819	308.75
283.051	287.75
283.282	288.75
283.513	269.75
283.745	288.75
283.976	297.75
284.207	290.75
284.439	293.75
284.67	304.75
284.901	290.75
285.132	304.75
285.364	288.75
285.595	295.75
285.826	287.75
286.057	287.75
286.288	276.75
286.52	292.75
286.751	287.75
286.982	299.75
287.213	287.75
287.444	292.75
287.675	298.75
287.906	299.75
288.138	294.75
288.369	286.75
288.6	300.75
288.831	310.75
289.062	305.75
289.293	290.75
289.524	305.75
289.755	306.75
289.986	312.75
290.217	304.75
290.448	301.75
290.679	291.75
290.91	318.75
291.141	318.75
291.371	311.75
291.602	304.75
291.833	308.75
292.064	303.75
292.295	278.75
292.526	305.75
292.757	286.75
292.987	298.75
293.218	319.75
293.449	328.75
293.68	292.75
293.91	292.75
294.141	305.75
294.372	297.75
294.603	307.75
294.833	312.75
295.064	307.75
295.295	297.75
295.525	311.75
295.756	327.75
295.987	315.75
296.217	326.75
296.448	323.75
296.679	325.75
296.909	315.75
297.14	334.75
297.37	322.75
297.601	320.75
297.831	323.75
298.062	320.75
298.292	336.75
298.523	307.75
298.753	325.75
298.984	317.75
299.214	335.75
299.445	322.75
299.675	318.75
299.905	346.75
300.136	328.75
300.366	327.75
300.597	335.75
300.827	324.75
301.057	344.75
301.288	344.75
301.518	338.75
301.748	315.75
301.979	337.75
302.209	350.75
302.439	335.75
302.669	344.75
302.9	344.75
303.13	351.75
303.36	343.75
303.59	352.75
303.82	342.75
304.051	353.75
304.281	362.75
304.511	364.75
304.741	343.75
304.971	351.75
305.201	352.75
305.431	341.75
305.661	352.75
305.891	330.75
306.121	354.75
306.352	359.75
306.582	345.75
306.812	337.75
307.042	324.75
307.272	339.75
307.502	346.75
307.731	326.75
307.961	324.75
308.191	346.75
308.421	362.75
308.651	359.75
308.881	354.75
309.111	354.75
309.341	347.75
309.571	382.75
309.8	370.75
310.03	361.75
310.26	375.75
310.49	376.75
310.72	351.75
310.949	367.75
311.179	362.75
311.409	392.75
311.639	361.75
311.868	370.75
312.098	374.75
312.328	391.75
312.557	382.75
312.787	389.75
313.017	382.75
313.246	379.75
313.476	394.75
313.706	385.75
313.935	403.75
314.165	393.75
314.394	401.75
314.624	393.75
314.853	378.75
315.083	379.75
315.312	386.75
315.542	368.75
315.771	386.75
316.001	392.75
316.23	396.75
316.46	382.75
316.689	390.75
316.919	412.75
317.148	369.75
317.377	383.75
317.607	390.75
317.836	374.75
318.065	372.75
318.295	393.75
318.524	366.75
318.753	372.75
318.983	396.75
319.212	384.75
319.441	377.75
319.67	391.75
319.9	403.75
320.129	387.75
320.358	388.75
320.587	368.75
320.816	375.75
321.046	402.75
321.275	406.75
321.504	396.75
321.733	390.75
321.962	386.75
322.191	397.75
322.42	411.75
322.649	421.75
322.878	427.75
323.108	404.75
323.337	423.75
323.566	430.75
323.795	466.75
324.024	494.75
324.253	558.75
324.482	732.75
324.71	1046.75
324.939	1394.75
325.168	1174.75
325.397	666.75
325.626	526.75
325.855	458.75
326.084	444.75
326.313	443.75
326.542	447.75
326.77	454.75
326.999	518.75
327.228	675.75
327.457	927.75
327.686	1054.75
327.914	734.75
328.143	563.75
328.372	512.75
328.6	486.75
328.829	471.75
329.058	495.75
329.287	481.75
329.515	497.75
329.744	454.75
329.972	453.75
330.201	472.75
330.43	490.75
330.658	495.75
330.887	500.75
331.115	508.75
331.344	459.75
331.572	460.75
331.801	446.75
332.03	464.75
332.258	448.75
332.486	446.75
332.715	447.75
332.943	436.75
333.172	466.75
333.4	459.75
333.629	470.75
333.857	466.75
334.085	490.75
334.314	511.75
334.542	494.75
334.771	520.75
334.999	501.75
335.227	476.75
335.455	475.75
335.684	458.75
335.912	471.75
336.14	452.75
336.369	455.75
336.597	447.75
336.825	427.75
337.053	451.75
337.281	443.75
337.51	427.75
337.738	459.75
337.966	452.75
338.194	434.75
338.422	446.75
338.65	449.75
338.878	456.75
339.106	437.75
339.334	445.75
339.562	428.75
339.79	435.75
340.018	400.75
340.246	410.75
340.474	434.75
340.702	430.75
340.93	416.75
341.158	424.75
341.386	407.75
341.614	442.75
341.842	420.75
342.07	409.75
342.298	408.75
342.526	402.75
342.754	414.75
342.981	402.75
343.209	415.75
343.437	424.75
343.665	426.75
343.893	443.75
344.12	463.75
344.348	448.75
344.576	447.75
344.804	426.75
345.031	443.75
345.259	442.75
345.487	430.75
345.714	411.75
345.942	424.75
346.17	415.75
346.397	394.75
346.625	398.75
346.853	398.75
347.08	406.75
347.308	427.75
347.535	398.75
347.763	423.75
347.99	404.75
348.218	403.75
348.445	417.75
348.673	401.75
348.9	400.75
349.128	416.75
349.355	382.75
349.583	383.75
349.81	402.75
350.037	382.75
350.265	411.75
350.492	398.75
350.72	406.75
350.947	382.75
351.174	395.75
351.402	400.75
351.629	394.75
351.856	388.75
352.083	412.75
352.311	404.75
352.538	399.75
352.765	397.75
352.992	395.75
353.22	392.75
353.447	384.75
353.674	366.75
353.901	388.75
354.128	378.75
354.355	373.75
354.583	391.75
354.81	410.75
355.037	372.75
355.264	389.75
355.491	375.75
355.718	378.75
355.945	374.75
356.172	402.75
356.399	376.75
356.626	384.75
356.853	384.75
357.08	359.75
357.307	380.75
357.534	394.75
357.761	384.75
357.988	384.75
358.215	380.75
358.441	351.75
358.668	366.75
358.895	378.75
359.122	371.75
359.349	379.75
359.576	399.75
359.802	417.75
360.029	406.75
360.256	414.75
360.483	403.75
360.709	390.75
360.936	406.75
361.163	402.75
361.39	401.75
361.616	392.75
361.843	398.75
362.07	396.75
362.296	389.75
362.523	374.75
362.749	388.75
362.976	359.75
363.203	382.75
363.429	384.75
363.656	391.75
363.882	404.75
364.109	378.75
364.335	380.75
364.562	380.75
364.788	376.75
365.015	358.75
365.241	376.75
365.468	370.75
365.694	366.75
365.92	394.75
366.147	378.75
366.373	396.75
366.599	355.75
366.826	368.75
367.052	375.75
367.278	368.75
367.505	394.75
367.731	364.75
367.957	374.75
368.184	370.75
368.41	393.75
368.636	382.75
368.862	384.75
369.089	373.75
369.315	368.75
369.541	400.75
369.767	368.75
369.993	395.75
370.219	382.75
370.445	379.75
370.672	383.75
370.898	382.75
371.124	401.75
371.35	352.75
371.576	390.75
371.802	381.75
372.028	379.75
372.254	382.75
372.48	392.75
372.706	372.75
372.932	376.75
373.158	380.75
373.384	383.75
373.61	400.75
373.835	383.75
374.061	400.75
374.287	396.75
374.513	404.75
374.739	386.75
374.965	396.75
375.191	388.75
375.416	393.75
375.642	391.75
375.868	401.75
376.094	390.75
376.319	376.75
376.545	398.75
376.771	392.75
376.997	380.75
377.222	372.75
377.448	377.75
377.674	367.75
377.899	371.75
378.125	369.75
378.35	361.75
378.576	384.75
378.802	373.75
379.027	364.75
379.253	383.75
379.478	392.75
379.704	374.75
379.929	359.75
380.155	382.75
380.38	372.75
380.606	369.75
380.831	389.75
381.057	407.75
381.282	371.75
381.507	384.75
381.733	373.75
381.958	374.75
382.184	380.75
382.409	371.75
382.634	380.75
382.86	376.75
383.085	396.75
383.31	393.75
383.535	371.75
383.761	391.75
383.986	408.75
384.211	400.75
384.436	377.75
384.662	391.75
384.887	412.75
385.112	391.75
385.337	401.75
385.562	408.75
385.787	396.75
386.013	420.75
386.238	393.75
386.463	416.75
386.688	427.75
386.913	409.75
387.138	412.75
387.363	406.75
387.588	396.75
387.813	390.75
388.038	403.75
388.263	411.75
388.488	430.75
388.713	423.75
388.938	400.75
389.163	407.75
389.387	409.75
389.612	403.75
389.837	422.75
390.062	394.75
390.287	404.75
390.512	397.75
390.736	393.75
390.961	404.75
391.186	435.75
391.411	424.75
391.636	408.75
391.86	432.75
392.085	450.75
392.31	419.75
392.534	416.75
392.759	446.75
392.984	426.75
393.208	385.75
393.433	395.75
393.658	421.75
393.882	394.75
394.107	412.75
394.331	420.75
394.556	419.75
394.78	422.75
395.005	412.75
395.229	407.75
395.454	397.75
395.678	441.75
395.903	430.75
396.127	458.75
396.352	454.75
396.576	432.75
396.801	443.75
397.025	434.75
397.249	433.75
397.474	444.75
397.698	437.75
397.922	443.75
398.147	446.75
398.371	460.75
398.595	458.75
398.82	467.75
399.044	478.75
399.268	483.75
399.492	530.75
399.717	550.75
399.941	571.75
400.165	575.75
400.389	575.75
400.613	533.75
400.837	477.75
401.062	483.75
401.286	476.75
401.51	473.75
401.734	449.75
401.958	484.75
402.182	466.75
402.406	468.75
402.63	463.75
402.854	487.75
403.078	467.75
403.302	472.75
403.526	470.75
403.75	484.75
403.974	487.75
404.198	455.75
404.422	478.75
404.645	468.75
404.869	483.75
405.093	517.75
405.317	550.75
405.541	542.75
405.765	524.75
405.988	484.75
406.212	507.75
406.436	503.75
406.66	517.75
406.883	524.75
407.107	551.75
407.331	540.75
407.555	591.75
407.778	583.75
408.002	543.75
408.226	532.75
408.449	515.75
408.673	521.75
408.896	543.75
409.12	552.75
409.344	539.75
409.567	490.75
409.791	490.75
410.014	479.75
410.238	484.75
410.461	478.75
410.685	481.75
410.908	509.75
411.132	520.75
411.355	517.75
411.578	498.75
411.802	488.75
412.025	478.75
412.249	481.75
412.472	499.75
412.695	534.75
412.919	522.75
413.142	477.75
413.365	466.75
413.589	452.75
413.812	441.75
414.035	447.75
414.258	481.75
414.482	464.75
414.705	466.75
414.928	449.75
415.151	445.75
415.374	494.75
415.597	438.75
415.821	428.75
416.044	427.75
416.267	431.75
416.49	450.75
416.713	452.75
416.936	458.75
417.159	443.75
417.382	426.75
417.605	435.75
417.828	450.75
418.051	464.75
418.274	456.75
418.497	440.75
418.72	432.75
418.943	452.75
419.166	450.75
419.389	478.75
419.611	467.75
419.834	483.75
420.057	463.75
420.28	437.75
420.503	472.75
420.726	458.75
420.948	446.75
421.171	506.75
421.394	524.75
421.617	480.75
421.839	474.75
422.062	450.75
422.285	460.75
422.507	486.75
422.73	563.75
422.953	530.75
423.175	488.75
423.398	485.75
423.621	483.75
423.843	486.75
424.066	488.75
424.288	465.75
424.511	495.75
424.733	531.75
424.956	584.75
425.178	566.75
425.401	512.75
425.623	548.75
425.846	471.75
426.068	468.75
426.291	470.75
426.513	459.75
426.735	470.75
426.958	505.75
427.18	554.75
427.402	644.75
427.625	683.75
427.847	589.75
428.069	524.75
428.292	500.75
428.514	470.75
428.736	456.75
428.958	454.75
429.181	427.75
429.403	440.75
429.625	419.75
429.847	466.75
430.069	508.75
430.292	488.75
430.514	426.75
430.736	427.75
430.958	422.75
431.18	410.75
431.402	408.75
431.624	404.75
431.846	430.75
432.068	439.75
432.29	411.75
432.512	406.75
432.734	407.75
432.956	424.75
433.178	414.75
433.4	406.75
433.622	422.75
433.844	428.75
434.066	421.75
434.287	410.75
434.509	414.75
434.731	435.75
434.953	443.75
435.175	449.75
435.397	478.75
435.618	462.75
435.84	475.75
436.062	562.75
436.284	597.75
436.505	500.75
436.727	441.75
436.949	426.75
437.17	436.75
437.392	442.75
437.614	431.75
437.835	459.75
438.057	525.75
438.278	601.75
438.5	573.75
438.721	650.75
438.943	614.75
439.165	509.75
439.386	483.75
439.608	479.75
439.829	465.75
440.05	466.75
440.272	498.75
440.493	481.75
440.715	459.75
440.936	434.75
441.158	450.75
441.379	441.75
441.6	456.75
441.822	459.75
442.043	482.75
442.264	536.75
442.486	585.75
442.707	498.75
442.928	490.75
443.149	456.75
443.371	475.75
443.592	519.75
443.813	578.75
444.034	627.75
444.255	513.75
444.476	486.75
444.698	480.75
444.919	464.75
445.14	588.75
445.361	548.75
445.582	500.75
445.803	506.75
446.024	582.75
446.245	613.75
446.466	555.75
446.687	486.75
446.908	424.75
447.129	427.75
447.35	430.75
447.571	417.75
447.792	405.75
448.013	404.75
448.234	419.75
448.455	478.75
448.675	553.75
448.896	625.75
449.117	532.75
449.338	507.75
449.559	597.75
449.779	651.75
450	520.75
450.221	462.75
450.442	418.75
450.662	391.75
450.883	412.75
451.104	404.75
451.324	393.75
451.545	402.75
451.766	377.75
451.986	378.75
452.207	372.75
452.428	385.75
452.648	390.75
452.869	381.75
453.089	374.75
453.31	384.75
453.53	392.75
453.751	376.75
453.971	370.75
454.192	374.75
454.412	393.75
454.633	363.75
454.853	374.75
455.073	376.75
455.294	387.75
455.514	423.75
455.734	411.75
455.955	370.75
456.175	368.75
456.395	382.75
456.616	363.75
456.836	368.75
457.056	370.75
457.276	353.75
457.497	343.75
457.717	361.75
457.937	385.75
458.157	382.75
458.377	370.75
458.598	379.75
458.818	408.75
459.038	458.75
459.258	475.75
459.478	418.75
459.698	409.75
459.918	407.75
460.138	416.75
460.358	426.75
460.578	435.75
460.798	438.75
461.018	415.75
461.238	436.75
461.458	432.75
461.678	415.75
461.898	430.75
462.118	457.75
462.338	452.75
462.558	460.75
462.777	453.75
462.997	459.75
463.217	483.75
463.437	510.75
463.657	472.75
463.876	473.75
464.096	458.75
464.316	460.75
464.536	447.75
464.755	456.75
464.975	458.75
465.195	473.75
465.414	487.75
465.634	479.75
465.854	432.75
466.073	415.75
466.293	394.75
466.512	428.75
466.732	381.75
466.951	388.75
467.171	393.75
467.391	382.75
467.61	403.75
467.829	390.75
468.049	405.75
468.268	419.75
468.488	364.75
468.707	386.75
468.927	394.75
469.146	380.75
469.365	412.75
469.585	382.75
469.804	377.75
470.023	392.75
470.243	414.75
470.462	399.75
470.681	407.75
470.901	419.75
471.12	393.75
471.339	396.75
471.558	405.75
471.777	401.75
471.997	400.75
472.216	391.75
472.435	419.75
472.654	410.75
472.873	395.75
473.092	405.75
473.311	412.75
473.53	384.75
473.749	403.75
473.968	421.75
474.187	509.75
474.406	508.75
474.625	419.75
474.844	408.75
475.063	398.75
475.282	411.75
475.501	390.75
475.72	404.75
475.939	407.75
476.158	408.75
476.377	423.75
476.596	405.75
476.814	412.75
477.033	415.75
477.252	418.75
477.471	433.75
477.69	424.75
477.908	422.75
478.127	422.75
478.346	446.75
478.564	423.75
478.783	438.75
479.002	439.75
479.22	456.75
479.439	459.75
479.658	453.75
479.876	467.75
480.095	471.75
480.313	507.75
480.532	489.75
480.751	504.75
480.969	508.75
481.188	511.75
481.406	532.75
481.624	490.75
481.843	466.75
482.061	449.75
482.28	463.75
482.498	443.75
482.717	442.75
482.935	450.75
483.153	437.75
483.372	455.75
483.59	423.75
483.808	451.75
484.027	453.75
484.245	471.75
484.463	451.75
484.681	463.75
484.9	453.75
485.118	459.75
485.336	452.75
485.554	467.75
485.772	471.75
485.99	463.75
486.209	462.75
486.427	459.75
486.645	481.75
486.863	476.75
487.081	485.75
487.299	476.75
487.517	502.75
487.735	474.75
487.953	483.75
488.171	466.75
488.389	479.75
488.607	473.75
488.825	480.75
489.043	475.75
489.261	482.75
489.479	458.75
489.696	465.75
489.914	484.75
490.132	496.75
490.35	494.75
490.568	503.75
490.786	531.75
491.003	511.75
491.221	503.75
491.439	523.75
491.657	536.75
491.874	525.75
492.092	536.75
492.31	529.75
492.527	526.75
492.745	532.75
492.963	538.75
493.18	543.75
493.398	546.75
493.615	530.75
493.833	552.75
494.05	554.75
494.268	550.75
494.485	545.75
494.703	559.75
494.92	552.75
495.138	562.75
495.355	575.75
495.573	587.75
495.79	567.75
496.008	559.75
496.225	558.75
496.442	568.75
496.66	566.75
496.877	575.75
497.094	563.75
497.312	612.75
497.529	610.75
497.746	607.75
497.963	608.75
498.181	636.75
498.398	624.75
498.615	654.75
498.832	646.75
499.049	681.75
499.267	672.75
499.484	713.75
499.701	736.75
499.918	792.75
500.135	820.75
500.352	881.75
500.569	896.75
500.786	880.75
501.003	873.75
501.22	851.75
501.437	804.75
501.654	774.75
501.871	718.75
502.088	720.75
502.305	676.75
502.522	676.75
502.739	642.75
502.956	631.75
503.172	617.75
503.389	609.75
503.606	612.75
503.823	587.75
504.04	585.75
504.256	608.75
504.473	574.75
504.69	566.75
504.907	571.75
505.123	566.75
505.34	563.75
505.557	532.75
505.773	547.75
505.99	540.75
506.207	532.75
506.423	562.75
506.64	518.75
506.856	517.75
507.073	518.75
507.289	519.75
507.506	521.75
507.722	502.75
507.939	495.75
508.155	512.75
508.372	505.75
508.588	517.75
508.805	499.75
509.021	502.75
509.238	496.75
509.454	501.75
509.67	488.75
509.887	486.75
510.103	477.75
510.319	493.75
510.536	527.75
510.752	715.75
510.968	610.75
511.184	465.75
511.401	463.75
511.617	479.75
511.833	460.75
512.049	473.75
512.265	477.75
512.481	450.75
512.698	487.75
512.914	450.75
513.13	489.75
513.346	471.75
513.562	455.75
513.778	463.75
513.994	459.75
514.21	479.75
514.426	494.75
514.642	491.75
514.858	490.75
515.074	493.75
515.29	571.75
515.506	709.75
515.721	628.75
515.937	498.75
516.153	491.75
516.369	466.75
516.585	491.75
516.801	474.75
517.016	495.75
517.232	512.75
517.448	491.75
517.664	520.75
517.879	500.75
518.095	505.75
518.311	498.75
518.527	511.75
518.742	504.75
518.958	481.75
519.173	479.75
519.389	464.75
519.605	477.75
519.82	485.75
520.036	489.75
520.251	505.75
520.467	481.75
520.682	478.75
520.898	478.75
521.113	475.75
521.329	487.75
521.544	544.75
521.76	588.75
521.975	824.75
522.19	778.75
522.406	563.75
522.621	463.75
522.836	446.75
523.052	440.75
523.267	417.75
523.482	423.75
523.698	424.75
523.913	441.75
524.128	408.75
524.343	396.75
524.559	407.75
524.774	411.75
524.989	426.75
525.204	430.75
525.419	406.75
525.634	406.75
525.849	414.75
526.064	421.75
526.28	410.75
526.495	373.75
526.71	386.75
526.925	409.75
527.14	372.75
527.355	390.75
527.57	380.75
527.785	399.75
527.999	374.75
528.214	399.75
528.429	393.75
528.644	393.75
528.859	377.75
529.074	393.75
529.289	407.75
529.503	404.75
529.718	426.75
529.933	397.75
530.148	397.75
530.363	405.75
530.577	393.75
530.792	383.75
531.007	408.75
531.221	389.75
531.436	399.75
531.651	385.75
531.865	384.75
532.08	372.75
532.295	375.75
532.509	411.75
532.724	376.75
532.938	367.75
533.153	379.75
533.367	386.75
533.582	372.75
533.796	376.75
534.011	380.75
534.225	364.75
534.44	371.75
534.654	378.75
534.868	383.75
535.083	379.75
535.297	380.75
535.511	370.75
535.726	393.75
535.94	380.75
536.154	363.75
536.369	369.75
536.583	358.75
536.797	370.75
537.011	341.75
537.225	368.75
537.44	355.75
537.654	355.75
537.868	387.75
538.082	354.75
538.296	356.75
538.51	362.75
538.724	367.75
538.938	349.75
539.153	390.75
539.367	374.75
539.581	383.75
539.795	375.75
540.009	360.75
540.222	372.75
540.436	350.75
540.65	350.75
540.864	358.75
541.078	376.75
541.292	366.75
541.506	371.75
541.72	352.75
541.934	350.75
542.147	372.75
542.361	353.75
542.575	373.75
542.789	351.75
543.002	356.75
543.216	373.75
543.43	336.75
543.644	358.75
543.857	347.75
544.071	362.75
544.285	351.75
544.498	355.75
544.712	361.75
544.925	347.75
545.139	375.75
545.352	354.75
545.566	350.75
545.779	351.75
545.993	338.75
546.206	342.75
546.42	369.75
546.633	360.75
546.847	355.75
547.06	351.75
547.274	340.75
547.487	354.75
547.7	364.75
547.914	343.75
548.127	363.75
548.34	342.75
548.554	357.75
548.767	352.75
548.98	344.75
549.193	355.75
549.407	361.75
549.62	333.75
549.833	346.75
550.046	337.75
550.259	356.75
550.473	359.75
550.686	338.75
550.899	350.75
551.112	343.75
551.325	351.75
551.538	356.75
551.751	332.75
551.964	352.75
552.177	343.75
552.39	359.75
552.603	364.75
552.816	343.75
553.029	346.75
553.242	360.75
553.455	359.75
553.667	370.75
553.88	354.75
554.093	354.75
554.306	338.75
554.519	366.75
554.732	359.75
554.944	371.75
555.157	354.75
555.37	341.75
555.583	344.75
555.795	330.75
556.008	328.75
556.221	331.75
556.433	332.75
556.646	332.75
556.859	354.75
557.071	341.75
557.284	323.75
557.496	326.75
557.709	321.75
557.921	303.75
558.134	327.75
558.346	302.75
558.559	340.75
558.771	337.75
558.984	301.75
559.196	303.75
559.409	309.75
559.621	308.75
559.833	300.75
560.046	306.75
560.258	320.75
560.47	316.75
560.683	332.75
560.895	311.75
561.107	313.75
561.32	305.75
561.532	307.75
561.744	301.75
561.956	319.75
562.168	332.75
562.381	330.75
562.593	304.75
562.805	321.75
563.017	328.75
563.229	323.75
563.441	345.75
563.653	328.75
563.865	308.75
564.077	334.75
564.289	341.75
564.501	328.75
564.713	336.75
564.925	318.75
565.137	332.75
565.349	358.75
565.561	349.75
565.773	347.75
565.985	355.75
566.197	360.75
566.408	374.75
566.62	380.75
566.832	399.75
567.044	412.75
567.255	421.75
567.467	393.75
567.679	425.75
567.891	438.75
568.102	433.75
568.314	422.75
568.526	392.75
568.737	386.75
568.949	369.75
569.161	350.75
569.372	336.75
569.584	362.75
569.795	330.75
570.007	352.75
570.218	343.75
570.43	328.75
570.641	318.75
570.853	308.75
571.064	306.75
571.276	316.75
571.487	302.75
571.698	291.75
571.91	290.75
572.121	298.75
572.333	307.75
572.544	291.75
572.755	282.75
572.966	288.75
573.178	299.75
573.389	291.75
573.6	271.75
573.811	287.75
574.023	283.75
574.234	282.75
574.445	262.75
574.656	273.75
574.867	289.75
575.078	275.75
575.289	261.75
575.501	284.75
575.712	248.75
575.923	278.75
576.134	276.75
576.345	295.75
576.556	265.75
576.767	257.75
576.978	261.75
577.188	264.75
577.399	254.75
577.61	264.75
577.821	268.75
578.032	268.75
578.243	282.75
578.454	357.75
578.665	309.75
578.875	276.75
579.086	260.75
579.297	264.75
579.508	265.75
579.718	261.75
579.929	254.75
580.14	259.75
580.35	265.75
580.561	257.75
580.772	262.75
580.982	236.75
581.193	246.75
581.403	262.75
581.614	252.75
581.825	255.75
582.035	248.75
582.246	231.75
582.456	267.75
582.667	272.75
582.877	245.75
583.087	243.75
583.298	234.75
583.508	243.75
583.719	256.75
583.929	256.75
584.139	234.75
584.35	241.75
584.56	256.75
584.77	243.75
584.981	252.75
585.191	240.75
585.401	244.75
585.611	253.75
585.821	261.75
586.032	240.75
586.242	225.75
586.452	235.75
586.662	258.75
586.872	245.75
587.082	248.75
587.292	234.75
587.502	222.75
587.713	247.75
587.923	249.75
588.133	239.75
588.343	227.75
588.553	231.75
588.762	240.75
588.972	235.75
589.182	263.75
589.392	272.75
589.602	258.75
589.812	259.75
590.022	241.75
590.232	254.75
590.441	241.75
590.651	250.75
590.861	248.75
591.071	230.75
591.281	254.75
591.49	259.75
591.7	248.75
591.91	236.75
592.119	257.75
592.329	247.75
592.539	258.75
592.748	262.75
592.958	246.75
593.167	247.75
593.377	265.75
593.587	279.75
593.796	254.75
594.006	262.75
594.215	267.75
594.424	242.75
594.634	268.75
594.843	254.75
595.053	262.75
595.262	245.75
595.472	240.75
595.681	249.75
595.89	243.75
596.1	234.75
596.309	233.75
596.518	233.75
596.727	239.75
596.937	240.75
597.146	230.75
597.355	215.75
597.564	251.75
597.774	216.75
597.983	225.75
598.192	224.75
598.401	215.75
598.61	217.75
598.819	221.75
599.028	214.75
599.237	218.75
599.446	204.75
599.655	214.75
599.864	219.75
600.073	209.75
600.282	224.75
600.491	217.75
600.7	209.75
600.909	216.75
601.118	220.75
601.327	207.75
601.536	211.75
601.745	211.75
601.953	224.75
602.162	214.75
602.371	222.75
602.58	218.75
602.789	218.75
602.997	213.75
603.206	204.75
603.415	208.75
603.623	204.75
603.832	205.75
604.041	210.75
604.249	193.75
604.458	202.75
604.666	213.75
604.875	187.75
605.084	189.75
605.292	193.75
605.501	204.75
605.709	195.75
605.918	223.75
606.126	195.75
606.334	186.75
606.543	199.75
606.751	199.75
606.96	204.75
607.168	202.75
607.376	177.75
607.585	208.75
607.793	198.75
608.001	199.75
608.21	205.75
608.418	194.75
608.626	200.75
608.834	207.75
609.043	180.75
609.251	200.75
609.459	186.75
609.667	195.75
609.875	195.75
610.083	198.75
610.291	195.75
610.499	200.75
610.707	214.75
610.916	231.75
611.124	201.75
611.332	209.75
611.54	202.75
611.748	194.75
611.955	198.75
612.163	206.75
612.371	196.75
612.579	185.75
612.787	194.75
612.995	191.75
613.203	196.75
613.411	195.75
613.618	184.75
613.826	195.75
614.034	192.75
614.242	209.75
614.449	204.75
614.657	201.75
614.865	195.75
615.072	187.75
615.28	184.75
615.488	202.75
615.695	193.75
615.903	180.75
616.111	191.75
616.318	205.75
616.526	195.75
616.733	199.75
616.941	180.75
617.148	188.75
617.356	195.75
617.563	222.75
617.771	179.75
617.978	191.75
618.185	190.75
618.393	192.75
618.6	195.75
618.807	191.75
619.015	180.75
619.222	200.75
619.429	198.75
619.637	183.75
619.844	184.75
620.051	200.75
620.258	186.75
620.466	182.75
620.673	195.75
620.88	188.75
621.087	173.75
621.294	188.75
621.501	189.75
621.708	189.75
621.915	182.75
622.122	186.75
622.329	185.75
622.536	192.75
622.743	180.75
622.95	182.75
623.157	164.75
623.364	186.75
623.571	172.75
623.778	196.75
623.985	171.75
624.192	166.75
624.399	187.75
624.606	178.75
624.812	177.75
625.019	171.75
625.226	153.75
625.433	186.75
625.639	170.75
625.846	176.75
626.053	174.75
626.259	175.75
626.466	182.75
626.673	156.75
626.879	167.75
627.086	162.75
627.293	167.75
627.499	160.75
627.706	191.75
627.912	174.75
628.119	181.75
628.325	178.75
628.532	174.75
628.738	174.75
628.945	167.75
629.151	158.75
629.357	148.75
629.564	176.75
629.77	171.75
629.976	170.75
630.183	170.75
630.389	164.75
630.595	170.75
630.802	166.75
631.008	168.75
631.214	178.75
631.42	162.75
631.627	170.75
631.833	158.75
632.039	176.75
632.245	158.75
632.451	182.75
632.657	177.75
632.863	164.75
633.069	146.75
633.275	151.75
633.481	147.75
633.688	161.75
633.893	168.75
634.099	159.75
634.305	167.75
634.511	142.75
634.717	157.75
634.923	171.75
635.129	154.75
635.335	166.75
635.541	152.75
635.747	152.75
635.952	148.75
636.158	157.75
636.364	162.75
636.57	145.75
636.775	156.75
636.981	144.75
637.187	174.75
637.392	163.75
637.598	148.75
637.804	159.75
638.009	167.75
638.215	163.75
638.421	152.75
638.626	148.75
638.832	145.75
639.037	152.75
639.243	162.75
639.448	132.75
639.654	148.75
639.859	144.75
640.065	152.75
640.27	150.75
640.475	144.75
640.681	155.75
640.886	148.75
641.091	154.75
641.297	155.75
641.502	135.75
641.707	158.75
641.913	138.75
642.118	164.75
642.323	135.75
642.528	144.75
642.733	156.75
642.939	149.75
643.144	143.75
643.349	132.75
643.554	144.75
643.759	129.75
643.964	143.75
644.169	152.75
644.374	158.75
644.579	144.75
644.784	146.75
644.989	149.75
645.194	137.75
645.399	148.75
645.604	136.75
645.809	146.75
646.014	146.75
646.219	140.75
646.423	132.75
646.628	134.75
646.833	151.75
647.038	132.75
647.243	144.75
647.447	139.75
647.652	146.75
647.857	141.75
648.062	141.75
648.266	138.75
648.471	147.75
648.676	148.75
648.88	141.75
649.085	159.75
649.289	155.75
649.494	147.75
649.698	149.75
649.903	175.75
650.107	154.75
650.312	152.75
650.516	142.75
650.721	139.75
650.925	120.75
651.13	122.75
651.334	137.75
651.539	136.75
651.743	147.75
651.947	139.75
652.152	144.75
652.356	119.75
652.56	122.75
652.764	126.75
652.969	122.75
653.173	118.75
653.377	119.75
653.581	123.75
653.785	123.75
653.99	124.75
654.194	127.75
654.398	123.75
654.602	116.75
654.806	113.75
655.01	148.75
655.214	123.75
655.418	139.75
655.622	117.75
655.826	128.75
656.03	130.75
656.234	145.75
656.438	135.75
656.642	134.75
656.846	135.75
657.049	108.75
657.253	136.75
657.457	113.75
657.661	107.75
657.865	107.75
658.068	100.75
658.272	117.75
658.476	110.75
658.68	81.75
658.883	107.75
659.087	85.75
659.291	94.75
659.494	92.75
659.698	99.75
659.901	94.75
660.105	89.75
660.309	101.75
660.512	81.75
660.716	89.75
660.919	92.75
661.123	124.75
661.326	89.75
661.53	93.75
661.733	86.75
661.936	102.75
662.14	79.75
662.343	98.75
662.546	90.75
662.75	76.75
662.953	88.75
663.156	84.75
663.36	84.75
663.563	92.75
663.766	85.75
663.969	93.75
664.173	82.75
664.376	79.75
664.579	84.75
664.782	93.75
664.985	85.75
665.188	89.75
665.391	83.75
665.594	85.75
665.797	82.75
666	91.75
666.203	70.75
666.406	78.75
666.609	90.75
666.812	78.75
667.015	79.75
667.218	81.75
667.421	91.75
667.624	88.75
667.827	78.75
668.03	91.75
668.232	78.75
668.435	74.75
668.638	58.75
668.841	75.75
669.043	86.75
669.246	77.75
669.449	92.75
669.651	82.75
669.854	70.75
670.057	73.75
670.259	83.75
670.462	73.75
670.665	66.75
670.867	83.75
671.07	73.75
671.272	73.75
671.475	80.75
671.677	80.75
671.88	83.75
672.082	85.75
672.284	84.75
672.487	66.75
672.689	83.75
672.892	89.75
