Data from 1964.PennyLincolnUp.Lamp.En5.5.200Scan.071719.P1._HRD10591_14-06-07-909.txt Node
Date: Thu Jul 18 14:06:07 EDT 2019
User: cochatt
Spectrometer: HR+D1059
Trigger mode: 1
Integration Time (sec): 1.000000E-1
Scans to average: 1
Electric dark correction enabled: true
Nonlinearity correction enabled: false
Boxcar width: 0
XAxis mode: Wavelengths
Number of Pixels in Spectrum: 2048
>>>>>Begin Spectral Data<<<<<
223.165	-27.94
223.4	-27.94
223.635	-27.94
223.869	-8.94
224.104	-21.94
224.338	-2.94
224.573	-1.94
224.808	-23.94
225.042	-16.94
225.277	3.06
225.511	5.06
225.746	9.06
225.98	7.06
226.215	4.06
226.449	10.06
226.683	7.06
226.918	23.06
227.152	36.06
227.387	40.06
227.621	29.06
227.856	45.06
228.09	34.06
228.324	45.06
228.559	59.06
228.793	62.06
229.027	85.06
229.262	98.06
229.496	97.06
229.73	131.06
229.964	142.06
230.199	122.06
230.433	113.06
230.667	109.06
230.901	107.06
231.136	95.06
231.37	103.06
231.604	105.06
231.838	107.06
232.072	111.06
232.306	118.06
232.541	110.06
232.775	122.06
233.009	130.06
233.243	125.06
233.477	110.06
233.711	116.06
233.945	135.06
234.179	102.06
234.413	112.06
234.647	111.06
234.881	125.06
235.115	112.06
235.349	112.06
235.583	114.06
235.817	134.06
236.051	130.06
236.285	126.06
236.519	126.06
236.753	142.06
236.987	158.06
237.221	151.06
237.455	199.06
237.689	160.06
237.922	150.06
238.156	138.06
238.39	131.06
238.624	133.06
238.858	128.06
239.091	128.06
239.325	127.06
239.559	109.06
239.793	140.06
240.027	127.06
240.26	121.06
240.494	150.06
240.728	149.06
240.961	139.06
241.195	151.06
241.429	147.06
241.662	126.06
241.896	136.06
242.13	145.06
242.363	148.06
242.597	144.06
242.83	132.06
243.064	137.06
243.298	143.06
243.531	136.06
243.765	136.06
243.998	137.06
244.232	144.06
244.465	149.06
244.699	154.06
244.932	143.06
245.166	164.06
245.399	160.06
245.633	140.06
245.866	142.06
246.099	155.06
246.333	161.06
246.566	150.06
246.8	148.06
247.033	154.06
247.266	154.06
247.5	148.06
247.733	168.06
247.966	190.06
248.2	174.06
248.433	172.06
248.666	184.06
248.899	164.06
249.133	202.06
249.366	193.06
249.599	196.06
249.832	175.06
250.066	169.06
250.299	183.06
250.532	196.06
250.765	202.06
250.998	210.06
251.231	215.06
251.465	197.06
251.698	199.06
251.931	194.06
252.164	197.06
252.397	195.06
252.63	205.06
252.863	206.06
253.096	217.06
253.329	206.06
253.562	223.06
253.795	242.06
254.028	246.06
254.261	207.06
254.494	216.06
254.727	238.06
254.96	264.06
255.193	269.06
255.426	226.06
255.659	219.06
255.892	219.06
256.124	234.06
256.357	243.06
256.59	231.06
256.823	230.06
257.056	229.06
257.289	207.06
257.521	216.06
257.754	215.06
257.987	222.06
258.22	222.06
258.452	204.06
258.685	214.06
258.918	220.06
259.151	228.06
259.383	256.06
259.616	224.06
259.849	233.06
260.081	233.06
260.314	244.06
260.547	246.06
260.779	245.06
261.012	240.06
261.244	244.06
261.477	222.06
261.71	233.06
261.942	236.06
262.175	242.06
262.407	240.06
262.64	248.06
262.872	247.06
263.105	209.06
263.337	236.06
263.57	244.06
263.802	237.06
264.035	231.06
264.267	214.06
264.499	232.06
264.732	214.06
264.964	224.06
265.197	224.06
265.429	237.06
265.661	212.06
265.894	223.06
266.126	236.06
266.358	236.06
266.591	223.06
266.823	243.06
267.055	258.06
267.287	247.06
267.52	239.06
267.752	257.06
267.984	243.06
268.216	246.06
268.448	233.06
268.681	245.06
268.913	264.06
269.145	266.06
269.377	298.06
269.609	286.06
269.841	289.06
270.073	270.06
270.306	302.06
270.538	319.06
270.77	327.06
271.002	314.06
271.234	310.06
271.466	310.06
271.698	325.06
271.93	325.06
272.162	323.06
272.394	319.06
272.626	322.06
272.858	315.06
273.09	308.06
273.322	318.06
273.553	273.06
273.785	267.06
274.017	282.06
274.249	281.06
274.481	282.06
274.713	299.06
274.945	289.06
275.176	280.06
275.408	278.06
275.64	300.06
275.872	269.06
276.104	275.06
276.335	278.06
276.567	299.06
276.799	309.06
277.031	316.06
277.262	334.06
277.494	336.06
277.726	303.06
277.957	318.06
278.189	301.06
278.421	301.06
278.652	298.06
278.884	301.06
279.115	294.06
279.347	284.06
279.579	294.06
279.81	296.06
280.042	309.06
280.273	292.06
280.505	314.06
280.736	306.06
280.968	317.06
281.199	298.06
281.431	296.06
281.662	294.06
281.894	317.06
282.125	314.06
282.356	308.06
282.588	322.06
282.819	318.06
283.051	312.06
283.282	318.06
283.513	305.06
283.745	328.06
283.976	302.06
284.207	286.06
284.439	311.06
284.67	311.06
284.901	299.06
285.132	309.06
285.364	318.06
285.595	307.06
285.826	311.06
286.057	311.06
286.288	316.06
286.52	329.06
286.751	311.06
286.982	314.06
287.213	296.06
287.444	314.06
287.675	331.06
287.906	324.06
288.138	326.06
288.369	349.06
288.6	341.06
288.831	335.06
289.062	319.06
289.293	333.06
289.524	320.06
289.755	323.06
289.986	315.06
290.217	330.06
290.448	311.06
290.679	312.06
290.91	323.06
291.141	327.06
291.371	331.06
291.602	327.06
291.833	332.06
292.064	330.06
292.295	338.06
292.526	333.06
292.757	330.06
292.987	318.06
293.218	312.06
293.449	308.06
293.68	330.06
293.91	334.06
294.141	334.06
294.372	341.06
294.603	303.06
294.833	340.06
295.064	314.06
295.295	339.06
295.525	348.06
295.756	340.06
295.987	350.06
296.217	330.06
296.448	350.06
296.679	345.06
296.909	319.06
297.14	355.06
297.37	335.06
297.601	351.06
297.831	343.06
298.062	331.06
298.292	351.06
298.523	342.06
298.753	352.06
298.984	334.06
299.214	347.06
299.445	338.06
299.675	350.06
299.905	339.06
300.136	348.06
300.366	343.06
300.597	357.06
300.827	359.06
301.057	363.06
301.288	370.06
301.518	367.06
301.748	376.06
301.979	378.06
302.209	391.06
302.439	368.06
302.669	366.06
302.9	380.06
303.13	349.06
303.36	382.06
303.59	378.06
303.82	359.06
304.051	377.06
304.281	378.06
304.511	340.06
304.741	351.06
304.971	377.06
305.201	379.06
305.431	373.06
305.661	381.06
305.891	382.06
306.121	370.06
306.352	369.06
306.582	386.06
306.812	360.06
307.042	382.06
307.272	376.06
307.502	372.06
307.731	368.06
307.961	379.06
308.191	367.06
308.421	367.06
308.651	374.06
308.881	358.06
309.111	386.06
309.341	374.06
309.571	380.06
309.8	395.06
310.03	377.06
310.26	410.06
310.49	405.06
310.72	414.06
310.949	408.06
311.179	410.06
311.409	421.06
311.639	400.06
311.868	414.06
312.098	393.06
312.328	408.06
312.557	440.06
312.787	438.06
313.017	443.06
313.246	418.06
313.476	400.06
313.706	399.06
313.935	414.06
314.165	434.06
314.394	419.06
314.624	419.06
314.853	409.06
315.083	421.06
315.312	413.06
315.542	412.06
315.771	415.06
316.001	418.06
316.23	403.06
316.46	400.06
316.689	419.06
316.919	412.06
317.148	399.06
317.377	420.06
317.607	399.06
317.836	407.06
318.065	420.06
318.295	398.06
318.524	395.06
318.753	408.06
318.983	420.06
319.212	422.06
319.441	411.06
319.67	413.06
319.9	416.06
320.129	406.06
320.358	429.06
320.587	418.06
320.816	438.06
321.046	425.06
321.275	396.06
321.504	428.06
321.733	432.06
321.962	429.06
322.191	446.06
322.42	440.06
322.649	462.06
322.878	448.06
323.108	460.06
323.337	492.06
323.566	494.06
323.795	515.06
324.024	542.06
324.253	642.06
324.482	866.06
324.71	1272.06
324.939	1760.06
325.168	1445.06
325.397	780.06
325.626	590.06
325.855	512.06
326.084	494.06
326.313	501.06
326.542	505.06
326.77	543.06
326.999	619.06
327.228	791.06
327.457	1121.06
327.686	1324.06
327.914	886.06
328.143	645.06
328.372	574.06
328.6	550.06
328.829	536.06
329.058	548.06
329.287	559.06
329.515	538.06
329.744	512.06
329.972	514.06
330.201	524.06
330.43	571.06
330.658	572.06
330.887	581.06
331.115	569.06
331.344	536.06
331.572	527.06
331.801	508.06
332.03	507.06
332.258	492.06
332.486	505.06
332.715	493.06
332.943	494.06
333.172	484.06
333.4	501.06
333.629	502.06
333.857	538.06
334.085	535.06
334.314	556.06
334.542	577.06
334.771	572.06
334.999	543.06
335.227	538.06
335.455	496.06
335.684	498.06
335.912	500.06
336.14	485.06
336.369	490.06
336.597	492.06
336.825	474.06
337.053	493.06
337.281	502.06
337.51	477.06
337.738	472.06
337.966	487.06
338.194	481.06
338.422	474.06
338.65	484.06
338.878	474.06
339.106	453.06
339.334	458.06
339.562	446.06
339.79	461.06
340.018	454.06
340.246	455.06
340.474	464.06
340.702	471.06
340.93	455.06
341.158	426.06
341.386	446.06
341.614	465.06
341.842	460.06
342.07	437.06
342.298	450.06
342.526	441.06
342.754	445.06
342.981	458.06
343.209	448.06
343.437	448.06
343.665	466.06
343.893	491.06
344.12	478.06
344.348	490.06
344.576	493.06
344.804	460.06
345.031	480.06
345.259	456.06
345.487	460.06
345.714	442.06
345.942	436.06
346.17	427.06
346.397	444.06
346.625	426.06
346.853	423.06
347.08	427.06
347.308	414.06
347.535	449.06
347.763	446.06
347.99	445.06
348.218	454.06
348.445	458.06
348.673	438.06
348.9	436.06
349.128	406.06
349.355	427.06
349.583	420.06
349.81	431.06
350.037	410.06
350.265	415.06
350.492	425.06
350.72	416.06
350.947	408.06
351.174	432.06
351.402	451.06
351.629	435.06
351.856	432.06
352.083	420.06
352.311	442.06
352.538	424.06
352.765	440.06
352.992	414.06
353.22	419.06
353.447	406.06
353.674	419.06
353.901	426.06
354.128	397.06
354.355	413.06
354.583	400.06
354.81	407.06
355.037	416.06
355.264	414.06
355.491	404.06
355.718	409.06
355.945	414.06
356.172	406.06
356.399	399.06
356.626	399.06
356.853	407.06
357.08	409.06
357.307	429.06
357.534	402.06
357.761	426.06
357.988	390.06
358.215	403.06
358.441	414.06
358.668	405.06
358.895	400.06
359.122	424.06
359.349	412.06
359.576	447.06
359.802	435.06
360.029	428.06
360.256	451.06
360.483	418.06
360.709	420.06
360.936	425.06
361.163	410.06
361.39	425.06
361.616	427.06
361.843	408.06
362.07	416.06
362.296	400.06
362.523	426.06
362.749	413.06
362.976	399.06
363.203	411.06
363.429	416.06
363.656	391.06
363.882	395.06
364.109	432.06
364.335	408.06
364.562	410.06
364.788	386.06
365.015	400.06
365.241	401.06
365.468	404.06
365.694	411.06
365.92	424.06
366.147	394.06
366.373	387.06
366.599	392.06
366.826	382.06
367.052	393.06
367.278	426.06
367.505	416.06
367.731	402.06
367.957	410.06
368.184	399.06
368.41	387.06
368.636	415.06
368.862	426.06
369.089	388.06
369.315	416.06
369.541	408.06
369.767	409.06
369.993	390.06
370.219	374.06
370.445	405.06
370.672	400.06
370.898	393.06
371.124	411.06
371.35	413.06
371.576	408.06
371.802	420.06
372.028	384.06
372.254	406.06
372.48	400.06
372.706	410.06
372.932	415.06
373.158	415.06
373.384	407.06
373.61	384.06
373.835	392.06
374.061	406.06
374.287	429.06
374.513	424.06
374.739	426.06
374.965	412.06
375.191	406.06
375.416	416.06
375.642	395.06
375.868	434.06
376.094	398.06
376.319	397.06
376.545	391.06
376.771	390.06
376.997	395.06
377.222	406.06
377.448	394.06
377.674	388.06
377.899	393.06
378.125	392.06
378.35	391.06
378.576	371.06
378.802	377.06
379.027	415.06
379.253	394.06
379.478	390.06
379.704	401.06
379.929	378.06
380.155	383.06
380.38	394.06
380.606	406.06
380.831	375.06
381.057	396.06
381.282	398.06
381.507	381.06
381.733	411.06
381.958	402.06
382.184	420.06
382.409	422.06
382.634	410.06
382.86	399.06
383.085	426.06
383.31	418.06
383.535	413.06
383.761	436.06
383.986	415.06
384.211	417.06
384.436	435.06
384.662	426.06
384.887	443.06
385.112	429.06
385.337	431.06
385.562	451.06
385.787	446.06
386.013	442.06
386.238	453.06
386.463	438.06
386.688	438.06
386.913	418.06
387.138	427.06
387.363	442.06
387.588	418.06
387.813	412.06
388.038	450.06
388.263	439.06
388.488	432.06
388.713	446.06
388.938	443.06
389.163	445.06
389.387	413.06
389.612	410.06
389.837	434.06
390.062	430.06
390.287	397.06
390.512	429.06
390.736	413.06
390.961	423.06
391.186	428.06
391.411	458.06
391.636	442.06
391.86	443.06
392.085	472.06
392.31	451.06
392.534	436.06
392.759	459.06
392.984	422.06
393.208	441.06
393.433	446.06
393.658	438.06
393.882	438.06
394.107	435.06
394.331	417.06
394.556	414.06
394.78	446.06
395.005	438.06
395.229	428.06
395.454	440.06
395.678	463.06
395.903	466.06
396.127	463.06
396.352	484.06
396.576	464.06
396.801	453.06
397.025	446.06
397.249	459.06
397.474	446.06
397.698	446.06
397.922	469.06
398.147	501.06
398.371	489.06
398.595	487.06
398.82	485.06
399.044	525.06
399.268	515.06
399.492	563.06
399.717	590.06
399.941	598.06
400.165	610.06
400.389	592.06
400.613	562.06
400.837	524.06
401.062	523.06
401.286	515.06
401.51	498.06
401.734	494.06
401.958	506.06
402.182	477.06
402.406	487.06
402.63	484.06
402.854	483.06
403.078	517.06
403.302	500.06
403.526	516.06
403.75	509.06
403.974	500.06
404.198	526.06
404.422	507.06
404.645	528.06
404.869	499.06
405.093	558.06
405.317	560.06
405.541	611.06
405.765	571.06
405.988	548.06
406.212	540.06
406.436	535.06
406.66	561.06
406.883	540.06
407.107	560.06
407.331	588.06
407.555	655.06
407.778	645.06
408.002	586.06
408.226	545.06
408.449	552.06
408.673	558.06
408.896	569.06
409.12	612.06
409.344	581.06
409.567	528.06
409.791	532.06
410.014	505.06
410.238	497.06
410.461	500.06
410.685	490.06
410.908	504.06
411.132	539.06
411.355	567.06
411.578	544.06
411.802	520.06
412.025	503.06
412.249	514.06
412.472	523.06
412.695	564.06
412.919	547.06
413.142	499.06
413.365	483.06
413.589	490.06
413.812	480.06
414.035	487.06
414.258	469.06
414.482	474.06
414.705	463.06
414.928	478.06
415.151	479.06
415.374	474.06
415.597	466.06
415.821	477.06
416.044	474.06
416.267	478.06
416.49	456.06
416.713	458.06
416.936	472.06
417.159	493.06
417.382	458.06
417.605	477.06
417.828	481.06
418.051	495.06
418.274	470.06
418.497	470.06
418.72	483.06
418.943	447.06
419.166	479.06
419.389	523.06
419.611	512.06
419.834	485.06
420.057	505.06
420.28	502.06
420.503	483.06
420.726	501.06
420.948	514.06
421.171	503.06
421.394	539.06
421.617	498.06
421.839	506.06
422.062	483.06
422.285	472.06
422.507	536.06
422.73	612.06
422.953	586.06
423.175	542.06
423.398	503.06
423.621	492.06
423.843	526.06
424.066	513.06
424.288	510.06
424.511	531.06
424.733	580.06
424.956	624.06
425.178	604.06
425.401	627.06
425.623	638.06
425.846	529.06
426.068	508.06
426.291	500.06
426.513	514.06
426.735	523.06
426.958	528.06
427.18	581.06
427.402	710.06
427.625	770.06
427.847	632.06
428.069	584.06
428.292	532.06
428.514	514.06
428.736	482.06
428.958	468.06
429.181	465.06
429.403	472.06
429.625	477.06
429.847	501.06
430.069	548.06
430.292	535.06
430.514	483.06
430.736	472.06
430.958	484.06
431.18	468.06
431.402	458.06
431.624	455.06
431.846	437.06
432.068	448.06
432.29	443.06
432.512	450.06
432.734	445.06
432.956	452.06
433.178	464.06
433.4	448.06
433.622	460.06
433.844	464.06
434.066	440.06
434.287	447.06
434.509	459.06
434.731	464.06
434.953	452.06
435.175	472.06
435.397	482.06
435.618	506.06
435.84	519.06
436.062	580.06
436.284	629.06
436.505	560.06
436.727	518.06
436.949	477.06
437.17	466.06
437.392	455.06
437.614	472.06
437.835	512.06
438.057	541.06
438.278	657.06
438.5	640.06
438.721	695.06
438.943	678.06
439.165	550.06
439.386	499.06
439.608	509.06
439.829	491.06
440.05	498.06
440.272	558.06
440.493	505.06
440.715	462.06
440.936	477.06
441.158	453.06
441.379	475.06
441.6	492.06
441.822	491.06
442.043	515.06
442.264	588.06
442.486	621.06
442.707	537.06
442.928	512.06
443.149	506.06
443.371	543.06
443.592	571.06
443.813	640.06
444.034	676.06
444.255	581.06
444.476	525.06
444.698	505.06
444.919	498.06
445.14	640.06
445.361	586.06
445.582	543.06
445.803	569.06
446.024	642.06
446.245	652.06
446.466	600.06
446.687	537.06
446.908	495.06
447.129	473.06
447.35	454.06
447.571	472.06
447.792	452.06
448.013	437.06
448.234	480.06
448.455	516.06
448.675	606.06
448.896	686.06
449.117	573.06
449.338	557.06
449.559	655.06
449.779	733.06
450	557.06
450.221	508.06
450.442	453.06
450.662	451.06
450.883	431.06
451.104	453.06
451.324	439.06
451.545	443.06
451.766	413.06
451.986	401.06
452.207	421.06
452.428	412.06
452.648	412.06
452.869	408.06
453.089	429.06
453.31	422.06
453.53	411.06
453.751	408.06
453.971	408.06
454.192	404.06
454.412	399.06
454.633	382.06
454.853	396.06
455.073	402.06
455.294	421.06
455.514	468.06
455.734	472.06
455.955	397.06
456.175	405.06
456.395	413.06
456.616	402.06
456.836	398.06
457.056	370.06
457.276	374.06
457.497	373.06
457.717	395.06
457.937	395.06
458.157	399.06
458.377	424.06
458.598	441.06
458.818	445.06
459.038	482.06
459.258	527.06
459.478	473.06
459.698	423.06
459.918	425.06
460.138	434.06
460.358	459.06
460.578	450.06
460.798	467.06
461.018	446.06
461.238	448.06
461.458	463.06
461.678	450.06
461.898	445.06
462.118	452.06
462.338	483.06
462.558	463.06
462.777	482.06
462.997	489.06
463.217	502.06
463.437	524.06
463.657	514.06
463.876	485.06
464.096	498.06
464.316	477.06
464.536	492.06
464.755	482.06
464.975	500.06
465.195	500.06
465.414	511.06
465.634	466.06
465.854	468.06
466.073	438.06
466.293	423.06
466.512	415.06
466.732	419.06
466.951	422.06
467.171	428.06
467.391	420.06
467.61	430.06
467.829	432.06
468.049	427.06
468.268	426.06
468.488	408.06
468.707	404.06
468.927	422.06
469.146	406.06
469.365	415.06
469.585	422.06
469.804	412.06
470.023	438.06
470.243	408.06
470.462	420.06
470.681	430.06
470.901	436.06
471.12	412.06
471.339	400.06
471.558	426.06
471.777	438.06
471.997	419.06
472.216	429.06
472.435	450.06
472.654	436.06
472.873	412.06
473.092	429.06
473.311	406.06
473.53	427.06
473.749	420.06
473.968	444.06
474.187	532.06
474.406	548.06
474.625	479.06
474.844	435.06
475.063	418.06
475.282	406.06
475.501	415.06
475.72	441.06
475.939	445.06
476.158	442.06
476.377	421.06
476.596	452.06
476.814	451.06
477.033	450.06
477.252	464.06
477.471	463.06
477.69	482.06
477.908	457.06
478.127	450.06
478.346	468.06
478.564	497.06
478.783	479.06
479.002	493.06
479.22	479.06
479.439	513.06
479.658	531.06
479.876	500.06
480.095	524.06
480.313	533.06
480.532	542.06
480.751	507.06
480.969	527.06
481.188	562.06
481.406	589.06
481.624	525.06
481.843	528.06
482.061	502.06
482.28	498.06
482.498	499.06
482.717	478.06
482.935	493.06
483.153	491.06
483.372	487.06
483.59	476.06
483.808	481.06
484.027	481.06
484.245	482.06
484.463	471.06
484.681	520.06
484.9	501.06
485.118	491.06
485.336	495.06
485.554	502.06
485.772	501.06
485.99	501.06
486.209	523.06
486.427	515.06
486.645	525.06
486.863	536.06
487.081	499.06
487.299	512.06
487.517	514.06
487.735	508.06
487.953	507.06
488.171	518.06
488.389	496.06
488.607	499.06
488.825	519.06
489.043	520.06
489.261	524.06
489.479	510.06
489.696	512.06
489.914	540.06
490.132	528.06
490.35	544.06
490.568	520.06
490.786	540.06
491.003	568.06
491.221	551.06
491.439	572.06
491.657	555.06
491.874	584.06
492.092	558.06
492.31	590.06
492.527	584.06
492.745	580.06
492.963	595.06
493.18	574.06
493.398	574.06
493.615	596.06
493.833	606.06
494.05	636.06
494.268	612.06
494.485	596.06
494.703	603.06
494.92	609.06
495.138	608.06
495.355	604.06
495.573	611.06
495.79	599.06
496.008	602.06
496.225	610.06
496.442	604.06
496.66	588.06
496.877	605.06
497.094	591.06
497.312	598.06
497.529	624.06
497.746	637.06
497.963	654.06
498.181	660.06
498.398	682.06
498.615	711.06
498.832	698.06
499.049	723.06
499.267	743.06
499.484	773.06
499.701	808.06
499.918	836.06
500.135	857.06
500.352	946.06
500.569	929.06
500.786	953.06
501.003	922.06
501.22	888.06
501.437	831.06
501.654	816.06
501.871	787.06
502.088	773.06
502.305	735.06
502.522	703.06
502.739	721.06
502.956	666.06
503.172	648.06
503.389	622.06
503.606	615.06
503.823	638.06
504.04	642.06
504.256	608.06
504.473	601.06
504.69	624.06
504.907	638.06
505.123	607.06
505.34	598.06
505.557	585.06
505.773	573.06
505.99	580.06
506.207	566.06
506.423	577.06
506.64	556.06
506.856	574.06
507.073	539.06
507.289	560.06
507.506	557.06
507.722	554.06
507.939	545.06
508.155	544.06
508.372	529.06
508.588	541.06
508.805	519.06
509.021	529.06
509.238	551.06
509.454	558.06
509.67	555.06
509.887	524.06
510.103	528.06
510.319	553.06
510.536	575.06
510.752	792.06
510.968	661.06
511.184	539.06
511.401	514.06
511.617	518.06
511.833	495.06
512.049	538.06
512.265	524.06
512.481	491.06
512.698	524.06
512.914	488.06
513.13	491.06
513.346	486.06
513.562	486.06
513.778	488.06
513.994	512.06
514.21	522.06
514.426	506.06
514.642	559.06
514.858	556.06
515.074	569.06
515.29	618.06
515.506	822.06
515.721	702.06
515.937	591.06
516.153	544.06
516.369	540.06
516.585	532.06
516.801	503.06
517.016	508.06
517.232	518.06
517.448	542.06
517.664	556.06
517.879	547.06
518.095	534.06
518.311	539.06
518.527	537.06
518.742	533.06
518.958	519.06
519.173	519.06
519.389	505.06
519.605	526.06
519.82	510.06
520.036	531.06
520.251	509.06
520.467	548.06
520.682	543.06
520.898	521.06
521.113	528.06
521.329	554.06
521.544	590.06
521.76	680.06
521.975	1030.06
522.19	939.06
522.406	639.06
522.621	520.06
522.836	496.06
523.052	477.06
523.267	456.06
523.482	461.06
523.698	455.06
523.913	455.06
524.128	465.06
524.343	427.06
524.559	429.06
524.774	422.06
524.989	418.06
525.204	444.06
525.419	418.06
525.634	423.06
525.849	420.06
526.064	420.06
526.28	418.06
526.495	393.06
526.71	425.06
526.925	419.06
527.14	416.06
527.355	418.06
527.57	392.06
527.785	416.06
527.999	416.06
528.214	405.06
528.429	439.06
528.644	423.06
528.859	419.06
529.074	390.06
529.289	420.06
529.503	456.06
529.718	477.06
529.933	448.06
530.148	399.06
530.363	399.06
530.577	410.06
530.792	410.06
531.007	428.06
531.221	425.06
531.436	404.06
531.651	406.06
531.865	403.06
532.08	406.06
532.295	391.06
532.509	398.06
532.724	402.06
532.938	409.06
533.153	401.06
533.367	410.06
533.582	408.06
533.796	424.06
534.011	400.06
534.225	390.06
534.44	404.06
534.654	389.06
534.868	399.06
535.083	398.06
535.297	413.06
535.511	404.06
535.726	419.06
535.94	404.06
536.154	399.06
536.369	393.06
536.583	405.06
536.797	392.06
537.011	387.06
537.225	397.06
537.44	381.06
537.654	388.06
537.868	396.06
538.082	396.06
538.296	408.06
538.51	371.06
538.724	404.06
538.938	413.06
539.153	376.06
539.367	400.06
539.581	393.06
539.795	392.06
540.009	392.06
540.222	386.06
540.436	387.06
540.65	388.06
540.864	367.06
541.078	382.06
541.292	381.06
541.506	381.06
541.72	381.06
541.934	391.06
542.147	391.06
542.361	378.06
542.575	370.06
542.789	371.06
543.002	392.06
543.216	395.06
543.43	378.06
543.644	388.06
543.857	390.06
544.071	387.06
544.285	378.06
544.498	388.06
544.712	380.06
544.925	384.06
545.139	405.06
545.352	391.06
545.566	381.06
545.779	378.06
545.993	392.06
546.206	396.06
546.42	378.06
546.633	360.06
546.847	378.06
547.06	385.06
547.274	385.06
547.487	383.06
547.7	384.06
547.914	358.06
548.127	377.06
548.34	365.06
548.554	354.06
548.767	360.06
548.98	398.06
549.193	390.06
549.407	361.06
549.62	391.06
549.833	396.06
550.046	375.06
550.259	364.06
550.473	363.06
550.686	390.06
550.899	364.06
551.112	374.06
551.325	342.06
551.538	380.06
551.751	357.06
551.964	368.06
552.177	378.06
552.39	364.06
552.603	374.06
552.816	378.06
553.029	373.06
553.242	382.06
553.455	393.06
553.667	403.06
553.88	375.06
554.093	382.06
554.306	380.06
554.519	374.06
554.732	369.06
554.944	362.06
555.157	356.06
555.37	369.06
555.583	348.06
555.795	342.06
556.008	348.06
556.221	327.06
556.433	348.06
556.646	359.06
556.859	350.06
557.071	360.06
557.284	342.06
557.496	325.06
557.709	350.06
557.921	322.06
558.134	320.06
558.346	322.06
558.559	322.06
558.771	336.06
558.984	342.06
559.196	334.06
559.409	332.06
559.621	342.06
559.833	333.06
560.046	327.06
560.258	332.06
560.47	337.06
560.683	319.06
560.895	324.06
561.107	340.06
561.32	317.06
561.532	334.06
561.744	331.06
561.956	323.06
562.168	327.06
562.381	331.06
562.593	334.06
562.805	334.06
563.017	329.06
563.229	340.06
563.441	323.06
563.653	338.06
563.865	340.06
564.077	326.06
564.289	360.06
564.501	356.06
564.713	363.06
564.925	368.06
565.137	371.06
565.349	357.06
565.561	345.06
565.773	360.06
565.985	351.06
566.197	385.06
566.408	382.06
566.62	401.06
566.832	419.06
567.044	417.06
567.255	443.06
567.467	407.06
567.679	451.06
567.891	448.06
568.102	458.06
568.314	423.06
568.526	416.06
568.737	421.06
568.949	402.06
569.161	385.06
569.372	344.06
569.584	345.06
569.795	342.06
570.007	340.06
570.218	364.06
570.43	352.06
570.641	357.06
570.853	324.06
571.064	331.06
571.276	350.06
571.487	335.06
571.698	322.06
571.91	319.06
572.121	306.06
572.333	313.06
572.544	292.06
572.755	308.06
572.966	285.06
573.178	301.06
573.389	292.06
573.6	292.06
573.811	295.06
574.023	302.06
574.234	290.06
574.445	306.06
574.656	293.06
574.867	283.06
575.078	290.06
575.289	286.06
575.501	298.06
575.712	274.06
575.923	272.06
576.134	280.06
576.345	273.06
576.556	294.06
576.767	279.06
576.978	250.06
577.188	289.06
577.399	288.06
577.61	270.06
577.821	267.06
578.032	303.06
578.243	286.06
578.454	387.06
578.665	314.06
578.875	290.06
579.086	284.06
579.297	270.06
579.508	262.06
579.718	280.06
579.929	266.06
580.14	250.06
580.35	266.06
580.561	258.06
580.772	259.06
580.982	256.06
581.193	266.06
581.403	252.06
581.614	266.06
581.825	243.06
582.035	250.06
582.246	243.06
582.456	264.06
582.667	270.06
582.877	261.06
583.087	251.06
583.298	262.06
583.508	262.06
583.719	247.06
583.929	271.06
584.139	247.06
584.35	255.06
584.56	240.06
584.77	250.06
584.981	251.06
585.191	271.06
585.401	250.06
585.611	258.06
585.821	265.06
586.032	266.06
586.242	265.06
586.452	247.06
586.662	250.06
586.872	242.06
587.082	254.06
587.292	273.06
587.502	266.06
587.713	260.06
587.923	251.06
588.133	252.06
588.343	265.06
588.553	252.06
588.762	249.06
588.972	233.06
589.182	246.06
589.392	255.06
589.602	249.06
589.812	243.06
590.022	259.06
590.232	247.06
590.441	258.06
590.651	253.06
590.861	235.06
591.071	262.06
591.281	251.06
591.49	266.06
591.7	254.06
591.91	262.06
592.119	266.06
592.329	268.06
592.539	261.06
592.748	294.06
592.958	277.06
593.167	281.06
593.377	278.06
593.587	257.06
593.796	282.06
594.006	262.06
594.215	273.06
594.424	262.06
594.634	276.06
594.843	270.06
595.053	281.06
595.262	267.06
595.472	267.06
595.681	269.06
595.89	259.06
596.1	251.06
596.309	260.06
596.518	248.06
596.727	246.06
596.937	248.06
597.146	233.06
597.355	239.06
597.564	236.06
597.774	230.06
597.983	236.06
598.192	215.06
598.401	235.06
598.61	230.06
598.819	231.06
599.028	238.06
599.237	226.06
599.446	227.06
599.655	224.06
599.864	225.06
600.073	230.06
600.282	243.06
600.491	232.06
600.7	236.06
600.909	214.06
601.118	213.06
601.327	232.06
601.536	216.06
601.745	200.06
601.953	237.06
602.162	219.06
602.371	212.06
602.58	221.06
602.789	213.06
602.997	217.06
603.206	226.06
603.415	200.06
603.623	204.06
603.832	223.06
604.041	221.06
604.249	239.06
604.458	211.06
604.666	208.06
604.875	213.06
605.084	221.06
605.292	193.06
605.501	220.06
605.709	220.06
605.918	226.06
606.126	216.06
606.334	218.06
606.543	230.06
606.751	200.06
606.96	196.06
607.168	214.06
607.376	210.06
607.585	191.06
607.793	200.06
608.001	212.06
608.21	209.06
608.418	212.06
608.626	202.06
608.834	226.06
609.043	220.06
609.251	203.06
609.459	205.06
609.667	205.06
609.875	190.06
610.083	213.06
610.291	217.06
610.499	198.06
610.707	216.06
610.916	187.06
611.124	221.06
611.332	211.06
611.54	225.06
611.748	207.06
611.955	214.06
612.163	203.06
612.371	216.06
612.579	206.06
612.787	201.06
612.995	203.06
613.203	208.06
613.411	203.06
613.618	187.06
613.826	209.06
614.034	208.06
614.242	214.06
614.449	204.06
614.657	200.06
614.865	206.06
615.072	192.06
615.28	207.06
615.488	193.06
615.695	209.06
615.903	208.06
616.111	205.06
616.318	200.06
616.526	197.06
616.733	198.06
616.941	201.06
617.148	197.06
617.356	199.06
617.563	197.06
617.771	204.06
617.978	205.06
618.185	200.06
618.393	209.06
618.6	191.06
618.807	198.06
619.015	205.06
619.222	204.06
619.429	208.06
619.637	216.06
619.844	187.06
620.051	190.06
620.258	207.06
620.466	188.06
620.673	195.06
620.88	197.06
621.087	184.06
621.294	196.06
621.501	192.06
621.708	193.06
621.915	199.06
622.122	166.06
622.329	195.06
622.536	191.06
622.743	216.06
622.95	180.06
623.157	185.06
623.364	188.06
623.571	189.06
623.778	182.06
623.985	176.06
624.192	181.06
624.399	190.06
624.606	203.06
624.812	172.06
625.019	183.06
625.226	187.06
625.433	188.06
625.639	200.06
625.846	174.06
626.053	150.06
626.259	176.06
626.466	184.06
626.673	187.06
626.879	175.06
627.086	196.06
627.293	187.06
627.499	175.06
627.706	184.06
627.912	197.06
628.119	168.06
628.325	174.06
628.532	176.06
628.738	174.06
628.945	180.06
629.151	165.06
629.357	189.06
629.564	182.06
629.77	153.06
629.976	170.06
630.183	175.06
630.389	167.06
630.595	184.06
630.802	172.06
631.008	175.06
631.214	161.06
631.42	186.06
631.627	186.06
631.833	184.06
632.039	176.06
632.245	179.06
632.451	173.06
632.657	170.06
632.863	172.06
633.069	176.06
633.275	152.06
633.481	175.06
633.688	168.06
633.893	175.06
634.099	175.06
634.305	164.06
634.511	163.06
634.717	166.06
634.923	168.06
635.129	159.06
635.335	178.06
635.541	169.06
635.747	161.06
635.952	162.06
636.158	160.06
636.364	175.06
636.57	153.06
636.775	174.06
636.981	163.06
637.187	160.06
637.392	157.06
637.598	160.06
637.804	166.06
638.009	153.06
638.215	159.06
638.421	171.06
638.626	171.06
638.832	173.06
639.037	159.06
639.243	161.06
639.448	163.06
639.654	156.06
639.859	171.06
640.065	160.06
640.27	153.06
640.475	155.06
640.681	162.06
640.886	151.06
641.091	147.06
641.297	160.06
641.502	155.06
641.707	174.06
641.913	141.06
642.118	160.06
642.323	172.06
642.528	158.06
642.733	167.06
642.939	144.06
643.144	150.06
643.349	164.06
643.554	168.06
643.759	150.06
643.964	156.06
644.169	154.06
644.374	148.06
644.579	153.06
644.784	156.06
644.989	158.06
645.194	167.06
645.399	150.06
645.604	142.06
645.809	159.06
646.014	156.06
646.219	162.06
646.423	154.06
646.628	159.06
646.833	151.06
647.038	139.06
647.243	156.06
647.447	156.06
647.652	168.06
647.857	149.06
648.062	148.06
648.266	152.06
648.471	147.06
648.676	150.06
648.88	156.06
649.085	154.06
649.289	165.06
649.494	160.06
649.698	154.06
649.903	158.06
650.107	173.06
650.312	155.06
650.516	155.06
650.721	139.06
650.925	137.06
651.13	140.06
651.334	130.06
651.539	144.06
651.743	147.06
651.947	128.06
652.152	134.06
652.356	126.06
652.56	148.06
652.764	151.06
652.969	135.06
653.173	123.06
653.377	121.06
653.581	121.06
653.785	134.06
653.99	126.06
654.194	143.06
654.398	128.06
654.602	125.06
654.806	134.06
655.01	140.06
655.214	139.06
655.418	134.06
655.622	139.06
655.826	132.06
656.03	120.06
656.234	125.06
656.438	136.06
656.642	138.06
656.846	152.06
657.049	124.06
657.253	132.06
657.457	128.06
657.661	122.06
657.865	109.06
658.068	130.06
658.272	106.06
658.476	111.06
658.68	101.06
658.883	111.06
659.087	102.06
659.291	105.06
659.494	100.06
659.698	102.06
659.901	96.06
660.105	93.06
660.309	99.06
660.512	95.06
660.716	100.06
660.919	93.06
661.123	87.06
661.326	90.06
661.53	99.06
661.733	81.06
661.936	86.06
662.14	94.06
662.343	94.06
662.546	86.06
662.75	92.06
662.953	91.06
663.156	79.06
663.36	84.06
663.563	81.06
663.766	87.06
663.969	93.06
664.173	79.06
664.376	84.06
664.579	84.06
664.782	85.06
664.985	80.06
665.188	78.06
665.391	85.06
665.594	87.06
665.797	86.06
666	78.06
666.203	81.06
666.406	86.06
666.609	88.06
666.812	85.06
667.015	97.06
667.218	104.06
667.421	95.06
667.624	75.06
667.827	82.06
668.03	78.06
668.232	87.06
668.435	86.06
668.638	79.06
668.841	85.06
669.043	86.06
669.246	88.06
669.449	80.06
669.651	70.06
669.854	81.06
670.057	81.06
670.259	86.06
670.462	91.06
670.665	69.06
670.867	96.06
671.07	100.06
671.272	80.06
671.475	95.06
671.677	83.06
671.88	91.06
672.082	80.06
672.284	80.06
672.487	83.06
672.689	87.06
672.892	90.06
