Data from 1964.PennyLincolnUp.Lamp.En5.5.200Scan.071719.P1._HRD10591_14-06-37-909.txt Node
Date: Thu Jul 18 14:06:37 EDT 2019
User: cochatt
Spectrometer: HR+D1059
Trigger mode: 1
Integration Time (sec): 1.000000E-1
Scans to average: 1
Electric dark correction enabled: true
Nonlinearity correction enabled: false
Boxcar width: 0
XAxis mode: Wavelengths
Number of Pixels in Spectrum: 2048
>>>>>Begin Spectral Data<<<<<
223.165	-12.12
223.4	-12.12
223.635	-12.12
223.869	0.88
224.104	-14.12
224.338	-0.12
224.573	-25.12
224.808	-15.12
225.042	-7.12
225.277	-18.12
225.511	-5.12
225.746	19.88
225.98	13.88
226.215	-0.12
226.449	4.88
226.683	10.88
226.918	11.88
227.152	34.88
227.387	37.88
227.621	37.88
227.856	42.88
228.09	42.88
228.324	46.88
228.559	42.88
228.793	64.88
229.027	99.88
229.262	89.88
229.496	93.88
229.73	118.88
229.964	133.88
230.199	106.88
230.433	99.88
230.667	111.88
230.901	113.88
231.136	112.88
231.37	119.88
231.604	99.88
231.838	105.88
232.072	108.88
232.306	110.88
232.541	120.88
232.775	110.88
233.009	114.88
233.243	118.88
233.477	123.88
233.711	122.88
233.945	123.88
234.179	116.88
234.413	103.88
234.647	95.88
234.881	124.88
235.115	116.88
235.349	118.88
235.583	126.88
235.817	114.88
236.051	113.88
236.285	123.88
236.519	130.88
236.753	137.88
236.987	141.88
237.221	186.88
237.455	217.88
237.689	158.88
237.922	146.88
238.156	139.88
238.39	130.88
238.624	126.88
238.858	124.88
239.091	121.88
239.325	119.88
239.559	130.88
239.793	136.88
240.027	112.88
240.26	137.88
240.494	147.88
240.728	162.88
240.961	137.88
241.195	149.88
241.429	160.88
241.662	139.88
241.896	146.88
242.13	144.88
242.363	148.88
242.597	136.88
242.83	142.88
243.064	139.88
243.298	134.88
243.531	138.88
243.765	138.88
243.998	139.88
244.232	141.88
244.465	129.88
244.699	138.88
244.932	147.88
245.166	152.88
245.399	150.88
245.633	147.88
245.866	146.88
246.099	148.88
246.333	165.88
246.566	150.88
246.8	158.88
247.033	160.88
247.266	165.88
247.5	162.88
247.733	165.88
247.966	165.88
248.2	168.88
248.433	174.88
248.666	163.88
248.899	199.88
249.133	203.88
249.366	211.88
249.599	194.88
249.832	189.88
250.066	195.88
250.299	169.88
250.532	198.88
250.765	211.88
250.998	214.88
251.231	220.88
251.465	215.88
251.698	196.88
251.931	205.88
252.164	193.88
252.397	197.88
252.63	198.88
252.863	217.88
253.096	214.88
253.329	229.88
253.562	214.88
253.795	216.88
254.028	228.88
254.261	222.88
254.494	221.88
254.727	250.88
254.96	267.88
255.193	284.88
255.426	240.88
255.659	248.88
255.892	257.88
256.124	243.88
256.357	220.88
256.59	226.88
256.823	225.88
257.056	223.88
257.289	224.88
257.521	216.88
257.754	203.88
257.987	210.88
258.22	230.88
258.452	205.88
258.685	220.88
258.918	213.88
259.151	204.88
259.383	216.88
259.616	225.88
259.849	237.88
260.081	256.88
260.314	268.88
260.547	261.88
260.779	268.88
261.012	250.88
261.244	230.88
261.477	220.88
261.71	226.88
261.942	230.88
262.175	245.88
262.407	216.88
262.64	234.88
262.872	218.88
263.105	209.88
263.337	228.88
263.57	223.88
263.802	211.88
264.035	216.88
264.267	228.88
264.499	221.88
264.732	220.88
264.964	227.88
265.197	231.88
265.429	241.88
265.661	248.88
265.894	243.88
266.126	225.88
266.358	242.88
266.591	238.88
266.823	240.88
267.055	250.88
267.287	254.88
267.52	256.88
267.752	250.88
267.984	244.88
268.216	238.88
268.448	269.88
268.681	257.88
268.913	269.88
269.145	268.88
269.377	296.88
269.609	300.88
269.841	277.88
270.073	299.88
270.306	306.88
270.538	334.88
270.77	329.88
271.002	323.88
271.234	301.88
271.466	320.88
271.698	320.88
271.93	307.88
272.162	322.88
272.394	343.88
272.626	333.88
272.858	292.88
273.09	313.88
273.322	294.88
273.553	296.88
273.785	276.88
274.017	302.88
274.249	282.88
274.481	280.88
274.713	284.88
274.945	300.88
275.176	289.88
275.408	280.88
275.64	280.88
275.872	280.88
276.104	283.88
276.335	286.88
276.567	293.88
276.799	308.88
277.031	319.88
277.262	349.88
277.494	340.88
277.726	329.88
277.957	305.88
278.189	312.88
278.421	299.88
278.652	282.88
278.884	299.88
279.115	299.88
279.347	309.88
279.579	306.88
279.81	292.88
280.042	324.88
280.273	302.88
280.505	298.88
280.736	291.88
280.968	294.88
281.199	315.88
281.431	312.88
281.662	301.88
281.894	292.88
282.125	285.88
282.356	320.88
282.588	328.88
282.819	334.88
283.051	304.88
283.282	302.88
283.513	310.88
283.745	300.88
283.976	310.88
284.207	304.88
284.439	325.88
284.67	315.88
284.901	331.88
285.132	307.88
285.364	304.88
285.595	322.88
285.826	308.88
286.057	316.88
286.288	305.88
286.52	327.88
286.751	316.88
286.982	301.88
287.213	310.88
287.444	322.88
287.675	332.88
287.906	330.88
288.138	338.88
288.369	359.88
288.6	326.88
288.831	336.88
289.062	324.88
289.293	347.88
289.524	329.88
289.755	333.88
289.986	327.88
290.217	330.88
290.448	328.88
290.679	352.88
290.91	332.88
291.141	342.88
291.371	320.88
291.602	343.88
291.833	342.88
292.064	337.88
292.295	317.88
292.526	330.88
292.757	328.88
292.987	345.88
293.218	336.88
293.449	321.88
293.68	323.88
293.91	326.88
294.141	349.88
294.372	340.88
294.603	337.88
294.833	330.88
295.064	336.88
295.295	324.88
295.525	350.88
295.756	329.88
295.987	334.88
296.217	346.88
296.448	366.88
296.679	346.88
296.909	331.88
297.14	332.88
297.37	347.88
297.601	343.88
297.831	349.88
298.062	355.88
298.292	334.88
298.523	357.88
298.753	359.88
298.984	336.88
299.214	352.88
299.445	354.88
299.675	354.88
299.905	359.88
300.136	369.88
300.366	346.88
300.597	348.88
300.827	378.88
301.057	378.88
301.288	368.88
301.518	365.88
301.748	371.88
301.979	371.88
302.209	383.88
302.439	379.88
302.669	372.88
302.9	369.88
303.13	368.88
303.36	359.88
303.59	372.88
303.82	371.88
304.051	388.88
304.281	390.88
304.511	371.88
304.741	369.88
304.971	383.88
305.201	389.88
305.431	363.88
305.661	392.88
305.891	380.88
306.121	371.88
306.352	392.88
306.582	380.88
306.812	383.88
307.042	377.88
307.272	379.88
307.502	350.88
307.731	364.88
307.961	370.88
308.191	383.88
308.421	364.88
308.651	406.88
308.881	392.88
309.111	383.88
309.341	376.88
309.571	406.88
309.8	402.88
310.03	389.88
310.26	398.88
310.49	400.88
310.72	418.88
310.949	397.88
311.179	426.88
311.409	407.88
311.639	409.88
311.868	393.88
312.098	411.88
312.328	421.88
312.557	431.88
312.787	445.88
313.017	440.88
313.246	435.88
313.476	438.88
313.706	422.88
313.935	427.88
314.165	413.88
314.394	428.88
314.624	436.88
314.853	416.88
315.083	432.88
315.312	437.88
315.542	418.88
315.771	430.88
316.001	416.88
316.23	406.88
316.46	399.88
316.689	435.88
316.919	428.88
317.148	431.88
317.377	422.88
317.607	420.88
317.836	426.88
318.065	412.88
318.295	433.88
318.524	425.88
318.753	427.88
318.983	409.88
319.212	428.88
319.441	418.88
319.67	436.88
319.9	444.88
320.129	411.88
320.358	440.88
320.587	428.88
320.816	435.88
321.046	427.88
321.275	418.88
321.504	432.88
321.733	434.88
321.962	432.88
322.191	485.88
322.42	484.88
322.649	470.88
322.878	467.88
323.108	478.88
323.337	493.88
323.566	519.88
323.795	543.88
324.024	560.88
324.253	644.88
324.482	880.88
324.71	1334.88
324.939	1825.88
325.168	1520.88
325.397	822.88
325.626	584.88
325.855	539.88
326.084	512.88
326.313	505.88
326.542	502.88
326.77	535.88
326.999	626.88
327.228	831.88
327.457	1161.88
327.686	1356.88
327.914	932.88
328.143	661.88
328.372	582.88
328.6	581.88
328.829	547.88
329.058	542.88
329.287	577.88
329.515	546.88
329.744	530.88
329.972	525.88
330.201	565.88
330.43	581.88
330.658	567.88
330.887	594.88
331.115	574.88
331.344	542.88
331.572	517.88
331.801	522.88
332.03	493.88
332.258	503.88
332.486	492.88
332.715	528.88
332.943	503.88
333.172	521.88
333.4	522.88
333.629	516.88
333.857	532.88
334.085	537.88
334.314	572.88
334.542	581.88
334.771	593.88
334.999	538.88
335.227	532.88
335.455	491.88
335.684	520.88
335.912	491.88
336.14	511.88
336.369	490.88
336.597	495.88
336.825	494.88
337.053	485.88
337.281	474.88
337.51	486.88
337.738	489.88
337.966	457.88
338.194	480.88
338.422	479.88
338.65	478.88
338.878	455.88
339.106	489.88
339.334	449.88
339.562	472.88
339.79	459.88
340.018	476.88
340.246	467.88
340.474	473.88
340.702	467.88
340.93	458.88
341.158	442.88
341.386	471.88
341.614	466.88
341.842	446.88
342.07	476.88
342.298	459.88
342.526	452.88
342.754	439.88
342.981	435.88
343.209	461.88
343.437	471.88
343.665	471.88
343.893	476.88
344.12	486.88
344.348	488.88
344.576	473.88
344.804	478.88
345.031	467.88
345.259	471.88
345.487	463.88
345.714	475.88
345.942	466.88
346.17	455.88
346.397	430.88
346.625	437.88
346.853	438.88
347.08	434.88
347.308	450.88
347.535	441.88
347.763	450.88
347.99	451.88
348.218	420.88
348.445	449.88
348.673	459.88
348.9	448.88
349.128	435.88
349.355	437.88
349.583	426.88
349.81	442.88
350.037	409.88
350.265	434.88
350.492	413.88
350.72	426.88
350.947	438.88
351.174	438.88
351.402	450.88
351.629	432.88
351.856	444.88
352.083	444.88
352.311	456.88
352.538	444.88
352.765	441.88
352.992	445.88
353.22	433.88
353.447	420.88
353.674	420.88
353.901	411.88
354.128	410.88
354.355	408.88
354.583	420.88
354.81	397.88
355.037	404.88
355.264	396.88
355.491	405.88
355.718	426.88
355.945	420.88
356.172	415.88
356.399	391.88
356.626	408.88
356.853	416.88
357.08	410.88
357.307	401.88
357.534	410.88
357.761	391.88
357.988	406.88
358.215	404.88
358.441	410.88
358.668	428.88
358.895	411.88
359.122	406.88
359.349	420.88
359.576	401.88
359.802	453.88
360.029	455.88
360.256	447.88
360.483	442.88
360.709	412.88
360.936	433.88
361.163	434.88
361.39	413.88
361.616	420.88
361.843	410.88
362.07	427.88
362.296	425.88
362.523	434.88
362.749	424.88
362.976	427.88
363.203	408.88
363.429	381.88
363.656	410.88
363.882	394.88
364.109	422.88
364.335	411.88
364.562	408.88
364.788	398.88
365.015	406.88
365.241	414.88
365.468	419.88
365.694	405.88
365.92	405.88
366.147	418.88
366.373	424.88
366.599	422.88
366.826	410.88
367.052	402.88
367.278	396.88
367.505	410.88
367.731	401.88
367.957	421.88
368.184	393.88
368.41	402.88
368.636	401.88
368.862	424.88
369.089	423.88
369.315	385.88
369.541	408.88
369.767	414.88
369.993	409.88
370.219	412.88
370.445	412.88
370.672	421.88
370.898	408.88
371.124	400.88
371.35	401.88
371.576	396.88
371.802	410.88
372.028	397.88
372.254	418.88
372.48	396.88
372.706	409.88
372.932	410.88
373.158	412.88
373.384	417.88
373.61	392.88
373.835	395.88
374.061	402.88
374.287	425.88
374.513	437.88
374.739	417.88
374.965	409.88
375.191	420.88
375.416	418.88
375.642	432.88
375.868	442.88
376.094	420.88
376.319	399.88
376.545	383.88
376.771	428.88
376.997	414.88
377.222	390.88
377.448	399.88
377.674	396.88
377.899	418.88
378.125	420.88
378.35	392.88
378.576	396.88
378.802	378.88
379.027	411.88
379.253	400.88
379.478	392.88
379.704	396.88
379.929	421.88
380.155	405.88
380.38	407.88
380.606	398.88
380.831	399.88
381.057	410.88
381.282	406.88
381.507	402.88
381.733	418.88
381.958	380.88
382.184	412.88
382.409	421.88
382.634	428.88
382.86	420.88
383.085	418.88
383.31	410.88
383.535	414.88
383.761	405.88
383.986	399.88
384.211	412.88
384.436	421.88
384.662	425.88
384.887	425.88
385.112	417.88
385.337	421.88
385.562	440.88
385.787	436.88
386.013	441.88
386.238	449.88
386.463	448.88
386.688	443.88
386.913	416.88
387.138	441.88
387.363	443.88
387.588	445.88
387.813	410.88
388.038	459.88
388.263	448.88
388.488	447.88
388.713	446.88
388.938	434.88
389.163	435.88
389.387	439.88
389.612	440.88
389.837	427.88
390.062	453.88
390.287	429.88
390.512	435.88
390.736	417.88
390.961	466.88
391.186	432.88
391.411	457.88
391.636	457.88
391.86	454.88
392.085	466.88
392.31	458.88
392.534	477.88
392.759	453.88
392.984	445.88
393.208	425.88
393.433	462.88
393.658	453.88
393.882	441.88
394.107	442.88
394.331	441.88
394.556	452.88
394.78	445.88
395.005	446.88
395.229	435.88
395.454	448.88
395.678	455.88
395.903	468.88
396.127	483.88
396.352	480.88
396.576	456.88
396.801	440.88
397.025	452.88
397.249	476.88
397.474	461.88
397.698	468.88
397.922	468.88
398.147	471.88
398.371	477.88
398.595	473.88
398.82	469.88
399.044	517.88
399.268	512.88
399.492	557.88
399.717	613.88
399.941	630.88
400.165	645.88
400.389	609.88
400.613	570.88
400.837	510.88
401.062	507.88
401.286	508.88
401.51	499.88
401.734	512.88
401.958	494.88
402.182	510.88
402.406	512.88
402.63	497.88
402.854	508.88
403.078	506.88
403.302	515.88
403.526	490.88
403.75	531.88
403.974	521.88
404.198	490.88
404.422	544.88
404.645	523.88
404.869	524.88
405.093	532.88
405.317	576.88
405.541	616.88
405.765	560.88
405.988	527.88
406.212	537.88
406.436	546.88
406.66	548.88
406.883	541.88
407.107	564.88
407.331	574.88
407.555	674.88
407.778	630.88
408.002	609.88
408.226	555.88
408.449	568.88
408.673	540.88
408.896	582.88
409.12	610.88
409.344	581.88
409.567	527.88
409.791	532.88
410.014	527.88
410.238	507.88
410.461	515.88
410.685	498.88
410.908	539.88
411.132	541.88
411.355	553.88
411.578	548.88
411.802	537.88
412.025	528.88
412.249	508.88
412.472	525.88
412.695	551.88
412.919	586.88
413.142	534.88
413.365	515.88
413.589	514.88
413.812	468.88
414.035	487.88
414.258	489.88
414.482	484.88
414.705	486.88
414.928	486.88
415.151	468.88
415.374	461.88
415.597	476.88
415.821	456.88
416.044	486.88
416.267	466.88
416.49	480.88
416.713	467.88
416.936	487.88
417.159	484.88
417.382	466.88
417.605	475.88
417.828	487.88
418.051	483.88
418.274	485.88
418.497	481.88
418.72	474.88
418.943	466.88
419.166	510.88
419.389	512.88
419.611	522.88
419.834	513.88
420.057	512.88
420.28	504.88
420.503	497.88
420.726	500.88
420.948	516.88
421.171	519.88
421.394	540.88
421.617	509.88
421.839	479.88
422.062	488.88
422.285	511.88
422.507	525.88
422.73	611.88
422.953	571.88
423.175	506.88
423.398	494.88
423.621	504.88
423.843	524.88
424.066	524.88
424.288	523.88
424.511	546.88
424.733	576.88
424.956	644.88
425.178	596.88
425.401	592.88
425.623	616.88
425.846	560.88
426.068	521.88
426.291	526.88
426.513	516.88
426.735	517.88
426.958	531.88
427.18	624.88
427.402	700.88
427.625	742.88
427.847	657.88
428.069	589.88
428.292	519.88
428.514	514.88
428.736	466.88
428.958	479.88
429.181	481.88
429.403	450.88
429.625	483.88
429.847	528.88
430.069	548.88
430.292	537.88
430.514	489.88
430.736	483.88
430.958	478.88
431.18	456.88
431.402	453.88
431.624	436.88
431.846	438.88
432.068	440.88
432.29	462.88
432.512	468.88
432.734	458.88
432.956	438.88
433.178	452.88
433.4	474.88
433.622	453.88
433.844	457.88
434.066	447.88
434.287	436.88
434.509	459.88
434.731	466.88
434.953	497.88
435.175	475.88
435.397	500.88
435.618	515.88
435.84	539.88
436.062	606.88
436.284	645.88
436.505	542.88
436.727	502.88
436.949	484.88
437.17	471.88
437.392	465.88
437.614	486.88
437.835	488.88
438.057	567.88
438.278	637.88
438.5	624.88
438.721	678.88
438.943	663.88
439.165	540.88
439.386	501.88
439.608	534.88
439.829	489.88
440.05	537.88
440.272	560.88
440.493	523.88
440.715	514.88
440.936	461.88
441.158	490.88
441.379	462.88
441.6	481.88
441.822	505.88
442.043	535.88
442.264	588.88
442.486	628.88
442.707	549.88
442.928	519.88
443.149	508.88
443.371	526.88
443.592	554.88
443.813	632.88
444.034	672.88
444.255	565.88
444.476	555.88
444.698	532.88
444.919	538.88
445.14	615.88
445.361	552.88
445.582	548.88
445.803	578.88
446.024	668.88
446.245	666.88
446.466	602.88
446.687	534.88
446.908	493.88
447.129	477.88
447.35	466.88
447.571	491.88
447.792	459.88
448.013	467.88
448.234	492.88
448.455	525.88
448.675	604.88
448.896	694.88
449.117	568.88
449.338	551.88
449.559	649.88
449.779	716.88
450	589.88
450.221	485.88
450.442	450.88
450.662	429.88
450.883	449.88
451.104	473.88
451.324	441.88
451.545	430.88
451.766	428.88
451.986	418.88
452.207	425.88
452.428	411.88
452.648	404.88
452.869	429.88
453.089	418.88
453.31	435.88
453.53	405.88
453.751	421.88
453.971	422.88
454.192	398.88
454.412	406.88
454.633	402.88
454.853	418.88
455.073	436.88
455.294	434.88
455.514	461.88
455.734	469.88
455.955	417.88
456.175	425.88
456.395	386.88
456.616	415.88
456.836	395.88
457.056	377.88
457.276	377.88
457.497	398.88
457.717	394.88
457.937	406.88
458.157	411.88
458.377	398.88
458.598	427.88
458.818	473.88
459.038	503.88
459.258	549.88
459.478	473.88
459.698	461.88
459.918	457.88
460.138	453.88
460.358	456.88
460.578	453.88
460.798	454.88
461.018	468.88
461.238	460.88
461.458	461.88
461.678	466.88
461.898	461.88
462.118	476.88
462.338	462.88
462.558	481.88
462.777	501.88
462.997	506.88
463.217	515.88
463.437	522.88
463.657	497.88
463.876	506.88
464.096	488.88
464.316	482.88
464.536	485.88
464.755	508.88
464.975	480.88
465.195	500.88
465.414	525.88
465.634	484.88
465.854	478.88
466.073	448.88
466.293	448.88
466.512	425.88
466.732	414.88
466.951	434.88
467.171	396.88
467.391	398.88
467.61	439.88
467.829	438.88
468.049	448.88
468.268	422.88
468.488	418.88
468.707	426.88
468.927	399.88
469.146	406.88
469.365	425.88
469.585	422.88
469.804	432.88
470.023	425.88
470.243	421.88
470.462	413.88
470.681	430.88
470.901	438.88
471.12	428.88
471.339	436.88
471.558	436.88
471.777	451.88
471.997	408.88
472.216	421.88
472.435	484.88
472.654	439.88
472.873	445.88
473.092	425.88
473.311	426.88
473.53	423.88
473.749	440.88
473.968	454.88
474.187	541.88
474.406	556.88
474.625	457.88
474.844	440.88
475.063	428.88
475.282	442.88
475.501	434.88
475.72	422.88
475.939	443.88
476.158	448.88
476.377	426.88
476.596	442.88
476.814	424.88
477.033	436.88
477.252	465.88
477.471	448.88
477.69	449.88
477.908	454.88
478.127	472.88
478.346	460.88
478.564	475.88
478.783	489.88
479.002	489.88
479.22	496.88
479.439	485.88
479.658	492.88
479.876	518.88
480.095	516.88
480.313	536.88
480.532	521.88
480.751	515.88
480.969	562.88
481.188	570.88
481.406	586.88
481.624	522.88
481.843	507.88
482.061	501.88
482.28	472.88
482.498	481.88
482.717	480.88
482.935	497.88
483.153	496.88
483.372	491.88
483.59	489.88
483.808	505.88
484.027	489.88
484.245	483.88
484.463	498.88
484.681	500.88
484.9	506.88
485.118	517.88
485.336	477.88
485.554	494.88
485.772	508.88
485.99	510.88
486.209	516.88
486.427	511.88
486.645	502.88
486.863	536.88
487.081	519.88
487.299	514.88
487.517	527.88
487.735	515.88
487.953	508.88
488.171	535.88
488.389	485.88
488.607	536.88
488.825	532.88
489.043	530.88
489.261	506.88
489.479	540.88
489.696	545.88
489.914	530.88
490.132	558.88
490.35	525.88
490.568	543.88
490.786	561.88
491.003	569.88
491.221	569.88
491.439	568.88
491.657	578.88
491.874	600.88
492.092	586.88
492.31	580.88
492.527	616.88
492.745	591.88
492.963	613.88
493.18	603.88
493.398	592.88
493.615	621.88
493.833	611.88
494.05	612.88
494.268	598.88
494.485	594.88
494.703	592.88
494.92	606.88
495.138	602.88
495.355	612.88
495.573	602.88
495.79	608.88
496.008	605.88
496.225	624.88
496.442	593.88
496.66	619.88
496.877	609.88
497.094	627.88
497.312	615.88
497.529	610.88
497.746	626.88
497.963	637.88
498.181	691.88
498.398	691.88
498.615	701.88
498.832	731.88
499.049	734.88
499.267	760.88
499.484	781.88
499.701	812.88
499.918	865.88
500.135	892.88
500.352	928.88
500.569	955.88
500.786	957.88
501.003	903.88
501.22	901.88
501.437	869.88
501.654	853.88
501.871	819.88
502.088	777.88
502.305	741.88
502.522	698.88
502.739	694.88
502.956	666.88
503.172	640.88
503.389	625.88
503.606	623.88
503.823	615.88
504.04	640.88
504.256	625.88
504.473	635.88
504.69	616.88
504.907	625.88
505.123	604.88
505.34	576.88
505.557	592.88
505.773	589.88
505.99	573.88
506.207	581.88
506.423	589.88
506.64	562.88
506.856	578.88
507.073	582.88
507.289	545.88
507.506	566.88
507.722	580.88
507.939	561.88
508.155	546.88
508.372	544.88
508.588	563.88
508.805	550.88
509.021	538.88
509.238	561.88
509.454	555.88
509.67	518.88
509.887	525.88
510.103	560.88
510.319	555.88
510.536	603.88
510.752	847.88
510.968	716.88
511.184	549.88
511.401	549.88
511.617	527.88
511.833	518.88
512.049	517.88
512.265	510.88
512.481	482.88
512.698	494.88
512.914	482.88
513.13	513.88
513.346	510.88
513.562	515.88
513.778	524.88
513.994	515.88
514.21	520.88
514.426	544.88
514.642	576.88
514.858	558.88
515.074	597.88
515.29	652.88
515.506	857.88
515.721	728.88
515.937	569.88
516.153	546.88
516.369	537.88
516.585	538.88
516.801	554.88
517.016	547.88
517.232	555.88
517.448	548.88
517.664	542.88
517.879	536.88
518.095	547.88
518.311	530.88
518.527	536.88
518.742	523.88
518.958	540.88
519.173	525.88
519.389	511.88
519.605	512.88
519.82	500.88
520.036	506.88
520.251	514.88
520.467	542.88
520.682	535.88
520.898	551.88
521.113	536.88
521.329	545.88
521.544	612.88
521.76	725.88
521.975	1050.88
522.19	970.88
522.406	646.88
522.621	541.88
522.836	476.88
523.052	475.88
523.267	480.88
523.482	470.88
523.698	461.88
523.913	485.88
524.128	456.88
524.343	452.88
524.559	448.88
524.774	449.88
524.989	442.88
525.204	462.88
525.419	441.88
525.634	445.88
525.849	417.88
526.064	425.88
526.28	455.88
526.495	450.88
526.71	432.88
526.925	425.88
527.14	444.88
527.355	426.88
527.57	430.88
527.785	439.88
527.999	430.88
528.214	419.88
528.429	400.88
528.644	417.88
528.859	418.88
529.074	419.88
529.289	439.88
529.503	477.88
529.718	475.88
529.933	447.88
530.148	442.88
530.363	406.88
530.577	429.88
530.792	421.88
531.007	420.88
531.221	419.88
531.436	422.88
531.651	398.88
531.865	417.88
532.08	407.88
532.295	416.88
532.509	405.88
532.724	404.88
532.938	390.88
533.153	412.88
533.367	407.88
533.582	391.88
533.796	405.88
534.011	396.88
534.225	399.88
534.44	411.88
534.654	402.88
534.868	405.88
535.083	401.88
535.297	394.88
535.511	410.88
535.726	416.88
535.94	400.88
536.154	414.88
536.369	406.88
536.583	391.88
536.797	382.88
537.011	393.88
537.225	388.88
537.44	391.88
537.654	397.88
537.868	372.88
538.082	405.88
538.296	387.88
538.51	400.88
538.724	389.88
538.938	402.88
539.153	395.88
539.367	409.88
539.581	417.88
539.795	394.88
540.009	389.88
540.222	405.88
540.436	393.88
540.65	405.88
540.864	395.88
541.078	411.88
541.292	414.88
541.506	388.88
541.72	397.88
541.934	380.88
542.147	378.88
542.361	391.88
542.575	398.88
542.789	380.88
543.002	384.88
543.216	385.88
543.43	397.88
543.644	378.88
543.857	366.88
544.071	373.88
544.285	396.88
544.498	405.88
544.712	397.88
544.925	377.88
545.139	390.88
545.352	388.88
545.566	384.88
545.779	403.88
545.993	399.88
546.206	372.88
546.42	388.88
546.633	372.88
546.847	381.88
547.06	384.88
547.274	391.88
547.487	395.88
547.7	377.88
547.914	371.88
548.127	376.88
548.34	400.88
548.554	340.88
548.767	376.88
548.98	370.88
549.193	380.88
549.407	365.88
549.62	396.88
549.833	396.88
550.046	372.88
550.259	345.88
550.473	377.88
550.686	359.88
550.899	382.88
551.112	379.88
551.325	364.88
551.538	384.88
551.751	386.88
551.964	380.88
552.177	374.88
552.39	379.88
552.603	372.88
552.816	379.88
553.029	395.88
553.242	383.88
553.455	409.88
553.667	399.88
553.88	386.88
554.093	396.88
554.306	379.88
554.519	385.88
554.732	360.88
554.944	379.88
555.157	374.88
555.37	392.88
555.583	369.88
555.795	363.88
556.008	367.88
556.221	362.88
556.433	348.88
556.646	338.88
556.859	354.88
557.071	356.88
557.284	343.88
557.496	352.88
557.709	333.88
557.921	348.88
558.134	359.88
558.346	354.88
558.559	349.88
558.771	357.88
558.984	354.88
559.196	330.88
559.409	323.88
559.621	357.88
559.833	342.88
560.046	324.88
560.258	330.88
560.47	339.88
560.683	353.88
560.895	319.88
561.107	333.88
561.32	334.88
561.532	318.88
561.744	341.88
561.956	334.88
562.168	331.88
562.381	349.88
562.593	344.88
562.805	349.88
563.017	335.88
563.229	342.88
563.441	354.88
563.653	337.88
563.865	335.88
564.077	344.88
564.289	338.88
564.501	352.88
564.713	330.88
564.925	356.88
565.137	357.88
565.349	360.88
565.561	374.88
565.773	380.88
565.985	396.88
566.197	399.88
566.408	411.88
566.62	411.88
566.832	426.88
567.044	431.88
567.255	416.88
567.467	440.88
567.679	435.88
567.891	463.88
568.102	441.88
568.314	434.88
568.526	433.88
568.737	424.88
568.949	392.88
569.161	368.88
569.372	369.88
569.584	364.88
569.795	362.88
570.007	356.88
570.218	358.88
570.43	360.88
570.641	350.88
570.853	331.88
571.064	306.88
571.276	329.88
571.487	325.88
571.698	327.88
571.91	320.88
572.121	312.88
572.333	308.88
572.544	322.88
572.755	325.88
572.966	298.88
573.178	297.88
573.389	292.88
573.6	291.88
573.811	294.88
574.023	266.88
574.234	306.88
574.445	278.88
574.656	312.88
574.867	296.88
575.078	300.88
575.289	291.88
575.501	305.88
575.712	276.88
575.923	277.88
576.134	262.88
576.345	294.88
576.556	276.88
576.767	274.88
576.978	273.88
577.188	301.88
577.399	286.88
577.61	293.88
577.821	281.88
578.032	293.88
578.243	298.88
578.454	400.88
578.665	327.88
578.875	288.88
579.086	269.88
579.297	290.88
579.508	259.88
579.718	282.88
579.929	253.88
580.14	264.88
580.35	278.88
580.561	251.88
580.772	275.88
580.982	272.88
581.193	272.88
581.403	278.88
581.614	278.88
581.825	242.88
582.035	265.88
582.246	266.88
582.456	269.88
582.667	270.88
582.877	245.88
583.087	243.88
583.298	265.88
583.508	260.88
583.719	277.88
583.929	258.88
584.139	246.88
584.35	241.88
584.56	276.88
584.77	249.88
584.981	256.88
585.191	278.88
585.401	263.88
585.611	260.88
585.821	252.88
586.032	265.88
586.242	276.88
586.452	260.88
586.662	245.88
586.872	264.88
587.082	255.88
587.292	247.88
587.502	274.88
587.713	244.88
587.923	257.88
588.133	249.88
588.343	253.88
588.553	238.88
588.762	244.88
588.972	268.88
589.182	253.88
589.392	276.88
589.602	265.88
589.812	267.88
590.022	249.88
590.232	247.88
590.441	246.88
590.651	260.88
590.861	265.88
591.071	260.88
591.281	268.88
591.49	238.88
591.7	248.88
591.91	270.88
592.119	269.88
592.329	269.88
592.539	271.88
592.748	272.88
592.958	284.88
593.167	277.88
593.377	288.88
593.587	310.88
593.796	278.88
594.006	299.88
594.215	272.88
594.424	260.88
594.634	277.88
594.843	276.88
595.053	271.88
595.262	260.88
595.472	255.88
595.681	266.88
595.89	252.88
596.1	250.88
596.309	265.88
596.518	249.88
596.727	243.88
596.937	245.88
597.146	244.88
597.355	259.88
597.564	238.88
597.774	233.88
597.983	225.88
598.192	231.88
598.401	236.88
598.61	224.88
598.819	232.88
599.028	252.88
599.237	232.88
599.446	224.88
599.655	234.88
599.864	218.88
600.073	222.88
600.282	236.88
600.491	220.88
600.7	214.88
600.909	234.88
601.118	222.88
601.327	232.88
601.536	220.88
601.745	213.88
601.953	234.88
602.162	222.88
602.371	214.88
602.58	226.88
602.789	221.88
602.997	200.88
603.206	215.88
603.415	222.88
603.623	238.88
603.832	223.88
604.041	220.88
604.249	202.88
604.458	215.88
604.666	205.88
604.875	223.88
605.084	199.88
605.292	206.88
605.501	218.88
605.709	218.88
605.918	216.88
606.126	226.88
606.334	223.88
606.543	217.88
606.751	210.88
606.96	208.88
607.168	213.88
607.376	193.88
607.585	215.88
607.793	213.88
608.001	219.88
608.21	214.88
608.418	210.88
608.626	208.88
608.834	214.88
609.043	197.88
609.251	221.88
609.459	198.88
609.667	220.88
609.875	199.88
610.083	195.88
610.291	212.88
610.499	205.88
610.707	210.88
610.916	217.88
611.124	206.88
611.332	222.88
611.54	212.88
611.748	205.88
611.955	216.88
612.163	208.88
612.371	206.88
612.579	214.88
612.787	193.88
612.995	203.88
613.203	203.88
613.411	190.88
613.618	212.88
613.826	212.88
614.034	219.88
614.242	204.88
614.449	200.88
614.657	218.88
614.865	197.88
615.072	212.88
615.28	218.88
615.488	186.88
615.695	194.88
615.903	204.88
616.111	220.88
616.318	216.88
616.526	218.88
616.733	212.88
616.941	200.88
617.148	200.88
617.356	210.88
617.563	199.88
617.771	202.88
617.978	184.88
618.185	185.88
618.393	193.88
618.6	187.88
618.807	210.88
619.015	192.88
619.222	187.88
619.429	186.88
619.637	184.88
619.844	202.88
620.051	205.88
620.258	211.88
620.466	192.88
620.673	168.88
620.88	197.88
621.087	186.88
621.294	182.88
621.501	192.88
621.708	187.88
621.915	187.88
622.122	206.88
622.329	201.88
622.536	185.88
622.743	199.88
622.95	196.88
623.157	195.88
623.364	197.88
623.571	189.88
623.778	188.88
623.985	206.88
624.192	194.88
624.399	178.88
624.606	199.88
624.812	188.88
625.019	189.88
625.226	185.88
625.433	195.88
625.639	178.88
625.846	185.88
626.053	183.88
626.259	182.88
626.466	187.88
626.673	196.88
626.879	176.88
627.086	165.88
627.293	177.88
627.499	184.88
627.706	165.88
627.912	168.88
628.119	171.88
628.325	171.88
628.532	184.88
628.738	180.88
628.945	169.88
629.151	161.88
629.357	166.88
629.564	183.88
629.77	184.88
629.976	160.88
630.183	160.88
630.389	170.88
630.595	181.88
630.802	180.88
631.008	178.88
631.214	171.88
631.42	173.88
631.627	180.88
631.833	171.88
632.039	179.88
632.245	170.88
632.451	162.88
632.657	166.88
632.863	157.88
633.069	174.88
633.275	167.88
633.481	170.88
633.688	168.88
633.893	185.88
634.099	181.88
634.305	162.88
634.511	153.88
634.717	151.88
634.923	166.88
635.129	157.88
635.335	176.88
635.541	155.88
635.747	157.88
635.952	177.88
636.158	168.88
636.364	148.88
636.57	157.88
636.775	164.88
636.981	160.88
637.187	177.88
637.392	172.88
637.598	174.88
637.804	158.88
638.009	153.88
638.215	165.88
638.421	157.88
638.626	163.88
638.832	166.88
639.037	132.88
639.243	160.88
639.448	152.88
639.654	148.88
639.859	156.88
640.065	165.88
640.27	151.88
640.475	150.88
640.681	153.88
640.886	161.88
641.091	159.88
641.297	166.88
641.502	152.88
641.707	162.88
641.913	174.88
642.118	167.88
642.323	154.88
642.528	155.88
642.733	147.88
642.939	143.88
643.144	147.88
643.349	162.88
643.554	175.88
643.759	154.88
643.964	148.88
644.169	163.88
644.374	144.88
644.579	149.88
644.784	157.88
644.989	158.88
645.194	160.88
645.399	140.88
645.604	142.88
645.809	145.88
646.014	144.88
646.219	126.88
646.423	160.88
646.628	154.88
646.833	161.88
647.038	143.88
647.243	147.88
647.447	159.88
647.652	157.88
647.857	132.88
648.062	156.88
648.266	149.88
648.471	146.88
648.676	152.88
648.88	166.88
649.085	166.88
649.289	157.88
649.494	157.88
649.698	160.88
649.903	161.88
650.107	154.88
650.312	156.88
650.516	122.88
650.721	131.88
650.925	145.88
651.13	137.88
651.334	140.88
651.539	138.88
651.743	152.88
651.947	136.88
652.152	130.88
652.356	121.88
652.56	140.88
652.764	140.88
652.969	147.88
653.173	138.88
653.377	136.88
653.581	138.88
653.785	142.88
653.99	134.88
654.194	123.88
654.398	122.88
654.602	116.88
654.806	124.88
655.01	133.88
655.214	134.88
655.418	129.88
655.622	128.88
655.826	124.88
656.03	126.88
656.234	127.88
656.438	120.88
656.642	133.88
656.846	128.88
657.049	131.88
657.253	117.88
657.457	122.88
657.661	129.88
657.865	124.88
658.068	99.88
658.272	109.88
658.476	105.88
658.68	110.88
658.883	104.88
659.087	101.88
659.291	105.88
659.494	99.88
659.698	110.88
659.901	93.88
660.105	78.88
660.309	83.88
660.512	86.88
660.716	92.88
660.919	93.88
661.123	106.88
661.326	101.88
661.53	84.88
661.733	86.88
661.936	81.88
662.14	84.88
662.343	89.88
662.546	81.88
662.75	92.88
662.953	95.88
663.156	85.88
663.36	86.88
663.563	83.88
663.766	76.88
663.969	81.88
664.173	90.88
664.376	90.88
664.579	72.88
664.782	74.88
664.985	85.88
665.188	77.88
665.391	77.88
665.594	75.88
665.797	86.88
666	86.88
666.203	87.88
666.406	75.88
666.609	87.88
666.812	73.88
667.015	82.88
667.218	81.88
667.421	77.88
667.624	87.88
667.827	89.88
668.03	87.88
668.232	83.88
668.435	82.88
668.638	90.88
668.841	89.88
669.043	84.88
669.246	70.88
669.449	91.88
669.651	94.88
669.854	109.88
670.057	80.88
670.259	83.88
670.462	83.88
670.665	68.88
670.867	87.88
671.07	100.88
671.272	80.88
671.475	83.88
671.677	74.88
671.88	73.88
672.082	89.88
672.284	91.88
672.487	79.88
672.689	72.88
672.892	81.88
