Data from 1964.PennyLincolnUp.Lamp.En5.5.200Scan.071719.P1._HRD10591_14-06-15-909.txt Node
Date: Thu Jul 18 14:06:15 EDT 2019
User: cochatt
Spectrometer: HR+D1059
Trigger mode: 1
Integration Time (sec): 1.000000E-1
Scans to average: 1
Electric dark correction enabled: true
Nonlinearity correction enabled: false
Boxcar width: 0
XAxis mode: Wavelengths
Number of Pixels in Spectrum: 2048
>>>>>Begin Spectral Data<<<<<
223.165	-10.25
223.4	-10.25
223.635	-10.25
223.869	-20.25
224.104	-19.25
224.338	5.75
224.573	-20.25
224.808	-27.25
225.042	-11.25
225.277	-0.25
225.511	5.75
225.746	13.75
225.98	-7.25
226.215	5.75
226.449	12.75
226.683	14.75
226.918	29.75
227.152	27.75
227.387	21.75
227.621	58.75
227.856	44.75
228.09	43.75
228.324	42.75
228.559	54.75
228.793	56.75
229.027	80.75
229.262	108.75
229.496	101.75
229.73	129.75
229.964	146.75
230.199	115.75
230.433	111.75
230.667	104.75
230.901	105.75
231.136	103.75
231.37	120.75
231.604	114.75
231.838	98.75
232.072	103.75
232.306	112.75
232.541	107.75
232.775	115.75
233.009	99.75
233.243	108.75
233.477	107.75
233.711	97.75
233.945	118.75
234.179	108.75
234.413	103.75
234.647	119.75
234.881	104.75
235.115	116.75
235.349	124.75
235.583	105.75
235.817	115.75
236.051	129.75
236.285	123.75
236.519	123.75
236.753	122.75
236.987	146.75
237.221	163.75
237.455	209.75
237.689	156.75
237.922	141.75
238.156	125.75
238.39	139.75
238.624	135.75
238.858	131.75
239.091	123.75
239.325	135.75
239.559	123.75
239.793	140.75
240.027	129.75
240.26	136.75
240.494	178.75
240.728	137.75
240.961	139.75
241.195	152.75
241.429	136.75
241.662	127.75
241.896	139.75
242.13	139.75
242.363	151.75
242.597	130.75
242.83	131.75
243.064	112.75
243.298	152.75
243.531	144.75
243.765	142.75
243.998	141.75
244.232	145.75
244.465	140.75
244.699	157.75
244.932	149.75
245.166	141.75
245.399	157.75
245.633	149.75
245.866	159.75
246.099	159.75
246.333	158.75
246.566	152.75
246.8	163.75
247.033	151.75
247.266	173.75
247.5	167.75
247.733	158.75
247.966	178.75
248.2	167.75
248.433	170.75
248.666	170.75
248.899	180.75
249.133	187.75
249.366	198.75
249.599	202.75
249.832	191.75
250.066	177.75
250.299	183.75
250.532	196.75
250.765	193.75
250.998	236.75
251.231	240.75
251.465	216.75
251.698	218.75
251.931	203.75
252.164	186.75
252.397	197.75
252.63	198.75
252.863	210.75
253.096	219.75
253.329	232.75
253.562	240.75
253.795	225.75
254.028	219.75
254.261	218.75
254.494	223.75
254.727	244.75
254.96	264.75
255.193	272.75
255.426	271.75
255.659	243.75
255.892	227.75
256.124	233.75
256.357	228.75
256.59	231.75
256.823	225.75
257.056	227.75
257.289	219.75
257.521	219.75
257.754	212.75
257.987	241.75
258.22	219.75
258.452	218.75
258.685	198.75
258.918	210.75
259.151	224.75
259.383	231.75
259.616	248.75
259.849	231.75
260.081	253.75
260.314	260.75
260.547	252.75
260.779	259.75
261.012	255.75
261.244	242.75
261.477	243.75
261.71	225.75
261.942	216.75
262.175	230.75
262.407	248.75
262.64	233.75
262.872	224.75
263.105	214.75
263.337	231.75
263.57	243.75
263.802	224.75
264.035	228.75
264.267	241.75
264.499	226.75
264.732	229.75
264.964	232.75
265.197	233.75
265.429	221.75
265.661	234.75
265.894	234.75
266.126	234.75
266.358	217.75
266.591	249.75
266.823	249.75
267.055	230.75
267.287	237.75
267.52	241.75
267.752	244.75
267.984	255.75
268.216	255.75
268.448	240.75
268.681	257.75
268.913	258.75
269.145	295.75
269.377	299.75
269.609	300.75
269.841	282.75
270.073	276.75
270.306	286.75
270.538	330.75
270.77	325.75
271.002	305.75
271.234	319.75
271.466	294.75
271.698	310.75
271.93	317.75
272.162	331.75
272.394	319.75
272.626	291.75
272.858	287.75
273.09	305.75
273.322	283.75
273.553	285.75
273.785	300.75
274.017	284.75
274.249	281.75
274.481	277.75
274.713	300.75
274.945	290.75
275.176	298.75
275.408	296.75
275.64	303.75
275.872	293.75
276.104	301.75
276.335	287.75
276.567	304.75
276.799	298.75
277.031	344.75
277.262	322.75
277.494	311.75
277.726	319.75
277.957	312.75
278.189	312.75
278.421	296.75
278.652	290.75
278.884	298.75
279.115	311.75
279.347	301.75
279.579	301.75
279.81	304.75
280.042	292.75
280.273	282.75
280.505	282.75
280.736	296.75
280.968	308.75
281.199	311.75
281.431	313.75
281.662	321.75
281.894	310.75
282.125	305.75
282.356	307.75
282.588	315.75
282.819	336.75
283.051	305.75
283.282	299.75
283.513	319.75
283.745	310.75
283.976	305.75
284.207	316.75
284.439	311.75
284.67	299.75
284.901	297.75
285.132	328.75
285.364	316.75
285.595	305.75
285.826	316.75
286.057	319.75
286.288	321.75
286.52	329.75
286.751	315.75
286.982	305.75
287.213	316.75
287.444	323.75
287.675	320.75
287.906	347.75
288.138	338.75
288.369	347.75
288.6	346.75
288.831	328.75
289.062	325.75
289.293	350.75
289.524	322.75
289.755	344.75
289.986	322.75
290.217	332.75
290.448	324.75
290.679	322.75
290.91	319.75
291.141	312.75
291.371	320.75
291.602	339.75
291.833	330.75
292.064	332.75
292.295	315.75
292.526	327.75
292.757	316.75
292.987	339.75
293.218	328.75
293.449	315.75
293.68	334.75
293.91	327.75
294.141	324.75
294.372	338.75
294.603	322.75
294.833	327.75
295.064	319.75
295.295	337.75
295.525	332.75
295.756	340.75
295.987	340.75
296.217	364.75
296.448	354.75
296.679	349.75
296.909	348.75
297.14	346.75
297.37	367.75
297.601	346.75
297.831	332.75
298.062	344.75
298.292	342.75
298.523	352.75
298.753	366.75
298.984	331.75
299.214	348.75
299.445	356.75
299.675	358.75
299.905	359.75
300.136	363.75
300.366	370.75
300.597	347.75
300.827	357.75
301.057	373.75
301.288	372.75
301.518	372.75
301.748	361.75
301.979	371.75
302.209	353.75
302.439	369.75
302.669	370.75
302.9	358.75
303.13	365.75
303.36	369.75
303.59	379.75
303.82	378.75
304.051	378.75
304.281	370.75
304.511	374.75
304.741	363.75
304.971	367.75
305.201	365.75
305.431	367.75
305.661	369.75
305.891	384.75
306.121	380.75
306.352	386.75
306.582	385.75
306.812	377.75
307.042	362.75
307.272	361.75
307.502	364.75
307.731	376.75
307.961	378.75
308.191	377.75
308.421	363.75
308.651	367.75
308.881	383.75
309.111	381.75
309.341	379.75
309.571	413.75
309.8	404.75
310.03	405.75
310.26	423.75
310.49	424.75
310.72	419.75
310.949	398.75
311.179	435.75
311.409	413.75
311.639	411.75
311.868	421.75
312.098	423.75
312.328	422.75
312.557	421.75
312.787	426.75
313.017	414.75
313.246	416.75
313.476	403.75
313.706	417.75
313.935	408.75
314.165	422.75
314.394	432.75
314.624	439.75
314.853	440.75
315.083	423.75
315.312	417.75
315.542	415.75
315.771	419.75
316.001	402.75
316.23	416.75
316.46	407.75
316.689	408.75
316.919	397.75
317.148	418.75
317.377	444.75
317.607	427.75
317.836	426.75
318.065	413.75
318.295	405.75
318.524	417.75
318.753	393.75
318.983	407.75
319.212	419.75
319.441	394.75
319.67	434.75
319.9	427.75
320.129	428.75
320.358	403.75
320.587	411.75
320.816	436.75
321.046	435.75
321.275	426.75
321.504	435.75
321.733	439.75
321.962	422.75
322.191	450.75
322.42	455.75
322.649	457.75
322.878	474.75
323.108	464.75
323.337	482.75
323.566	495.75
323.795	517.75
324.024	549.75
324.253	646.75
324.482	864.75
324.71	1274.75
324.939	1771.75
325.168	1451.75
325.397	817.75
325.626	601.75
325.855	518.75
326.084	497.75
326.313	502.75
326.542	515.75
326.77	532.75
326.999	634.75
327.228	817.75
327.457	1143.75
327.686	1321.75
327.914	888.75
328.143	651.75
328.372	572.75
328.6	573.75
328.829	538.75
329.058	567.75
329.287	549.75
329.515	547.75
329.744	517.75
329.972	510.75
330.201	529.75
330.43	567.75
330.658	579.75
330.887	589.75
331.115	579.75
331.344	529.75
331.572	518.75
331.801	513.75
332.03	499.75
332.258	485.75
332.486	479.75
332.715	477.75
332.943	474.75
333.172	519.75
333.4	513.75
333.629	532.75
333.857	515.75
334.085	539.75
334.314	553.75
334.542	551.75
334.771	579.75
334.999	533.75
335.227	517.75
335.455	537.75
335.684	495.75
335.912	494.75
336.14	483.75
336.369	489.75
336.597	508.75
336.825	477.75
337.053	468.75
337.281	477.75
337.51	488.75
337.738	475.75
337.966	466.75
338.194	458.75
338.422	471.75
338.65	467.75
338.878	472.75
339.106	463.75
339.334	462.75
339.562	485.75
339.79	458.75
340.018	448.75
340.246	460.75
340.474	481.75
340.702	460.75
340.93	453.75
341.158	458.75
341.386	453.75
341.614	473.75
341.842	464.75
342.07	467.75
342.298	443.75
342.526	454.75
342.754	457.75
342.981	440.75
343.209	438.75
343.437	441.75
343.665	473.75
343.893	472.75
344.12	496.75
344.348	480.75
344.576	485.75
344.804	463.75
345.031	479.75
345.259	465.75
345.487	448.75
345.714	458.75
345.942	451.75
346.17	447.75
346.397	465.75
346.625	430.75
346.853	461.75
347.08	435.75
347.308	434.75
347.535	440.75
347.763	443.75
347.99	440.75
348.218	448.75
348.445	468.75
348.673	402.75
348.9	432.75
349.128	428.75
349.355	427.75
349.583	404.75
349.81	425.75
350.037	428.75
350.265	400.75
350.492	434.75
350.72	449.75
350.947	421.75
351.174	431.75
351.402	441.75
351.629	436.75
351.856	422.75
352.083	409.75
352.311	428.75
352.538	431.75
352.765	435.75
352.992	436.75
353.22	440.75
353.447	418.75
353.674	416.75
353.901	436.75
354.128	415.75
354.355	412.75
354.583	402.75
354.81	426.75
355.037	410.75
355.264	401.75
355.491	409.75
355.718	413.75
355.945	390.75
356.172	418.75
356.399	408.75
356.626	413.75
356.853	410.75
357.08	410.75
357.307	406.75
357.534	407.75
357.761	421.75
357.988	420.75
358.215	410.75
358.441	424.75
358.668	401.75
358.895	414.75
359.122	403.75
359.349	433.75
359.576	421.75
359.802	456.75
360.029	448.75
360.256	455.75
360.483	422.75
360.709	444.75
360.936	424.75
361.163	409.75
361.39	418.75
361.616	431.75
361.843	409.75
362.07	415.75
362.296	410.75
362.523	409.75
362.749	431.75
362.976	434.75
363.203	406.75
363.429	410.75
363.656	378.75
363.882	404.75
364.109	400.75
364.335	390.75
364.562	416.75
364.788	398.75
365.015	410.75
365.241	400.75
365.468	402.75
365.694	406.75
365.92	401.75
366.147	411.75
366.373	394.75
366.599	388.75
366.826	387.75
367.052	396.75
367.278	392.75
367.505	394.75
367.731	410.75
367.957	388.75
368.184	396.75
368.41	407.75
368.636	405.75
368.862	427.75
369.089	408.75
369.315	419.75
369.541	388.75
369.767	393.75
369.993	392.75
370.219	393.75
370.445	407.75
370.672	401.75
370.898	395.75
371.124	395.75
371.35	399.75
371.576	415.75
371.802	395.75
372.028	405.75
372.254	395.75
372.48	393.75
372.706	379.75
372.932	405.75
373.158	432.75
373.384	395.75
373.61	411.75
373.835	407.75
374.061	407.75
374.287	433.75
374.513	400.75
374.739	390.75
374.965	418.75
375.191	404.75
375.416	406.75
375.642	432.75
375.868	414.75
376.094	387.75
376.319	398.75
376.545	402.75
376.771	418.75
376.997	402.75
377.222	407.75
377.448	391.75
377.674	384.75
377.899	409.75
378.125	411.75
378.35	391.75
378.576	388.75
378.802	407.75
379.027	391.75
379.253	393.75
379.478	421.75
379.704	397.75
379.929	411.75
380.155	394.75
380.38	403.75
380.606	419.75
380.831	398.75
381.057	401.75
381.282	394.75
381.507	394.75
381.733	398.75
381.958	411.75
382.184	423.75
382.409	419.75
382.634	403.75
382.86	401.75
383.085	414.75
383.31	421.75
383.535	428.75
383.761	417.75
383.986	423.75
384.211	416.75
384.436	435.75
384.662	416.75
384.887	429.75
385.112	429.75
385.337	444.75
385.562	441.75
385.787	448.75
386.013	452.75
386.238	449.75
386.463	429.75
386.688	455.75
386.913	435.75
387.138	432.75
387.363	433.75
387.588	424.75
387.813	424.75
388.038	405.75
388.263	438.75
388.488	429.75
388.713	420.75
388.938	438.75
389.163	441.75
389.387	442.75
389.612	433.75
389.837	414.75
390.062	447.75
390.287	416.75
390.512	417.75
390.736	425.75
390.961	438.75
391.186	448.75
391.411	438.75
391.636	443.75
391.86	453.75
392.085	447.75
392.31	454.75
392.534	427.75
392.759	441.75
392.984	455.75
393.208	436.75
393.433	435.75
393.658	423.75
393.882	428.75
394.107	437.75
394.331	439.75
394.556	441.75
394.78	423.75
395.005	429.75
395.229	442.75
395.454	442.75
395.678	461.75
395.903	459.75
396.127	480.75
396.352	467.75
396.576	463.75
396.801	433.75
397.025	441.75
397.249	444.75
397.474	472.75
397.698	465.75
397.922	467.75
398.147	464.75
398.371	481.75
398.595	472.75
398.82	473.75
399.044	509.75
399.268	533.75
399.492	572.75
399.717	583.75
399.941	609.75
400.165	617.75
400.389	616.75
400.613	556.75
400.837	515.75
401.062	506.75
401.286	492.75
401.51	501.75
401.734	477.75
401.958	489.75
402.182	499.75
402.406	493.75
402.63	512.75
402.854	509.75
403.078	495.75
403.302	509.75
403.526	500.75
403.75	515.75
403.974	531.75
404.198	508.75
404.422	499.75
404.645	531.75
404.869	536.75
405.093	535.75
405.317	588.75
405.541	570.75
405.765	528.75
405.988	543.75
406.212	531.75
406.436	538.75
406.66	553.75
406.883	553.75
407.107	569.75
407.331	615.75
407.555	614.75
407.778	643.75
408.002	618.75
408.226	571.75
408.449	544.75
408.673	539.75
408.896	581.75
409.12	600.75
409.344	586.75
409.567	547.75
409.791	513.75
410.014	514.75
410.238	488.75
410.461	527.75
410.685	499.75
410.908	512.75
411.132	556.75
411.355	554.75
411.578	545.75
411.802	524.75
412.025	524.75
412.249	507.75
412.472	544.75
412.695	580.75
412.919	556.75
413.142	515.75
413.365	494.75
413.589	511.75
413.812	496.75
414.035	487.75
414.258	472.75
414.482	471.75
414.705	473.75
414.928	496.75
415.151	465.75
415.374	477.75
415.597	473.75
415.821	439.75
416.044	452.75
416.267	480.75
416.49	471.75
416.713	477.75
416.936	472.75
417.159	449.75
417.382	472.75
417.605	463.75
417.828	489.75
418.051	500.75
418.274	481.75
418.497	473.75
418.72	466.75
418.943	468.75
419.166	483.75
419.389	520.75
419.611	497.75
419.834	515.75
420.057	495.75
420.28	519.75
420.503	497.75
420.726	484.75
420.948	491.75
421.171	529.75
421.394	525.75
421.617	492.75
421.839	485.75
422.062	499.75
422.285	484.75
422.507	546.75
422.73	591.75
422.953	576.75
423.175	517.75
423.398	517.75
423.621	497.75
423.843	519.75
424.066	508.75
424.288	509.75
424.511	519.75
424.733	584.75
424.956	625.75
425.178	563.75
425.401	591.75
425.623	608.75
425.846	557.75
426.068	523.75
426.291	521.75
426.513	512.75
426.735	522.75
426.958	532.75
427.18	618.75
427.402	692.75
427.625	747.75
427.847	666.75
428.069	588.75
428.292	534.75
428.514	498.75
428.736	476.75
428.958	453.75
429.181	461.75
429.403	441.75
429.625	465.75
429.847	503.75
430.069	547.75
430.292	534.75
430.514	501.75
430.736	442.75
430.958	451.75
431.18	444.75
431.402	451.75
431.624	463.75
431.846	440.75
432.068	440.75
432.29	448.75
432.512	443.75
432.734	441.75
432.956	443.75
433.178	441.75
433.4	468.75
433.622	446.75
433.844	446.75
434.066	474.75
434.287	449.75
434.509	468.75
434.731	468.75
434.953	443.75
435.175	468.75
435.397	499.75
435.618	506.75
435.84	522.75
436.062	623.75
436.284	646.75
436.505	544.75
436.727	501.75
436.949	471.75
437.17	468.75
437.392	479.75
437.614	486.75
437.835	496.75
438.057	579.75
438.278	646.75
438.5	663.75
438.721	690.75
438.943	665.75
439.165	539.75
439.386	509.75
439.608	498.75
439.829	497.75
440.05	527.75
440.272	530.75
440.493	536.75
440.715	495.75
440.936	472.75
441.158	474.75
441.379	465.75
441.6	491.75
441.822	489.75
442.043	543.75
442.264	606.75
442.486	629.75
442.707	547.75
442.928	506.75
443.149	539.75
443.371	532.75
443.592	560.75
443.813	660.75
444.034	667.75
444.255	569.75
444.476	539.75
444.698	531.75
444.919	518.75
445.14	619.75
445.361	563.75
445.582	528.75
445.803	586.75
446.024	659.75
446.245	657.75
446.466	584.75
446.687	523.75
446.908	498.75
447.129	463.75
447.35	466.75
447.571	459.75
447.792	449.75
448.013	467.75
448.234	472.75
448.455	518.75
448.675	589.75
448.896	684.75
449.117	582.75
449.338	571.75
449.559	628.75
449.779	712.75
450	595.75
450.221	491.75
450.442	481.75
450.662	446.75
450.883	434.75
451.104	443.75
451.324	428.75
451.545	415.75
451.766	412.75
451.986	419.75
452.207	407.75
452.428	387.75
452.648	417.75
452.869	403.75
453.089	419.75
453.31	437.75
453.53	420.75
453.751	412.75
453.971	391.75
454.192	420.75
454.412	417.75
454.633	406.75
454.853	402.75
455.073	404.75
455.294	442.75
455.514	482.75
455.734	466.75
455.955	411.75
456.175	402.75
456.395	391.75
456.616	380.75
456.836	375.75
457.056	348.75
457.276	383.75
457.497	395.75
457.717	372.75
457.937	405.75
458.157	411.75
458.377	405.75
458.598	436.75
458.818	456.75
459.038	514.75
459.258	520.75
459.478	453.75
459.698	446.75
459.918	445.75
460.138	441.75
460.358	432.75
460.578	451.75
460.798	452.75
461.018	452.75
461.238	455.75
461.458	463.75
461.678	451.75
461.898	486.75
462.118	453.75
462.338	472.75
462.558	475.75
462.777	491.75
462.997	467.75
463.217	499.75
463.437	517.75
463.657	506.75
463.876	500.75
464.096	482.75
464.316	476.75
464.536	485.75
464.755	484.75
464.975	490.75
465.195	505.75
465.414	525.75
465.634	469.75
465.854	459.75
466.073	449.75
466.293	397.75
466.512	409.75
466.732	413.75
466.951	439.75
467.171	440.75
467.391	413.75
467.61	447.75
467.829	417.75
468.049	420.75
468.268	429.75
468.488	418.75
468.707	417.75
468.927	413.75
469.146	406.75
469.365	401.75
469.585	423.75
469.804	426.75
470.023	421.75
470.243	428.75
470.462	398.75
470.681	429.75
470.901	434.75
471.12	425.75
471.339	406.75
471.558	426.75
471.777	408.75
471.997	426.75
472.216	416.75
472.435	438.75
472.654	449.75
472.873	429.75
473.092	403.75
473.311	405.75
473.53	423.75
473.749	417.75
473.968	468.75
474.187	561.75
474.406	536.75
474.625	482.75
474.844	441.75
475.063	416.75
475.282	420.75
475.501	419.75
475.72	424.75
475.939	443.75
476.158	432.75
476.377	426.75
476.596	424.75
476.814	426.75
477.033	437.75
477.252	457.75
477.471	461.75
477.69	450.75
477.908	449.75
478.127	445.75
478.346	467.75
478.564	482.75
478.783	478.75
479.002	475.75
479.22	493.75
479.439	473.75
479.658	501.75
479.876	509.75
480.095	501.75
480.313	518.75
480.532	531.75
480.751	526.75
480.969	522.75
481.188	568.75
481.406	602.75
481.624	547.75
481.843	504.75
482.061	489.75
482.28	484.75
482.498	476.75
482.717	480.75
482.935	486.75
483.153	491.75
483.372	488.75
483.59	497.75
483.808	490.75
484.027	489.75
484.245	499.75
484.463	483.75
484.681	499.75
484.9	513.75
485.118	492.75
485.336	483.75
485.554	509.75
485.772	511.75
485.99	500.75
486.209	511.75
486.427	513.75
486.645	532.75
486.863	525.75
487.081	502.75
487.299	511.75
487.517	512.75
487.735	523.75
487.953	508.75
488.171	523.75
488.389	529.75
488.607	511.75
488.825	520.75
489.043	537.75
489.261	529.75
489.479	516.75
489.696	523.75
489.914	536.75
490.132	515.75
490.35	545.75
490.568	553.75
490.786	536.75
491.003	550.75
491.221	551.75
491.439	569.75
491.657	586.75
491.874	572.75
492.092	574.75
492.31	575.75
492.527	583.75
492.745	606.75
492.963	571.75
493.18	604.75
493.398	581.75
493.615	610.75
493.833	596.75
494.05	614.75
494.268	611.75
494.485	611.75
494.703	603.75
494.92	608.75
495.138	585.75
495.355	601.75
495.573	602.75
495.79	604.75
496.008	601.75
496.225	613.75
496.442	623.75
496.66	600.75
496.877	569.75
497.094	611.75
497.312	618.75
497.529	613.75
497.746	638.75
497.963	667.75
498.181	663.75
498.398	698.75
498.615	688.75
498.832	711.75
499.049	723.75
499.267	745.75
499.484	770.75
499.701	795.75
499.918	844.75
500.135	882.75
500.352	913.75
500.569	939.75
500.786	925.75
501.003	915.75
501.22	900.75
501.437	847.75
501.654	785.75
501.871	800.75
502.088	742.75
502.305	707.75
502.522	710.75
502.739	711.75
502.956	683.75
503.172	640.75
503.389	648.75
503.606	640.75
503.823	611.75
504.04	658.75
504.256	633.75
504.473	617.75
504.69	617.75
504.907	653.75
505.123	602.75
505.34	611.75
505.557	586.75
505.773	571.75
505.99	582.75
506.207	581.75
506.423	579.75
506.64	569.75
506.856	569.75
507.073	548.75
507.289	566.75
507.506	561.75
507.722	543.75
507.939	561.75
508.155	564.75
508.372	554.75
508.588	538.75
508.805	531.75
509.021	543.75
509.238	565.75
509.454	557.75
509.67	550.75
509.887	524.75
510.103	518.75
510.319	540.75
510.536	578.75
510.752	832.75
510.968	703.75
511.184	541.75
511.401	539.75
511.617	497.75
511.833	515.75
512.049	526.75
512.265	509.75
512.481	511.75
512.698	525.75
512.914	497.75
513.13	503.75
513.346	499.75
513.562	501.75
513.778	494.75
513.994	496.75
514.21	503.75
514.426	507.75
514.642	544.75
514.858	525.75
515.074	583.75
515.29	640.75
515.506	838.75
515.721	709.75
515.937	589.75
516.153	533.75
516.369	536.75
516.585	532.75
516.801	546.75
517.016	514.75
517.232	524.75
517.448	549.75
517.664	550.75
517.879	545.75
518.095	547.75
518.311	540.75
518.527	522.75
518.742	544.75
518.958	510.75
519.173	526.75
519.389	525.75
519.605	511.75
519.82	517.75
520.036	491.75
520.251	523.75
520.467	520.75
520.682	529.75
520.898	548.75
521.113	518.75
521.329	557.75
521.544	608.75
521.76	691.75
521.975	1000.75
522.19	950.75
522.406	619.75
522.621	523.75
522.836	507.75
523.052	491.75
523.267	470.75
523.482	456.75
523.698	437.75
523.913	451.75
524.128	458.75
524.343	439.75
524.559	419.75
524.774	438.75
524.989	452.75
525.204	465.75
525.419	440.75
525.634	421.75
525.849	433.75
526.064	416.75
526.28	413.75
526.495	431.75
526.71	426.75
526.925	443.75
527.14	442.75
527.355	420.75
527.57	410.75
527.785	418.75
527.999	441.75
528.214	409.75
528.429	423.75
528.644	439.75
528.859	428.75
529.074	444.75
529.289	433.75
529.503	469.75
529.718	447.75
529.933	451.75
530.148	419.75
530.363	409.75
530.577	436.75
530.792	412.75
531.007	422.75
531.221	405.75
531.436	407.75
531.651	410.75
531.865	404.75
532.08	400.75
532.295	417.75
532.509	409.75
532.724	411.75
532.938	404.75
533.153	420.75
533.367	415.75
533.582	419.75
533.796	403.75
534.011	391.75
534.225	397.75
534.44	390.75
534.654	389.75
534.868	419.75
535.083	414.75
535.297	395.75
535.511	401.75
535.726	427.75
535.94	408.75
536.154	408.75
536.369	377.75
536.583	398.75
536.797	397.75
537.011	387.75
537.225	400.75
537.44	386.75
537.654	365.75
537.868	375.75
538.082	395.75
538.296	374.75
538.51	397.75
538.724	402.75
538.938	399.75
539.153	395.75
539.367	422.75
539.581	410.75
539.795	378.75
540.009	392.75
540.222	394.75
540.436	396.75
540.65	411.75
540.864	385.75
541.078	387.75
541.292	409.75
541.506	394.75
541.72	388.75
541.934	399.75
542.147	405.75
542.361	378.75
542.575	384.75
542.789	377.75
543.002	372.75
543.216	387.75
543.43	381.75
543.644	405.75
543.857	380.75
544.071	386.75
544.285	396.75
544.498	383.75
544.712	401.75
544.925	371.75
545.139	375.75
545.352	386.75
545.566	390.75
545.779	380.75
545.993	380.75
546.206	384.75
546.42	381.75
546.633	369.75
546.847	360.75
547.06	367.75
547.274	385.75
547.487	384.75
547.7	365.75
547.914	369.75
548.127	379.75
548.34	369.75
548.554	381.75
548.767	361.75
548.98	362.75
549.193	372.75
549.407	377.75
549.62	373.75
549.833	393.75
550.046	373.75
550.259	382.75
550.473	395.75
550.686	359.75
550.899	371.75
551.112	362.75
551.325	375.75
551.538	359.75
551.751	383.75
551.964	375.75
552.177	373.75
552.39	384.75
552.603	381.75
552.816	365.75
553.029	387.75
553.242	383.75
553.455	378.75
553.667	393.75
553.88	390.75
554.093	378.75
554.306	384.75
554.519	379.75
554.732	393.75
554.944	362.75
555.157	357.75
555.37	357.75
555.583	358.75
555.795	382.75
556.008	345.75
556.221	348.75
556.433	354.75
556.646	355.75
556.859	338.75
557.071	326.75
557.284	325.75
557.496	354.75
557.709	333.75
557.921	336.75
558.134	348.75
558.346	339.75
558.559	337.75
558.771	346.75
558.984	322.75
559.196	332.75
559.409	318.75
559.621	340.75
559.833	339.75
560.046	348.75
560.258	339.75
560.47	324.75
560.683	337.75
560.895	325.75
561.107	327.75
561.32	339.75
561.532	319.75
561.744	353.75
561.956	327.75
562.168	321.75
562.381	324.75
562.593	331.75
562.805	333.75
563.017	345.75
563.229	334.75
563.441	328.75
563.653	343.75
563.865	327.75
564.077	349.75
564.289	344.75
564.501	330.75
564.713	340.75
564.925	357.75
565.137	354.75
565.349	348.75
565.561	372.75
565.773	379.75
565.985	375.75
566.197	375.75
566.408	400.75
566.62	404.75
566.832	409.75
567.044	412.75
567.255	412.75
567.467	416.75
567.679	444.75
567.891	439.75
568.102	442.75
568.314	437.75
568.526	405.75
568.737	406.75
568.949	397.75
569.161	374.75
569.372	353.75
569.584	345.75
569.795	359.75
570.007	339.75
570.218	368.75
570.43	351.75
570.641	339.75
570.853	341.75
571.064	322.75
571.276	323.75
571.487	323.75
571.698	325.75
571.91	317.75
572.121	291.75
572.333	305.75
572.544	310.75
572.755	300.75
572.966	290.75
573.178	293.75
573.389	291.75
573.6	304.75
573.811	279.75
574.023	307.75
574.234	283.75
574.445	285.75
574.656	313.75
574.867	301.75
575.078	304.75
575.289	279.75
575.501	281.75
575.712	275.75
575.923	281.75
576.134	281.75
576.345	284.75
576.556	280.75
576.767	269.75
576.978	279.75
577.188	281.75
577.399	288.75
577.61	274.75
577.821	294.75
578.032	284.75
578.243	292.75
578.454	382.75
578.665	315.75
578.875	293.75
579.086	288.75
579.297	280.75
579.508	273.75
579.718	266.75
579.929	262.75
580.14	272.75
580.35	271.75
580.561	267.75
580.772	271.75
580.982	273.75
581.193	269.75
581.403	267.75
581.614	258.75
581.825	243.75
582.035	257.75
582.246	257.75
582.456	243.75
582.667	272.75
582.877	246.75
583.087	259.75
583.298	255.75
583.508	267.75
583.719	267.75
583.929	254.75
584.139	242.75
584.35	239.75
584.56	252.75
584.77	261.75
584.981	250.75
585.191	271.75
585.401	247.75
585.611	256.75
585.821	261.75
586.032	250.75
586.242	245.75
586.452	269.75
586.662	239.75
586.872	261.75
587.082	247.75
587.292	246.75
587.502	254.75
587.713	240.75
587.923	236.75
588.133	261.75
588.343	282.75
588.553	231.75
588.762	259.75
588.972	265.75
589.182	251.75
589.392	253.75
589.602	256.75
589.812	256.75
590.022	266.75
590.232	263.75
590.441	244.75
590.651	249.75
590.861	257.75
591.071	267.75
591.281	264.75
591.49	255.75
591.7	242.75
591.91	268.75
592.119	271.75
592.329	270.75
592.539	261.75
592.748	272.75
592.958	260.75
593.167	282.75
593.377	270.75
593.587	284.75
593.796	279.75
594.006	273.75
594.215	273.75
594.424	268.75
594.634	258.75
594.843	245.75
595.053	264.75
595.262	268.75
595.472	260.75
595.681	243.75
595.89	244.75
596.1	234.75
596.309	244.75
596.518	245.75
596.727	240.75
596.937	267.75
597.146	244.75
597.355	239.75
597.564	240.75
597.774	241.75
597.983	231.75
598.192	227.75
598.401	225.75
598.61	229.75
598.819	224.75
599.028	228.75
599.237	233.75
599.446	229.75
599.655	224.75
599.864	219.75
600.073	231.75
600.282	234.75
600.491	227.75
600.7	211.75
600.909	215.75
601.118	224.75
601.327	226.75
601.536	222.75
601.745	215.75
601.953	211.75
602.162	212.75
602.371	217.75
602.58	224.75
602.789	229.75
602.997	231.75
603.206	207.75
603.415	208.75
603.623	204.75
603.832	203.75
604.041	211.75
604.249	215.75
604.458	200.75
604.666	230.75
604.875	200.75
605.084	210.75
605.292	216.75
605.501	225.75
605.709	211.75
605.918	204.75
606.126	214.75
606.334	224.75
606.543	214.75
606.751	193.75
606.96	210.75
607.168	199.75
607.376	188.75
607.585	203.75
607.793	213.75
608.001	195.75
608.21	211.75
608.418	211.75
608.626	213.75
608.834	186.75
609.043	198.75
609.251	199.75
609.459	214.75
609.667	210.75
609.875	195.75
610.083	212.75
610.291	206.75
610.499	211.75
610.707	216.75
610.916	208.75
611.124	210.75
611.332	211.75
611.54	225.75
611.748	214.75
611.955	217.75
612.163	227.75
612.371	217.75
612.579	210.75
612.787	196.75
612.995	192.75
613.203	203.75
613.411	192.75
613.618	223.75
613.826	217.75
614.034	204.75
614.242	192.75
614.449	182.75
614.657	187.75
614.865	203.75
615.072	204.75
615.28	172.75
615.488	189.75
615.695	201.75
615.903	201.75
616.111	188.75
616.318	204.75
616.526	186.75
616.733	209.75
616.941	201.75
617.148	204.75
617.356	208.75
617.563	209.75
617.771	199.75
617.978	210.75
618.185	204.75
618.393	198.75
618.6	184.75
618.807	182.75
619.015	196.75
619.222	198.75
619.429	184.75
619.637	198.75
619.844	193.75
620.051	223.75
620.258	197.75
620.466	188.75
620.673	199.75
620.88	207.75
621.087	188.75
621.294	194.75
621.501	198.75
621.708	186.75
621.915	191.75
622.122	197.75
622.329	200.75
622.536	179.75
622.743	199.75
622.95	196.75
623.157	194.75
623.364	201.75
623.571	188.75
623.778	184.75
623.985	173.75
624.192	182.75
624.399	181.75
624.606	185.75
624.812	184.75
625.019	172.75
625.226	191.75
625.433	191.75
625.639	187.75
625.846	192.75
626.053	177.75
626.259	183.75
626.466	178.75
626.673	171.75
626.879	186.75
627.086	181.75
627.293	186.75
627.499	180.75
627.706	179.75
627.912	168.75
628.119	177.75
628.325	185.75
628.532	181.75
628.738	173.75
628.945	162.75
629.151	167.75
629.357	173.75
629.564	169.75
629.77	184.75
629.976	184.75
630.183	163.75
630.389	164.75
630.595	172.75
630.802	157.75
631.008	177.75
631.214	191.75
631.42	181.75
631.627	181.75
631.833	172.75
632.039	164.75
632.245	167.75
632.451	172.75
632.657	168.75
632.863	161.75
633.069	166.75
633.275	165.75
633.481	147.75
633.688	172.75
633.893	184.75
634.099	158.75
634.305	149.75
634.511	175.75
634.717	171.75
634.923	187.75
635.129	180.75
635.335	164.75
635.541	155.75
635.747	161.75
635.952	144.75
636.158	162.75
636.364	180.75
636.57	178.75
636.775	150.75
636.981	157.75
637.187	151.75
637.392	147.75
637.598	152.75
637.804	162.75
638.009	155.75
638.215	157.75
638.421	168.75
638.626	156.75
638.832	151.75
639.037	143.75
639.243	145.75
639.448	137.75
639.654	154.75
639.859	151.75
640.065	173.75
640.27	152.75
640.475	156.75
640.681	154.75
640.886	154.75
641.091	162.75
641.297	145.75
641.502	133.75
641.707	159.75
641.913	169.75
642.118	132.75
642.323	147.75
642.528	151.75
642.733	145.75
642.939	150.75
643.144	165.75
643.349	166.75
643.554	139.75
643.759	151.75
643.964	160.75
644.169	154.75
644.374	155.75
644.579	154.75
644.784	151.75
644.989	137.75
645.194	154.75
645.399	155.75
645.604	141.75
645.809	142.75
646.014	134.75
646.219	139.75
646.423	135.75
646.628	151.75
646.833	153.75
647.038	145.75
647.243	140.75
647.447	151.75
647.652	147.75
647.857	148.75
648.062	147.75
648.266	151.75
648.471	144.75
648.676	153.75
648.88	156.75
649.085	160.75
649.289	153.75
649.494	147.75
649.698	160.75
649.903	157.75
650.107	157.75
650.312	146.75
650.516	147.75
650.721	136.75
650.925	149.75
651.13	141.75
651.334	124.75
651.539	135.75
651.743	123.75
651.947	136.75
652.152	134.75
652.356	123.75
652.56	122.75
652.764	137.75
652.969	134.75
653.173	124.75
653.377	142.75
653.581	121.75
653.785	129.75
653.99	133.75
654.194	126.75
654.398	127.75
654.602	127.75
654.806	139.75
655.01	132.75
655.214	133.75
655.418	119.75
655.622	111.75
655.826	128.75
656.03	151.75
656.234	138.75
656.438	137.75
656.642	135.75
656.846	131.75
657.049	122.75
657.253	123.75
657.457	128.75
657.661	138.75
657.865	100.75
658.068	99.75
658.272	111.75
658.476	103.75
658.68	112.75
658.883	87.75
659.087	87.75
659.291	104.75
659.494	101.75
659.698	99.75
659.901	94.75
660.105	85.75
660.309	102.75
660.512	86.75
660.716	93.75
660.919	89.75
661.123	92.75
661.326	95.75
661.53	90.75
661.733	85.75
661.936	83.75
662.14	88.75
662.343	90.75
662.546	79.75
662.75	95.75
662.953	80.75
663.156	81.75
663.36	86.75
663.563	83.75
663.766	87.75
663.969	90.75
664.173	95.75
664.376	93.75
664.579	84.75
664.782	79.75
664.985	90.75
665.188	67.75
665.391	71.75
665.594	87.75
665.797	88.75
666	80.75
666.203	77.75
666.406	75.75
666.609	87.75
666.812	77.75
667.015	76.75
667.218	88.75
667.421	84.75
667.624	79.75
667.827	83.75
668.03	97.75
668.232	85.75
668.435	86.75
668.638	81.75
668.841	71.75
669.043	79.75
669.246	72.75
669.449	83.75
669.651	91.75
669.854	77.75
670.057	84.75
670.259	86.75
670.462	75.75
670.665	77.75
670.867	84.75
671.07	88.75
671.272	74.75
671.475	82.75
671.677	70.75
671.88	76.75
672.082	76.75
672.284	80.75
672.487	83.75
672.689	82.75
672.892	85.75
