Data from 1964.PennyLincolnUp.Lamp.En5.5.200Scan.071719.P1._HRD10591_14-05-26-909.txt Node
Date: Thu Jul 18 14:05:26 EDT 2019
User: cochatt
Spectrometer: HR+D1059
Trigger mode: 1
Integration Time (sec): 1.000000E-1
Scans to average: 1
Electric dark correction enabled: true
Nonlinearity correction enabled: false
Boxcar width: 0
XAxis mode: Wavelengths
Number of Pixels in Spectrum: 2048
>>>>>Begin Spectral Data<<<<<
223.165	-21.19
223.4	-21.19
223.635	-21.19
223.869	-21.19
224.104	-16.19
224.338	-21.19
224.573	-11.19
224.808	-17.19
225.042	-11.19
225.277	-3.19
225.511	-3.19
225.746	11.81
225.98	5.81
226.215	15.81
226.449	24.81
226.683	25.81
226.918	18.81
227.152	22.81
227.387	28.81
227.621	51.81
227.856	35.81
228.09	43.81
228.324	55.81
228.559	42.81
228.793	60.81
229.027	93.81
229.262	114.81
229.496	107.81
229.73	106.81
229.964	128.81
230.199	112.81
230.433	110.81
230.667	91.81
230.901	106.81
231.136	112.81
231.37	103.81
231.604	107.81
231.838	120.81
232.072	110.81
232.306	114.81
232.541	110.81
232.775	114.81
233.009	111.81
233.243	138.81
233.477	127.81
233.711	120.81
233.945	125.81
234.179	116.81
234.413	116.81
234.647	111.81
234.881	109.81
235.115	119.81
235.349	118.81
235.583	115.81
235.817	114.81
236.051	112.81
236.285	124.81
236.519	119.81
236.753	123.81
236.987	135.81
237.221	173.81
237.455	194.81
237.689	172.81
237.922	138.81
238.156	124.81
238.39	123.81
238.624	126.81
238.858	128.81
239.091	111.81
239.325	138.81
239.559	120.81
239.793	124.81
240.027	130.81
240.26	134.81
240.494	164.81
240.728	136.81
240.961	142.81
241.195	143.81
241.429	133.81
241.662	126.81
241.896	144.81
242.13	135.81
242.363	139.81
242.597	137.81
242.83	132.81
243.064	129.81
243.298	126.81
243.531	140.81
243.765	138.81
243.998	135.81
244.232	140.81
244.465	155.81
244.699	143.81
244.932	152.81
245.166	149.81
245.399	154.81
245.633	143.81
245.866	143.81
246.099	162.81
246.333	159.81
246.566	149.81
246.8	156.81
247.033	142.81
247.266	154.81
247.5	157.81
247.733	156.81
247.966	172.81
248.2	173.81
248.433	179.81
248.666	174.81
248.899	170.81
249.133	195.81
249.366	204.81
249.599	190.81
249.832	158.81
250.066	180.81
250.299	186.81
250.532	193.81
250.765	208.81
250.998	214.81
251.231	222.81
251.465	194.81
251.698	205.81
251.931	200.81
252.164	209.81
252.397	185.81
252.63	193.81
252.863	188.81
253.096	222.81
253.329	228.81
253.562	235.81
253.795	229.81
254.028	215.81
254.261	228.81
254.494	234.81
254.727	254.81
254.96	270.81
255.193	255.81
255.426	237.81
255.659	248.81
255.892	207.81
256.124	240.81
256.357	252.81
256.59	216.81
256.823	232.81
257.056	224.81
257.289	211.81
257.521	227.81
257.754	206.81
257.987	219.81
258.22	216.81
258.452	194.81
258.685	205.81
258.918	223.81
259.151	209.81
259.383	225.81
259.616	230.81
259.849	222.81
260.081	230.81
260.314	268.81
260.547	258.81
260.779	255.81
261.012	241.81
261.244	228.81
261.477	235.81
261.71	225.81
261.942	240.81
262.175	239.81
262.407	234.81
262.64	221.81
262.872	226.81
263.105	234.81
263.337	233.81
263.57	216.81
263.802	220.81
264.035	237.81
264.267	245.81
264.499	230.81
264.732	229.81
264.964	231.81
265.197	225.81
265.429	230.81
265.661	240.81
265.894	247.81
266.126	224.81
266.358	237.81
266.591	238.81
266.823	234.81
267.055	237.81
267.287	235.81
267.52	242.81
267.752	245.81
267.984	243.81
268.216	242.81
268.448	244.81
268.681	252.81
268.913	257.81
269.145	288.81
269.377	278.81
269.609	279.81
269.841	282.81
270.073	274.81
270.306	296.81
270.538	331.81
270.77	301.81
271.002	306.81
271.234	287.81
271.466	290.81
271.698	299.81
271.93	310.81
272.162	335.81
272.394	308.81
272.626	322.81
272.858	291.81
273.09	304.81
273.322	287.81
273.553	284.81
273.785	277.81
274.017	260.81
274.249	284.81
274.481	300.81
274.713	269.81
274.945	292.81
275.176	273.81
275.408	288.81
275.64	278.81
275.872	298.81
276.104	291.81
276.335	279.81
276.567	286.81
276.799	297.81
277.031	310.81
277.262	326.81
277.494	315.81
277.726	306.81
277.957	296.81
278.189	286.81
278.421	308.81
278.652	297.81
278.884	280.81
279.115	286.81
279.347	287.81
279.579	290.81
279.81	297.81
280.042	303.81
280.273	287.81
280.505	294.81
280.736	306.81
280.968	309.81
281.199	295.81
281.431	295.81
281.662	300.81
281.894	310.81
282.125	284.81
282.356	295.81
282.588	294.81
282.819	321.81
283.051	300.81
283.282	296.81
283.513	323.81
283.745	320.81
283.976	301.81
284.207	316.81
284.439	326.81
284.67	320.81
284.901	316.81
285.132	329.81
285.364	297.81
285.595	311.81
285.826	313.81
286.057	330.81
286.288	322.81
286.52	311.81
286.751	327.81
286.982	309.81
287.213	299.81
287.444	302.81
287.675	321.81
287.906	336.81
288.138	329.81
288.369	336.81
288.6	340.81
288.831	335.81
289.062	308.81
289.293	319.81
289.524	325.81
289.755	318.81
289.986	328.81
290.217	328.81
290.448	344.81
290.679	331.81
290.91	322.81
291.141	316.81
291.371	328.81
291.602	313.81
291.833	311.81
292.064	315.81
292.295	335.81
292.526	324.81
292.757	328.81
292.987	346.81
293.218	313.81
293.449	324.81
293.68	348.81
293.91	340.81
294.141	333.81
294.372	326.81
294.603	308.81
294.833	328.81
295.064	328.81
295.295	328.81
295.525	356.81
295.756	331.81
295.987	322.81
296.217	359.81
296.448	343.81
296.679	341.81
296.909	335.81
297.14	340.81
297.37	323.81
297.601	343.81
297.831	341.81
298.062	333.81
298.292	320.81
298.523	351.81
298.753	323.81
298.984	346.81
299.214	340.81
299.445	342.81
299.675	371.81
299.905	373.81
300.136	347.81
300.366	350.81
300.597	348.81
300.827	362.81
301.057	365.81
301.288	366.81
301.518	363.81
301.748	363.81
301.979	341.81
302.209	370.81
302.439	370.81
302.669	364.81
302.9	376.81
303.13	364.81
303.36	363.81
303.59	374.81
303.82	376.81
304.051	373.81
304.281	363.81
304.511	374.81
304.741	370.81
304.971	377.81
305.201	374.81
305.431	374.81
305.661	375.81
305.891	384.81
306.121	375.81
306.352	387.81
306.582	348.81
306.812	372.81
307.042	362.81
307.272	375.81
307.502	386.81
307.731	359.81
307.961	373.81
308.191	370.81
308.421	377.81
308.651	381.81
308.881	390.81
309.111	392.81
309.341	379.81
309.571	367.81
309.8	375.81
310.03	378.81
310.26	390.81
310.49	387.81
310.72	406.81
310.949	404.81
311.179	419.81
311.409	384.81
311.639	411.81
311.868	407.81
312.098	392.81
312.328	412.81
312.557	414.81
312.787	409.81
313.017	422.81
313.246	414.81
313.476	401.81
313.706	383.81
313.935	421.81
314.165	432.81
314.394	413.81
314.624	418.81
314.853	411.81
315.083	403.81
315.312	403.81
315.542	412.81
315.771	399.81
316.001	395.81
316.23	400.81
316.46	391.81
316.689	410.81
316.919	400.81
317.148	424.81
317.377	416.81
317.607	402.81
317.836	438.81
318.065	406.81
318.295	413.81
318.524	419.81
318.753	407.81
318.983	411.81
319.212	403.81
319.441	417.81
319.67	405.81
319.9	422.81
320.129	414.81
320.358	416.81
320.587	424.81
320.816	422.81
321.046	422.81
321.275	440.81
321.504	436.81
321.733	423.81
321.962	426.81
322.191	445.81
322.42	436.81
322.649	463.81
322.878	458.81
323.108	452.81
323.337	468.81
323.566	475.81
323.795	480.81
324.024	526.81
324.253	590.81
324.482	811.81
324.71	1215.81
324.939	1659.81
325.168	1378.81
325.397	755.81
325.626	572.81
325.855	503.81
326.084	486.81
326.313	491.81
326.542	478.81
326.77	536.81
326.999	606.81
327.228	775.81
327.457	1078.81
327.686	1248.81
327.914	841.81
328.143	630.81
328.372	578.81
328.6	537.81
328.829	515.81
329.058	519.81
329.287	535.81
329.515	524.81
329.744	511.81
329.972	514.81
330.201	516.81
330.43	558.81
330.658	554.81
330.887	557.81
331.115	536.81
331.344	523.81
331.572	483.81
331.801	483.81
332.03	492.81
332.258	485.81
332.486	475.81
332.715	479.81
332.943	476.81
333.172	501.81
333.4	494.81
333.629	516.81
333.857	504.81
334.085	535.81
334.314	530.81
334.542	556.81
334.771	565.81
334.999	534.81
335.227	526.81
335.455	487.81
335.684	497.81
335.912	478.81
336.14	487.81
336.369	492.81
336.597	503.81
336.825	477.81
337.053	484.81
337.281	444.81
337.51	460.81
337.738	461.81
337.966	457.81
338.194	469.81
338.422	462.81
338.65	450.81
338.878	450.81
339.106	469.81
339.334	467.81
339.562	446.81
339.79	463.81
340.018	457.81
340.246	472.81
340.474	469.81
340.702	437.81
340.93	453.81
341.158	456.81
341.386	465.81
341.614	453.81
341.842	454.81
342.07	476.81
342.298	425.81
342.526	430.81
342.754	443.81
342.981	420.81
343.209	456.81
343.437	453.81
343.665	426.81
343.893	454.81
344.12	474.81
344.348	475.81
344.576	470.81
344.804	472.81
345.031	468.81
345.259	463.81
345.487	467.81
345.714	464.81
345.942	447.81
346.17	446.81
346.397	436.81
346.625	428.81
346.853	426.81
347.08	415.81
347.308	422.81
347.535	434.81
347.763	474.81
347.99	438.81
348.218	426.81
348.445	412.81
348.673	424.81
348.9	420.81
349.128	401.81
349.355	435.81
349.583	434.81
349.81	423.81
350.037	418.81
350.265	418.81
350.492	418.81
350.72	421.81
350.947	421.81
351.174	429.81
351.402	434.81
351.629	412.81
351.856	429.81
352.083	433.81
352.311	448.81
352.538	434.81
352.765	436.81
352.992	424.81
353.22	426.81
353.447	411.81
353.674	398.81
353.901	417.81
354.128	406.81
354.355	390.81
354.583	406.81
354.81	427.81
355.037	390.81
355.264	407.81
355.491	394.81
355.718	422.81
355.945	393.81
356.172	403.81
356.399	398.81
356.626	400.81
356.853	390.81
357.08	389.81
357.307	392.81
357.534	417.81
357.761	396.81
357.988	404.81
358.215	397.81
358.441	404.81
358.668	408.81
358.895	387.81
359.122	421.81
359.349	415.81
359.576	428.81
359.802	419.81
360.029	425.81
360.256	443.81
360.483	442.81
360.709	422.81
360.936	418.81
361.163	430.81
361.39	420.81
361.616	410.81
361.843	406.81
362.07	411.81
362.296	422.81
362.523	404.81
362.749	407.81
362.976	412.81
363.203	398.81
363.429	410.81
363.656	388.81
363.882	398.81
364.109	393.81
364.335	409.81
364.562	407.81
364.788	396.81
365.015	383.81
365.241	404.81
365.468	404.81
365.694	407.81
365.92	387.81
366.147	416.81
366.373	383.81
366.599	396.81
366.826	407.81
367.052	395.81
367.278	382.81
367.505	403.81
367.731	430.81
367.957	406.81
368.184	409.81
368.41	414.81
368.636	417.81
368.862	410.81
369.089	382.81
369.315	393.81
369.541	410.81
369.767	419.81
369.993	391.81
370.219	400.81
370.445	402.81
370.672	394.81
370.898	389.81
371.124	424.81
371.35	399.81
371.576	424.81
371.802	396.81
372.028	388.81
372.254	394.81
372.48	406.81
372.706	398.81
372.932	416.81
373.158	419.81
373.384	405.81
373.61	397.81
373.835	414.81
374.061	400.81
374.287	418.81
374.513	410.81
374.739	425.81
374.965	429.81
375.191	419.81
375.416	424.81
375.642	392.81
375.868	401.81
376.094	386.81
376.319	408.81
376.545	394.81
376.771	394.81
376.997	403.81
377.222	410.81
377.448	384.81
377.674	388.81
377.899	404.81
378.125	407.81
378.35	400.81
378.576	382.81
378.802	381.81
379.027	386.81
379.253	394.81
379.478	405.81
379.704	404.81
379.929	388.81
380.155	389.81
380.38	404.81
380.606	402.81
380.831	399.81
381.057	411.81
381.282	410.81
381.507	405.81
381.733	391.81
381.958	416.81
382.184	419.81
382.409	415.81
382.634	405.81
382.86	406.81
383.085	394.81
383.31	417.81
383.535	426.81
383.761	397.81
383.986	412.81
384.211	408.81
384.436	408.81
384.662	407.81
384.887	409.81
385.112	440.81
385.337	427.81
385.562	431.81
385.787	425.81
386.013	446.81
386.238	437.81
386.463	415.81
386.688	431.81
386.913	424.81
387.138	412.81
387.363	457.81
387.588	434.81
387.813	413.81
388.038	423.81
388.263	429.81
388.488	442.81
388.713	445.81
388.938	430.81
389.163	440.81
389.387	434.81
389.612	421.81
389.837	445.81
390.062	427.81
390.287	438.81
390.512	430.81
390.736	436.81
390.961	426.81
391.186	445.81
391.411	454.81
391.636	429.81
391.86	445.81
392.085	437.81
392.31	455.81
392.534	451.81
392.759	452.81
392.984	453.81
393.208	402.81
393.433	433.81
393.658	451.81
393.882	420.81
394.107	429.81
394.331	441.81
394.556	430.81
394.78	436.81
395.005	449.81
395.229	441.81
395.454	445.81
395.678	440.81
395.903	462.81
396.127	458.81
396.352	490.81
396.576	439.81
396.801	454.81
397.025	433.81
397.249	452.81
397.474	448.81
397.698	475.81
397.922	471.81
398.147	477.81
398.371	500.81
398.595	498.81
398.82	499.81
399.044	546.81
399.268	525.81
399.492	557.81
399.717	586.81
399.941	595.81
400.165	617.81
400.389	615.81
400.613	549.81
400.837	543.81
401.062	513.81
401.286	477.81
401.51	485.81
401.734	502.81
401.958	478.81
402.182	470.81
402.406	477.81
402.63	492.81
402.854	508.81
403.078	484.81
403.302	496.81
403.526	514.81
403.75	524.81
403.974	519.81
404.198	514.81
404.422	525.81
404.645	505.81
404.869	517.81
405.093	541.81
405.317	582.81
405.541	589.81
405.765	554.81
405.988	527.81
406.212	525.81
406.436	533.81
406.66	541.81
406.883	550.81
407.107	559.81
407.331	586.81
407.555	646.81
407.778	638.81
408.002	582.81
408.226	568.81
408.449	539.81
408.673	544.81
408.896	565.81
409.12	602.81
409.344	568.81
409.567	528.81
409.791	523.81
410.014	519.81
410.238	501.81
410.461	514.81
410.685	499.81
410.908	524.81
411.132	513.81
411.355	570.81
411.578	538.81
411.802	512.81
412.025	525.81
412.249	534.81
412.472	505.81
412.695	546.81
412.919	563.81
413.142	494.81
413.365	480.81
413.589	503.81
413.812	481.81
414.035	461.81
414.258	475.81
414.482	463.81
414.705	486.81
414.928	454.81
415.151	484.81
415.374	457.81
415.597	454.81
415.821	443.81
416.044	466.81
416.267	473.81
416.49	464.81
416.713	487.81
416.936	479.81
417.159	478.81
417.382	462.81
417.605	488.81
417.828	474.81
418.051	477.81
418.274	470.81
418.497	485.81
418.72	460.81
418.943	471.81
419.166	478.81
419.389	522.81
419.611	510.81
419.834	492.81
420.057	500.81
420.28	476.81
420.503	470.81
420.726	484.81
420.948	489.81
421.171	524.81
421.394	543.81
421.617	490.81
421.839	452.81
422.062	488.81
422.285	483.81
422.507	556.81
422.73	587.81
422.953	582.81
423.175	516.81
423.398	483.81
423.621	484.81
423.843	524.81
424.066	532.81
424.288	494.81
424.511	538.81
424.733	571.81
424.956	659.81
425.178	580.81
425.401	591.81
425.623	594.81
425.846	509.81
426.068	486.81
426.291	485.81
426.513	488.81
426.735	507.81
426.958	548.81
427.18	611.81
427.402	691.81
427.625	735.81
427.847	639.81
428.069	587.81
428.292	514.81
428.514	456.81
428.736	463.81
428.958	472.81
429.181	448.81
429.403	465.81
429.625	466.81
429.847	499.81
430.069	556.81
430.292	536.81
430.514	470.81
430.736	463.81
430.958	438.81
431.18	450.81
431.402	445.81
431.624	452.81
431.846	432.81
432.068	463.81
432.29	447.81
432.512	445.81
432.734	459.81
432.956	444.81
433.178	486.81
433.4	451.81
433.622	459.81
433.844	461.81
434.066	461.81
434.287	428.81
434.509	466.81
434.731	474.81
434.953	483.81
435.175	484.81
435.397	506.81
435.618	502.81
435.84	536.81
436.062	592.81
436.284	649.81
436.505	533.81
436.727	512.81
436.949	462.81
437.17	470.81
437.392	451.81
437.614	473.81
437.835	471.81
438.057	530.81
438.278	640.81
438.5	628.81
438.721	674.81
438.943	664.81
439.165	543.81
439.386	502.81
439.608	500.81
439.829	483.81
440.05	509.81
440.272	541.81
440.493	507.81
440.715	481.81
440.936	468.81
441.158	460.81
441.379	467.81
441.6	482.81
441.822	494.81
442.043	540.81
442.264	589.81
442.486	620.81
442.707	538.81
442.928	491.81
443.149	505.81
443.371	518.81
443.592	566.81
443.813	626.81
444.034	689.81
444.255	572.81
444.476	534.81
444.698	512.81
444.919	495.81
445.14	595.81
445.361	543.81
445.582	523.81
445.803	556.81
446.024	627.81
446.245	654.81
446.466	577.81
446.687	518.81
446.908	500.81
447.129	469.81
447.35	450.81
447.571	471.81
447.792	430.81
448.013	466.81
448.234	454.81
448.455	500.81
448.675	588.81
448.896	664.81
449.117	591.81
449.338	532.81
449.559	630.81
449.779	690.81
450	583.81
450.221	494.81
450.442	442.81
450.662	425.81
450.883	440.81
451.104	446.81
451.324	415.81
451.545	426.81
451.766	402.81
451.986	410.81
452.207	394.81
452.428	397.81
452.648	418.81
452.869	386.81
453.089	420.81
453.31	446.81
453.53	397.81
453.751	410.81
453.971	421.81
454.192	404.81
454.412	409.81
454.633	386.81
454.853	402.81
455.073	393.81
455.294	419.81
455.514	461.81
455.734	464.81
455.955	418.81
456.175	389.81
456.395	392.81
456.616	383.81
456.836	404.81
457.056	378.81
457.276	369.81
457.497	383.81
457.717	383.81
457.937	394.81
458.157	411.81
458.377	376.81
458.598	398.81
458.818	454.81
459.038	485.81
459.258	514.81
459.478	458.81
459.698	430.81
459.918	452.81
460.138	422.81
460.358	439.81
460.578	442.81
460.798	456.81
461.018	454.81
461.238	447.81
461.458	453.81
461.678	444.81
461.898	459.81
462.118	450.81
462.338	476.81
462.558	472.81
462.777	477.81
462.997	483.81
463.217	506.81
463.437	492.81
463.657	493.81
463.876	496.81
464.096	484.81
464.316	490.81
464.536	491.81
464.755	487.81
464.975	493.81
465.195	515.81
465.414	534.81
465.634	484.81
465.854	435.81
466.073	441.81
466.293	423.81
466.512	425.81
466.732	417.81
466.951	401.81
467.171	407.81
467.391	412.81
467.61	416.81
467.829	407.81
468.049	425.81
468.268	416.81
468.488	414.81
468.707	408.81
468.927	399.81
469.146	420.81
469.365	411.81
469.585	416.81
469.804	427.81
470.023	428.81
470.243	424.81
470.462	456.81
470.681	436.81
470.901	441.81
471.12	427.81
471.339	420.81
471.558	434.81
471.777	445.81
471.997	431.81
472.216	406.81
472.435	441.81
472.654	414.81
472.873	420.81
473.092	417.81
473.311	421.81
473.53	424.81
473.749	421.81
473.968	446.81
474.187	536.81
474.406	539.81
474.625	451.81
474.844	425.81
475.063	421.81
475.282	444.81
475.501	441.81
475.72	428.81
475.939	438.81
476.158	400.81
476.377	423.81
476.596	424.81
476.814	456.81
477.033	452.81
477.252	432.81
477.471	463.81
477.69	454.81
477.908	463.81
478.127	464.81
478.346	469.81
478.564	467.81
478.783	473.81
479.002	470.81
479.22	468.81
479.439	484.81
479.658	490.81
479.876	520.81
480.095	492.81
480.313	520.81
480.532	508.81
480.751	498.81
480.969	523.81
481.188	570.81
481.406	577.81
481.624	547.81
481.843	485.81
482.061	485.81
482.28	499.81
482.498	463.81
482.717	480.81
482.935	486.81
483.153	459.81
483.372	470.81
483.59	484.81
483.808	465.81
484.027	452.81
484.245	470.81
484.463	477.81
484.681	510.81
484.9	470.81
485.118	497.81
485.336	484.81
485.554	489.81
485.772	508.81
485.99	499.81
486.209	504.81
486.427	506.81
486.645	495.81
486.863	530.81
487.081	503.81
487.299	505.81
487.517	506.81
487.735	520.81
487.953	504.81
488.171	506.81
488.389	507.81
488.607	517.81
488.825	514.81
489.043	503.81
489.261	523.81
489.479	539.81
489.696	499.81
489.914	502.81
490.132	526.81
490.35	522.81
490.568	514.81
490.786	524.81
491.003	549.81
491.221	558.81
491.439	550.81
491.657	549.81
491.874	575.81
492.092	587.81
492.31	570.81
492.527	557.81
492.745	589.81
492.963	582.81
493.18	585.81
493.398	591.81
493.615	582.81
493.833	597.81
494.05	586.81
494.268	591.81
494.485	578.81
494.703	571.81
494.92	588.81
495.138	608.81
495.355	586.81
495.573	606.81
495.79	602.81
496.008	600.81
496.225	583.81
496.442	607.81
496.66	617.81
496.877	585.81
497.094	610.81
497.312	600.81
497.529	623.81
497.746	623.81
497.963	633.81
498.181	642.81
498.398	663.81
498.615	672.81
498.832	706.81
499.049	734.81
499.267	726.81
499.484	773.81
499.701	796.81
499.918	847.81
500.135	871.81
500.352	907.81
500.569	933.81
500.786	959.81
501.003	925.81
501.22	886.81
501.437	847.81
501.654	815.81
501.871	810.81
502.088	748.81
502.305	739.81
502.522	703.81
502.739	666.81
502.956	644.81
503.172	645.81
503.389	618.81
503.606	647.81
503.823	618.81
504.04	636.81
504.256	599.81
504.473	605.81
504.69	583.81
504.907	618.81
505.123	612.81
505.34	573.81
505.557	591.81
505.773	599.81
505.99	566.81
506.207	572.81
506.423	573.81
506.64	555.81
506.856	559.81
507.073	533.81
507.289	558.81
507.506	562.81
507.722	557.81
507.939	553.81
508.155	523.81
508.372	514.81
508.588	528.81
508.805	527.81
509.021	535.81
509.238	554.81
509.454	542.81
509.67	538.81
509.887	523.81
510.103	514.81
510.319	537.81
510.536	589.81
510.752	760.81
510.968	657.81
511.184	523.81
511.401	487.81
511.617	496.81
511.833	503.81
512.049	502.81
512.265	507.81
512.481	493.81
512.698	502.81
512.914	492.81
513.13	501.81
513.346	503.81
513.562	502.81
513.778	499.81
513.994	494.81
514.21	522.81
514.426	515.81
514.642	522.81
514.858	533.81
515.074	547.81
515.29	615.81
515.506	772.81
515.721	686.81
515.937	562.81
516.153	538.81
516.369	504.81
516.585	527.81
516.801	525.81
517.016	500.81
517.232	552.81
517.448	521.81
517.664	540.81
517.879	514.81
518.095	540.81
518.311	548.81
518.527	536.81
518.742	535.81
518.958	507.81
519.173	511.81
519.389	514.81
519.605	514.81
519.82	498.81
520.036	509.81
520.251	505.81
520.467	525.81
520.682	504.81
520.898	498.81
521.113	552.81
521.329	543.81
521.544	574.81
521.76	651.81
521.975	964.81
522.19	877.81
522.406	611.81
522.621	530.81
522.836	487.81
523.052	474.81
523.267	471.81
523.482	461.81
523.698	456.81
523.913	465.81
524.128	452.81
524.343	459.81
524.559	438.81
524.774	430.81
524.989	440.81
525.204	433.81
525.419	445.81
525.634	438.81
525.849	427.81
526.064	428.81
526.28	410.81
526.495	414.81
526.71	421.81
526.925	422.81
527.14	395.81
527.355	417.81
527.57	428.81
527.785	409.81
527.999	427.81
528.214	400.81
528.429	408.81
528.644	414.81
528.859	414.81
529.074	405.81
529.289	443.81
529.503	463.81
529.718	435.81
529.933	428.81
530.148	415.81
530.363	413.81
530.577	420.81
530.792	419.81
531.007	393.81
531.221	414.81
531.436	405.81
531.651	421.81
531.865	425.81
532.08	408.81
532.295	424.81
532.509	403.81
532.724	402.81
532.938	396.81
533.153	405.81
533.367	404.81
533.582	405.81
533.796	412.81
534.011	399.81
534.225	414.81
534.44	395.81
534.654	414.81
534.868	412.81
535.083	392.81
535.297	395.81
535.511	411.81
535.726	401.81
535.94	403.81
536.154	400.81
536.369	385.81
536.583	391.81
536.797	390.81
537.011	387.81
537.225	386.81
537.44	386.81
537.654	391.81
537.868	390.81
538.082	379.81
538.296	382.81
538.51	368.81
538.724	390.81
538.938	380.81
539.153	383.81
539.367	409.81
539.581	405.81
539.795	383.81
540.009	412.81
540.222	393.81
540.436	374.81
540.65	376.81
540.864	381.81
541.078	394.81
541.292	386.81
541.506	379.81
541.72	359.81
541.934	397.81
542.147	382.81
542.361	383.81
542.575	376.81
542.789	378.81
543.002	368.81
543.216	365.81
543.43	378.81
543.644	398.81
543.857	385.81
544.071	382.81
544.285	386.81
544.498	387.81
544.712	383.81
544.925	360.81
545.139	376.81
545.352	395.81
545.566	374.81
545.779	368.81
545.993	386.81
546.206	386.81
546.42	378.81
546.633	378.81
546.847	385.81
547.06	379.81
547.274	363.81
547.487	384.81
547.7	390.81
547.914	368.81
548.127	375.81
548.34	375.81
548.554	383.81
548.767	367.81
548.98	374.81
549.193	392.81
549.407	373.81
549.62	391.81
549.833	368.81
550.046	376.81
550.259	357.81
550.473	368.81
550.686	361.81
550.899	381.81
551.112	365.81
551.325	383.81
551.538	372.81
551.751	376.81
551.964	353.81
552.177	374.81
552.39	352.81
552.603	392.81
552.816	379.81
553.029	378.81
553.242	387.81
553.455	386.81
553.667	384.81
553.88	383.81
554.093	378.81
554.306	374.81
554.519	371.81
554.732	358.81
554.944	357.81
555.157	352.81
555.37	347.81
555.583	375.81
555.795	356.81
556.008	358.81
556.221	357.81
556.433	356.81
556.646	333.81
556.859	349.81
557.071	338.81
557.284	340.81
557.496	332.81
557.709	335.81
557.921	338.81
558.134	322.81
558.346	326.81
558.559	330.81
558.771	312.81
558.984	343.81
559.196	340.81
559.409	338.81
559.621	309.81
559.833	318.81
560.046	332.81
560.258	330.81
560.47	312.81
560.683	335.81
560.895	320.81
561.107	326.81
561.32	316.81
561.532	338.81
561.744	319.81
561.956	314.81
562.168	331.81
562.381	333.81
562.593	313.81
562.805	349.81
563.017	338.81
563.229	327.81
563.441	336.81
563.653	339.81
563.865	339.81
564.077	349.81
564.289	355.81
564.501	330.81
564.713	340.81
564.925	350.81
565.137	353.81
565.349	364.81
565.561	349.81
565.773	378.81
565.985	372.81
566.197	388.81
566.408	401.81
566.62	400.81
566.832	420.81
567.044	427.81
567.255	446.81
567.467	444.81
567.679	434.81
567.891	442.81
568.102	464.81
568.314	427.81
568.526	426.81
568.737	392.81
568.949	380.81
569.161	376.81
569.372	352.81
569.584	356.81
569.795	334.81
570.007	357.81
570.218	355.81
570.43	358.81
570.641	318.81
570.853	316.81
571.064	323.81
571.276	333.81
571.487	329.81
571.698	332.81
571.91	312.81
572.121	325.81
572.333	297.81
572.544	308.81
572.755	319.81
572.966	316.81
573.178	306.81
573.389	290.81
573.6	294.81
573.811	316.81
574.023	276.81
574.234	311.81
574.445	274.81
574.656	289.81
574.867	280.81
575.078	272.81
575.289	292.81
575.501	298.81
575.712	286.81
575.923	288.81
576.134	291.81
576.345	294.81
576.556	282.81
576.767	273.81
576.978	285.81
577.188	282.81
577.399	281.81
577.61	269.81
577.821	270.81
578.032	279.81
578.243	316.81
578.454	382.81
578.665	337.81
578.875	292.81
579.086	285.81
579.297	283.81
579.508	254.81
579.718	264.81
579.929	270.81
580.14	259.81
580.35	267.81
580.561	261.81
580.772	261.81
580.982	255.81
581.193	268.81
581.403	275.81
581.614	256.81
581.825	255.81
582.035	257.81
582.246	254.81
582.456	248.81
582.667	263.81
582.877	239.81
583.087	272.81
583.298	266.81
583.508	245.81
583.719	261.81
583.929	267.81
584.139	264.81
584.35	265.81
584.56	270.81
584.77	261.81
584.981	255.81
585.191	262.81
585.401	272.81
585.611	245.81
585.821	260.81
586.032	237.81
586.242	249.81
586.452	255.81
586.662	244.81
586.872	258.81
587.082	254.81
587.292	268.81
587.502	247.81
587.713	259.81
587.923	252.81
588.133	256.81
588.343	250.81
588.553	238.81
588.762	262.81
588.972	253.81
589.182	249.81
589.392	264.81
589.602	258.81
589.812	260.81
590.022	262.81
590.232	263.81
590.441	255.81
590.651	266.81
590.861	248.81
591.071	258.81
591.281	256.81
591.49	254.81
591.7	250.81
591.91	266.81
592.119	269.81
592.329	265.81
592.539	263.81
592.748	251.81
592.958	265.81
593.167	280.81
593.377	266.81
593.587	294.81
593.796	266.81
594.006	278.81
594.215	275.81
594.424	275.81
594.634	264.81
594.843	284.81
595.053	261.81
595.262	255.81
595.472	237.81
595.681	252.81
595.89	271.81
596.1	244.81
596.309	258.81
596.518	232.81
596.727	239.81
596.937	234.81
597.146	258.81
597.355	245.81
597.564	241.81
597.774	267.81
597.983	232.81
598.192	237.81
598.401	243.81
598.61	219.81
598.819	228.81
599.028	236.81
599.237	227.81
599.446	233.81
599.655	244.81
599.864	223.81
600.073	234.81
600.282	220.81
600.491	210.81
600.7	229.81
600.909	227.81
601.118	232.81
601.327	222.81
601.536	207.81
601.745	221.81
601.953	214.81
602.162	212.81
602.371	211.81
602.58	217.81
602.789	219.81
602.997	224.81
603.206	221.81
603.415	214.81
603.623	209.81
603.832	228.81
604.041	216.81
604.249	222.81
604.458	212.81
604.666	209.81
604.875	229.81
605.084	216.81
605.292	229.81
605.501	215.81
605.709	230.81
605.918	227.81
606.126	213.81
606.334	207.81
606.543	208.81
606.751	208.81
606.96	223.81
607.168	218.81
607.376	211.81
607.585	209.81
607.793	197.81
608.001	212.81
608.21	198.81
608.418	196.81
608.626	205.81
608.834	206.81
609.043	207.81
609.251	202.81
609.459	203.81
609.667	211.81
609.875	209.81
610.083	220.81
610.291	212.81
610.499	212.81
610.707	208.81
610.916	213.81
611.124	202.81
611.332	207.81
611.54	214.81
611.748	215.81
611.955	207.81
612.163	199.81
612.371	197.81
612.579	195.81
612.787	213.81
612.995	211.81
613.203	215.81
613.411	216.81
613.618	205.81
613.826	215.81
614.034	194.81
614.242	206.81
614.449	217.81
614.657	217.81
614.865	208.81
615.072	199.81
615.28	215.81
615.488	193.81
615.695	202.81
615.903	199.81
616.111	210.81
616.318	208.81
616.526	197.81
616.733	198.81
616.941	184.81
617.148	207.81
617.356	196.81
617.563	204.81
617.771	195.81
617.978	203.81
618.185	214.81
618.393	197.81
618.6	207.81
618.807	188.81
619.015	210.81
619.222	191.81
619.429	203.81
619.637	207.81
619.844	179.81
620.051	198.81
620.258	202.81
620.466	197.81
620.673	201.81
620.88	189.81
621.087	200.81
621.294	190.81
621.501	181.81
621.708	206.81
621.915	220.81
622.122	206.81
622.329	203.81
622.536	195.81
622.743	194.81
622.95	190.81
623.157	190.81
623.364	186.81
623.571	195.81
623.778	187.81
623.985	188.81
624.192	195.81
624.399	182.81
624.606	188.81
624.812	184.81
625.019	174.81
625.226	185.81
625.433	185.81
625.639	195.81
625.846	187.81
626.053	170.81
626.259	166.81
626.466	186.81
626.673	176.81
626.879	180.81
627.086	187.81
627.293	172.81
627.499	176.81
627.706	182.81
627.912	171.81
628.119	180.81
628.325	169.81
628.532	162.81
628.738	179.81
628.945	176.81
629.151	175.81
629.357	185.81
629.564	178.81
629.77	165.81
629.976	162.81
630.183	184.81
630.389	165.81
630.595	173.81
630.802	173.81
631.008	163.81
631.214	169.81
631.42	176.81
631.627	196.81
631.833	166.81
632.039	170.81
632.245	172.81
632.451	162.81
632.657	186.81
632.863	171.81
633.069	172.81
633.275	170.81
633.481	184.81
633.688	173.81
633.893	166.81
634.099	166.81
634.305	147.81
634.511	160.81
634.717	159.81
634.923	169.81
635.129	161.81
635.335	175.81
635.541	163.81
635.747	154.81
635.952	154.81
636.158	151.81
636.364	167.81
636.57	184.81
636.775	150.81
636.981	158.81
637.187	174.81
637.392	149.81
637.598	161.81
637.804	151.81
638.009	166.81
638.215	175.81
638.421	167.81
638.626	144.81
638.832	160.81
639.037	147.81
639.243	156.81
639.448	151.81
639.654	155.81
639.859	160.81
640.065	149.81
640.27	145.81
640.475	150.81
640.681	153.81
640.886	148.81
641.091	156.81
641.297	152.81
641.502	148.81
641.707	164.81
641.913	147.81
642.118	163.81
642.323	164.81
642.528	156.81
642.733	167.81
642.939	159.81
643.144	136.81
643.349	153.81
643.554	146.81
643.759	155.81
643.964	145.81
644.169	132.81
644.374	148.81
644.579	163.81
644.784	156.81
644.989	144.81
645.194	144.81
645.399	159.81
645.604	148.81
645.809	149.81
646.014	157.81
646.219	138.81
646.423	136.81
646.628	153.81
646.833	154.81
647.038	155.81
647.243	168.81
647.447	139.81
647.652	155.81
647.857	152.81
648.062	148.81
648.266	163.81
648.471	150.81
648.676	142.81
648.88	149.81
649.085	150.81
649.289	166.81
649.494	149.81
649.698	172.81
649.903	173.81
650.107	164.81
650.312	164.81
650.516	136.81
650.721	146.81
650.925	138.81
651.13	145.81
651.334	133.81
651.539	130.81
651.743	128.81
651.947	140.81
652.152	140.81
652.356	132.81
652.56	128.81
652.764	132.81
652.969	148.81
653.173	138.81
653.377	122.81
653.581	128.81
653.785	132.81
653.99	135.81
654.194	142.81
654.398	129.81
654.602	129.81
654.806	127.81
655.01	154.81
655.214	128.81
655.418	133.81
655.622	127.81
655.826	142.81
656.03	142.81
656.234	126.81
656.438	134.81
656.642	140.81
656.846	134.81
657.049	122.81
657.253	125.81
657.457	118.81
657.661	113.81
657.865	115.81
658.068	104.81
658.272	104.81
658.476	106.81
658.68	110.81
658.883	108.81
659.087	101.81
659.291	94.81
659.494	98.81
659.698	86.81
659.901	96.81
660.105	88.81
660.309	87.81
660.512	80.81
660.716	99.81
660.919	102.81
661.123	93.81
661.326	101.81
661.53	97.81
661.733	91.81
661.936	91.81
662.14	94.81
662.343	98.81
662.546	88.81
662.75	81.81
662.953	96.81
663.156	87.81
663.36	72.81
663.563	86.81
663.766	88.81
663.969	81.81
664.173	90.81
664.376	85.81
664.579	71.81
664.782	81.81
664.985	84.81
665.188	89.81
665.391	94.81
665.594	85.81
665.797	83.81
666	83.81
666.203	86.81
666.406	74.81
666.609	88.81
666.812	80.81
667.015	95.81
667.218	87.81
667.421	74.81
667.624	92.81
667.827	83.81
668.03	86.81
668.232	82.81
668.435	78.81
668.638	88.81
668.841	82.81
669.043	89.81
669.246	99.81
669.449	99.81
669.651	89.81
669.854	73.81
670.057	76.81
670.259	92.81
670.462	95.81
670.665	78.81
670.867	82.81
671.07	71.81
671.272	78.81
671.475	87.81
671.677	80.81
671.88	68.81
672.082	86.81
672.284	77.81
672.487	79.81
672.689	80.81
672.892	86.81
