Data from 1964.PennyLincolnUp.Lamp.En5.5.200Scan.071719.P1._HRD10591_14-03-58-909.txt Node
Date: Thu Jul 18 14:03:58 EDT 2019
User: cochatt
Spectrometer: HR+D1059
Trigger mode: 1
Integration Time (sec): 1.000000E-1
Scans to average: 1
Electric dark correction enabled: true
Nonlinearity correction enabled: false
Boxcar width: 0
XAxis mode: Wavelengths
Number of Pixels in Spectrum: 2048
>>>>>Begin Spectral Data<<<<<
223.165	-7.94
223.4	-7.94
223.635	-7.94
223.869	-8.94
224.104	-27.94
224.338	-17.94
224.573	-9.94
224.808	-6.94
225.042	8.06
225.277	-4.94
225.511	-9.94
225.746	-3.94
225.98	5.06
226.215	3.06
226.449	5.06
226.683	21.06
226.918	24.06
227.152	32.06
227.387	31.06
227.621	41.06
227.856	53.06
228.09	35.06
228.324	43.06
228.559	52.06
228.793	59.06
229.027	95.06
229.262	92.06
229.496	97.06
229.73	122.06
229.964	124.06
230.199	114.06
230.433	102.06
230.667	100.06
230.901	94.06
231.136	96.06
231.37	109.06
231.604	99.06
231.838	110.06
232.072	106.06
232.306	102.06
232.541	101.06
232.775	112.06
233.009	120.06
233.243	90.06
233.477	110.06
233.711	98.06
233.945	105.06
234.179	116.06
234.413	108.06
234.647	112.06
234.881	116.06
235.115	111.06
235.349	122.06
235.583	103.06
235.817	112.06
236.051	117.06
236.285	110.06
236.519	125.06
236.753	124.06
236.987	130.06
237.221	151.06
237.455	195.06
237.689	143.06
237.922	116.06
238.156	116.06
238.39	141.06
238.624	130.06
238.858	132.06
239.091	114.06
239.325	119.06
239.559	103.06
239.793	124.06
240.027	128.06
240.26	128.06
240.494	150.06
240.728	132.06
240.961	150.06
241.195	137.06
241.429	121.06
241.662	120.06
241.896	120.06
242.13	140.06
242.363	134.06
242.597	127.06
242.83	124.06
243.064	126.06
243.298	134.06
243.531	140.06
243.765	123.06
243.998	142.06
244.232	122.06
244.465	122.06
244.699	129.06
244.932	145.06
245.166	136.06
245.399	154.06
245.633	144.06
245.866	144.06
246.099	149.06
246.333	138.06
246.566	143.06
246.8	144.06
247.033	157.06
247.266	150.06
247.5	176.06
247.733	161.06
247.966	154.06
248.2	163.06
248.433	156.06
248.666	167.06
248.899	156.06
249.133	186.06
249.366	209.06
249.599	181.06
249.832	174.06
250.066	174.06
250.299	179.06
250.532	178.06
250.765	196.06
250.998	194.06
251.231	197.06
251.465	199.06
251.698	196.06
251.931	191.06
252.164	185.06
252.397	194.06
252.63	204.06
252.863	188.06
253.096	211.06
253.329	196.06
253.562	207.06
253.795	196.06
254.028	196.06
254.261	206.06
254.494	222.06
254.727	223.06
254.96	240.06
255.193	230.06
255.426	228.06
255.659	201.06
255.892	221.06
256.124	220.06
256.357	223.06
256.59	212.06
256.823	194.06
257.056	182.06
257.289	195.06
257.521	200.06
257.754	198.06
257.987	211.06
258.22	206.06
258.452	224.06
258.685	201.06
258.918	200.06
259.151	211.06
259.383	200.06
259.616	203.06
259.849	214.06
260.081	210.06
260.314	237.06
260.547	236.06
260.779	230.06
261.012	227.06
261.244	225.06
261.477	232.06
261.71	202.06
261.942	217.06
262.175	234.06
262.407	242.06
262.64	218.06
262.872	209.06
263.105	202.06
263.337	210.06
263.57	190.06
263.802	217.06
264.035	219.06
264.267	225.06
264.499	220.06
264.732	232.06
264.964	207.06
265.197	213.06
265.429	205.06
265.661	210.06
265.894	217.06
266.126	226.06
266.358	220.06
266.591	221.06
266.823	226.06
267.055	221.06
267.287	216.06
267.52	217.06
267.752	235.06
267.984	228.06
268.216	234.06
268.448	231.06
268.681	229.06
268.913	248.06
269.145	231.06
269.377	260.06
269.609	258.06
269.841	260.06
270.073	276.06
270.306	297.06
270.538	307.06
270.77	309.06
271.002	286.06
271.234	276.06
271.466	275.06
271.698	296.06
271.93	297.06
272.162	310.06
272.394	299.06
272.626	275.06
272.858	277.06
273.09	273.06
273.322	259.06
273.553	260.06
273.785	250.06
274.017	247.06
274.249	249.06
274.481	268.06
274.713	268.06
274.945	274.06
275.176	275.06
275.408	260.06
275.64	265.06
275.872	258.06
276.104	249.06
276.335	250.06
276.567	284.06
276.799	296.06
277.031	308.06
277.262	304.06
277.494	297.06
277.726	306.06
277.957	288.06
278.189	276.06
278.421	279.06
278.652	290.06
278.884	268.06
279.115	284.06
279.347	278.06
279.579	281.06
279.81	269.06
280.042	284.06
280.273	277.06
280.505	264.06
280.736	296.06
280.968	283.06
281.199	284.06
281.431	267.06
281.662	290.06
281.894	281.06
282.125	297.06
282.356	300.06
282.588	305.06
282.819	290.06
283.051	290.06
283.282	290.06
283.513	295.06
283.745	307.06
283.976	301.06
284.207	293.06
284.439	292.06
284.67	299.06
284.901	294.06
285.132	280.06
285.364	293.06
285.595	308.06
285.826	303.06
286.057	277.06
286.288	288.06
286.52	304.06
286.751	322.06
286.982	296.06
287.213	288.06
287.444	300.06
287.675	310.06
287.906	332.06
288.138	326.06
288.369	320.06
288.6	288.06
288.831	320.06
289.062	327.06
289.293	316.06
289.524	286.06
289.755	308.06
289.986	299.06
290.217	285.06
290.448	297.06
290.679	311.06
290.91	314.06
291.141	320.06
291.371	292.06
291.602	296.06
291.833	308.06
292.064	323.06
292.295	310.06
292.526	312.06
292.757	318.06
292.987	306.06
293.218	306.06
293.449	317.06
293.68	311.06
293.91	318.06
294.141	302.06
294.372	317.06
294.603	310.06
294.833	317.06
295.064	293.06
295.295	324.06
295.525	325.06
295.756	319.06
295.987	316.06
296.217	337.06
296.448	330.06
296.679	315.06
296.909	325.06
297.14	304.06
297.37	341.06
297.601	319.06
297.831	320.06
298.062	352.06
298.292	339.06
298.523	317.06
298.753	321.06
298.984	312.06
299.214	333.06
299.445	329.06
299.675	322.06
299.905	335.06
300.136	330.06
300.366	330.06
300.597	343.06
300.827	354.06
301.057	327.06
301.288	345.06
301.518	342.06
301.748	346.06
301.979	353.06
302.209	338.06
302.439	351.06
302.669	339.06
302.9	341.06
303.13	357.06
303.36	352.06
303.59	337.06
303.82	348.06
304.051	346.06
304.281	357.06
304.511	348.06
304.741	338.06
304.971	336.06
305.201	346.06
305.431	356.06
305.661	341.06
305.891	346.06
306.121	356.06
306.352	352.06
306.582	342.06
306.812	330.06
307.042	348.06
307.272	357.06
307.502	343.06
307.731	375.06
307.961	356.06
308.191	325.06
308.421	362.06
308.651	362.06
308.881	353.06
309.111	350.06
309.341	357.06
309.571	375.06
309.8	364.06
310.03	380.06
310.26	373.06
310.49	369.06
310.72	375.06
310.949	387.06
311.179	386.06
311.409	389.06
311.639	377.06
311.868	353.06
312.098	372.06
312.328	367.06
312.557	384.06
312.787	402.06
313.017	384.06
313.246	378.06
313.476	368.06
313.706	371.06
313.935	373.06
314.165	408.06
314.394	377.06
314.624	403.06
314.853	376.06
315.083	369.06
315.312	372.06
315.542	394.06
315.771	361.06
316.001	376.06
316.23	382.06
316.46	378.06
316.689	380.06
316.919	379.06
317.148	388.06
317.377	393.06
317.607	392.06
317.836	380.06
318.065	386.06
318.295	382.06
318.524	380.06
318.753	385.06
318.983	388.06
319.212	354.06
319.441	372.06
319.67	378.06
319.9	393.06
320.129	385.06
320.358	381.06
320.587	379.06
320.816	407.06
321.046	412.06
321.275	402.06
321.504	392.06
321.733	398.06
321.962	406.06
322.191	419.06
322.42	410.06
322.649	416.06
322.878	418.06
323.108	414.06
323.337	432.06
323.566	440.06
323.795	448.06
324.024	481.06
324.253	550.06
324.482	719.06
324.71	1026.06
324.939	1415.06
325.168	1162.06
325.397	655.06
325.626	488.06
325.855	461.06
326.084	460.06
326.313	443.06
326.542	462.06
326.77	488.06
326.999	521.06
327.228	660.06
327.457	936.06
327.686	1057.06
327.914	743.06
328.143	548.06
328.372	522.06
328.6	485.06
328.829	494.06
329.058	506.06
329.287	492.06
329.515	474.06
329.744	462.06
329.972	468.06
330.201	488.06
330.43	496.06
330.658	501.06
330.887	493.06
331.115	481.06
331.344	461.06
331.572	463.06
331.801	453.06
332.03	460.06
332.258	425.06
332.486	438.06
332.715	449.06
332.943	465.06
333.172	473.06
333.4	474.06
333.629	488.06
333.857	497.06
334.085	491.06
334.314	504.06
334.542	510.06
334.771	516.06
334.999	498.06
335.227	473.06
335.455	470.06
335.684	474.06
335.912	469.06
336.14	445.06
336.369	440.06
336.597	472.06
336.825	469.06
337.053	420.06
337.281	449.06
337.51	448.06
337.738	458.06
337.966	442.06
338.194	428.06
338.422	452.06
338.65	423.06
338.878	462.06
339.106	425.06
339.334	432.06
339.562	422.06
339.79	448.06
340.018	433.06
340.246	424.06
340.474	427.06
340.702	420.06
340.93	436.06
341.158	435.06
341.386	422.06
341.614	426.06
341.842	429.06
342.07	407.06
342.298	412.06
342.526	419.06
342.754	427.06
342.981	423.06
343.209	403.06
343.437	415.06
343.665	444.06
343.893	437.06
344.12	454.06
344.348	457.06
344.576	427.06
344.804	455.06
345.031	429.06
345.259	448.06
345.487	432.06
345.714	407.06
345.942	392.06
346.17	413.06
346.397	404.06
346.625	400.06
346.853	420.06
347.08	392.06
347.308	411.06
347.535	420.06
347.763	384.06
347.99	417.06
348.218	412.06
348.445	420.06
348.673	408.06
348.9	403.06
349.128	379.06
349.355	403.06
349.583	387.06
349.81	396.06
350.037	389.06
350.265	381.06
350.492	371.06
350.72	394.06
350.947	384.06
351.174	404.06
351.402	408.06
351.629	373.06
351.856	389.06
352.083	416.06
352.311	425.06
352.538	415.06
352.765	414.06
352.992	384.06
353.22	401.06
353.447	375.06
353.674	363.06
353.901	394.06
354.128	394.06
354.355	376.06
354.583	385.06
354.81	361.06
355.037	396.06
355.264	386.06
355.491	382.06
355.718	406.06
355.945	387.06
356.172	379.06
356.399	376.06
356.626	380.06
356.853	371.06
357.08	386.06
357.307	370.06
357.534	392.06
357.761	374.06
357.988	388.06
358.215	382.06
358.441	381.06
358.668	357.06
358.895	408.06
359.122	402.06
359.349	394.06
359.576	386.06
359.802	378.06
360.029	434.06
360.256	410.06
360.483	410.06
360.709	389.06
360.936	408.06
361.163	404.06
361.39	395.06
361.616	392.06
361.843	370.06
362.07	383.06
362.296	392.06
362.523	389.06
362.749	369.06
362.976	369.06
363.203	378.06
363.429	348.06
363.656	376.06
363.882	392.06
364.109	389.06
364.335	383.06
364.562	394.06
364.788	362.06
365.015	370.06
365.241	384.06
365.468	386.06
365.694	381.06
365.92	402.06
366.147	388.06
366.373	365.06
366.599	368.06
366.826	376.06
367.052	358.06
367.278	370.06
367.505	371.06
367.731	375.06
367.957	372.06
368.184	373.06
368.41	370.06
368.636	371.06
368.862	386.06
369.089	378.06
369.315	357.06
369.541	386.06
369.767	377.06
369.993	388.06
370.219	378.06
370.445	389.06
370.672	378.06
370.898	369.06
371.124	384.06
371.35	382.06
371.576	368.06
371.802	377.06
372.028	371.06
372.254	386.06
372.48	371.06
372.706	393.06
372.932	384.06
373.158	374.06
373.384	391.06
373.61	382.06
373.835	394.06
374.061	361.06
374.287	413.06
374.513	384.06
374.739	368.06
374.965	398.06
375.191	406.06
375.416	380.06
375.642	389.06
375.868	388.06
376.094	366.06
376.319	378.06
376.545	374.06
376.771	375.06
376.997	375.06
377.222	369.06
377.448	357.06
377.674	372.06
377.899	355.06
378.125	375.06
378.35	377.06
378.576	364.06
378.802	364.06
379.027	368.06
379.253	356.06
379.478	376.06
379.704	376.06
379.929	367.06
380.155	377.06
380.38	382.06
380.606	376.06
380.831	373.06
381.057	389.06
381.282	387.06
381.507	380.06
381.733	373.06
381.958	384.06
382.184	378.06
382.409	363.06
382.634	384.06
382.86	380.06
383.085	384.06
383.31	390.06
383.535	393.06
383.761	394.06
383.986	391.06
384.211	383.06
384.436	417.06
384.662	415.06
384.887	408.06
385.112	413.06
385.337	405.06
385.562	402.06
385.787	416.06
386.013	422.06
386.238	435.06
386.463	414.06
386.688	402.06
386.913	413.06
387.138	392.06
387.363	403.06
387.588	410.06
387.813	404.06
388.038	398.06
388.263	406.06
388.488	416.06
388.713	408.06
388.938	398.06
389.163	416.06
389.387	448.06
389.612	413.06
389.837	402.06
390.062	410.06
390.287	412.06
390.512	392.06
390.736	405.06
390.961	410.06
391.186	398.06
391.411	404.06
391.636	432.06
391.86	419.06
392.085	426.06
392.31	414.06
392.534	444.06
392.759	420.06
392.984	426.06
393.208	414.06
393.433	422.06
393.658	406.06
393.882	416.06
394.107	416.06
394.331	404.06
394.556	416.06
394.78	419.06
395.005	425.06
395.229	425.06
395.454	418.06
395.678	436.06
395.903	422.06
396.127	417.06
396.352	451.06
396.576	446.06
396.801	430.06
397.025	438.06
397.249	418.06
397.474	421.06
397.698	448.06
397.922	430.06
398.147	460.06
398.371	449.06
398.595	457.06
398.82	462.06
399.044	481.06
399.268	499.06
399.492	538.06
399.717	554.06
399.941	578.06
400.165	602.06
400.389	560.06
400.613	531.06
400.837	480.06
401.062	490.06
401.286	478.06
401.51	468.06
401.734	466.06
401.958	466.06
402.182	468.06
402.406	463.06
402.63	476.06
402.854	469.06
403.078	455.06
403.302	485.06
403.526	495.06
403.75	469.06
403.974	476.06
404.198	513.06
404.422	486.06
404.645	485.06
404.869	491.06
405.093	498.06
405.317	562.06
405.541	564.06
405.765	514.06
405.988	492.06
406.212	496.06
406.436	492.06
406.66	519.06
406.883	508.06
407.107	542.06
407.331	583.06
407.555	610.06
407.778	597.06
408.002	562.06
408.226	536.06
408.449	485.06
408.673	532.06
408.896	537.06
409.12	561.06
409.344	538.06
409.567	510.06
409.791	499.06
410.014	471.06
410.238	476.06
410.461	483.06
410.685	482.06
410.908	491.06
411.132	500.06
411.355	525.06
411.578	492.06
411.802	477.06
412.025	460.06
412.249	489.06
412.472	496.06
412.695	520.06
412.919	502.06
413.142	468.06
413.365	455.06
413.589	466.06
413.812	435.06
414.035	450.06
414.258	462.06
414.482	456.06
414.705	432.06
414.928	451.06
415.151	454.06
415.374	452.06
415.597	434.06
415.821	424.06
416.044	430.06
416.267	442.06
416.49	440.06
416.713	430.06
416.936	428.06
417.159	431.06
417.382	438.06
417.605	403.06
417.828	436.06
418.051	442.06
418.274	440.06
418.497	436.06
418.72	441.06
418.943	429.06
419.166	470.06
419.389	480.06
419.611	474.06
419.834	494.06
420.057	451.06
420.28	480.06
420.503	435.06
420.726	453.06
420.948	483.06
421.171	475.06
421.394	496.06
421.617	465.06
421.839	455.06
422.062	434.06
422.285	445.06
422.507	489.06
422.73	573.06
422.953	539.06
423.175	481.06
423.398	456.06
423.621	490.06
423.843	476.06
424.066	472.06
424.288	469.06
424.511	479.06
424.733	524.06
424.956	586.06
425.178	547.06
425.401	564.06
425.623	565.06
425.846	510.06
426.068	475.06
426.291	458.06
426.513	463.06
426.735	481.06
426.958	496.06
427.18	547.06
427.402	653.06
427.625	686.06
427.847	583.06
428.069	538.06
428.292	498.06
428.514	443.06
428.736	440.06
428.958	444.06
429.181	421.06
429.403	451.06
429.625	434.06
429.847	446.06
430.069	500.06
430.292	482.06
430.514	436.06
430.736	418.06
430.958	416.06
431.18	400.06
431.402	403.06
431.624	410.06
431.846	416.06
432.068	420.06
432.29	408.06
432.512	422.06
432.734	435.06
432.956	419.06
433.178	433.06
433.4	424.06
433.622	416.06
433.844	425.06
434.066	440.06
434.287	419.06
434.509	428.06
434.731	416.06
434.953	439.06
435.175	448.06
435.397	452.06
435.618	465.06
435.84	481.06
436.062	557.06
436.284	587.06
436.505	513.06
436.727	457.06
436.949	450.06
437.17	421.06
437.392	442.06
437.614	443.06
437.835	450.06
438.057	508.06
438.278	574.06
438.5	572.06
438.721	616.06
438.943	607.06
439.165	494.06
439.386	463.06
439.608	456.06
439.829	474.06
440.05	482.06
440.272	477.06
440.493	469.06
440.715	459.06
440.936	454.06
441.158	432.06
441.379	423.06
441.6	428.06
441.822	451.06
442.043	477.06
442.264	518.06
442.486	545.06
442.707	500.06
442.928	466.06
443.149	494.06
443.371	481.06
443.592	508.06
443.813	553.06
444.034	626.06
444.255	529.06
444.476	478.06
444.698	480.06
444.919	460.06
445.14	594.06
445.361	530.06
445.582	478.06
445.803	536.06
446.024	571.06
446.245	590.06
446.466	533.06
446.687	472.06
446.908	441.06
447.129	442.06
447.35	434.06
447.571	416.06
447.792	432.06
448.013	408.06
448.234	421.06
448.455	468.06
448.675	528.06
448.896	600.06
449.117	529.06
449.338	501.06
449.559	567.06
449.779	645.06
450	520.06
450.221	452.06
450.442	416.06
450.662	414.06
450.883	378.06
451.104	384.06
451.324	398.06
451.545	412.06
451.766	363.06
451.986	373.06
452.207	380.06
452.428	380.06
452.648	380.06
452.869	382.06
453.089	371.06
453.31	390.06
453.53	361.06
453.751	378.06
453.971	376.06
454.192	382.06
454.412	366.06
454.633	378.06
454.853	346.06
455.073	360.06
455.294	405.06
455.514	424.06
455.734	430.06
455.955	382.06
456.175	362.06
456.395	363.06
456.616	351.06
456.836	368.06
457.056	364.06
457.276	349.06
457.497	353.06
457.717	383.06
457.937	383.06
458.157	368.06
458.377	359.06
458.598	392.06
458.818	417.06
459.038	460.06
459.258	455.06
459.478	412.06
459.698	427.06
459.918	426.06
460.138	398.06
460.358	416.06
460.578	442.06
460.798	440.06
461.018	438.06
461.238	442.06
461.458	415.06
461.678	409.06
461.898	432.06
462.118	406.06
462.338	441.06
462.558	441.06
462.777	440.06
462.997	476.06
463.217	471.06
463.437	468.06
463.657	466.06
463.876	449.06
464.096	468.06
464.316	472.06
464.536	437.06
464.755	447.06
464.975	451.06
465.195	468.06
465.414	491.06
465.634	442.06
465.854	423.06
466.073	407.06
466.293	402.06
466.512	403.06
466.732	395.06
466.951	390.06
467.171	381.06
467.391	394.06
467.61	396.06
467.829	400.06
468.049	397.06
468.268	411.06
468.488	392.06
468.707	363.06
468.927	369.06
469.146	388.06
469.365	374.06
469.585	378.06
469.804	384.06
470.023	390.06
470.243	403.06
470.462	392.06
470.681	398.06
470.901	400.06
471.12	396.06
471.339	382.06
471.558	405.06
471.777	421.06
471.997	401.06
472.216	410.06
472.435	416.06
472.654	404.06
472.873	391.06
473.092	405.06
473.311	420.06
473.53	390.06
473.749	389.06
473.968	457.06
474.187	494.06
474.406	498.06
474.625	429.06
474.844	408.06
475.063	406.06
475.282	392.06
475.501	388.06
475.72	415.06
475.939	399.06
476.158	397.06
476.377	415.06
476.596	401.06
476.814	425.06
477.033	418.06
477.252	411.06
477.471	412.06
477.69	441.06
477.908	430.06
478.127	456.06
478.346	424.06
478.564	437.06
478.783	450.06
479.002	444.06
479.22	441.06
479.439	465.06
479.658	466.06
479.876	457.06
480.095	477.06
480.313	519.06
480.532	483.06
480.751	477.06
480.969	495.06
481.188	506.06
481.406	500.06
481.624	475.06
481.843	457.06
482.061	436.06
482.28	475.06
482.498	467.06
482.717	456.06
482.935	454.06
483.153	462.06
483.372	443.06
483.59	477.06
483.808	442.06
484.027	459.06
484.245	458.06
484.463	469.06
484.681	464.06
484.9	434.06
485.118	476.06
485.336	451.06
485.554	464.06
485.772	473.06
485.99	455.06
486.209	476.06
486.427	467.06
486.645	475.06
486.863	494.06
487.081	474.06
487.299	471.06
487.517	479.06
487.735	482.06
487.953	489.06
488.171	500.06
488.389	480.06
488.607	480.06
488.825	493.06
489.043	478.06
489.261	477.06
489.479	498.06
489.696	481.06
489.914	482.06
490.132	499.06
490.35	502.06
490.568	505.06
490.786	483.06
491.003	509.06
491.221	526.06
491.439	517.06
491.657	510.06
491.874	528.06
492.092	542.06
492.31	519.06
492.527	527.06
492.745	560.06
492.963	578.06
493.18	560.06
493.398	565.06
493.615	556.06
493.833	550.06
494.05	554.06
494.268	572.06
494.485	564.06
494.703	535.06
494.92	560.06
495.138	559.06
495.355	549.06
495.573	560.06
495.79	572.06
496.008	546.06
496.225	568.06
496.442	562.06
496.66	566.06
496.877	570.06
497.094	544.06
497.312	569.06
497.529	596.06
497.746	596.06
497.963	586.06
498.181	627.06
498.398	625.06
498.615	655.06
498.832	673.06
499.049	684.06
499.267	695.06
499.484	739.06
499.701	749.06
499.918	789.06
500.135	840.06
500.352	861.06
500.569	896.06
500.786	890.06
501.003	866.06
501.22	848.06
501.437	798.06
501.654	772.06
501.871	742.06
502.088	705.06
502.305	664.06
502.522	646.06
502.739	647.06
502.956	632.06
503.172	597.06
503.389	608.06
503.606	601.06
503.823	579.06
504.04	586.06
504.256	579.06
504.473	573.06
504.69	548.06
504.907	576.06
505.123	556.06
505.34	549.06
505.557	551.06
505.773	519.06
505.99	546.06
506.207	561.06
506.423	516.06
506.64	539.06
506.856	537.06
507.073	518.06
507.289	508.06
507.506	516.06
507.722	498.06
507.939	524.06
508.155	490.06
508.372	480.06
508.588	487.06
508.805	508.06
509.021	509.06
509.238	512.06
509.454	501.06
509.67	501.06
509.887	465.06
510.103	496.06
510.319	465.06
510.536	532.06
510.752	739.06
510.968	610.06
511.184	496.06
511.401	460.06
511.617	463.06
511.833	479.06
512.049	448.06
512.265	474.06
512.481	467.06
512.698	481.06
512.914	474.06
513.13	470.06
513.346	462.06
513.562	448.06
513.778	449.06
513.994	469.06
514.21	466.06
514.426	451.06
514.642	473.06
514.858	506.06
515.074	526.06
515.29	565.06
515.506	718.06
515.721	620.06
515.937	504.06
516.153	484.06
516.369	500.06
516.585	484.06
516.801	491.06
517.016	496.06
517.232	486.06
517.448	512.06
517.664	514.06
517.879	523.06
518.095	500.06
518.311	499.06
518.527	493.06
518.742	491.06
518.958	483.06
519.173	488.06
519.389	482.06
519.605	462.06
519.82	468.06
520.036	504.06
520.251	474.06
520.467	480.06
520.682	485.06
520.898	460.06
521.113	485.06
521.329	493.06
521.544	530.06
521.76	590.06
521.975	835.06
522.19	792.06
522.406	546.06
522.621	477.06
522.836	469.06
523.052	460.06
523.267	423.06
523.482	414.06
523.698	432.06
523.913	448.06
524.128	416.06
524.343	418.06
524.559	412.06
524.774	393.06
524.989	406.06
525.204	420.06
525.419	424.06
525.634	382.06
525.849	431.06
526.064	416.06
526.28	382.06
526.495	388.06
526.71	413.06
526.925	412.06
527.14	396.06
527.355	391.06
527.57	390.06
527.785	379.06
527.999	384.06
528.214	387.06
528.429	389.06
528.644	397.06
528.859	380.06
529.074	405.06
529.289	395.06
529.503	408.06
529.718	417.06
529.933	406.06
530.148	400.06
530.363	390.06
530.577	363.06
530.792	368.06
531.007	404.06
531.221	393.06
531.436	390.06
531.651	378.06
531.865	382.06
532.08	380.06
532.295	371.06
532.509	376.06
532.724	382.06
532.938	373.06
533.153	375.06
533.367	396.06
533.582	402.06
533.796	370.06
534.011	388.06
534.225	373.06
534.44	382.06
534.654	389.06
534.868	388.06
535.083	379.06
535.297	377.06
535.511	372.06
535.726	409.06
535.94	365.06
536.154	374.06
536.369	361.06
536.583	370.06
536.797	374.06
537.011	357.06
537.225	361.06
537.44	363.06
537.654	372.06
537.868	365.06
538.082	368.06
538.296	380.06
538.51	360.06
538.724	396.06
538.938	357.06
539.153	351.06
539.367	368.06
539.581	376.06
539.795	370.06
540.009	374.06
540.222	382.06
540.436	374.06
540.65	356.06
540.864	370.06
541.078	378.06
541.292	365.06
541.506	380.06
541.72	347.06
541.934	355.06
542.147	369.06
542.361	356.06
542.575	371.06
542.789	354.06
543.002	337.06
543.216	365.06
543.43	363.06
543.644	360.06
543.857	358.06
544.071	349.06
544.285	350.06
544.498	368.06
544.712	362.06
544.925	377.06
545.139	349.06
545.352	337.06
545.566	377.06
545.779	342.06
545.993	353.06
546.206	339.06
546.42	377.06
546.633	361.06
546.847	352.06
547.06	353.06
547.274	356.06
547.487	360.06
547.7	346.06
547.914	350.06
548.127	349.06
548.34	351.06
548.554	363.06
548.767	368.06
548.98	349.06
549.193	364.06
549.407	340.06
549.62	346.06
549.833	347.06
550.046	363.06
550.259	371.06
550.473	350.06
550.686	346.06
550.899	361.06
551.112	371.06
551.325	353.06
551.538	354.06
551.751	350.06
551.964	340.06
552.177	351.06
552.39	362.06
552.603	345.06
552.816	357.06
553.029	361.06
553.242	352.06
553.455	369.06
553.667	372.06
553.88	364.06
554.093	353.06
554.306	372.06
554.519	364.06
554.732	347.06
554.944	334.06
555.157	347.06
555.37	353.06
555.583	327.06
555.795	346.06
556.008	339.06
556.221	324.06
556.433	325.06
556.646	337.06
556.859	349.06
557.071	298.06
557.284	305.06
557.496	312.06
557.709	330.06
557.921	306.06
558.134	309.06
558.346	314.06
558.559	318.06
558.771	314.06
558.984	308.06
559.196	334.06
559.409	317.06
559.621	296.06
559.833	300.06
560.046	298.06
560.258	328.06
560.47	318.06
560.683	332.06
560.895	302.06
561.107	320.06
561.32	334.06
561.532	316.06
561.744	315.06
561.956	314.06
562.168	308.06
562.381	324.06
562.593	324.06
562.805	332.06
563.017	309.06
563.229	337.06
563.441	318.06
563.653	308.06
563.865	316.06
564.077	321.06
564.289	327.06
564.501	312.06
564.713	340.06
564.925	314.06
565.137	328.06
565.349	344.06
565.561	334.06
565.773	372.06
565.985	368.06
566.197	349.06
566.408	363.06
566.62	375.06
566.832	392.06
567.044	406.06
567.255	410.06
567.467	427.06
567.679	418.06
567.891	431.06
568.102	432.06
568.314	422.06
568.526	380.06
568.737	380.06
568.949	389.06
569.161	371.06
569.372	357.06
569.584	332.06
569.795	328.06
570.007	332.06
570.218	348.06
570.43	331.06
570.641	310.06
570.853	315.06
571.064	310.06
571.276	317.06
571.487	321.06
571.698	300.06
571.91	298.06
572.121	300.06
572.333	295.06
572.544	304.06
572.755	287.06
572.966	293.06
573.178	296.06
573.389	288.06
573.6	277.06
573.811	288.06
574.023	290.06
574.234	286.06
574.445	299.06
574.656	282.06
574.867	275.06
575.078	267.06
575.289	278.06
575.501	276.06
575.712	286.06
575.923	264.06
576.134	260.06
576.345	266.06
576.556	269.06
576.767	274.06
576.978	271.06
577.188	264.06
577.399	269.06
577.61	249.06
577.821	260.06
578.032	273.06
578.243	296.06
578.454	335.06
578.665	308.06
578.875	262.06
579.086	247.06
579.297	264.06
579.508	267.06
579.718	270.06
579.929	254.06
580.14	249.06
580.35	253.06
580.561	262.06
580.772	244.06
580.982	232.06
581.193	242.06
581.403	260.06
581.614	248.06
581.825	247.06
582.035	252.06
582.246	249.06
582.456	248.06
582.667	244.06
582.877	245.06
583.087	238.06
583.298	243.06
583.508	251.06
583.719	251.06
583.929	250.06
584.139	235.06
584.35	245.06
584.56	266.06
584.77	247.06
584.981	236.06
585.191	241.06
585.401	229.06
585.611	248.06
585.821	237.06
586.032	227.06
586.242	235.06
586.452	248.06
586.662	236.06
586.872	235.06
587.082	235.06
587.292	238.06
587.502	242.06
587.713	235.06
587.923	240.06
588.133	257.06
588.343	248.06
588.553	245.06
588.762	234.06
588.972	240.06
589.182	262.06
589.392	274.06
589.602	253.06
589.812	280.06
590.022	265.06
590.232	240.06
590.441	240.06
590.651	251.06
590.861	247.06
591.071	264.06
591.281	247.06
591.49	254.06
591.7	245.06
591.91	261.06
592.119	244.06
592.329	254.06
592.539	258.06
592.748	246.06
592.958	268.06
593.167	279.06
593.377	266.06
593.587	269.06
593.796	276.06
594.006	262.06
594.215	266.06
594.424	265.06
594.634	250.06
594.843	266.06
595.053	260.06
595.262	240.06
595.472	258.06
595.681	248.06
595.89	244.06
596.1	245.06
596.309	246.06
596.518	224.06
596.727	233.06
596.937	237.06
597.146	245.06
597.355	221.06
597.564	228.06
597.774	204.06
597.983	228.06
598.192	213.06
598.401	223.06
598.61	219.06
598.819	218.06
599.028	236.06
599.237	247.06
599.446	222.06
599.655	200.06
599.864	220.06
600.073	222.06
600.282	214.06
600.491	215.06
600.7	212.06
600.909	212.06
601.118	204.06
601.327	213.06
601.536	219.06
601.745	214.06
601.953	216.06
602.162	221.06
602.371	209.06
602.58	213.06
602.789	212.06
602.997	218.06
603.206	209.06
603.415	214.06
603.623	188.06
603.832	211.06
604.041	205.06
604.249	198.06
604.458	183.06
604.666	205.06
604.875	200.06
605.084	205.06
605.292	205.06
605.501	194.06
605.709	200.06
605.918	208.06
606.126	211.06
606.334	214.06
606.543	212.06
606.751	190.06
606.96	213.06
607.168	198.06
607.376	192.06
607.585	216.06
607.793	208.06
608.001	218.06
608.21	196.06
608.418	201.06
608.626	192.06
608.834	197.06
609.043	195.06
609.251	201.06
609.459	203.06
609.667	189.06
609.875	201.06
610.083	197.06
610.291	204.06
610.499	208.06
610.707	199.06
610.916	198.06
611.124	203.06
611.332	212.06
611.54	203.06
611.748	193.06
611.955	226.06
612.163	210.06
612.371	193.06
612.579	204.06
612.787	193.06
612.995	204.06
613.203	187.06
613.411	192.06
613.618	203.06
613.826	201.06
614.034	184.06
614.242	187.06
614.449	202.06
614.657	189.06
614.865	188.06
615.072	193.06
615.28	204.06
615.488	189.06
615.695	180.06
615.903	182.06
616.111	176.06
616.318	208.06
616.526	195.06
616.733	202.06
616.941	209.06
617.148	188.06
617.356	201.06
617.563	184.06
617.771	197.06
617.978	181.06
618.185	196.06
618.393	189.06
618.6	202.06
618.807	204.06
619.015	192.06
619.222	193.06
619.429	202.06
619.637	190.06
619.844	199.06
620.051	205.06
620.258	171.06
620.466	173.06
620.673	175.06
620.88	184.06
621.087	182.06
621.294	195.06
621.501	196.06
621.708	193.06
621.915	203.06
622.122	185.06
622.329	189.06
622.536	177.06
622.743	181.06
622.95	184.06
623.157	185.06
623.364	166.06
623.571	186.06
623.778	168.06
623.985	176.06
624.192	186.06
624.399	186.06
624.606	185.06
624.812	187.06
625.019	169.06
625.226	166.06
625.433	181.06
625.639	192.06
625.846	184.06
626.053	170.06
626.259	172.06
626.466	174.06
626.673	187.06
626.879	175.06
627.086	179.06
627.293	176.06
627.499	181.06
627.706	185.06
627.912	192.06
628.119	180.06
628.325	180.06
628.532	165.06
628.738	156.06
628.945	166.06
629.151	180.06
629.357	181.06
629.564	172.06
629.77	165.06
629.976	170.06
630.183	157.06
630.389	172.06
630.595	156.06
630.802	171.06
631.008	152.06
631.214	167.06
631.42	169.06
631.627	154.06
631.833	161.06
632.039	160.06
632.245	156.06
632.451	178.06
632.657	163.06
632.863	184.06
633.069	164.06
633.275	143.06
633.481	152.06
633.688	162.06
633.893	151.06
634.099	162.06
634.305	147.06
634.511	169.06
634.717	164.06
634.923	160.06
635.129	146.06
635.335	162.06
635.541	148.06
635.747	153.06
635.952	162.06
636.158	168.06
636.364	149.06
636.57	160.06
636.775	165.06
636.981	161.06
637.187	172.06
637.392	152.06
637.598	147.06
637.804	153.06
638.009	147.06
638.215	166.06
638.421	142.06
638.626	170.06
638.832	160.06
639.037	153.06
639.243	154.06
639.448	164.06
639.654	161.06
639.859	140.06
640.065	158.06
640.27	164.06
640.475	150.06
640.681	139.06
640.886	149.06
641.091	154.06
641.297	168.06
641.502	143.06
641.707	144.06
641.913	135.06
642.118	154.06
642.323	135.06
642.528	145.06
642.733	145.06
642.939	157.06
643.144	154.06
643.349	147.06
643.554	153.06
643.759	150.06
643.964	140.06
644.169	133.06
644.374	142.06
644.579	138.06
644.784	153.06
644.989	148.06
645.194	120.06
645.399	145.06
645.604	151.06
645.809	141.06
646.014	154.06
646.219	128.06
646.423	139.06
646.628	149.06
646.833	148.06
647.038	153.06
647.243	150.06
647.447	152.06
647.652	147.06
647.857	133.06
648.062	141.06
648.266	132.06
648.471	159.06
648.676	148.06
648.88	160.06
649.085	151.06
649.289	153.06
649.494	153.06
649.698	154.06
649.903	161.06
650.107	156.06
650.312	138.06
650.516	134.06
650.721	126.06
650.925	124.06
651.13	136.06
651.334	148.06
651.539	144.06
651.743	143.06
651.947	146.06
652.152	131.06
652.356	121.06
652.56	126.06
652.764	130.06
652.969	132.06
653.173	125.06
653.377	126.06
653.581	123.06
653.785	130.06
653.99	140.06
654.194	126.06
654.398	124.06
654.602	118.06
654.806	129.06
655.01	122.06
655.214	130.06
655.418	135.06
655.622	128.06
655.826	122.06
656.03	125.06
656.234	112.06
656.438	132.06
656.642	123.06
656.846	124.06
657.049	122.06
657.253	112.06
657.457	118.06
657.661	124.06
657.865	125.06
658.068	102.06
658.272	107.06
658.476	108.06
658.68	91.06
658.883	105.06
659.087	92.06
659.291	96.06
659.494	102.06
659.698	99.06
659.901	94.06
660.105	98.06
660.309	88.06
660.512	74.06
660.716	104.06
660.919	83.06
661.123	91.06
661.326	81.06
661.53	92.06
661.733	103.06
661.936	86.06
662.14	88.06
662.343	96.06
662.546	84.06
662.75	82.06
662.953	86.06
663.156	69.06
663.36	91.06
663.563	85.06
663.766	84.06
663.969	86.06
664.173	71.06
664.376	72.06
664.579	86.06
664.782	93.06
664.985	83.06
665.188	67.06
665.391	71.06
665.594	70.06
665.797	72.06
666	84.06
666.203	92.06
666.406	84.06
666.609	83.06
666.812	57.06
667.015	68.06
667.218	87.06
667.421	78.06
667.624	90.06
667.827	88.06
668.03	74.06
668.232	68.06
668.435	80.06
668.638	76.06
668.841	87.06
669.043	81.06
669.246	86.06
669.449	83.06
669.651	69.06
669.854	80.06
670.057	78.06
670.259	78.06
670.462	79.06
670.665	92.06
670.867	86.06
671.07	78.06
671.272	79.06
671.475	78.06
671.677	86.06
671.88	86.06
672.082	79.06
672.284	88.06
672.487	82.06
672.689	73.06
672.892	77.06
