Data from 1964.PennyLincolnUp.Lamp.En5.5.200Scan.071719.P1._HRD10591_14-03-22-908.txt Node
Date: Thu Jul 18 14:03:22 EDT 2019
User: cochatt
Spectrometer: HR+D1059
Trigger mode: 1
Integration Time (sec): 1.000000E-1
Scans to average: 1
Electric dark correction enabled: true
Nonlinearity correction enabled: false
Boxcar width: 0
XAxis mode: Wavelengths
Number of Pixels in Spectrum: 2048
>>>>>Begin Spectral Data<<<<<
223.165	-24.12
223.4	-24.12
223.635	-24.12
223.869	-21.12
224.104	-15.12
224.338	-5.12
224.573	-16.12
224.808	-11.12
225.042	-15.12
225.277	-3.12
225.511	6.88
225.746	15.88
225.98	20.88
226.215	-9.12
226.449	10.88
226.683	10.88
226.918	23.88
227.152	30.88
227.387	38.88
227.621	40.88
227.856	30.88
228.09	50.88
228.324	57.88
228.559	57.88
228.793	65.88
229.027	80.88
229.262	98.88
229.496	103.88
229.73	109.88
229.964	121.88
230.199	120.88
230.433	111.88
230.667	112.88
230.901	108.88
231.136	114.88
231.37	107.88
231.604	99.88
231.838	108.88
232.072	114.88
232.306	108.88
232.541	104.88
232.775	112.88
233.009	114.88
233.243	118.88
233.477	114.88
233.711	106.88
233.945	106.88
234.179	111.88
234.413	130.88
234.647	125.88
234.881	126.88
235.115	111.88
235.349	118.88
235.583	108.88
235.817	109.88
236.051	123.88
236.285	114.88
236.519	116.88
236.753	124.88
236.987	120.88
237.221	144.88
237.455	172.88
237.689	166.88
237.922	137.88
238.156	137.88
238.39	130.88
238.624	119.88
238.858	114.88
239.091	113.88
239.325	117.88
239.559	129.88
239.793	136.88
240.027	133.88
240.26	138.88
240.494	131.88
240.728	135.88
240.961	136.88
241.195	133.88
241.429	144.88
241.662	142.88
241.896	145.88
242.13	144.88
242.363	119.88
242.597	124.88
242.83	142.88
243.064	146.88
243.298	130.88
243.531	130.88
243.765	128.88
243.998	132.88
244.232	140.88
244.465	145.88
244.699	145.88
244.932	155.88
245.166	135.88
245.399	156.88
245.633	138.88
245.866	143.88
246.099	156.88
246.333	126.88
246.566	144.88
246.8	141.88
247.033	164.88
247.266	157.88
247.5	147.88
247.733	159.88
247.966	167.88
248.2	178.88
248.433	171.88
248.666	166.88
248.899	173.88
249.133	167.88
249.366	170.88
249.599	186.88
249.832	177.88
250.066	183.88
250.299	168.88
250.532	181.88
250.765	191.88
250.998	200.88
251.231	209.88
251.465	198.88
251.698	178.88
251.931	186.88
252.164	189.88
252.397	200.88
252.63	181.88
252.863	202.88
253.096	208.88
253.329	182.88
253.562	213.88
253.795	211.88
254.028	194.88
254.261	212.88
254.494	199.88
254.727	230.88
254.96	230.88
255.193	242.88
255.426	233.88
255.659	206.88
255.892	208.88
256.124	211.88
256.357	213.88
256.59	223.88
256.823	196.88
257.056	212.88
257.289	211.88
257.521	201.88
257.754	207.88
257.987	198.88
258.22	204.88
258.452	214.88
258.685	185.88
258.918	194.88
259.151	213.88
259.383	209.88
259.616	220.88
259.849	207.88
260.081	208.88
260.314	216.88
260.547	235.88
260.779	230.88
261.012	214.88
261.244	202.88
261.477	235.88
261.71	219.88
261.942	236.88
262.175	225.88
262.407	210.88
262.64	206.88
262.872	204.88
263.105	219.88
263.337	218.88
263.57	220.88
263.802	216.88
264.035	208.88
264.267	202.88
264.499	224.88
264.732	234.88
264.964	215.88
265.197	210.88
265.429	225.88
265.661	225.88
265.894	212.88
266.126	216.88
266.358	226.88
266.591	226.88
266.823	219.88
267.055	244.88
267.287	235.88
267.52	224.88
267.752	225.88
267.984	234.88
268.216	217.88
268.448	249.88
268.681	242.88
268.913	242.88
269.145	255.88
269.377	272.88
269.609	257.88
269.841	269.88
270.073	255.88
270.306	266.88
270.538	284.88
270.77	273.88
271.002	273.88
271.234	260.88
271.466	281.88
271.698	268.88
271.93	296.88
272.162	292.88
272.394	288.88
272.626	262.88
272.858	274.88
273.09	270.88
273.322	283.88
273.553	264.88
273.785	264.88
274.017	267.88
274.249	278.88
274.481	279.88
274.713	264.88
274.945	289.88
275.176	278.88
275.408	260.88
275.64	274.88
275.872	278.88
276.104	261.88
276.335	272.88
276.567	298.88
276.799	271.88
277.031	292.88
277.262	298.88
277.494	299.88
277.726	300.88
277.957	284.88
278.189	286.88
278.421	253.88
278.652	272.88
278.884	286.88
279.115	276.88
279.347	280.88
279.579	308.88
279.81	319.88
280.042	312.88
280.273	304.88
280.505	296.88
280.736	295.88
280.968	282.88
281.199	273.88
281.431	270.88
281.662	294.88
281.894	288.88
282.125	277.88
282.356	278.88
282.588	311.88
282.819	319.88
283.051	304.88
283.282	288.88
283.513	282.88
283.745	295.88
283.976	274.88
284.207	290.88
284.439	274.88
284.67	284.88
284.901	301.88
285.132	293.88
285.364	295.88
285.595	305.88
285.826	306.88
286.057	303.88
286.288	268.88
286.52	301.88
286.751	291.88
286.982	306.88
287.213	296.88
287.444	313.88
287.675	324.88
287.906	300.88
288.138	307.88
288.369	323.88
288.6	315.88
288.831	312.88
289.062	330.88
289.293	315.88
289.524	308.88
289.755	293.88
289.986	291.88
290.217	305.88
290.448	297.88
290.679	314.88
290.91	318.88
291.141	312.88
291.371	308.88
291.602	320.88
291.833	310.88
292.064	314.88
292.295	300.88
292.526	326.88
292.757	310.88
292.987	316.88
293.218	283.88
293.449	328.88
293.68	310.88
293.91	305.88
294.141	297.88
294.372	302.88
294.603	304.88
294.833	321.88
295.064	307.88
295.295	292.88
295.525	323.88
295.756	319.88
295.987	316.88
296.217	326.88
296.448	339.88
296.679	319.88
296.909	306.88
297.14	302.88
297.37	326.88
297.601	330.88
297.831	321.88
298.062	335.88
298.292	300.88
298.523	322.88
298.753	317.88
298.984	314.88
299.214	321.88
299.445	330.88
299.675	328.88
299.905	329.88
300.136	343.88
300.366	342.88
300.597	316.88
300.827	344.88
301.057	356.88
301.288	346.88
301.518	345.88
301.748	334.88
301.979	339.88
302.209	333.88
302.439	347.88
302.669	363.88
302.9	349.88
303.13	349.88
303.36	352.88
303.59	352.88
303.82	354.88
304.051	349.88
304.281	342.88
304.511	357.88
304.741	331.88
304.971	352.88
305.201	329.88
305.431	348.88
305.661	346.88
305.891	360.88
306.121	344.88
306.352	352.88
306.582	351.88
306.812	328.88
307.042	341.88
307.272	345.88
307.502	337.88
307.731	346.88
307.961	338.88
308.191	350.88
308.421	347.88
308.651	348.88
308.881	346.88
309.111	361.88
309.341	358.88
309.571	369.88
309.8	370.88
310.03	369.88
310.26	401.88
310.49	362.88
310.72	380.88
310.949	390.88
311.179	392.88
311.409	380.88
311.639	401.88
311.868	359.88
312.098	372.88
312.328	378.88
312.557	403.88
312.787	392.88
313.017	396.88
313.246	384.88
313.476	385.88
313.706	400.88
313.935	392.88
314.165	390.88
314.394	401.88
314.624	413.88
314.853	382.88
315.083	381.88
315.312	378.88
315.542	392.88
315.771	383.88
316.001	380.88
316.23	381.88
316.46	373.88
316.689	396.88
316.919	375.88
317.148	394.88
317.377	401.88
317.607	392.88
317.836	408.88
318.065	394.88
318.295	384.88
318.524	396.88
318.753	364.88
318.983	366.88
319.212	391.88
319.441	380.88
319.67	400.88
319.9	397.88
320.129	393.88
320.358	392.88
320.587	400.88
320.816	363.88
321.046	382.88
321.275	410.88
321.504	385.88
321.733	391.88
321.962	399.88
322.191	386.88
322.42	407.88
322.649	414.88
322.878	415.88
323.108	410.88
323.337	450.88
323.566	468.88
323.795	468.88
324.024	495.88
324.253	577.88
324.482	772.88
324.71	1166.88
324.939	1638.88
325.168	1364.88
325.397	705.88
325.626	520.88
325.855	472.88
326.084	456.88
326.313	447.88
326.542	453.88
326.77	501.88
326.999	576.88
327.228	745.88
327.457	1056.88
327.686	1242.88
327.914	834.88
328.143	586.88
328.372	536.88
328.6	497.88
328.829	473.88
329.058	469.88
329.287	491.88
329.515	479.88
329.744	465.88
329.972	459.88
330.201	463.88
330.43	504.88
330.658	511.88
330.887	538.88
331.115	511.88
331.344	478.88
331.572	457.88
331.801	461.88
332.03	460.88
332.258	447.88
332.486	449.88
332.715	445.88
332.943	466.88
333.172	469.88
333.4	440.88
333.629	470.88
333.857	487.88
334.085	504.88
334.314	500.88
334.542	517.88
334.771	512.88
334.999	483.88
335.227	478.88
335.455	476.88
335.684	491.88
335.912	463.88
336.14	465.88
336.369	437.88
336.597	463.88
336.825	463.88
337.053	456.88
337.281	452.88
337.51	451.88
337.738	456.88
337.966	460.88
338.194	438.88
338.422	456.88
338.65	449.88
338.878	430.88
339.106	422.88
339.334	423.88
339.562	408.88
339.79	426.88
340.018	423.88
340.246	429.88
340.474	432.88
340.702	436.88
340.93	429.88
341.158	434.88
341.386	433.88
341.614	437.88
341.842	422.88
342.07	428.88
342.298	429.88
342.526	420.88
342.754	410.88
342.981	414.88
343.209	418.88
343.437	428.88
343.665	433.88
343.893	428.88
344.12	457.88
344.348	467.88
344.576	454.88
344.804	436.88
345.031	450.88
345.259	414.88
345.487	426.88
345.714	434.88
345.942	423.88
346.17	408.88
346.397	398.88
346.625	395.88
346.853	418.88
347.08	400.88
347.308	412.88
347.535	410.88
347.763	401.88
347.99	376.88
348.218	402.88
348.445	419.88
348.673	409.88
348.9	397.88
349.128	412.88
349.355	394.88
349.583	401.88
349.81	401.88
350.037	388.88
350.265	390.88
350.492	393.88
350.72	388.88
350.947	386.88
351.174	409.88
351.402	428.88
351.629	405.88
351.856	430.88
352.083	420.88
352.311	389.88
352.538	412.88
352.765	424.88
352.992	408.88
353.22	406.88
353.447	386.88
353.674	387.88
353.901	376.88
354.128	397.88
354.355	410.88
354.583	379.88
354.81	386.88
355.037	388.88
355.264	369.88
355.491	382.88
355.718	408.88
355.945	377.88
356.172	382.88
356.399	371.88
356.626	369.88
356.853	386.88
357.08	394.88
357.307	394.88
357.534	409.88
357.761	389.88
357.988	402.88
358.215	399.88
358.441	398.88
358.668	382.88
358.895	397.88
359.122	384.88
359.349	385.88
359.576	383.88
359.802	411.88
360.029	408.88
360.256	423.88
360.483	401.88
360.709	395.88
360.936	416.88
361.163	395.88
361.39	408.88
361.616	385.88
361.843	389.88
362.07	400.88
362.296	379.88
362.523	375.88
362.749	379.88
362.976	385.88
363.203	384.88
363.429	380.88
363.656	379.88
363.882	391.88
364.109	360.88
364.335	388.88
364.562	376.88
364.788	363.88
365.015	399.88
365.241	383.88
365.468	390.88
365.694	392.88
365.92	390.88
366.147	376.88
366.373	389.88
366.599	372.88
366.826	377.88
367.052	380.88
367.278	382.88
367.505	369.88
367.731	391.88
367.957	386.88
368.184	383.88
368.41	382.88
368.636	380.88
368.862	386.88
369.089	378.88
369.315	390.88
369.541	378.88
369.767	374.88
369.993	369.88
370.219	374.88
370.445	376.88
370.672	372.88
370.898	392.88
371.124	390.88
371.35	375.88
371.576	384.88
371.802	388.88
372.028	379.88
372.254	386.88
372.48	391.88
372.706	406.88
372.932	379.88
373.158	384.88
373.384	410.88
373.61	400.88
373.835	410.88
374.061	393.88
374.287	389.88
374.513	404.88
374.739	409.88
374.965	396.88
375.191	402.88
375.416	406.88
375.642	394.88
375.868	406.88
376.094	390.88
376.319	389.88
376.545	402.88
376.771	387.88
376.997	384.88
377.222	390.88
377.448	383.88
377.674	364.88
377.899	353.88
378.125	388.88
378.35	358.88
378.576	386.88
378.802	380.88
379.027	393.88
379.253	398.88
379.478	374.88
379.704	372.88
379.929	355.88
380.155	388.88
380.38	399.88
380.606	388.88
380.831	385.88
381.057	384.88
381.282	392.88
381.507	382.88
381.733	404.88
381.958	402.88
382.184	394.88
382.409	409.88
382.634	408.88
382.86	389.88
383.085	402.88
383.31	404.88
383.535	382.88
383.761	401.88
383.986	408.88
384.211	390.88
384.436	412.88
384.662	412.88
384.887	425.88
385.112	426.88
385.337	429.88
385.562	406.88
385.787	434.88
386.013	444.88
386.238	412.88
386.463	430.88
386.688	419.88
386.913	421.88
387.138	422.88
387.363	442.88
387.588	438.88
387.813	410.88
388.038	435.88
388.263	427.88
388.488	436.88
388.713	420.88
388.938	431.88
389.163	424.88
389.387	412.88
389.612	397.88
389.837	402.88
390.062	408.88
390.287	407.88
390.512	415.88
390.736	416.88
390.961	414.88
391.186	426.88
391.411	434.88
391.636	428.88
391.86	429.88
392.085	444.88
392.31	429.88
392.534	446.88
392.759	432.88
392.984	449.88
393.208	449.88
393.433	524.88
393.658	542.88
393.882	473.88
394.107	416.88
394.331	423.88
394.556	426.88
394.78	410.88
395.005	432.88
395.229	427.88
395.454	418.88
395.678	440.88
395.903	440.88
396.127	453.88
396.352	457.88
396.576	441.88
396.801	459.88
397.025	526.88
397.249	475.88
397.474	459.88
397.698	428.88
397.922	438.88
398.147	434.88
398.371	459.88
398.595	466.88
398.82	460.88
399.044	482.88
399.268	506.88
399.492	542.88
399.717	586.88
399.941	574.88
400.165	579.88
400.389	592.88
400.613	524.88
400.837	507.88
401.062	480.88
401.286	463.88
401.51	473.88
401.734	467.88
401.958	445.88
402.182	465.88
402.406	462.88
402.63	492.88
402.854	479.88
403.078	477.88
403.302	487.88
403.526	489.88
403.75	490.88
403.974	492.88
404.198	476.88
404.422	486.88
404.645	478.88
404.869	476.88
405.093	523.88
405.317	531.88
405.541	562.88
405.765	520.88
405.988	503.88
406.212	529.88
406.436	514.88
406.66	537.88
406.883	521.88
407.107	544.88
407.331	572.88
407.555	592.88
407.778	623.88
408.002	582.88
408.226	536.88
408.449	522.88
408.673	510.88
408.896	561.88
409.12	541.88
409.344	567.88
409.567	489.88
409.791	502.88
410.014	492.88
410.238	490.88
410.461	483.88
410.685	489.88
410.908	491.88
411.132	489.88
411.355	529.88
411.578	492.88
411.802	497.88
412.025	485.88
412.249	485.88
412.472	492.88
412.695	520.88
412.919	505.88
413.142	490.88
413.365	487.88
413.589	470.88
413.812	481.88
414.035	465.88
414.258	453.88
414.482	461.88
414.705	449.88
414.928	459.88
415.151	458.88
415.374	452.88
415.597	452.88
415.821	444.88
416.044	467.88
416.267	438.88
416.49	443.88
416.713	445.88
416.936	433.88
417.159	444.88
417.382	434.88
417.605	421.88
417.828	449.88
418.051	449.88
418.274	471.88
418.497	433.88
418.72	444.88
418.943	453.88
419.166	459.88
419.389	470.88
419.611	464.88
419.834	454.88
420.057	459.88
420.28	463.88
420.503	470.88
420.726	459.88
420.948	454.88
421.171	494.88
421.394	489.88
421.617	456.88
421.839	437.88
422.062	462.88
422.285	457.88
422.507	507.88
422.73	574.88
422.953	558.88
423.175	470.88
423.398	468.88
423.621	458.88
423.843	468.88
424.066	486.88
424.288	466.88
424.511	490.88
424.733	525.88
424.956	575.88
425.178	545.88
425.401	574.88
425.623	574.88
425.846	494.88
426.068	464.88
426.291	474.88
426.513	470.88
426.735	490.88
426.958	504.88
427.18	558.88
427.402	659.88
427.625	692.88
427.847	601.88
428.069	525.88
428.292	473.88
428.514	448.88
428.736	449.88
428.958	447.88
429.181	451.88
429.403	436.88
429.625	439.88
429.847	452.88
430.069	512.88
430.292	490.88
430.514	450.88
430.736	432.88
430.958	438.88
431.18	433.88
431.402	414.88
431.624	418.88
431.846	423.88
432.068	429.88
432.29	431.88
432.512	416.88
432.734	417.88
432.956	408.88
433.178	428.88
433.4	467.88
433.622	416.88
433.844	435.88
434.066	400.88
434.287	434.88
434.509	419.88
434.731	448.88
434.953	444.88
435.175	459.88
435.397	472.88
435.618	464.88
435.84	501.88
436.062	564.88
436.284	583.88
436.505	504.88
436.727	473.88
436.949	450.88
437.17	452.88
437.392	446.88
437.614	441.88
437.835	453.88
438.057	512.88
438.278	561.88
438.5	589.88
438.721	634.88
438.943	608.88
439.165	504.88
439.386	468.88
439.608	476.88
439.829	452.88
440.05	472.88
440.272	520.88
440.493	481.88
440.715	462.88
440.936	443.88
441.158	456.88
441.379	441.88
441.6	461.88
441.822	470.88
442.043	514.88
442.264	558.88
442.486	586.88
442.707	497.88
442.928	493.88
443.149	492.88
443.371	494.88
443.592	500.88
443.813	582.88
444.034	601.88
444.255	498.88
444.476	483.88
444.698	484.88
444.919	487.88
445.14	599.88
445.361	541.88
445.582	490.88
445.803	553.88
446.024	630.88
446.245	600.88
446.466	548.88
446.687	495.88
446.908	461.88
447.129	443.88
447.35	442.88
447.571	437.88
447.792	411.88
448.013	433.88
448.234	440.88
448.455	460.88
448.675	538.88
448.896	632.88
449.117	529.88
449.338	497.88
449.559	578.88
449.779	689.88
450	533.88
450.221	455.88
450.442	436.88
450.662	412.88
450.883	444.88
451.104	430.88
451.324	412.88
451.545	410.88
451.766	397.88
451.986	382.88
452.207	385.88
452.428	370.88
452.648	404.88
452.869	392.88
453.089	369.88
453.31	406.88
453.53	392.88
453.751	396.88
453.971	396.88
454.192	386.88
454.412	377.88
454.633	386.88
454.853	402.88
455.073	386.88
455.294	396.88
455.514	436.88
455.734	415.88
455.955	387.88
456.175	382.88
456.395	365.88
456.616	368.88
456.836	376.88
457.056	369.88
457.276	360.88
457.497	377.88
457.717	367.88
457.937	381.88
458.157	406.88
458.377	396.88
458.598	408.88
458.818	413.88
459.038	472.88
459.258	506.88
459.478	446.88
459.698	429.88
459.918	448.88
460.138	422.88
460.358	444.88
460.578	441.88
460.798	435.88
461.018	445.88
461.238	430.88
461.458	424.88
461.678	446.88
461.898	448.88
462.118	444.88
462.338	463.88
462.558	441.88
462.777	465.88
462.997	452.88
463.217	481.88
463.437	482.88
463.657	503.88
463.876	480.88
464.096	489.88
464.316	486.88
464.536	459.88
464.755	475.88
464.975	478.88
465.195	490.88
465.414	501.88
465.634	456.88
465.854	438.88
466.073	426.88
466.293	410.88
466.512	432.88
466.732	400.88
466.951	418.88
467.171	394.88
467.391	393.88
467.61	400.88
467.829	408.88
468.049	414.88
468.268	425.88
468.488	410.88
468.707	384.88
468.927	383.88
469.146	373.88
469.365	382.88
469.585	388.88
469.804	401.88
470.023	410.88
470.243	416.88
470.462	417.88
470.681	408.88
470.901	415.88
471.12	428.88
471.339	402.88
471.558	384.88
471.777	396.88
471.997	394.88
472.216	409.88
472.435	428.88
472.654	420.88
472.873	417.88
473.092	396.88
473.311	393.88
473.53	416.88
473.749	385.88
473.968	440.88
474.187	503.88
474.406	513.88
474.625	442.88
474.844	415.88
475.063	412.88
475.282	405.88
475.501	404.88
475.72	416.88
475.939	416.88
476.158	423.88
476.377	420.88
476.596	408.88
476.814	420.88
477.033	424.88
477.252	441.88
477.471	458.88
477.69	442.88
477.908	437.88
478.127	441.88
478.346	429.88
478.564	452.88
478.783	440.88
479.002	450.88
479.22	495.88
479.439	476.88
479.658	468.88
479.876	486.88
480.095	478.88
480.313	516.88
480.532	475.88
480.751	505.88
480.969	490.88
481.188	542.88
481.406	561.88
481.624	506.88
481.843	492.88
482.061	483.88
482.28	467.88
482.498	482.88
482.717	477.88
482.935	467.88
483.153	471.88
483.372	463.88
483.59	472.88
483.808	472.88
484.027	472.88
484.245	479.88
484.463	473.88
484.681	484.88
484.9	469.88
485.118	491.88
485.336	484.88
485.554	479.88
485.772	471.88
485.99	508.88
486.209	502.88
486.427	492.88
486.645	488.88
486.863	514.88
487.081	494.88
487.299	490.88
487.517	509.88
487.735	497.88
487.953	472.88
488.171	506.88
488.389	525.88
488.607	492.88
488.825	492.88
489.043	497.88
489.261	485.88
489.479	493.88
489.696	514.88
489.914	509.88
490.132	515.88
490.35	555.88
490.568	498.88
490.786	529.88
491.003	522.88
491.221	522.88
491.439	526.88
491.657	524.88
491.874	541.88
492.092	546.88
492.31	549.88
492.527	556.88
492.745	573.88
492.963	555.88
493.18	570.88
493.398	536.88
493.615	546.88
493.833	568.88
494.05	534.88
494.268	546.88
494.485	559.88
494.703	537.88
494.92	574.88
495.138	553.88
495.355	561.88
495.573	551.88
495.79	576.88
496.008	559.88
496.225	582.88
496.442	574.88
496.66	577.88
496.877	566.88
497.094	582.88
497.312	593.88
497.529	600.88
497.746	588.88
497.963	608.88
498.181	628.88
498.398	630.88
498.615	656.88
498.832	664.88
499.049	679.88
499.267	686.88
499.484	743.88
499.701	770.88
499.918	809.88
500.135	867.88
500.352	889.88
500.569	908.88
500.786	910.88
501.003	874.88
501.22	864.88
501.437	818.88
501.654	793.88
501.871	744.88
502.088	712.88
502.305	687.88
502.522	657.88
502.739	656.88
502.956	616.88
503.172	619.88
503.389	626.88
503.606	602.88
503.823	602.88
504.04	591.88
504.256	575.88
504.473	605.88
504.69	606.88
504.907	584.88
505.123	554.88
505.34	555.88
505.557	561.88
505.773	555.88
505.99	528.88
506.207	523.88
506.423	515.88
506.64	508.88
506.856	519.88
507.073	517.88
507.289	501.88
507.506	501.88
507.722	526.88
507.939	517.88
508.155	522.88
508.372	501.88
508.588	496.88
508.805	478.88
509.021	502.88
509.238	504.88
509.454	501.88
509.67	502.88
509.887	492.88
510.103	512.88
510.319	503.88
510.536	559.88
510.752	819.88
510.968	678.88
511.184	507.88
511.401	489.88
511.617	472.88
511.833	466.88
512.049	470.88
512.265	495.88
512.481	470.88
512.698	467.88
512.914	484.88
513.13	446.88
513.346	465.88
513.562	477.88
513.778	460.88
513.994	460.88
514.21	482.88
514.426	498.88
514.642	518.88
514.858	541.88
515.074	539.88
515.29	604.88
515.506	788.88
515.721	697.88
515.937	534.88
516.153	514.88
516.369	525.88
516.585	505.88
516.801	519.88
517.016	486.88
517.232	514.88
517.448	537.88
517.664	549.88
517.879	523.88
518.095	510.88
518.311	539.88
518.527	528.88
518.742	531.88
518.958	492.88
519.173	491.88
519.389	496.88
519.605	471.88
519.82	473.88
520.036	505.88
520.251	506.88
520.467	519.88
520.682	496.88
520.898	481.88
521.113	498.88
521.329	540.88
521.544	569.88
521.76	674.88
521.975	994.88
522.19	978.88
522.406	624.88
522.621	503.88
522.836	472.88
523.052	472.88
523.267	452.88
523.482	443.88
523.698	460.88
523.913	425.88
524.128	433.88
524.343	441.88
524.559	416.88
524.774	412.88
524.989	433.88
525.204	433.88
525.419	436.88
525.634	422.88
525.849	414.88
526.064	416.88
526.28	426.88
526.495	408.88
526.71	406.88
526.925	410.88
527.14	404.88
527.355	405.88
527.57	400.88
527.785	401.88
527.999	402.88
528.214	415.88
528.429	403.88
528.644	416.88
528.859	412.88
529.074	421.88
529.289	421.88
529.503	454.88
529.718	440.88
529.933	416.88
530.148	396.88
530.363	402.88
530.577	389.88
530.792	387.88
531.007	408.88
531.221	414.88
531.436	402.88
531.651	397.88
531.865	394.88
532.08	372.88
532.295	389.88
532.509	401.88
532.724	389.88
532.938	388.88
533.153	390.88
533.367	390.88
533.582	386.88
533.796	401.88
534.011	381.88
534.225	407.88
534.44	373.88
534.654	398.88
534.868	396.88
535.083	390.88
535.297	380.88
535.511	373.88
535.726	400.88
535.94	393.88
536.154	389.88
536.369	375.88
536.583	379.88
536.797	386.88
537.011	354.88
537.225	380.88
537.44	369.88
537.654	382.88
537.868	360.88
538.082	375.88
538.296	374.88
538.51	376.88
538.724	397.88
538.938	378.88
539.153	380.88
539.367	372.88
539.581	360.88
539.795	368.88
540.009	376.88
540.222	368.88
540.436	374.88
540.65	368.88
540.864	364.88
541.078	375.88
541.292	390.88
541.506	376.88
541.72	390.88
541.934	376.88
542.147	385.88
542.361	363.88
542.575	359.88
542.789	359.88
543.002	386.88
543.216	386.88
543.43	364.88
543.644	377.88
543.857	385.88
544.071	395.88
544.285	376.88
544.498	382.88
544.712	378.88
544.925	365.88
545.139	384.88
545.352	364.88
545.566	367.88
545.779	389.88
545.993	377.88
546.206	381.88
546.42	374.88
546.633	358.88
546.847	355.88
547.06	367.88
547.274	365.88
547.487	363.88
547.7	356.88
547.914	369.88
548.127	380.88
548.34	369.88
548.554	345.88
548.767	369.88
548.98	381.88
549.193	382.88
549.407	372.88
549.62	385.88
549.833	370.88
550.046	380.88
550.259	372.88
550.473	366.88
550.686	379.88
550.899	375.88
551.112	358.88
551.325	364.88
551.538	365.88
551.751	362.88
551.964	365.88
552.177	388.88
552.39	369.88
552.603	349.88
552.816	390.88
553.029	370.88
553.242	367.88
553.455	370.88
553.667	398.88
553.88	395.88
554.093	398.88
554.306	368.88
554.519	357.88
554.732	359.88
554.944	363.88
555.157	347.88
555.37	351.88
555.583	344.88
555.795	348.88
556.008	348.88
556.221	337.88
556.433	345.88
556.646	341.88
556.859	328.88
557.071	326.88
557.284	326.88
557.496	337.88
557.709	334.88
557.921	333.88
558.134	347.88
558.346	320.88
558.559	327.88
558.771	334.88
558.984	338.88
559.196	315.88
559.409	347.88
559.621	344.88
559.833	332.88
560.046	332.88
560.258	336.88
560.47	327.88
560.683	333.88
560.895	335.88
561.107	340.88
561.32	335.88
561.532	325.88
561.744	319.88
561.956	324.88
562.168	328.88
562.381	342.88
562.593	324.88
562.805	327.88
563.017	337.88
563.229	337.88
563.441	321.88
563.653	344.88
563.865	338.88
564.077	342.88
564.289	329.88
564.501	349.88
564.713	345.88
564.925	353.88
565.137	372.88
565.349	364.88
565.561	349.88
565.773	365.88
565.985	389.88
566.197	400.88
566.408	395.88
566.62	412.88
566.832	419.88
567.044	415.88
567.255	421.88
567.467	440.88
567.679	431.88
567.891	449.88
568.102	437.88
568.314	436.88
568.526	436.88
568.737	408.88
568.949	390.88
569.161	370.88
569.372	376.88
569.584	356.88
569.795	345.88
570.007	335.88
570.218	360.88
570.43	356.88
570.641	335.88
570.853	352.88
571.064	329.88
571.276	328.88
571.487	322.88
571.698	315.88
571.91	320.88
572.121	317.88
572.333	309.88
572.544	297.88
572.755	318.88
572.966	305.88
573.178	305.88
573.389	275.88
573.6	272.88
573.811	296.88
574.023	292.88
574.234	288.88
574.445	311.88
574.656	296.88
574.867	298.88
575.078	296.88
575.289	302.88
575.501	292.88
575.712	290.88
575.923	273.88
576.134	298.88
576.345	279.88
576.556	268.88
576.767	276.88
576.978	280.88
577.188	280.88
577.399	280.88
577.61	265.88
577.821	256.88
578.032	280.88
578.243	295.88
578.454	393.88
578.665	336.88
578.875	288.88
579.086	281.88
579.297	266.88
579.508	265.88
579.718	263.88
579.929	274.88
580.14	264.88
580.35	261.88
580.561	268.88
580.772	255.88
580.982	284.88
581.193	292.88
581.403	283.88
581.614	253.88
581.825	259.88
582.035	254.88
582.246	260.88
582.456	275.88
582.667	252.88
582.877	257.88
583.087	254.88
583.298	258.88
583.508	265.88
583.719	272.88
583.929	271.88
584.139	270.88
584.35	249.88
584.56	262.88
584.77	271.88
584.981	268.88
585.191	250.88
585.401	250.88
585.611	258.88
585.821	246.88
586.032	271.88
586.242	252.88
586.452	247.88
586.662	261.88
586.872	247.88
587.082	262.88
587.292	264.88
587.502	256.88
587.713	267.88
587.923	254.88
588.133	265.88
588.343	240.88
588.553	263.88
588.762	260.88
588.972	278.88
589.182	411.88
589.392	424.88
589.602	307.88
589.812	400.88
590.022	342.88
590.232	269.88
590.441	241.88
590.651	266.88
590.861	248.88
591.071	264.88
591.281	261.88
591.49	248.88
591.7	266.88
591.91	265.88
592.119	265.88
592.329	262.88
592.539	272.88
592.748	285.88
592.958	270.88
593.167	280.88
593.377	268.88
593.587	279.88
593.796	297.88
594.006	264.88
594.215	290.88
594.424	278.88
594.634	290.88
594.843	281.88
595.053	281.88
595.262	280.88
595.472	266.88
595.681	264.88
595.89	251.88
596.1	260.88
596.309	258.88
596.518	268.88
596.727	232.88
596.937	238.88
597.146	244.88
597.355	244.88
597.564	240.88
597.774	255.88
597.983	237.88
598.192	232.88
598.401	224.88
598.61	236.88
598.819	225.88
599.028	237.88
599.237	223.88
599.446	227.88
599.655	224.88
599.864	222.88
600.073	216.88
600.282	237.88
600.491	218.88
600.7	242.88
600.909	230.88
601.118	233.88
601.327	232.88
601.536	232.88
601.745	218.88
601.953	231.88
602.162	219.88
602.371	225.88
602.58	224.88
602.789	225.88
602.997	221.88
603.206	224.88
603.415	210.88
603.623	209.88
603.832	210.88
604.041	226.88
604.249	223.88
604.458	210.88
604.666	214.88
604.875	213.88
605.084	216.88
605.292	211.88
605.501	207.88
605.709	217.88
605.918	204.88
606.126	212.88
606.334	209.88
606.543	219.88
606.751	209.88
606.96	210.88
607.168	198.88
607.376	207.88
607.585	205.88
607.793	211.88
608.001	223.88
608.21	207.88
608.418	235.88
608.626	204.88
608.834	222.88
609.043	217.88
609.251	196.88
609.459	192.88
609.667	219.88
609.875	197.88
610.083	209.88
610.291	208.88
610.499	222.88
610.707	222.88
610.916	215.88
611.124	229.88
611.332	222.88
611.54	205.88
611.748	218.88
611.955	204.88
612.163	228.88
612.371	229.88
612.579	217.88
612.787	210.88
612.995	209.88
613.203	214.88
613.411	211.88
613.618	217.88
613.826	203.88
614.034	215.88
614.242	207.88
614.449	215.88
614.657	208.88
614.865	202.88
615.072	216.88
615.28	220.88
615.488	202.88
615.695	210.88
615.903	203.88
616.111	208.88
616.318	217.88
616.526	203.88
616.733	212.88
616.941	208.88
617.148	190.88
617.356	210.88
617.563	220.88
617.771	219.88
617.978	213.88
618.185	188.88
618.393	213.88
618.6	208.88
618.807	196.88
619.015	226.88
619.222	199.88
619.429	192.88
619.637	210.88
619.844	200.88
620.051	182.88
620.258	193.88
620.466	210.88
620.673	208.88
620.88	190.88
621.087	191.88
621.294	200.88
621.501	203.88
621.708	196.88
621.915	210.88
622.122	192.88
622.329	201.88
622.536	201.88
622.743	190.88
622.95	207.88
623.157	191.88
623.364	192.88
623.571	190.88
623.778	200.88
623.985	199.88
624.192	198.88
624.399	208.88
624.606	195.88
624.812	204.88
625.019	196.88
625.226	195.88
625.433	187.88
625.639	189.88
625.846	181.88
626.053	177.88
626.259	184.88
626.466	176.88
626.673	188.88
626.879	176.88
627.086	181.88
627.293	191.88
627.499	179.88
627.706	178.88
627.912	187.88
628.119	180.88
628.325	183.88
628.532	181.88
628.738	184.88
628.945	176.88
629.151	181.88
629.357	175.88
629.564	174.88
629.77	186.88
629.976	176.88
630.183	197.88
630.389	186.88
630.595	165.88
630.802	169.88
631.008	177.88
631.214	169.88
631.42	197.88
631.627	182.88
631.833	180.88
632.039	164.88
632.245	152.88
632.451	166.88
632.657	170.88
632.863	177.88
633.069	181.88
633.275	163.88
633.481	161.88
633.688	173.88
633.893	167.88
634.099	162.88
634.305	187.88
634.511	171.88
634.717	183.88
634.923	172.88
635.129	168.88
635.335	167.88
635.541	167.88
635.747	168.88
635.952	166.88
636.158	172.88
636.364	171.88
636.57	176.88
636.775	176.88
636.981	159.88
637.187	170.88
637.392	148.88
637.598	174.88
637.804	169.88
638.009	150.88
638.215	178.88
638.421	158.88
638.626	151.88
638.832	154.88
639.037	162.88
639.243	162.88
639.448	164.88
639.654	162.88
639.859	152.88
640.065	158.88
640.27	160.88
640.475	161.88
640.681	152.88
640.886	164.88
641.091	172.88
641.297	176.88
641.502	174.88
641.707	154.88
641.913	159.88
642.118	164.88
642.323	181.88
642.528	153.88
642.733	158.88
642.939	157.88
643.144	149.88
643.349	167.88
643.554	154.88
643.759	174.88
643.964	153.88
644.169	174.88
644.374	167.88
644.579	154.88
644.784	150.88
644.989	145.88
645.194	152.88
645.399	158.88
645.604	152.88
645.809	153.88
646.014	174.88
646.219	152.88
646.423	150.88
646.628	137.88
646.833	158.88
647.038	150.88
647.243	146.88
647.447	164.88
647.652	159.88
647.857	159.88
648.062	164.88
648.266	138.88
648.471	157.88
648.676	157.88
648.88	162.88
649.085	162.88
649.289	171.88
649.494	166.88
649.698	188.88
649.903	174.88
650.107	161.88
650.312	158.88
650.516	153.88
650.721	144.88
650.925	166.88
651.13	145.88
651.334	149.88
651.539	150.88
651.743	143.88
651.947	166.88
652.152	135.88
652.356	146.88
652.56	145.88
652.764	156.88
652.969	139.88
653.173	142.88
653.377	134.88
653.581	134.88
653.785	152.88
653.99	154.88
654.194	142.88
654.398	154.88
654.602	136.88
654.806	144.88
655.01	151.88
655.214	166.88
655.418	148.88
655.622	141.88
655.826	146.88
656.03	156.88
656.234	141.88
656.438	150.88
656.642	148.88
656.846	152.88
657.049	150.88
657.253	139.88
657.457	120.88
657.661	136.88
657.865	123.88
658.068	127.88
658.272	107.88
658.476	105.88
658.68	123.88
658.883	105.88
659.087	119.88
659.291	99.88
659.494	98.88
659.698	95.88
659.901	111.88
660.105	106.88
660.309	85.88
660.512	84.88
660.716	104.88
660.919	93.88
661.123	106.88
661.326	88.88
661.53	93.88
661.733	94.88
661.936	88.88
662.14	100.88
662.343	97.88
662.546	86.88
662.75	86.88
662.953	88.88
663.156	83.88
663.36	90.88
663.563	91.88
663.766	99.88
663.969	86.88
664.173	93.88
664.376	70.88
664.579	82.88
664.782	87.88
664.985	86.88
665.188	88.88
665.391	92.88
665.594	92.88
665.797	91.88
666	64.88
666.203	76.88
666.406	89.88
666.609	96.88
666.812	97.88
667.015	85.88
667.218	77.88
667.421	92.88
667.624	88.88
667.827	86.88
668.03	85.88
668.232	72.88
668.435	82.88
668.638	81.88
668.841	76.88
669.043	80.88
669.246	72.88
669.449	86.88
669.651	99.88
669.854	86.88
670.057	81.88
670.259	77.88
670.462	92.88
670.665	80.88
670.867	72.88
671.07	81.88
671.272	102.88
671.475	80.88
671.677	87.88
671.88	72.88
672.082	97.88
672.284	85.88
672.487	101.88
672.689	90.88
672.892	97.88
