Data from 1964.PennyLincolnUp.Lamp.En5.5.200Scan.071719.P1._HRD10591_14-06-29-910.txt Node
Date: Thu Jul 18 14:06:29 EDT 2019
User: cochatt
Spectrometer: HR+D1059
Trigger mode: 1
Integration Time (sec): 1.000000E-1
Scans to average: 1
Electric dark correction enabled: true
Nonlinearity correction enabled: false
Boxcar width: 0
XAxis mode: Wavelengths
Number of Pixels in Spectrum: 2048
>>>>>Begin Spectral Data<<<<<
223.165	-9.62
223.4	-9.62
223.635	-9.62
223.869	-23.62
224.104	-8.62
224.338	-14.62
224.573	3.38
224.808	-18.62
225.042	6.38
225.277	12.38
225.511	-9.62
225.746	-5.62
225.98	11.38
226.215	1.38
226.449	3.38
226.683	8.38
226.918	20.38
227.152	23.38
227.387	41.38
227.621	38.38
227.856	36.38
228.09	29.38
228.324	39.38
228.559	54.38
228.793	69.38
229.027	95.38
229.262	96.38
229.496	103.38
229.73	118.38
229.964	146.38
230.199	124.38
230.433	100.38
230.667	118.38
230.901	107.38
231.136	121.38
231.37	96.38
231.604	114.38
231.838	116.38
232.072	111.38
232.306	108.38
232.541	127.38
232.775	116.38
233.009	111.38
233.243	120.38
233.477	121.38
233.711	118.38
233.945	106.38
234.179	124.38
234.413	113.38
234.647	104.38
234.881	125.38
235.115	103.38
235.349	116.38
235.583	114.38
235.817	125.38
236.051	119.38
236.285	127.38
236.519	117.38
236.753	132.38
236.987	142.38
237.221	175.38
237.455	208.38
237.689	166.38
237.922	138.38
238.156	134.38
238.39	136.38
238.624	131.38
238.858	136.38
239.091	140.38
239.325	123.38
239.559	134.38
239.793	120.38
240.027	130.38
240.26	140.38
240.494	147.38
240.728	148.38
240.961	147.38
241.195	143.38
241.429	137.38
241.662	131.38
241.896	138.38
242.13	140.38
242.363	128.38
242.597	145.38
242.83	156.38
243.064	137.38
243.298	139.38
243.531	140.38
243.765	146.38
243.998	159.38
244.232	146.38
244.465	148.38
244.699	157.38
244.932	149.38
245.166	144.38
245.399	143.38
245.633	164.38
245.866	165.38
246.099	163.38
246.333	160.38
246.566	165.38
246.8	174.38
247.033	183.38
247.266	161.38
247.5	163.38
247.733	180.38
247.966	182.38
248.2	170.38
248.433	180.38
248.666	194.38
248.899	195.38
249.133	199.38
249.366	208.38
249.599	207.38
249.832	195.38
250.066	200.38
250.299	188.38
250.532	211.38
250.765	221.38
250.998	237.38
251.231	234.38
251.465	215.38
251.698	206.38
251.931	210.38
252.164	199.38
252.397	223.38
252.63	213.38
252.863	212.38
253.096	216.38
253.329	234.38
253.562	233.38
253.795	229.38
254.028	215.38
254.261	215.38
254.494	229.38
254.727	262.38
254.96	288.38
255.193	272.38
255.426	251.38
255.659	262.38
255.892	235.38
256.124	249.38
256.357	263.38
256.59	251.38
256.823	227.38
257.056	228.38
257.289	222.38
257.521	223.38
257.754	228.38
257.987	211.38
258.22	222.38
258.452	227.38
258.685	218.38
258.918	217.38
259.151	241.38
259.383	233.38
259.616	218.38
259.849	224.38
260.081	256.38
260.314	267.38
260.547	266.38
260.779	279.38
261.012	264.38
261.244	244.38
261.477	237.38
261.71	240.38
261.942	247.38
262.175	230.38
262.407	256.38
262.64	251.38
262.872	215.38
263.105	253.38
263.337	233.38
263.57	233.38
263.802	238.38
264.035	248.38
264.267	239.38
264.499	219.38
264.732	212.38
264.964	234.38
265.197	220.38
265.429	248.38
265.661	212.38
265.894	254.38
266.126	256.38
266.358	246.38
266.591	265.38
266.823	246.38
267.055	238.38
267.287	258.38
267.52	265.38
267.752	268.38
267.984	256.38
268.216	262.38
268.448	265.38
268.681	253.38
268.913	278.38
269.145	288.38
269.377	289.38
269.609	298.38
269.841	283.38
270.073	306.38
270.306	318.38
270.538	336.38
270.77	350.38
271.002	327.38
271.234	321.38
271.466	323.38
271.698	326.38
271.93	349.38
272.162	333.38
272.394	338.38
272.626	318.38
272.858	323.38
273.09	302.38
273.322	330.38
273.553	302.38
273.785	292.38
274.017	312.38
274.249	306.38
274.481	298.38
274.713	285.38
274.945	298.38
275.176	291.38
275.408	308.38
275.64	290.38
275.872	303.38
276.104	280.38
276.335	300.38
276.567	295.38
276.799	319.38
277.031	336.38
277.262	347.38
277.494	346.38
277.726	331.38
277.957	327.38
278.189	334.38
278.421	328.38
278.652	322.38
278.884	311.38
279.115	299.38
279.347	314.38
279.579	322.38
279.81	287.38
280.042	299.38
280.273	321.38
280.505	292.38
280.736	312.38
280.968	311.38
281.199	305.38
281.431	283.38
281.662	316.38
281.894	314.38
282.125	307.38
282.356	326.38
282.588	346.38
282.819	344.38
283.051	315.38
283.282	316.38
283.513	303.38
283.745	303.38
283.976	328.38
284.207	331.38
284.439	312.38
284.67	316.38
284.901	338.38
285.132	322.38
285.364	329.38
285.595	325.38
285.826	317.38
286.057	321.38
286.288	328.38
286.52	330.38
286.751	331.38
286.982	346.38
287.213	323.38
287.444	338.38
287.675	343.38
287.906	355.38
288.138	340.38
288.369	335.38
288.6	334.38
288.831	354.38
289.062	341.38
289.293	331.38
289.524	348.38
289.755	321.38
289.986	341.38
290.217	355.38
290.448	344.38
290.679	319.38
290.91	342.38
291.141	337.38
291.371	345.38
291.602	341.38
291.833	329.38
292.064	354.38
292.295	343.38
292.526	336.38
292.757	332.38
292.987	330.38
293.218	344.38
293.449	354.38
293.68	346.38
293.91	343.38
294.141	349.38
294.372	330.38
294.603	354.38
294.833	355.38
295.064	331.38
295.295	357.38
295.525	351.38
295.756	333.38
295.987	357.38
296.217	369.38
296.448	357.38
296.679	371.38
296.909	350.38
297.14	350.38
297.37	353.38
297.601	342.38
297.831	334.38
298.062	365.38
298.292	361.38
298.523	360.38
298.753	370.38
298.984	359.38
299.214	372.38
299.445	368.38
299.675	352.38
299.905	364.38
300.136	357.38
300.366	348.38
300.597	366.38
300.827	374.38
301.057	374.38
301.288	390.38
301.518	378.38
301.748	381.38
301.979	381.38
302.209	374.38
302.439	367.38
302.669	375.38
302.9	370.38
303.13	392.38
303.36	380.38
303.59	394.38
303.82	410.38
304.051	400.38
304.281	391.38
304.511	376.38
304.741	374.38
304.971	378.38
305.201	404.38
305.431	374.38
305.661	388.38
305.891	383.38
306.121	388.38
306.352	384.38
306.582	409.38
306.812	363.38
307.042	397.38
307.272	382.38
307.502	386.38
307.731	377.38
307.961	387.38
308.191	372.38
308.421	386.38
308.651	373.38
308.881	387.38
309.111	403.38
309.341	409.38
309.571	397.38
309.8	409.38
310.03	408.38
310.26	410.38
310.49	404.38
310.72	427.38
310.949	421.38
311.179	431.38
311.409	423.38
311.639	401.38
311.868	423.38
312.098	408.38
312.328	437.38
312.557	432.38
312.787	460.38
313.017	453.38
313.246	438.38
313.476	438.38
313.706	451.38
313.935	431.38
314.165	445.38
314.394	446.38
314.624	435.38
314.853	426.38
315.083	432.38
315.312	443.38
315.542	424.38
315.771	423.38
316.001	430.38
316.23	424.38
316.46	410.38
316.689	438.38
316.919	450.38
317.148	452.38
317.377	426.38
317.607	428.38
317.836	430.38
318.065	424.38
318.295	429.38
318.524	420.38
318.753	414.38
318.983	428.38
319.212	444.38
319.441	442.38
319.67	458.38
319.9	437.38
320.129	431.38
320.358	438.38
320.587	437.38
320.816	441.38
321.046	464.38
321.275	447.38
321.504	438.38
321.733	452.38
321.962	453.38
322.191	466.38
322.42	477.38
322.649	483.38
322.878	470.38
323.108	495.38
323.337	516.38
323.566	503.38
323.795	552.38
324.024	580.38
324.253	691.38
324.482	927.38
324.71	1380.38
324.939	1892.38
325.168	1594.38
325.397	857.38
325.626	628.38
325.855	557.38
326.084	552.38
326.313	514.38
326.542	510.38
326.77	578.38
326.999	640.38
327.228	846.38
327.457	1243.38
327.686	1414.38
327.914	976.38
328.143	684.38
328.372	621.38
328.6	591.38
328.829	570.38
329.058	591.38
329.287	571.38
329.515	559.38
329.744	534.38
329.972	528.38
330.201	571.38
330.43	607.38
330.658	584.38
330.887	617.38
331.115	591.38
331.344	560.38
331.572	519.38
331.801	510.38
332.03	543.38
332.258	498.38
332.486	515.38
332.715	523.38
332.943	502.38
333.172	517.38
333.4	525.38
333.629	524.38
333.857	549.38
334.085	564.38
334.314	584.38
334.542	598.38
334.771	584.38
334.999	546.38
335.227	543.38
335.455	532.38
335.684	506.38
335.912	487.38
336.14	507.38
336.369	511.38
336.597	517.38
336.825	515.38
337.053	530.38
337.281	490.38
337.51	494.38
337.738	484.38
337.966	492.38
338.194	506.38
338.422	478.38
338.65	466.38
338.878	491.38
339.106	493.38
339.334	479.38
339.562	484.38
339.79	463.38
340.018	473.38
340.246	470.38
340.474	482.38
340.702	464.38
340.93	483.38
341.158	483.38
341.386	480.38
341.614	471.38
341.842	465.38
342.07	510.38
342.298	463.38
342.526	456.38
342.754	471.38
342.981	475.38
343.209	474.38
343.437	472.38
343.665	474.38
343.893	510.38
344.12	476.38
344.348	488.38
344.576	474.38
344.804	485.38
345.031	464.38
345.259	484.38
345.487	477.38
345.714	450.38
345.942	454.38
346.17	458.38
346.397	445.38
346.625	470.38
346.853	464.38
347.08	442.38
347.308	464.38
347.535	447.38
347.763	463.38
347.99	454.38
348.218	448.38
348.445	460.38
348.673	430.38
348.9	422.38
349.128	441.38
349.355	436.38
349.583	444.38
349.81	437.38
350.037	447.38
350.265	430.38
350.492	432.38
350.72	440.38
350.947	465.38
351.174	438.38
351.402	447.38
351.629	438.38
351.856	428.38
352.083	455.38
352.311	455.38
352.538	460.38
352.765	449.38
352.992	438.38
353.22	456.38
353.447	456.38
353.674	441.38
353.901	448.38
354.128	431.38
354.355	409.38
354.583	423.38
354.81	421.38
355.037	409.38
355.264	410.38
355.491	422.38
355.718	405.38
355.945	422.38
356.172	408.38
356.399	423.38
356.626	411.38
356.853	410.38
357.08	434.38
357.307	409.38
357.534	423.38
357.761	428.38
357.988	397.38
358.215	408.38
358.441	412.38
358.668	400.38
358.895	427.38
359.122	420.38
359.349	422.38
359.576	448.38
359.802	459.38
360.029	479.38
360.256	473.38
360.483	445.38
360.709	444.38
360.936	422.38
361.163	425.38
361.39	423.38
361.616	446.38
361.843	414.38
362.07	444.38
362.296	446.38
362.523	420.38
362.749	450.38
362.976	423.38
363.203	413.38
363.429	422.38
363.656	415.38
363.882	422.38
364.109	409.38
364.335	394.38
364.562	424.38
364.788	412.38
365.015	423.38
365.241	412.38
365.468	427.38
365.694	418.38
365.92	418.38
366.147	427.38
366.373	423.38
366.599	425.38
366.826	430.38
367.052	422.38
367.278	411.38
367.505	422.38
367.731	420.38
367.957	423.38
368.184	428.38
368.41	431.38
368.636	402.38
368.862	422.38
369.089	420.38
369.315	411.38
369.541	414.38
369.767	404.38
369.993	405.38
370.219	410.38
370.445	431.38
370.672	445.38
370.898	406.38
371.124	431.38
371.35	427.38
371.576	423.38
371.802	414.38
372.028	428.38
372.254	408.38
372.48	427.38
372.706	425.38
372.932	418.38
373.158	419.38
373.384	428.38
373.61	432.38
373.835	443.38
374.061	418.38
374.287	427.38
374.513	427.38
374.739	410.38
374.965	428.38
375.191	428.38
375.416	421.38
375.642	425.38
375.868	418.38
376.094	424.38
376.319	400.38
376.545	406.38
376.771	432.38
376.997	400.38
377.222	414.38
377.448	421.38
377.674	423.38
377.899	388.38
378.125	408.38
378.35	413.38
378.576	410.38
378.802	400.38
379.027	410.38
379.253	412.38
379.478	423.38
379.704	400.38
379.929	395.38
380.155	408.38
380.38	404.38
380.606	410.38
380.831	414.38
381.057	404.38
381.282	426.38
381.507	424.38
381.733	392.38
381.958	405.38
382.184	420.38
382.409	402.38
382.634	411.38
382.86	427.38
383.085	431.38
383.31	431.38
383.535	421.38
383.761	415.38
383.986	420.38
384.211	437.38
384.436	414.38
384.662	438.38
384.887	436.38
385.112	440.38
385.337	418.38
385.562	417.38
385.787	448.38
386.013	459.38
386.238	455.38
386.463	463.38
386.688	471.38
386.913	472.38
387.138	459.38
387.363	445.38
387.588	436.38
387.813	447.38
388.038	439.38
388.263	428.38
388.488	458.38
388.713	450.38
388.938	445.38
389.163	459.38
389.387	464.38
389.612	448.38
389.837	455.38
390.062	452.38
390.287	428.38
390.512	435.38
390.736	432.38
390.961	451.38
391.186	448.38
391.411	441.38
391.636	454.38
391.86	451.38
392.085	470.38
392.31	468.38
392.534	476.38
392.759	453.38
392.984	444.38
393.208	450.38
393.433	448.38
393.658	458.38
393.882	448.38
394.107	449.38
394.331	456.38
394.556	460.38
394.78	463.38
395.005	452.38
395.229	446.38
395.454	470.38
395.678	464.38
395.903	488.38
396.127	489.38
396.352	491.38
396.576	470.38
396.801	471.38
397.025	460.38
397.249	481.38
397.474	478.38
397.698	448.38
397.922	483.38
398.147	492.38
398.371	513.38
398.595	504.38
398.82	514.38
399.044	500.38
399.268	533.38
399.492	572.38
399.717	606.38
399.941	635.38
400.165	636.38
400.389	615.38
400.613	564.38
400.837	551.38
401.062	528.38
401.286	519.38
401.51	498.38
401.734	480.38
401.958	507.38
402.182	524.38
402.406	488.38
402.63	522.38
402.854	521.38
403.078	518.38
403.302	500.38
403.526	535.38
403.75	507.38
403.974	493.38
404.198	508.38
404.422	547.38
404.645	517.38
404.869	547.38
405.093	588.38
405.317	584.38
405.541	618.38
405.765	555.38
405.988	541.38
406.212	549.38
406.436	568.38
406.66	558.38
406.883	564.38
407.107	580.38
407.331	622.38
407.555	685.38
407.778	664.38
408.002	620.38
408.226	578.38
408.449	592.38
408.673	568.38
408.896	591.38
409.12	619.38
409.344	598.38
409.567	543.38
409.791	527.38
410.014	528.38
410.238	526.38
410.461	512.38
410.685	522.38
410.908	528.38
411.132	543.38
411.355	617.38
411.578	572.38
411.802	525.38
412.025	515.38
412.249	505.38
412.472	522.38
412.695	595.38
412.919	568.38
413.142	528.38
413.365	517.38
413.589	498.38
413.812	505.38
414.035	484.38
414.258	491.38
414.482	493.38
414.705	492.38
414.928	481.38
415.151	478.38
415.374	463.38
415.597	490.38
415.821	485.38
416.044	505.38
416.267	473.38
416.49	483.38
416.713	452.38
416.936	491.38
417.159	468.38
417.382	468.38
417.605	477.38
417.828	518.38
418.051	500.38
418.274	486.38
418.497	469.38
418.72	494.38
418.943	474.38
419.166	504.38
419.389	504.38
419.611	510.38
419.834	503.38
420.057	514.38
420.28	528.38
420.503	531.38
420.726	507.38
420.948	490.38
421.171	546.38
421.394	541.38
421.617	534.38
421.839	481.38
422.062	482.38
422.285	507.38
422.507	549.38
422.73	613.38
422.953	592.38
423.175	524.38
423.398	527.38
423.621	520.38
423.843	555.38
424.066	541.38
424.288	550.38
424.511	528.38
424.733	571.38
424.956	656.38
425.178	630.38
425.401	638.38
425.623	642.38
425.846	570.38
426.068	531.38
426.291	524.38
426.513	524.38
426.735	522.38
426.958	536.38
427.18	626.38
427.402	744.38
427.625	810.38
427.847	686.38
428.069	590.38
428.292	554.38
428.514	513.38
428.736	497.38
428.958	490.38
429.181	466.38
429.403	480.38
429.625	471.38
429.847	526.38
430.069	561.38
430.292	576.38
430.514	499.38
430.736	485.38
430.958	451.38
431.18	454.38
431.402	456.38
431.624	481.38
431.846	462.38
432.068	472.38
432.29	468.38
432.512	457.38
432.734	486.38
432.956	477.38
433.178	472.38
433.4	474.38
433.622	470.38
433.844	479.38
434.066	463.38
434.287	457.38
434.509	468.38
434.731	498.38
434.953	501.38
435.175	510.38
435.397	512.38
435.618	521.38
435.84	564.38
436.062	623.38
436.284	679.38
436.505	566.38
436.727	520.38
436.949	500.38
437.17	490.38
437.392	467.38
437.614	465.38
437.835	519.38
438.057	564.38
438.278	661.38
438.5	644.38
438.721	720.38
438.943	698.38
439.165	556.38
439.386	525.38
439.608	515.38
439.829	506.38
440.05	527.38
440.272	585.38
440.493	539.38
440.715	488.38
440.936	490.38
441.158	499.38
441.379	502.38
441.6	511.38
441.822	506.38
442.043	538.38
442.264	605.38
442.486	628.38
442.707	566.38
442.928	522.38
443.149	565.38
443.371	571.38
443.592	592.38
443.813	667.38
444.034	726.38
444.255	586.38
444.476	534.38
444.698	531.38
444.919	536.38
445.14	611.38
445.361	571.38
445.582	543.38
445.803	605.38
446.024	696.38
446.245	671.38
446.466	612.38
446.687	559.38
446.908	508.38
447.129	480.38
447.35	468.38
447.571	485.38
447.792	472.38
448.013	485.38
448.234	475.38
448.455	523.38
448.675	630.38
448.896	717.38
449.117	606.38
449.338	583.38
449.559	675.38
449.779	751.38
450	598.38
450.221	488.38
450.442	473.38
450.662	436.38
450.883	445.38
451.104	482.38
451.324	436.38
451.545	451.38
451.766	441.38
451.986	410.38
452.207	423.38
452.428	422.38
452.648	437.38
452.869	406.38
453.089	416.38
453.31	444.38
453.53	421.38
453.751	414.38
453.971	419.38
454.192	419.38
454.412	425.38
454.633	415.38
454.853	423.38
455.073	434.38
455.294	463.38
455.514	495.38
455.734	476.38
455.955	435.38
456.175	411.38
456.395	418.38
456.616	382.38
456.836	407.38
457.056	384.38
457.276	398.38
457.497	388.38
457.717	399.38
457.937	422.38
458.157	407.38
458.377	418.38
458.598	404.38
458.818	444.38
459.038	524.38
459.258	549.38
459.478	483.38
459.698	462.38
459.918	442.38
460.138	450.38
460.358	455.38
460.578	462.38
460.798	466.38
461.018	473.38
461.238	462.38
461.458	475.38
461.678	491.38
461.898	488.38
462.118	456.38
462.338	474.38
462.558	502.38
462.777	514.38
462.997	526.38
463.217	531.38
463.437	534.38
463.657	511.38
463.876	513.38
464.096	485.38
464.316	517.38
464.536	519.38
464.755	503.38
464.975	498.38
465.195	515.38
465.414	536.38
465.634	482.38
465.854	442.38
466.073	455.38
466.293	427.38
466.512	454.38
466.732	438.38
466.951	437.38
467.171	427.38
467.391	424.38
467.61	441.38
467.829	444.38
468.049	448.38
468.268	439.38
468.488	426.38
468.707	427.38
468.927	423.38
469.146	413.38
469.365	407.38
469.585	386.38
469.804	430.38
470.023	451.38
470.243	446.38
470.462	464.38
470.681	454.38
470.901	446.38
471.12	436.38
471.339	444.38
471.558	445.38
471.777	447.38
471.997	444.38
472.216	438.38
472.435	476.38
472.654	435.38
472.873	429.38
473.092	444.38
473.311	435.38
473.53	429.38
473.749	436.38
473.968	477.38
474.187	576.38
474.406	582.38
474.625	504.38
474.844	461.38
475.063	444.38
475.282	442.38
475.501	428.38
475.72	420.38
475.939	461.38
476.158	462.38
476.377	439.38
476.596	450.38
476.814	462.38
477.033	468.38
477.252	461.38
477.471	451.38
477.69	474.38
477.908	481.38
478.127	459.38
478.346	482.38
478.564	522.38
478.783	501.38
479.002	500.38
479.22	498.38
479.439	504.38
479.658	527.38
479.876	494.38
480.095	530.38
480.313	541.38
480.532	537.38
480.751	540.38
480.969	534.38
481.188	591.38
481.406	610.38
481.624	554.38
481.843	521.38
482.061	518.38
482.28	506.38
482.498	506.38
482.717	502.38
482.935	499.38
483.153	515.38
483.372	512.38
483.59	517.38
483.808	507.38
484.027	486.38
484.245	488.38
484.463	517.38
484.681	522.38
484.9	509.38
485.118	523.38
485.336	518.38
485.554	506.38
485.772	531.38
485.99	519.38
486.209	514.38
486.427	528.38
486.645	532.38
486.863	550.38
487.081	539.38
487.299	542.38
487.517	533.38
487.735	523.38
487.953	522.38
488.171	534.38
488.389	534.38
488.607	533.38
488.825	554.38
489.043	537.38
489.261	563.38
489.479	544.38
489.696	532.38
489.914	528.38
490.132	558.38
490.35	564.38
490.568	562.38
490.786	573.38
491.003	565.38
491.221	582.38
491.439	595.38
491.657	606.38
491.874	606.38
492.092	615.38
492.31	623.38
492.527	583.38
492.745	624.38
492.963	610.38
493.18	610.38
493.398	617.38
493.615	614.38
493.833	615.38
494.05	618.38
494.268	624.38
494.485	583.38
494.703	628.38
494.92	617.38
495.138	648.38
495.355	608.38
495.573	613.38
495.79	634.38
496.008	629.38
496.225	602.38
496.442	628.38
496.66	646.38
496.877	626.38
497.094	624.38
497.312	619.38
497.529	652.38
497.746	657.38
497.963	662.38
498.181	692.38
498.398	701.38
498.615	734.38
498.832	715.38
499.049	739.38
499.267	777.38
499.484	796.38
499.701	847.38
499.918	872.38
500.135	910.38
500.352	943.38
500.569	954.38
500.786	961.38
501.003	907.38
501.22	933.38
501.437	887.38
501.654	843.38
501.871	835.38
502.088	805.38
502.305	759.38
502.522	752.38
502.739	732.38
502.956	686.38
503.172	672.38
503.389	652.38
503.606	660.38
503.823	678.38
504.04	641.38
504.256	640.38
504.473	660.38
504.69	643.38
504.907	664.38
505.123	615.38
505.34	599.38
505.557	598.38
505.773	601.38
505.99	595.38
506.207	599.38
506.423	600.38
506.64	574.38
506.856	603.38
507.073	587.38
507.289	591.38
507.506	561.38
507.722	583.38
507.939	572.38
508.155	585.38
508.372	583.38
508.588	534.38
508.805	554.38
509.021	562.38
509.238	554.38
509.454	576.38
509.67	582.38
509.887	576.38
510.103	553.38
510.319	552.38
510.536	600.38
510.752	839.38
510.968	708.38
511.184	561.38
511.401	554.38
511.617	520.38
511.833	552.38
512.049	531.38
512.265	527.38
512.481	520.38
512.698	535.38
512.914	517.38
513.13	521.38
513.346	518.38
513.562	527.38
513.778	502.38
513.994	529.38
514.21	517.38
514.426	557.38
514.642	555.38
514.858	576.38
515.074	621.38
515.29	669.38
515.506	834.38
515.721	714.38
515.937	576.38
516.153	574.38
516.369	563.38
516.585	559.38
516.801	547.38
517.016	550.38
517.232	553.38
517.448	582.38
517.664	567.38
517.879	572.38
518.095	582.38
518.311	534.38
518.527	550.38
518.742	577.38
518.958	530.38
519.173	542.38
519.389	522.38
519.605	494.38
519.82	517.38
520.036	511.38
520.251	538.38
520.467	559.38
520.682	573.38
520.898	530.38
521.113	552.38
521.329	565.38
521.544	607.38
521.76	714.38
521.975	1048.38
522.19	1026.38
522.406	657.38
522.621	554.38
522.836	502.38
523.052	498.38
523.267	493.38
523.482	468.38
523.698	471.38
523.913	474.38
524.128	471.38
524.343	449.38
524.559	451.38
524.774	457.38
524.989	449.38
525.204	479.38
525.419	459.38
525.634	460.38
525.849	472.38
526.064	450.38
526.28	423.38
526.495	426.38
526.71	438.38
526.925	424.38
527.14	417.38
527.355	452.38
527.57	427.38
527.785	429.38
527.999	434.38
528.214	428.38
528.429	425.38
528.644	440.38
528.859	424.38
529.074	446.38
529.289	442.38
529.503	492.38
529.718	481.38
529.933	438.38
530.148	457.38
530.363	438.38
530.577	434.38
530.792	431.38
531.007	434.38
531.221	434.38
531.436	441.38
531.651	425.38
531.865	421.38
532.08	419.38
532.295	424.38
532.509	429.38
532.724	415.38
532.938	416.38
533.153	387.38
533.367	418.38
533.582	413.38
533.796	412.38
534.011	419.38
534.225	418.38
534.44	420.38
534.654	407.38
534.868	422.38
535.083	396.38
535.297	407.38
535.511	392.38
535.726	423.38
535.94	422.38
536.154	416.38
536.369	404.38
536.583	390.38
536.797	395.38
537.011	406.38
537.225	398.38
537.44	400.38
537.654	417.38
537.868	391.38
538.082	411.38
538.296	386.38
538.51	417.38
538.724	390.38
538.938	391.38
539.153	409.38
539.367	395.38
539.581	399.38
539.795	383.38
540.009	379.38
540.222	409.38
540.436	397.38
540.65	400.38
540.864	422.38
541.078	414.38
541.292	406.38
541.506	392.38
541.72	397.38
541.934	400.38
542.147	391.38
542.361	394.38
542.575	414.38
542.789	403.38
543.002	385.38
543.216	396.38
543.43	390.38
543.644	421.38
543.857	408.38
544.071	409.38
544.285	409.38
544.498	395.38
544.712	386.38
544.925	380.38
545.139	390.38
545.352	379.38
545.566	399.38
545.779	390.38
545.993	390.38
546.206	412.38
546.42	390.38
546.633	392.38
546.847	388.38
547.06	375.38
547.274	384.38
547.487	380.38
547.7	392.38
547.914	382.38
548.127	395.38
548.34	372.38
548.554	381.38
548.767	406.38
548.98	374.38
549.193	388.38
549.407	390.38
549.62	376.38
549.833	390.38
550.046	388.38
550.259	382.38
550.473	375.38
550.686	392.38
550.899	373.38
551.112	392.38
551.325	406.38
551.538	386.38
551.751	404.38
551.964	379.38
552.177	377.38
552.39	358.38
552.603	394.38
552.816	408.38
553.029	395.38
553.242	375.38
553.455	400.38
553.667	398.38
553.88	394.38
554.093	401.38
554.306	384.38
554.519	398.38
554.732	382.38
554.944	376.38
555.157	377.38
555.37	381.38
555.583	371.38
555.795	350.38
556.008	357.38
556.221	350.38
556.433	336.38
556.646	335.38
556.859	342.38
557.071	346.38
557.284	332.38
557.496	356.38
557.709	334.38
557.921	344.38
558.134	347.38
558.346	349.38
558.559	350.38
558.771	335.38
558.984	326.38
559.196	349.38
559.409	367.38
559.621	345.38
559.833	340.38
560.046	330.38
560.258	348.38
560.47	335.38
560.683	358.38
560.895	329.38
561.107	339.38
561.32	328.38
561.532	339.38
561.744	363.38
561.956	361.38
562.168	335.38
562.381	314.38
562.593	340.38
562.805	343.38
563.017	350.38
563.229	342.38
563.441	334.38
563.653	355.38
563.865	352.38
564.077	342.38
564.289	345.38
564.501	352.38
564.713	355.38
564.925	348.38
565.137	364.38
565.349	376.38
565.561	382.38
565.773	387.38
565.985	392.38
566.197	388.38
566.408	397.38
566.62	438.38
566.832	413.38
567.044	429.38
567.255	439.38
567.467	427.38
567.679	470.38
567.891	479.38
568.102	465.38
568.314	432.38
568.526	423.38
568.737	401.38
568.949	401.38
569.161	382.38
569.372	373.38
569.584	364.38
569.795	346.38
570.007	349.38
570.218	385.38
570.43	373.38
570.641	328.38
570.853	340.38
571.064	342.38
571.276	317.38
571.487	331.38
571.698	326.38
571.91	314.38
572.121	308.38
572.333	321.38
572.544	334.38
572.755	325.38
572.966	320.38
573.178	317.38
573.389	295.38
573.6	304.38
573.811	286.38
574.023	309.38
574.234	296.38
574.445	316.38
574.656	290.38
574.867	304.38
575.078	306.38
575.289	304.38
575.501	301.38
575.712	291.38
575.923	280.38
576.134	287.38
576.345	299.38
576.556	276.38
576.767	279.38
576.978	295.38
577.188	286.38
577.399	286.38
577.61	293.38
577.821	282.38
578.032	290.38
578.243	299.38
578.454	402.38
578.665	341.38
578.875	290.38
579.086	272.38
579.297	262.38
579.508	261.38
579.718	278.38
579.929	282.38
580.14	275.38
580.35	290.38
580.561	289.38
580.772	263.38
580.982	268.38
581.193	276.38
581.403	261.38
581.614	280.38
581.825	264.38
582.035	271.38
582.246	259.38
582.456	272.38
582.667	254.38
582.877	268.38
583.087	272.38
583.298	269.38
583.508	269.38
583.719	278.38
583.929	276.38
584.139	255.38
584.35	245.38
584.56	267.38
584.77	268.38
584.981	281.38
585.191	278.38
585.401	278.38
585.611	282.38
585.821	276.38
586.032	258.38
586.242	267.38
586.452	250.38
586.662	256.38
586.872	255.38
587.082	267.38
587.292	258.38
587.502	262.38
587.713	260.38
587.923	258.38
588.133	259.38
588.343	272.38
588.553	262.38
588.762	266.38
588.972	281.38
589.182	260.38
589.392	263.38
589.602	252.38
589.812	269.38
590.022	254.38
590.232	267.38
590.441	263.38
590.651	270.38
590.861	242.38
591.071	259.38
591.281	269.38
591.49	256.38
591.7	259.38
591.91	275.38
592.119	274.38
592.329	275.38
592.539	264.38
592.748	280.38
592.958	280.38
593.167	271.38
593.377	281.38
593.587	300.38
593.796	294.38
594.006	292.38
594.215	309.38
594.424	272.38
594.634	289.38
594.843	266.38
595.053	263.38
595.262	270.38
595.472	254.38
595.681	250.38
595.89	249.38
596.1	248.38
596.309	255.38
596.518	239.38
596.727	252.38
596.937	246.38
597.146	256.38
597.355	254.38
597.564	255.38
597.774	244.38
597.983	234.38
598.192	245.38
598.401	227.38
598.61	220.38
598.819	244.38
599.028	230.38
599.237	245.38
599.446	237.38
599.655	231.38
599.864	216.38
600.073	216.38
600.282	234.38
600.491	262.38
600.7	251.38
600.909	222.38
601.118	226.38
601.327	219.38
601.536	224.38
601.745	220.38
601.953	230.38
602.162	235.38
602.371	226.38
602.58	222.38
602.789	223.38
602.997	229.38
603.206	242.38
603.415	227.38
603.623	203.38
603.832	230.38
604.041	231.38
604.249	236.38
604.458	213.38
604.666	210.38
604.875	214.38
605.084	212.38
605.292	227.38
605.501	216.38
605.709	222.38
605.918	187.38
606.126	210.38
606.334	211.38
606.543	208.38
606.751	220.38
606.96	217.38
607.168	215.38
607.376	213.38
607.585	230.38
607.793	209.38
608.001	214.38
608.21	209.38
608.418	204.38
608.626	219.38
608.834	207.38
609.043	224.38
609.251	222.38
609.459	204.38
609.667	214.38
609.875	218.38
610.083	208.38
610.291	212.38
610.499	220.38
610.707	211.38
610.916	212.38
611.124	221.38
611.332	207.38
611.54	208.38
611.748	221.38
611.955	218.38
612.163	221.38
612.371	226.38
612.579	211.38
612.787	213.38
612.995	213.38
613.203	212.38
613.411	226.38
613.618	204.38
613.826	226.38
614.034	216.38
614.242	211.38
614.449	200.38
614.657	196.38
614.865	221.38
615.072	199.38
615.28	216.38
615.488	205.38
615.695	202.38
615.903	207.38
616.111	197.38
616.318	212.38
616.526	207.38
616.733	194.38
616.941	225.38
617.148	211.38
617.356	213.38
617.563	227.38
617.771	215.38
617.978	192.38
618.185	217.38
618.393	195.38
618.6	199.38
618.807	210.38
619.015	210.38
619.222	195.38
619.429	204.38
619.637	208.38
619.844	219.38
620.051	199.38
620.258	192.38
620.466	205.38
620.673	189.38
620.88	201.38
621.087	201.38
621.294	213.38
621.501	179.38
621.708	204.38
621.915	197.38
622.122	197.38
622.329	200.38
622.536	203.38
622.743	195.38
622.95	199.38
623.157	201.38
623.364	206.38
623.571	207.38
623.778	197.38
623.985	185.38
624.192	185.38
624.399	193.38
624.606	198.38
624.812	200.38
625.019	196.38
625.226	202.38
625.433	191.38
625.639	189.38
625.846	181.38
626.053	174.38
626.259	192.38
626.466	164.38
626.673	191.38
626.879	182.38
627.086	205.38
627.293	186.38
627.499	188.38
627.706	203.38
627.912	189.38
628.119	170.38
628.325	175.38
628.532	190.38
628.738	191.38
628.945	186.38
629.151	180.38
629.357	178.38
629.564	181.38
629.77	182.38
629.976	179.38
630.183	185.38
630.389	179.38
630.595	162.38
630.802	179.38
631.008	152.38
631.214	172.38
631.42	171.38
631.627	175.38
631.833	182.38
632.039	171.38
632.245	163.38
632.451	168.38
632.657	171.38
632.863	187.38
633.069	158.38
633.275	173.38
633.481	155.38
633.688	167.38
633.893	166.38
634.099	173.38
634.305	198.38
634.511	170.38
634.717	180.38
634.923	165.38
635.129	166.38
635.335	153.38
635.541	159.38
635.747	167.38
635.952	166.38
636.158	162.38
636.364	179.38
636.57	175.38
636.775	171.38
636.981	175.38
637.187	157.38
637.392	160.38
637.598	154.38
637.804	166.38
638.009	158.38
638.215	160.38
638.421	148.38
638.626	168.38
638.832	155.38
639.037	172.38
639.243	145.38
639.448	162.38
639.654	147.38
639.859	162.38
640.065	163.38
640.27	161.38
640.475	165.38
640.681	145.38
640.886	163.38
641.091	148.38
641.297	153.38
641.502	157.38
641.707	168.38
641.913	155.38
642.118	149.38
642.323	150.38
642.528	153.38
642.733	163.38
642.939	142.38
643.144	159.38
643.349	157.38
643.554	160.38
643.759	154.38
643.964	144.38
644.169	148.38
644.374	158.38
644.579	154.38
644.784	161.38
644.989	155.38
645.194	146.38
645.399	145.38
645.604	153.38
645.809	152.38
646.014	154.38
646.219	154.38
646.423	148.38
646.628	158.38
646.833	147.38
647.038	160.38
647.243	145.38
647.447	148.38
647.652	166.38
647.857	152.38
648.062	147.38
648.266	153.38
648.471	157.38
648.676	165.38
648.88	165.38
649.085	153.38
649.289	156.38
649.494	154.38
649.698	168.38
649.903	181.38
650.107	164.38
650.312	174.38
650.516	150.38
650.721	134.38
650.925	143.38
651.13	125.38
651.334	142.38
651.539	151.38
651.743	143.38
651.947	139.38
652.152	142.38
652.356	144.38
652.56	162.38
652.764	141.38
652.969	140.38
653.173	144.38
653.377	136.38
653.581	146.38
653.785	137.38
653.99	125.38
654.194	136.38
654.398	129.38
654.602	133.38
654.806	122.38
655.01	145.38
655.214	136.38
655.418	146.38
655.622	137.38
655.826	140.38
656.03	135.38
656.234	125.38
656.438	134.38
656.642	144.38
656.846	142.38
657.049	124.38
657.253	109.38
657.457	118.38
657.661	112.38
657.865	111.38
658.068	113.38
658.272	137.38
658.476	112.38
658.68	95.38
658.883	107.38
659.087	109.38
659.291	108.38
659.494	104.38
659.698	103.38
659.901	88.38
660.105	92.38
660.309	98.38
660.512	95.38
660.716	103.38
660.919	106.38
661.123	91.38
661.326	97.38
661.53	71.38
661.733	79.38
661.936	85.38
662.14	88.38
662.343	88.38
662.546	90.38
662.75	80.38
662.953	100.38
663.156	81.38
663.36	79.38
663.563	67.38
663.766	83.38
663.969	91.38
664.173	82.38
664.376	78.38
664.579	88.38
664.782	99.38
664.985	86.38
665.188	71.38
665.391	83.38
665.594	81.38
665.797	87.38
666	83.38
666.203	69.38
666.406	91.38
666.609	81.38
666.812	78.38
667.015	96.38
667.218	88.38
667.421	81.38
667.624	81.38
667.827	88.38
668.03	71.38
668.232	78.38
668.435	89.38
668.638	96.38
668.841	93.38
669.043	71.38
669.246	84.38
669.449	90.38
669.651	80.38
669.854	76.38
670.057	91.38
670.259	81.38
670.462	93.38
670.665	80.38
670.867	74.38
671.07	96.38
671.272	104.38
671.475	88.38
671.677	95.38
671.88	82.38
672.082	91.38
672.284	83.38
672.487	96.38
672.689	88.38
672.892	85.38
