Data from 1964.PennyLincolnUp.Lamp.En5.5.200Scan.071719.P1._HRD10591_14-03-49-908.txt Node
Date: Thu Jul 18 14:03:49 EDT 2019
User: cochatt
Spectrometer: HR+D1059
Trigger mode: 1
Integration Time (sec): 1.000000E-1
Scans to average: 1
Electric dark correction enabled: true
Nonlinearity correction enabled: false
Boxcar width: 0
XAxis mode: Wavelengths
Number of Pixels in Spectrum: 2048
>>>>>Begin Spectral Data<<<<<
223.165	-34.12
223.4	-34.12
223.635	-34.12
223.869	-21.12
224.104	-10.12
224.338	-16.12
224.573	-12.12
224.808	6.88
225.042	-2.12
225.277	-2.12
225.511	-9.12
225.746	-2.12
225.98	9.88
226.215	6.88
226.449	10.88
226.683	22.88
226.918	24.88
227.152	26.88
227.387	28.88
227.621	23.88
227.856	40.88
228.09	51.88
228.324	33.88
228.559	47.88
228.793	59.88
229.027	79.88
229.262	88.88
229.496	87.88
229.73	104.88
229.964	126.88
230.199	105.88
230.433	99.88
230.667	99.88
230.901	111.88
231.136	100.88
231.37	98.88
231.604	101.88
231.838	106.88
232.072	91.88
232.306	98.88
232.541	101.88
232.775	91.88
233.009	100.88
233.243	106.88
233.477	86.88
233.711	109.88
233.945	100.88
234.179	103.88
234.413	101.88
234.647	98.88
234.881	98.88
235.115	106.88
235.349	116.88
235.583	93.88
235.817	117.88
236.051	115.88
236.285	107.88
236.519	105.88
236.753	128.88
236.987	144.88
237.221	164.88
237.455	183.88
237.689	131.88
237.922	130.88
238.156	123.88
238.39	115.88
238.624	122.88
238.858	106.88
239.091	113.88
239.325	111.88
239.559	125.88
239.793	113.88
240.027	124.88
240.26	130.88
240.494	153.88
240.728	121.88
240.961	132.88
241.195	136.88
241.429	123.88
241.662	132.88
241.896	128.88
242.13	126.88
242.363	117.88
242.597	117.88
242.83	114.88
243.064	138.88
243.298	127.88
243.531	119.88
243.765	118.88
243.998	143.88
244.232	125.88
244.465	138.88
244.699	154.88
244.932	131.88
245.166	136.88
245.399	129.88
245.633	145.88
245.866	142.88
246.099	147.88
246.333	125.88
246.566	147.88
246.8	146.88
247.033	139.88
247.266	156.88
247.5	148.88
247.733	144.88
247.966	155.88
248.2	135.88
248.433	153.88
248.666	156.88
248.899	171.88
249.133	177.88
249.366	179.88
249.599	162.88
249.832	163.88
250.066	154.88
250.299	174.88
250.532	169.88
250.765	176.88
250.998	189.88
251.231	198.88
251.465	190.88
251.698	182.88
251.931	188.88
252.164	166.88
252.397	173.88
252.63	181.88
252.863	196.88
253.096	208.88
253.329	202.88
253.562	197.88
253.795	194.88
254.028	205.88
254.261	189.88
254.494	197.88
254.727	210.88
254.96	226.88
255.193	223.88
255.426	207.88
255.659	210.88
255.892	219.88
256.124	215.88
256.357	209.88
256.59	211.88
256.823	199.88
257.056	199.88
257.289	199.88
257.521	199.88
257.754	189.88
257.987	192.88
258.22	196.88
258.452	185.88
258.685	181.88
258.918	184.88
259.151	184.88
259.383	217.88
259.616	214.88
259.849	205.88
260.081	210.88
260.314	224.88
260.547	226.88
260.779	233.88
261.012	217.88
261.244	216.88
261.477	221.88
261.71	205.88
261.942	219.88
262.175	210.88
262.407	212.88
262.64	192.88
262.872	202.88
263.105	206.88
263.337	204.88
263.57	211.88
263.802	196.88
264.035	199.88
264.267	196.88
264.499	203.88
264.732	217.88
264.964	196.88
265.197	205.88
265.429	204.88
265.661	206.88
265.894	183.88
266.126	208.88
266.358	206.88
266.591	215.88
266.823	212.88
267.055	217.88
267.287	214.88
267.52	214.88
267.752	202.88
267.984	234.88
268.216	225.88
268.448	229.88
268.681	233.88
268.913	234.88
269.145	239.88
269.377	251.88
269.609	234.88
269.841	242.88
270.073	252.88
270.306	263.88
270.538	287.88
270.77	262.88
271.002	277.88
271.234	268.88
271.466	278.88
271.698	286.88
271.93	291.88
272.162	297.88
272.394	279.88
272.626	263.88
272.858	262.88
273.09	263.88
273.322	257.88
273.553	266.88
273.785	253.88
274.017	241.88
274.249	241.88
274.481	242.88
274.713	274.88
274.945	263.88
275.176	263.88
275.408	257.88
275.64	243.88
275.872	250.88
276.104	257.88
276.335	260.88
276.567	261.88
276.799	280.88
277.031	276.88
277.262	271.88
277.494	284.88
277.726	288.88
277.957	276.88
278.189	277.88
278.421	261.88
278.652	259.88
278.884	255.88
279.115	274.88
279.347	267.88
279.579	257.88
279.81	272.88
280.042	263.88
280.273	267.88
280.505	267.88
280.736	266.88
280.968	250.88
281.199	261.88
281.431	273.88
281.662	294.88
281.894	276.88
282.125	286.88
282.356	294.88
282.588	298.88
282.819	293.88
283.051	276.88
283.282	279.88
283.513	296.88
283.745	278.88
283.976	293.88
284.207	289.88
284.439	283.88
284.67	271.88
284.901	292.88
285.132	286.88
285.364	275.88
285.595	291.88
285.826	288.88
286.057	274.88
286.288	274.88
286.52	301.88
286.751	272.88
286.982	280.88
287.213	287.88
287.444	313.88
287.675	292.88
287.906	290.88
288.138	291.88
288.369	298.88
288.6	308.88
288.831	288.88
289.062	291.88
289.293	310.88
289.524	309.88
289.755	291.88
289.986	285.88
290.217	286.88
290.448	294.88
290.679	291.88
290.91	285.88
291.141	281.88
291.371	285.88
291.602	305.88
291.833	304.88
292.064	308.88
292.295	287.88
292.526	273.88
292.757	296.88
292.987	267.88
293.218	306.88
293.449	303.88
293.68	307.88
293.91	296.88
294.141	287.88
294.372	313.88
294.603	303.88
294.833	289.88
295.064	285.88
295.295	315.88
295.525	305.88
295.756	299.88
295.987	292.88
296.217	328.88
296.448	329.88
296.679	316.88
296.909	315.88
297.14	298.88
297.37	312.88
297.601	322.88
297.831	320.88
298.062	312.88
298.292	312.88
298.523	328.88
298.753	311.88
298.984	301.88
299.214	319.88
299.445	334.88
299.675	331.88
299.905	317.88
300.136	323.88
300.366	312.88
300.597	323.88
300.827	340.88
301.057	324.88
301.288	340.88
301.518	319.88
301.748	322.88
301.979	320.88
302.209	313.88
302.439	321.88
302.669	326.88
302.9	337.88
303.13	333.88
303.36	328.88
303.59	312.88
303.82	347.88
304.051	325.88
304.281	340.88
304.511	353.88
304.741	352.88
304.971	333.88
305.201	340.88
305.431	349.88
305.661	333.88
305.891	329.88
306.121	336.88
306.352	330.88
306.582	355.88
306.812	324.88
307.042	338.88
307.272	325.88
307.502	332.88
307.731	337.88
307.961	359.88
308.191	327.88
308.421	338.88
308.651	333.88
308.881	332.88
309.111	325.88
309.341	325.88
309.571	350.88
309.8	335.88
310.03	353.88
310.26	341.88
310.49	340.88
310.72	377.88
310.949	357.88
311.179	371.88
311.409	371.88
311.639	359.88
311.868	351.88
312.098	362.88
312.328	365.88
312.557	358.88
312.787	371.88
313.017	385.88
313.246	376.88
313.476	362.88
313.706	367.88
313.935	366.88
314.165	386.88
314.394	359.88
314.624	389.88
314.853	368.88
315.083	358.88
315.312	370.88
315.542	365.88
315.771	353.88
316.001	377.88
316.23	391.88
316.46	348.88
316.689	361.88
316.919	374.88
317.148	383.88
317.377	372.88
317.607	373.88
317.836	359.88
318.065	368.88
318.295	367.88
318.524	366.88
318.753	370.88
318.983	379.88
319.212	367.88
319.441	367.88
319.67	375.88
319.9	357.88
320.129	362.88
320.358	384.88
320.587	377.88
320.816	374.88
321.046	383.88
321.275	377.88
321.504	378.88
321.733	392.88
321.962	395.88
322.191	394.88
322.42	374.88
322.649	389.88
322.878	392.88
323.108	400.88
323.337	401.88
323.566	419.88
323.795	442.88
324.024	465.88
324.253	503.88
324.482	703.88
324.71	989.88
324.939	1378.88
325.168	1131.88
325.397	629.88
325.626	485.88
325.855	423.88
326.084	449.88
326.313	431.88
326.542	442.88
326.77	465.88
326.999	515.88
327.228	631.88
327.457	888.88
327.686	1008.88
327.914	723.88
328.143	521.88
328.372	500.88
328.6	478.88
328.829	459.88
329.058	467.88
329.287	475.88
329.515	443.88
329.744	446.88
329.972	447.88
330.201	472.88
330.43	476.88
330.658	453.88
330.887	488.88
331.115	463.88
331.344	453.88
331.572	429.88
331.801	453.88
332.03	457.88
332.258	443.88
332.486	427.88
332.715	422.88
332.943	452.88
333.172	438.88
333.4	442.88
333.629	464.88
333.857	484.88
334.085	488.88
334.314	485.88
334.542	490.88
334.771	513.88
334.999	481.88
335.227	456.88
335.455	467.88
335.684	467.88
335.912	458.88
336.14	461.88
336.369	451.88
336.597	421.88
336.825	443.88
337.053	437.88
337.281	439.88
337.51	419.88
337.738	418.88
337.966	430.88
338.194	415.88
338.422	389.88
338.65	398.88
338.878	405.88
339.106	437.88
339.334	420.88
339.562	425.88
339.79	407.88
340.018	417.88
340.246	434.88
340.474	422.88
340.702	411.88
340.93	414.88
341.158	401.88
341.386	421.88
341.614	403.88
341.842	399.88
342.07	413.88
342.298	417.88
342.526	399.88
342.754	399.88
342.981	382.88
343.209	397.88
343.437	389.88
343.665	431.88
343.893	441.88
344.12	435.88
344.348	436.88
344.576	434.88
344.804	416.88
345.031	419.88
345.259	427.88
345.487	426.88
345.714	398.88
345.942	405.88
346.17	393.88
346.397	396.88
346.625	398.88
346.853	377.88
347.08	383.88
347.308	387.88
347.535	401.88
347.763	394.88
347.99	412.88
348.218	385.88
348.445	388.88
348.673	377.88
348.9	381.88
349.128	387.88
349.355	371.88
349.583	375.88
349.81	367.88
350.037	371.88
350.265	387.88
350.492	378.88
350.72	387.88
350.947	393.88
351.174	382.88
351.402	401.88
351.629	385.88
351.856	377.88
352.083	379.88
352.311	403.88
352.538	407.88
352.765	382.88
352.992	373.88
353.22	386.88
353.447	374.88
353.674	371.88
353.901	367.88
354.128	363.88
354.355	374.88
354.583	381.88
354.81	359.88
355.037	366.88
355.264	369.88
355.491	357.88
355.718	357.88
355.945	378.88
356.172	373.88
356.399	347.88
356.626	345.88
356.853	367.88
357.08	365.88
357.307	367.88
357.534	370.88
357.761	375.88
357.988	358.88
358.215	379.88
358.441	365.88
358.668	363.88
358.895	381.88
359.122	371.88
359.349	390.88
359.576	372.88
359.802	384.88
360.029	390.88
360.256	407.88
360.483	385.88
360.709	381.88
360.936	377.88
361.163	393.88
361.39	375.88
361.616	371.88
361.843	387.88
362.07	377.88
362.296	372.88
362.523	375.88
362.749	369.88
362.976	373.88
363.203	387.88
363.429	369.88
363.656	369.88
363.882	357.88
364.109	389.88
364.335	359.88
364.562	365.88
364.788	362.88
365.015	363.88
365.241	377.88
365.468	378.88
365.694	357.88
365.92	368.88
366.147	379.88
366.373	370.88
366.599	374.88
366.826	393.88
367.052	352.88
367.278	369.88
367.505	367.88
367.731	369.88
367.957	353.88
368.184	359.88
368.41	383.88
368.636	374.88
368.862	367.88
369.089	372.88
369.315	359.88
369.541	365.88
369.767	371.88
369.993	377.88
370.219	377.88
370.445	373.88
370.672	376.88
370.898	377.88
371.124	380.88
371.35	349.88
371.576	355.88
371.802	382.88
372.028	379.88
372.254	372.88
372.48	383.88
372.706	385.88
372.932	371.88
373.158	381.88
373.384	371.88
373.61	369.88
373.835	354.88
374.061	359.88
374.287	361.88
374.513	377.88
374.739	375.88
374.965	376.88
375.191	374.88
375.416	386.88
375.642	367.88
375.868	375.88
376.094	382.88
376.319	366.88
376.545	371.88
376.771	387.88
376.997	370.88
377.222	362.88
377.448	362.88
377.674	361.88
377.899	375.88
378.125	349.88
378.35	358.88
378.576	362.88
378.802	368.88
379.027	351.88
379.253	362.88
379.478	370.88
379.704	369.88
379.929	354.88
380.155	347.88
380.38	377.88
380.606	371.88
380.831	358.88
381.057	364.88
381.282	341.88
381.507	373.88
381.733	369.88
381.958	366.88
382.184	398.88
382.409	370.88
382.634	363.88
382.86	381.88
383.085	362.88
383.31	379.88
383.535	377.88
383.761	382.88
383.986	384.88
384.211	384.88
384.436	369.88
384.662	391.88
384.887	390.88
385.112	409.88
385.337	397.88
385.562	409.88
385.787	395.88
386.013	407.88
386.238	420.88
386.463	377.88
386.688	407.88
386.913	379.88
387.138	411.88
387.363	401.88
387.588	403.88
387.813	406.88
388.038	399.88
388.263	411.88
388.488	404.88
388.713	401.88
388.938	399.88
389.163	389.88
389.387	417.88
389.612	419.88
389.837	382.88
390.062	386.88
390.287	392.88
390.512	392.88
390.736	398.88
390.961	411.88
391.186	406.88
391.411	411.88
391.636	422.88
391.86	402.88
392.085	421.88
392.31	429.88
392.534	417.88
392.759	410.88
392.984	418.88
393.208	394.88
393.433	418.88
393.658	424.88
393.882	397.88
394.107	389.88
394.331	394.88
394.556	382.88
394.78	410.88
395.005	408.88
395.229	404.88
395.454	416.88
395.678	423.88
395.903	425.88
396.127	437.88
396.352	427.88
396.576	409.88
396.801	404.88
397.025	415.88
397.249	409.88
397.474	423.88
397.698	443.88
397.922	418.88
398.147	443.88
398.371	437.88
398.595	431.88
398.82	438.88
399.044	482.88
399.268	494.88
399.492	513.88
399.717	552.88
399.941	536.88
400.165	561.88
400.389	536.88
400.613	492.88
400.837	478.88
401.062	456.88
401.286	458.88
401.51	438.88
401.734	435.88
401.958	463.88
402.182	460.88
402.406	463.88
402.63	461.88
402.854	455.88
403.078	462.88
403.302	485.88
403.526	454.88
403.75	484.88
403.974	470.88
404.198	463.88
404.422	460.88
404.645	470.88
404.869	489.88
405.093	502.88
405.317	516.88
405.541	541.88
405.765	499.88
405.988	458.88
406.212	479.88
406.436	505.88
406.66	489.88
406.883	510.88
407.107	509.88
407.331	537.88
407.555	591.88
407.778	584.88
408.002	535.88
408.226	502.88
408.449	489.88
408.673	517.88
408.896	541.88
409.12	552.88
409.344	542.88
409.567	466.88
409.791	481.88
410.014	465.88
410.238	432.88
410.461	477.88
410.685	453.88
410.908	460.88
411.132	467.88
411.355	494.88
411.578	480.88
411.802	468.88
412.025	449.88
412.249	458.88
412.472	483.88
412.695	493.88
412.919	479.88
413.142	462.88
413.365	452.88
413.589	449.88
413.812	433.88
414.035	437.88
414.258	438.88
414.482	443.88
414.705	423.88
414.928	440.88
415.151	426.88
415.374	448.88
415.597	433.88
415.821	425.88
416.044	435.88
416.267	415.88
416.49	444.88
416.713	426.88
416.936	440.88
417.159	406.88
417.382	425.88
417.605	428.88
417.828	423.88
418.051	427.88
418.274	430.88
418.497	417.88
418.72	431.88
418.943	417.88
419.166	462.88
419.389	469.88
419.611	463.88
419.834	438.88
420.057	469.88
420.28	449.88
420.503	433.88
420.726	428.88
420.948	441.88
421.171	459.88
421.394	482.88
421.617	453.88
421.839	431.88
422.062	412.88
422.285	447.88
422.507	484.88
422.73	529.88
422.953	509.88
423.175	458.88
423.398	435.88
423.621	457.88
423.843	452.88
424.066	463.88
424.288	461.88
424.511	489.88
424.733	497.88
424.956	581.88
425.178	538.88
425.401	527.88
425.623	553.88
425.846	472.88
426.068	458.88
426.291	445.88
426.513	429.88
426.735	447.88
426.958	478.88
427.18	538.88
427.402	633.88
427.625	663.88
427.847	572.88
428.069	501.88
428.292	467.88
428.514	447.88
428.736	431.88
428.958	414.88
429.181	438.88
429.403	423.88
429.625	433.88
429.847	438.88
430.069	481.88
430.292	457.88
430.514	429.88
430.736	422.88
430.958	418.88
431.18	389.88
431.402	397.88
431.624	387.88
431.846	412.88
432.068	389.88
432.29	414.88
432.512	387.88
432.734	406.88
432.956	425.88
433.178	416.88
433.4	407.88
433.622	400.88
433.844	402.88
434.066	411.88
434.287	400.88
434.509	424.88
434.731	402.88
434.953	431.88
435.175	425.88
435.397	463.88
435.618	446.88
435.84	473.88
436.062	538.88
436.284	585.88
436.505	472.88
436.727	463.88
436.949	448.88
437.17	417.88
437.392	421.88
437.614	417.88
437.835	465.88
438.057	507.88
438.278	535.88
438.5	576.88
438.721	608.88
438.943	603.88
439.165	496.88
439.386	453.88
439.608	449.88
439.829	441.88
440.05	466.88
440.272	473.88
440.493	441.88
440.715	433.88
440.936	446.88
441.158	416.88
441.379	413.88
441.6	424.88
441.822	430.88
442.043	474.88
442.264	515.88
442.486	562.88
442.707	473.88
442.928	457.88
443.149	436.88
443.371	459.88
443.592	494.88
443.813	587.88
444.034	615.88
444.255	522.88
444.476	486.88
444.698	461.88
444.919	465.88
445.14	580.88
445.361	508.88
445.582	475.88
445.803	516.88
446.024	574.88
446.245	575.88
446.466	522.88
446.687	458.88
446.908	447.88
447.129	417.88
447.35	400.88
447.571	393.88
447.792	416.88
448.013	415.88
448.234	398.88
448.455	438.88
448.675	559.88
448.896	603.88
449.117	522.88
449.338	494.88
449.559	568.88
449.779	640.88
450	505.88
450.221	433.88
450.442	417.88
450.662	403.88
450.883	388.88
451.104	399.88
451.324	401.88
451.545	373.88
451.766	375.88
451.986	377.88
452.207	357.88
452.428	360.88
452.648	381.88
452.869	377.88
453.089	367.88
453.31	374.88
453.53	367.88
453.751	345.88
453.971	383.88
454.192	373.88
454.412	368.88
454.633	361.88
454.853	365.88
455.073	357.88
455.294	365.88
455.514	416.88
455.734	401.88
455.955	373.88
456.175	353.88
456.395	349.88
456.616	345.88
456.836	344.88
457.056	347.88
457.276	325.88
457.497	348.88
457.717	379.88
457.937	365.88
458.157	370.88
458.377	374.88
458.598	387.88
458.818	403.88
459.038	441.88
459.258	467.88
459.478	412.88
459.698	393.88
459.918	393.88
460.138	391.88
460.358	401.88
460.578	409.88
460.798	417.88
461.018	406.88
461.238	411.88
461.458	417.88
461.678	386.88
461.898	411.88
462.118	424.88
462.338	423.88
462.558	427.88
462.777	450.88
462.997	474.88
463.217	468.88
463.437	477.88
463.657	457.88
463.876	462.88
464.096	445.88
464.316	461.88
464.536	459.88
464.755	461.88
464.975	435.88
465.195	458.88
465.414	467.88
465.634	437.88
465.854	395.88
466.073	415.88
466.293	379.88
466.512	387.88
466.732	358.88
466.951	381.88
467.171	371.88
467.391	385.88
467.61	389.88
467.829	394.88
468.049	377.88
468.268	392.88
468.488	371.88
468.707	368.88
468.927	344.88
469.146	368.88
469.365	352.88
469.585	367.88
469.804	389.88
470.023	391.88
470.243	376.88
470.462	383.88
470.681	398.88
470.901	412.88
471.12	382.88
471.339	370.88
471.558	373.88
471.777	378.88
471.997	375.88
472.216	389.88
472.435	388.88
472.654	402.88
472.873	369.88
473.092	389.88
473.311	401.88
473.53	394.88
473.749	387.88
473.968	409.88
474.187	485.88
474.406	499.88
474.625	425.88
474.844	398.88
475.063	381.88
475.282	381.88
475.501	378.88
475.72	393.88
475.939	396.88
476.158	377.88
476.377	376.88
476.596	399.88
476.814	401.88
477.033	389.88
477.252	397.88
477.471	396.88
477.69	410.88
477.908	419.88
478.127	417.88
478.346	408.88
478.564	429.88
478.783	395.88
479.002	442.88
479.22	438.88
479.439	456.88
479.658	448.88
479.876	440.88
480.095	447.88
480.313	467.88
480.532	477.88
480.751	449.88
480.969	497.88
481.188	487.88
481.406	498.88
481.624	481.88
481.843	436.88
482.061	452.88
482.28	461.88
482.498	445.88
482.717	446.88
482.935	444.88
483.153	430.88
483.372	444.88
483.59	444.88
483.808	426.88
484.027	425.88
484.245	452.88
484.463	445.88
484.681	433.88
484.9	442.88
485.118	441.88
485.336	451.88
485.554	473.88
485.772	464.88
485.99	458.88
486.209	468.88
486.427	447.88
486.645	450.88
486.863	464.88
487.081	459.88
487.299	451.88
487.517	452.88
487.735	467.88
487.953	467.88
488.171	473.88
488.389	462.88
488.607	445.88
488.825	450.88
489.043	463.88
489.261	455.88
489.479	483.88
489.696	446.88
489.914	471.88
490.132	486.88
490.35	478.88
490.568	485.88
490.786	489.88
491.003	513.88
491.221	496.88
491.439	484.88
491.657	505.88
491.874	513.88
492.092	521.88
492.31	520.88
492.527	513.88
492.745	530.88
492.963	513.88
493.18	523.88
493.398	530.88
493.615	530.88
493.833	557.88
494.05	541.88
494.268	509.88
494.485	540.88
494.703	528.88
494.92	530.88
495.138	519.88
495.355	529.88
495.573	553.88
495.79	536.88
496.008	565.88
496.225	561.88
496.442	544.88
496.66	561.88
496.877	557.88
497.094	547.88
497.312	561.88
497.529	550.88
497.746	581.88
497.963	583.88
498.181	603.88
498.398	607.88
498.615	622.88
498.832	633.88
499.049	655.88
499.267	664.88
499.484	689.88
499.701	766.88
499.918	745.88
500.135	801.88
500.352	836.88
500.569	831.88
500.786	823.88
501.003	813.88
501.22	787.88
501.437	769.88
501.654	749.88
501.871	699.88
502.088	677.88
502.305	648.88
502.522	613.88
502.739	625.88
502.956	622.88
503.172	597.88
503.389	575.88
503.606	557.88
503.823	565.88
504.04	576.88
504.256	555.88
504.473	554.88
504.69	552.88
504.907	576.88
505.123	553.88
505.34	523.88
505.557	535.88
505.773	530.88
505.99	534.88
506.207	519.88
506.423	511.88
506.64	523.88
506.856	493.88
507.073	490.88
507.289	493.88
507.506	483.88
507.722	487.88
507.939	525.88
508.155	495.88
508.372	462.88
508.588	481.88
508.805	480.88
509.021	478.88
509.238	502.88
509.454	479.88
509.67	490.88
509.887	477.88
510.103	454.88
510.319	493.88
510.536	488.88
510.752	679.88
510.968	581.88
511.184	459.88
511.401	447.88
511.617	471.88
511.833	450.88
512.049	454.88
512.265	454.88
512.481	439.88
512.698	441.88
512.914	438.88
513.13	447.88
513.346	433.88
513.562	449.88
513.778	433.88
513.994	454.88
514.21	468.88
514.426	483.88
514.642	458.88
514.858	483.88
515.074	475.88
515.29	569.88
515.506	660.88
515.721	594.88
515.937	505.88
516.153	475.88
516.369	471.88
516.585	468.88
516.801	460.88
517.016	465.88
517.232	462.88
517.448	474.88
517.664	510.88
517.879	498.88
518.095	500.88
518.311	481.88
518.527	465.88
518.742	449.88
518.958	445.88
519.173	458.88
519.389	457.88
519.605	470.88
519.82	433.88
520.036	438.88
520.251	449.88
520.467	438.88
520.682	471.88
520.898	470.88
521.113	478.88
521.329	470.88
521.544	508.88
521.76	583.88
521.975	805.88
522.19	725.88
522.406	501.88
522.621	449.88
522.836	426.88
523.052	418.88
523.267	408.88
523.482	425.88
523.698	394.88
523.913	414.88
524.128	390.88
524.343	384.88
524.559	413.88
524.774	385.88
524.989	390.88
525.204	395.88
525.419	392.88
525.634	389.88
525.849	387.88
526.064	379.88
526.28	394.88
526.495	393.88
526.71	380.88
526.925	375.88
527.14	385.88
527.355	373.88
527.57	376.88
527.785	369.88
527.999	381.88
528.214	369.88
528.429	370.88
528.644	365.88
528.859	370.88
529.074	377.88
529.289	395.88
529.503	408.88
529.718	402.88
529.933	377.88
530.148	389.88
530.363	370.88
530.577	371.88
530.792	374.88
531.007	378.88
531.221	370.88
531.436	375.88
531.651	357.88
531.865	363.88
532.08	369.88
532.295	362.88
532.509	371.88
532.724	369.88
532.938	352.88
533.153	355.88
533.367	350.88
533.582	369.88
533.796	366.88
534.011	339.88
534.225	365.88
534.44	351.88
534.654	379.88
534.868	365.88
535.083	353.88
535.297	346.88
535.511	350.88
535.726	370.88
535.94	371.88
536.154	356.88
536.369	354.88
536.583	372.88
536.797	361.88
537.011	361.88
537.225	357.88
537.44	345.88
537.654	373.88
537.868	365.88
538.082	358.88
538.296	365.88
538.51	358.88
538.724	362.88
538.938	334.88
539.153	365.88
539.367	351.88
539.581	347.88
539.795	371.88
540.009	367.88
540.222	351.88
540.436	356.88
540.65	346.88
540.864	341.88
541.078	358.88
541.292	369.88
541.506	351.88
541.72	331.88
541.934	366.88
542.147	341.88
542.361	339.88
542.575	361.88
542.789	338.88
543.002	337.88
543.216	366.88
543.43	343.88
543.644	354.88
543.857	349.88
544.071	342.88
544.285	333.88
544.498	358.88
544.712	357.88
544.925	346.88
545.139	352.88
545.352	338.88
545.566	340.88
545.779	341.88
545.993	332.88
546.206	347.88
546.42	350.88
546.633	349.88
546.847	346.88
547.06	338.88
547.274	317.88
547.487	332.88
547.7	332.88
547.914	354.88
548.127	355.88
548.34	339.88
548.554	347.88
548.767	336.88
548.98	331.88
549.193	358.88
549.407	329.88
549.62	343.88
549.833	358.88
550.046	351.88
550.259	353.88
550.473	329.88
550.686	335.88
550.899	341.88
551.112	338.88
551.325	359.88
551.538	331.88
551.751	317.88
551.964	335.88
552.177	343.88
552.39	340.88
552.603	353.88
552.816	339.88
553.029	351.88
553.242	350.88
553.455	351.88
553.667	376.88
553.88	373.88
554.093	349.88
554.306	357.88
554.519	354.88
554.732	328.88
554.944	330.88
555.157	322.88
555.37	325.88
555.583	315.88
555.795	333.88
556.008	332.88
556.221	314.88
556.433	317.88
556.646	298.88
556.859	311.88
557.071	309.88
557.284	312.88
557.496	327.88
557.709	312.88
557.921	317.88
558.134	309.88
558.346	295.88
558.559	300.88
558.771	304.88
558.984	293.88
559.196	320.88
559.409	306.88
559.621	326.88
559.833	307.88
560.046	311.88
560.258	302.88
560.47	285.88
560.683	300.88
560.895	299.88
561.107	281.88
561.32	309.88
561.532	306.88
561.744	299.88
561.956	291.88
562.168	304.88
562.381	296.88
562.593	310.88
562.805	314.88
563.017	309.88
563.229	323.88
563.441	311.88
563.653	321.88
563.865	312.88
564.077	322.88
564.289	333.88
564.501	324.88
564.713	324.88
564.925	322.88
565.137	325.88
565.349	322.88
565.561	346.88
565.773	356.88
565.985	360.88
566.197	359.88
566.408	371.88
566.62	385.88
566.832	374.88
567.044	389.88
567.255	402.88
567.467	387.88
567.679	406.88
567.891	430.88
568.102	433.88
568.314	399.88
568.526	373.88
568.737	379.88
568.949	354.88
569.161	359.88
569.372	318.88
569.584	316.88
569.795	335.88
570.007	326.88
570.218	315.88
570.43	311.88
570.641	314.88
570.853	310.88
571.064	320.88
571.276	319.88
571.487	304.88
571.698	303.88
571.91	266.88
572.121	277.88
572.333	278.88
572.544	280.88
572.755	279.88
572.966	273.88
573.178	275.88
573.389	289.88
573.6	271.88
573.811	276.88
574.023	266.88
574.234	263.88
574.445	272.88
574.656	265.88
574.867	274.88
575.078	277.88
575.289	275.88
575.501	270.88
575.712	248.88
575.923	259.88
576.134	281.88
576.345	278.88
576.556	272.88
576.767	259.88
576.978	265.88
577.188	235.88
577.399	251.88
577.61	250.88
577.821	259.88
578.032	237.88
578.243	249.88
578.454	312.88
578.665	279.88
578.875	253.88
579.086	227.88
579.297	238.88
579.508	247.88
579.718	250.88
579.929	237.88
580.14	241.88
580.35	234.88
580.561	257.88
580.772	259.88
580.982	228.88
581.193	237.88
581.403	254.88
581.614	253.88
581.825	253.88
582.035	229.88
582.246	253.88
582.456	243.88
582.667	243.88
582.877	237.88
583.087	230.88
583.298	237.88
583.508	226.88
583.719	239.88
583.929	213.88
584.139	219.88
584.35	260.88
584.56	250.88
584.77	225.88
584.981	234.88
585.191	254.88
585.401	239.88
585.611	227.88
585.821	252.88
586.032	221.88
586.242	229.88
586.452	239.88
586.662	226.88
586.872	241.88
587.082	229.88
587.292	236.88
587.502	239.88
587.713	224.88
587.923	229.88
588.133	221.88
588.343	231.88
588.553	230.88
588.762	235.88
588.972	230.88
589.182	258.88
589.392	271.88
589.602	238.88
589.812	254.88
590.022	247.88
590.232	235.88
590.441	243.88
590.651	251.88
590.861	234.88
591.071	243.88
591.281	228.88
591.49	232.88
591.7	227.88
591.91	242.88
592.119	251.88
592.329	258.88
592.539	251.88
592.748	229.88
592.958	246.88
593.167	254.88
593.377	255.88
593.587	275.88
593.796	263.88
594.006	250.88
594.215	254.88
594.424	253.88
594.634	239.88
594.843	240.88
595.053	234.88
595.262	255.88
595.472	244.88
595.681	243.88
595.89	236.88
596.1	228.88
596.309	231.88
596.518	232.88
596.727	227.88
596.937	218.88
597.146	219.88
597.355	208.88
597.564	207.88
597.774	233.88
597.983	203.88
598.192	218.88
598.401	218.88
598.61	234.88
598.819	219.88
599.028	222.88
599.237	200.88
599.446	223.88
599.655	212.88
599.864	210.88
600.073	198.88
600.282	211.88
600.491	198.88
600.7	202.88
600.909	195.88
601.118	211.88
601.327	211.88
601.536	216.88
601.745	212.88
601.953	204.88
602.162	205.88
602.371	184.88
602.58	191.88
602.789	198.88
602.997	189.88
603.206	193.88
603.415	208.88
603.623	202.88
603.832	202.88
604.041	190.88
604.249	198.88
604.458	192.88
604.666	189.88
604.875	199.88
605.084	181.88
605.292	178.88
605.501	191.88
605.709	193.88
605.918	193.88
606.126	200.88
606.334	193.88
606.543	197.88
606.751	198.88
606.96	193.88
607.168	207.88
607.376	201.88
607.585	183.88
607.793	184.88
608.001	204.88
608.21	199.88
608.418	210.88
608.626	187.88
608.834	191.88
609.043	197.88
609.251	182.88
609.459	191.88
609.667	189.88
609.875	176.88
610.083	186.88
610.291	199.88
610.499	174.88
610.707	190.88
610.916	195.88
611.124	182.88
611.332	177.88
611.54	207.88
611.748	189.88
611.955	193.88
612.163	217.88
612.371	199.88
612.579	173.88
612.787	177.88
612.995	202.88
613.203	196.88
613.411	181.88
613.618	170.88
613.826	183.88
614.034	198.88
614.242	195.88
614.449	182.88
614.657	185.88
614.865	168.88
615.072	177.88
615.28	188.88
615.488	171.88
615.695	184.88
615.903	210.88
616.111	201.88
616.318	189.88
616.526	189.88
616.733	185.88
616.941	186.88
617.148	199.88
617.356	168.88
617.563	177.88
617.771	185.88
617.978	176.88
618.185	175.88
618.393	185.88
618.6	191.88
618.807	198.88
619.015	179.88
619.222	186.88
619.429	200.88
619.637	182.88
619.844	185.88
620.051	191.88
620.258	173.88
620.466	179.88
620.673	168.88
620.88	189.88
621.087	185.88
621.294	168.88
621.501	179.88
621.708	184.88
621.915	179.88
622.122	169.88
622.329	185.88
622.536	182.88
622.743	179.88
622.95	157.88
623.157	180.88
623.364	181.88
623.571	168.88
623.778	157.88
623.985	164.88
624.192	177.88
624.399	154.88
624.606	175.88
624.812	173.88
625.019	167.88
625.226	178.88
625.433	142.88
625.639	163.88
625.846	174.88
626.053	175.88
626.259	179.88
626.466	168.88
626.673	156.88
626.879	159.88
627.086	162.88
627.293	169.88
627.499	163.88
627.706	171.88
627.912	174.88
628.119	143.88
628.325	171.88
628.532	168.88
628.738	161.88
628.945	162.88
629.151	161.88
629.357	143.88
629.564	155.88
629.77	165.88
629.976	159.88
630.183	165.88
630.389	157.88
630.595	160.88
630.802	174.88
631.008	181.88
631.214	161.88
631.42	158.88
631.627	169.88
631.833	148.88
632.039	155.88
632.245	147.88
632.451	157.88
632.657	143.88
632.863	152.88
633.069	166.88
633.275	154.88
633.481	146.88
633.688	152.88
633.893	145.88
634.099	152.88
634.305	158.88
634.511	147.88
634.717	145.88
634.923	150.88
635.129	125.88
635.335	151.88
635.541	168.88
635.747	161.88
635.952	157.88
636.158	138.88
636.364	173.88
636.57	153.88
636.775	144.88
636.981	163.88
637.187	150.88
637.392	161.88
637.598	154.88
637.804	137.88
638.009	142.88
638.215	165.88
638.421	140.88
638.626	129.88
638.832	137.88
639.037	138.88
639.243	137.88
639.448	151.88
639.654	138.88
639.859	140.88
640.065	142.88
640.27	149.88
640.475	145.88
640.681	150.88
640.886	136.88
641.091	156.88
641.297	142.88
641.502	149.88
641.707	140.88
641.913	153.88
642.118	138.88
642.323	133.88
642.528	151.88
642.733	146.88
642.939	145.88
643.144	131.88
643.349	133.88
643.554	150.88
643.759	135.88
643.964	153.88
644.169	147.88
644.374	134.88
644.579	133.88
644.784	139.88
644.989	143.88
645.194	141.88
645.399	141.88
645.604	133.88
645.809	148.88
646.014	139.88
646.219	145.88
646.423	143.88
646.628	150.88
646.833	135.88
647.038	130.88
647.243	146.88
647.447	141.88
647.652	160.88
647.857	146.88
648.062	145.88
648.266	134.88
648.471	155.88
648.676	149.88
648.88	143.88
649.085	140.88
649.289	130.88
649.494	139.88
649.698	154.88
649.903	152.88
650.107	140.88
650.312	151.88
650.516	144.88
650.721	129.88
650.925	114.88
651.13	146.88
651.334	121.88
651.539	128.88
651.743	121.88
651.947	117.88
652.152	125.88
652.356	122.88
652.56	109.88
652.764	125.88
652.969	120.88
653.173	129.88
653.377	117.88
653.581	118.88
653.785	103.88
653.99	133.88
654.194	120.88
654.398	116.88
654.602	126.88
654.806	125.88
655.01	129.88
655.214	126.88
655.418	123.88
655.622	122.88
655.826	127.88
656.03	115.88
656.234	121.88
656.438	130.88
656.642	131.88
656.846	125.88
657.049	105.88
657.253	128.88
657.457	118.88
657.661	120.88
657.865	112.88
658.068	101.88
658.272	111.88
658.476	101.88
658.68	106.88
658.883	103.88
659.087	89.88
659.291	102.88
659.494	98.88
659.698	92.88
659.901	77.88
660.105	91.88
660.309	90.88
660.512	79.88
660.716	91.88
660.919	78.88
661.123	93.88
661.326	91.88
661.53	90.88
661.733	91.88
661.936	72.88
662.14	91.88
662.343	73.88
662.546	82.88
662.75	90.88
662.953	86.88
663.156	91.88
663.36	85.88
663.563	69.88
663.766	92.88
663.969	76.88
664.173	84.88
664.376	75.88
664.579	81.88
664.782	81.88
664.985	70.88
665.188	77.88
665.391	60.88
665.594	73.88
665.797	81.88
666	86.88
666.203	80.88
666.406	66.88
666.609	94.88
666.812	78.88
667.015	70.88
667.218	73.88
667.421	65.88
667.624	66.88
667.827	56.88
668.03	83.88
668.232	70.88
668.435	80.88
668.638	71.88
668.841	79.88
669.043	72.88
669.246	64.88
669.449	65.88
669.651	71.88
669.854	73.88
670.057	90.88
670.259	80.88
670.462	68.88
670.665	83.88
670.867	88.88
671.07	82.88
671.272	74.88
671.475	81.88
671.677	83.88
671.88	64.88
672.082	80.88
672.284	81.88
672.487	71.88
672.689	78.88
672.892	72.88
