Data from 1964.PennyLincolnUp.Lamp.En5.5.200Scan.071719.P1._HRD10591_14-04-44-909.txt Node
Date: Thu Jul 18 14:04:44 EDT 2019
User: cochatt
Spectrometer: HR+D1059
Trigger mode: 1
Integration Time (sec): 1.000000E-1
Scans to average: 1
Electric dark correction enabled: true
Nonlinearity correction enabled: false
Boxcar width: 0
XAxis mode: Wavelengths
Number of Pixels in Spectrum: 2048
>>>>>Begin Spectral Data<<<<<
223.165	-15.94
223.4	-15.94
223.635	-15.94
223.869	-9.94
224.104	-24.94
224.338	-7.94
224.573	-14.94
224.808	-16.94
225.042	-5.94
225.277	-12.94
225.511	3.06
225.746	2.06
225.98	7.06
226.215	21.06
226.449	18.06
226.683	12.06
226.918	16.06
227.152	30.06
227.387	27.06
227.621	46.06
227.856	42.06
228.09	58.06
228.324	47.06
228.559	56.06
228.793	62.06
229.027	92.06
229.262	83.06
229.496	96.06
229.73	112.06
229.964	121.06
230.199	99.06
230.433	101.06
230.667	86.06
230.901	104.06
231.136	104.06
231.37	98.06
231.604	105.06
231.838	110.06
232.072	103.06
232.306	102.06
232.541	108.06
232.775	106.06
233.009	110.06
233.243	109.06
233.477	102.06
233.711	111.06
233.945	107.06
234.179	105.06
234.413	118.06
234.647	96.06
234.881	101.06
235.115	92.06
235.349	114.06
235.583	115.06
235.817	108.06
236.051	106.06
236.285	107.06
236.519	107.06
236.753	118.06
236.987	128.06
237.221	152.06
237.455	197.06
237.689	168.06
237.922	124.06
238.156	134.06
238.39	124.06
238.624	106.06
238.858	120.06
239.091	126.06
239.325	136.06
239.559	122.06
239.793	121.06
240.027	117.06
240.26	119.06
240.494	147.06
240.728	134.06
240.961	143.06
241.195	134.06
241.429	133.06
241.662	127.06
241.896	122.06
242.13	130.06
242.363	139.06
242.597	139.06
242.83	136.06
243.064	138.06
243.298	128.06
243.531	124.06
243.765	148.06
243.998	134.06
244.232	128.06
244.465	134.06
244.699	135.06
244.932	135.06
245.166	153.06
245.399	141.06
245.633	133.06
245.866	140.06
246.099	138.06
246.333	135.06
246.566	142.06
246.8	163.06
247.033	162.06
247.266	161.06
247.5	156.06
247.733	171.06
247.966	169.06
248.2	159.06
248.433	174.06
248.666	165.06
248.899	170.06
249.133	174.06
249.366	176.06
249.599	175.06
249.832	182.06
250.066	162.06
250.299	180.06
250.532	187.06
250.765	187.06
250.998	198.06
251.231	199.06
251.465	206.06
251.698	180.06
251.931	190.06
252.164	201.06
252.397	200.06
252.63	177.06
252.863	196.06
253.096	207.06
253.329	214.06
253.562	215.06
253.795	210.06
254.028	201.06
254.261	199.06
254.494	218.06
254.727	240.06
254.96	244.06
255.193	250.06
255.426	229.06
255.659	206.06
255.892	207.06
256.124	212.06
256.357	220.06
256.59	226.06
256.823	204.06
257.056	217.06
257.289	214.06
257.521	220.06
257.754	211.06
257.987	199.06
258.22	209.06
258.452	192.06
258.685	193.06
258.918	225.06
259.151	212.06
259.383	218.06
259.616	212.06
259.849	219.06
260.081	228.06
260.314	253.06
260.547	243.06
260.779	256.06
261.012	233.06
261.244	218.06
261.477	228.06
261.71	212.06
261.942	204.06
262.175	225.06
262.407	212.06
262.64	205.06
262.872	207.06
263.105	213.06
263.337	209.06
263.57	222.06
263.802	215.06
264.035	203.06
264.267	221.06
264.499	202.06
264.732	209.06
264.964	225.06
265.197	221.06
265.429	217.06
265.661	235.06
265.894	217.06
266.126	203.06
266.358	214.06
266.591	243.06
266.823	219.06
267.055	233.06
267.287	230.06
267.52	228.06
267.752	215.06
267.984	229.06
268.216	228.06
268.448	265.06
268.681	242.06
268.913	258.06
269.145	254.06
269.377	246.06
269.609	272.06
269.841	242.06
270.073	260.06
270.306	283.06
270.538	298.06
270.77	294.06
271.002	273.06
271.234	274.06
271.466	285.06
271.698	296.06
271.93	302.06
272.162	282.06
272.394	300.06
272.626	283.06
272.858	271.06
273.09	303.06
273.322	267.06
273.553	262.06
273.785	275.06
274.017	262.06
274.249	276.06
274.481	264.06
274.713	254.06
274.945	274.06
275.176	275.06
275.408	259.06
275.64	292.06
275.872	265.06
276.104	272.06
276.335	268.06
276.567	266.06
276.799	270.06
277.031	298.06
277.262	317.06
277.494	326.06
277.726	316.06
277.957	282.06
278.189	302.06
278.421	282.06
278.652	280.06
278.884	266.06
279.115	287.06
279.347	277.06
279.579	283.06
279.81	261.06
280.042	264.06
280.273	283.06
280.505	292.06
280.736	269.06
280.968	285.06
281.199	287.06
281.431	274.06
281.662	269.06
281.894	276.06
282.125	274.06
282.356	283.06
282.588	287.06
282.819	299.06
283.051	288.06
283.282	277.06
283.513	292.06
283.745	281.06
283.976	304.06
284.207	312.06
284.439	309.06
284.67	308.06
284.901	295.06
285.132	293.06
285.364	306.06
285.595	304.06
285.826	287.06
286.057	289.06
286.288	279.06
286.52	284.06
286.751	312.06
286.982	298.06
287.213	296.06
287.444	314.06
287.675	323.06
287.906	317.06
288.138	321.06
288.369	328.06
288.6	328.06
288.831	305.06
289.062	298.06
289.293	321.06
289.524	318.06
289.755	291.06
289.986	307.06
290.217	302.06
290.448	322.06
290.679	306.06
290.91	302.06
291.141	300.06
291.371	318.06
291.602	314.06
291.833	306.06
292.064	320.06
292.295	316.06
292.526	326.06
292.757	322.06
292.987	304.06
293.218	308.06
293.449	320.06
293.68	316.06
293.91	304.06
294.141	317.06
294.372	322.06
294.603	288.06
294.833	327.06
295.064	304.06
295.295	323.06
295.525	328.06
295.756	323.06
295.987	319.06
296.217	320.06
296.448	335.06
296.679	305.06
296.909	323.06
297.14	331.06
297.37	329.06
297.601	340.06
297.831	329.06
298.062	307.06
298.292	322.06
298.523	318.06
298.753	315.06
298.984	337.06
299.214	329.06
299.445	335.06
299.675	339.06
299.905	345.06
300.136	316.06
300.366	327.06
300.597	333.06
300.827	352.06
301.057	341.06
301.288	336.06
301.518	353.06
301.748	369.06
301.979	340.06
302.209	326.06
302.439	350.06
302.669	351.06
302.9	359.06
303.13	332.06
303.36	348.06
303.59	353.06
303.82	345.06
304.051	356.06
304.281	367.06
304.511	335.06
304.741	355.06
304.971	332.06
305.201	356.06
305.431	331.06
305.661	362.06
305.891	355.06
306.121	332.06
306.352	339.06
306.582	376.06
306.812	363.06
307.042	355.06
307.272	359.06
307.502	335.06
307.731	363.06
307.961	368.06
308.191	376.06
308.421	367.06
308.651	368.06
308.881	369.06
309.111	334.06
309.341	345.06
309.571	371.06
309.8	366.06
310.03	370.06
310.26	372.06
310.49	374.06
310.72	386.06
310.949	378.06
311.179	393.06
311.409	356.06
311.639	356.06
311.868	381.06
312.098	384.06
312.328	396.06
312.557	380.06
312.787	381.06
313.017	388.06
313.246	376.06
313.476	375.06
313.706	387.06
313.935	412.06
314.165	414.06
314.394	421.06
314.624	387.06
314.853	402.06
315.083	368.06
315.312	360.06
315.542	386.06
315.771	377.06
316.001	381.06
316.23	378.06
316.46	377.06
316.689	378.06
316.919	390.06
317.148	402.06
317.377	416.06
317.607	395.06
317.836	383.06
318.065	405.06
318.295	380.06
318.524	386.06
318.753	395.06
318.983	384.06
319.212	360.06
319.441	416.06
319.67	386.06
319.9	406.06
320.129	386.06
320.358	409.06
320.587	395.06
320.816	405.06
321.046	412.06
321.275	381.06
321.504	419.06
321.733	414.06
321.962	410.06
322.191	411.06
322.42	418.06
322.649	410.06
322.878	430.06
323.108	433.06
323.337	437.06
323.566	455.06
323.795	457.06
324.024	515.06
324.253	571.06
324.482	792.06
324.71	1112.06
324.939	1494.06
325.168	1224.06
325.397	706.06
325.626	528.06
325.855	490.06
326.084	456.06
326.313	452.06
326.542	470.06
326.77	505.06
326.999	562.06
327.228	728.06
327.457	969.06
327.686	1118.06
327.914	779.06
328.143	584.06
328.372	539.06
328.6	502.06
328.829	468.06
329.058	502.06
329.287	487.06
329.515	498.06
329.744	470.06
329.972	487.06
330.201	495.06
330.43	496.06
330.658	535.06
330.887	533.06
331.115	508.06
331.344	496.06
331.572	472.06
331.801	455.06
332.03	442.06
332.258	468.06
332.486	475.06
332.715	467.06
332.943	461.06
333.172	466.06
333.4	467.06
333.629	489.06
333.857	482.06
334.085	534.06
334.314	546.06
334.542	528.06
334.771	528.06
334.999	512.06
335.227	482.06
335.455	463.06
335.684	488.06
335.912	492.06
336.14	458.06
336.369	471.06
336.597	485.06
336.825	468.06
337.053	472.06
337.281	453.06
337.51	428.06
337.738	444.06
337.966	449.06
338.194	462.06
338.422	467.06
338.65	463.06
338.878	448.06
339.106	427.06
339.334	441.06
339.562	427.06
339.79	436.06
340.018	441.06
340.246	464.06
340.474	432.06
340.702	438.06
340.93	442.06
341.158	440.06
341.386	401.06
341.614	420.06
341.842	423.06
342.07	429.06
342.298	432.06
342.526	430.06
342.754	435.06
342.981	412.06
343.209	398.06
343.437	425.06
343.665	436.06
343.893	454.06
344.12	448.06
344.348	455.06
344.576	455.06
344.804	448.06
345.031	440.06
345.259	435.06
345.487	428.06
345.714	427.06
345.942	436.06
346.17	406.06
346.397	426.06
346.625	412.06
346.853	410.06
347.08	404.06
347.308	415.06
347.535	402.06
347.763	414.06
347.99	426.06
348.218	422.06
348.445	417.06
348.673	435.06
348.9	403.06
349.128	406.06
349.355	386.06
349.583	403.06
349.81	389.06
350.037	402.06
350.265	381.06
350.492	394.06
350.72	402.06
350.947	393.06
351.174	394.06
351.402	413.06
351.629	397.06
351.856	406.06
352.083	406.06
352.311	414.06
352.538	406.06
352.765	411.06
352.992	401.06
353.22	380.06
353.447	419.06
353.674	394.06
353.901	403.06
354.128	380.06
354.355	378.06
354.583	377.06
354.81	359.06
355.037	380.06
355.264	386.06
355.491	370.06
355.718	394.06
355.945	388.06
356.172	383.06
356.399	392.06
356.626	404.06
356.853	397.06
357.08	393.06
357.307	372.06
357.534	386.06
357.761	374.06
357.988	375.06
358.215	395.06
358.441	395.06
358.668	389.06
358.895	387.06
359.122	391.06
359.349	401.06
359.576	396.06
359.802	390.06
360.029	437.06
360.256	416.06
360.483	416.06
360.709	390.06
360.936	399.06
361.163	379.06
361.39	398.06
361.616	390.06
361.843	389.06
362.07	411.06
362.296	399.06
362.523	399.06
362.749	397.06
362.976	380.06
363.203	389.06
363.429	392.06
363.656	395.06
363.882	377.06
364.109	388.06
364.335	384.06
364.562	376.06
364.788	388.06
365.015	376.06
365.241	389.06
365.468	372.06
365.694	384.06
365.92	376.06
366.147	372.06
366.373	382.06
366.599	380.06
366.826	382.06
367.052	375.06
367.278	392.06
367.505	372.06
367.731	361.06
367.957	396.06
368.184	382.06
368.41	381.06
368.636	384.06
368.862	397.06
369.089	395.06
369.315	373.06
369.541	382.06
369.767	379.06
369.993	381.06
370.219	376.06
370.445	376.06
370.672	388.06
370.898	377.06
371.124	387.06
371.35	368.06
371.576	394.06
371.802	373.06
372.028	391.06
372.254	383.06
372.48	389.06
372.706	375.06
372.932	406.06
373.158	405.06
373.384	392.06
373.61	376.06
373.835	391.06
374.061	388.06
374.287	400.06
374.513	389.06
374.739	400.06
374.965	402.06
375.191	380.06
375.416	400.06
375.642	380.06
375.868	392.06
376.094	392.06
376.319	400.06
376.545	390.06
376.771	376.06
376.997	388.06
377.222	395.06
377.448	374.06
377.674	379.06
377.899	356.06
378.125	368.06
378.35	378.06
378.576	382.06
378.802	366.06
379.027	374.06
379.253	387.06
379.478	374.06
379.704	376.06
379.929	395.06
380.155	383.06
380.38	371.06
380.606	384.06
380.831	371.06
381.057	387.06
381.282	380.06
381.507	376.06
381.733	378.06
381.958	380.06
382.184	377.06
382.409	378.06
382.634	397.06
382.86	376.06
383.085	385.06
383.31	377.06
383.535	384.06
383.761	418.06
383.986	411.06
384.211	415.06
384.436	388.06
384.662	426.06
384.887	424.06
385.112	394.06
385.337	411.06
385.562	418.06
385.787	413.06
386.013	428.06
386.238	435.06
386.463	414.06
386.688	400.06
386.913	393.06
387.138	417.06
387.363	417.06
387.588	403.06
387.813	405.06
388.038	425.06
388.263	409.06
388.488	427.06
388.713	393.06
388.938	412.06
389.163	419.06
389.387	415.06
389.612	407.06
389.837	406.06
390.062	425.06
390.287	417.06
390.512	403.06
390.736	398.06
390.961	426.06
391.186	440.06
391.411	430.06
391.636	446.06
391.86	442.06
392.085	408.06
392.31	427.06
392.534	424.06
392.759	457.06
392.984	427.06
393.208	428.06
393.433	403.06
393.658	399.06
393.882	415.06
394.107	398.06
394.331	426.06
394.556	423.06
394.78	424.06
395.005	414.06
395.229	424.06
395.454	415.06
395.678	436.06
395.903	436.06
396.127	443.06
396.352	442.06
396.576	434.06
396.801	439.06
397.025	440.06
397.249	448.06
397.474	442.06
397.698	444.06
397.922	461.06
398.147	458.06
398.371	456.06
398.595	440.06
398.82	472.06
399.044	480.06
399.268	507.06
399.492	531.06
399.717	564.06
399.941	567.06
400.165	590.06
400.389	567.06
400.613	534.06
400.837	497.06
401.062	498.06
401.286	506.06
401.51	467.06
401.734	472.06
401.958	483.06
402.182	491.06
402.406	466.06
402.63	482.06
402.854	455.06
403.078	491.06
403.302	478.06
403.526	491.06
403.75	497.06
403.974	490.06
404.198	487.06
404.422	491.06
404.645	499.06
404.869	516.06
405.093	529.06
405.317	560.06
405.541	574.06
405.765	530.06
405.988	498.06
406.212	499.06
406.436	495.06
406.66	526.06
406.883	495.06
407.107	542.06
407.331	571.06
407.555	624.06
407.778	604.06
408.002	563.06
408.226	541.06
408.449	529.06
408.673	518.06
408.896	534.06
409.12	575.06
409.344	522.06
409.567	487.06
409.791	478.06
410.014	488.06
410.238	474.06
410.461	477.06
410.685	471.06
410.908	491.06
411.132	495.06
411.355	514.06
411.578	529.06
411.802	481.06
412.025	472.06
412.249	485.06
412.472	486.06
412.695	531.06
412.919	525.06
413.142	477.06
413.365	455.06
413.589	473.06
413.812	463.06
414.035	467.06
414.258	453.06
414.482	460.06
414.705	440.06
414.928	451.06
415.151	465.06
415.374	438.06
415.597	446.06
415.821	453.06
416.044	453.06
416.267	454.06
416.49	439.06
416.713	431.06
416.936	446.06
417.159	438.06
417.382	441.06
417.605	448.06
417.828	451.06
418.051	462.06
418.274	449.06
418.497	464.06
418.72	450.06
418.943	434.06
419.166	482.06
419.389	465.06
419.611	478.06
419.834	473.06
420.057	482.06
420.28	464.06
420.503	441.06
420.726	454.06
420.948	450.06
421.171	513.06
421.394	522.06
421.617	504.06
421.839	470.06
422.062	474.06
422.285	465.06
422.507	518.06
422.73	557.06
422.953	530.06
423.175	508.06
423.398	491.06
423.621	496.06
423.843	493.06
424.066	468.06
424.288	470.06
424.511	469.06
424.733	520.06
424.956	602.06
425.178	570.06
425.401	573.06
425.623	584.06
425.846	515.06
426.068	491.06
426.291	483.06
426.513	480.06
426.735	465.06
426.958	504.06
427.18	562.06
427.402	657.06
427.625	694.06
427.847	571.06
428.069	538.06
428.292	487.06
428.514	462.06
428.736	458.06
428.958	447.06
429.181	432.06
429.403	441.06
429.625	455.06
429.847	456.06
430.069	532.06
430.292	504.06
430.514	469.06
430.736	448.06
430.958	422.06
431.18	423.06
431.402	414.06
431.624	403.06
431.846	401.06
432.068	427.06
432.29	436.06
432.512	425.06
432.734	422.06
432.956	431.06
433.178	422.06
433.4	442.06
433.622	423.06
433.844	419.06
434.066	441.06
434.287	422.06
434.509	407.06
434.731	448.06
434.953	454.06
435.175	451.06
435.397	462.06
435.618	480.06
435.84	487.06
436.062	568.06
436.284	602.06
436.505	523.06
436.727	468.06
436.949	454.06
437.17	437.06
437.392	433.06
437.614	444.06
437.835	466.06
438.057	502.06
438.278	578.06
438.5	582.06
438.721	650.06
438.943	611.06
439.165	506.06
439.386	468.06
439.608	463.06
439.829	461.06
440.05	471.06
440.272	539.06
440.493	472.06
440.715	434.06
440.936	442.06
441.158	446.06
441.379	425.06
441.6	431.06
441.822	468.06
442.043	488.06
442.264	561.06
442.486	573.06
442.707	499.06
442.928	457.06
443.149	470.06
443.371	465.06
443.592	525.06
443.813	571.06
444.034	631.06
444.255	560.06
444.476	520.06
444.698	480.06
444.919	480.06
445.14	620.06
445.361	538.06
445.582	514.06
445.803	535.06
446.024	592.06
446.245	620.06
446.466	552.06
446.687	504.06
446.908	444.06
447.129	421.06
447.35	438.06
447.571	448.06
447.792	436.06
448.013	416.06
448.234	446.06
448.455	457.06
448.675	574.06
448.896	596.06
449.117	550.06
449.338	524.06
449.559	598.06
449.779	668.06
450	525.06
450.221	452.06
450.442	434.06
450.662	409.06
450.883	414.06
451.104	417.06
451.324	417.06
451.545	410.06
451.766	363.06
451.986	386.06
452.207	368.06
452.428	367.06
452.648	381.06
452.869	388.06
453.089	395.06
453.31	392.06
453.53	382.06
453.751	370.06
453.971	394.06
454.192	402.06
454.412	367.06
454.633	382.06
454.853	363.06
455.073	378.06
455.294	380.06
455.514	436.06
455.734	430.06
455.955	379.06
456.175	355.06
456.395	390.06
456.616	362.06
456.836	374.06
457.056	366.06
457.276	359.06
457.497	359.06
457.717	357.06
457.937	361.06
458.157	386.06
458.377	394.06
458.598	390.06
458.818	423.06
459.038	465.06
459.258	476.06
459.478	430.06
459.698	409.06
459.918	403.06
460.138	414.06
460.358	432.06
460.578	435.06
460.798	436.06
461.018	434.06
461.238	418.06
461.458	430.06
461.678	438.06
461.898	429.06
462.118	457.06
462.338	444.06
462.558	459.06
462.777	470.06
462.997	474.06
463.217	503.06
463.437	471.06
463.657	457.06
463.876	460.06
464.096	464.06
464.316	457.06
464.536	494.06
464.755	486.06
464.975	465.06
465.195	466.06
465.414	479.06
465.634	470.06
465.854	416.06
466.073	408.06
466.293	413.06
466.512	412.06
466.732	388.06
466.951	393.06
467.171	404.06
467.391	382.06
467.61	423.06
467.829	399.06
468.049	406.06
468.268	394.06
468.488	390.06
468.707	391.06
468.927	374.06
469.146	399.06
469.365	370.06
469.585	392.06
469.804	396.06
470.023	388.06
470.243	374.06
470.462	412.06
470.681	423.06
470.901	424.06
471.12	392.06
471.339	413.06
471.558	405.06
471.777	409.06
471.997	410.06
472.216	383.06
472.435	419.06
472.654	402.06
472.873	405.06
473.092	406.06
473.311	405.06
473.53	400.06
473.749	411.06
473.968	450.06
474.187	482.06
474.406	506.06
474.625	422.06
474.844	422.06
475.063	403.06
475.282	375.06
475.501	405.06
475.72	388.06
475.939	412.06
476.158	407.06
476.377	399.06
476.596	405.06
476.814	430.06
477.033	420.06
477.252	446.06
477.471	408.06
477.69	419.06
477.908	444.06
478.127	448.06
478.346	452.06
478.564	436.06
478.783	464.06
479.002	441.06
479.22	456.06
479.439	473.06
479.658	460.06
479.876	486.06
480.095	467.06
480.313	499.06
480.532	489.06
480.751	490.06
480.969	485.06
481.188	545.06
481.406	515.06
481.624	497.06
481.843	474.06
482.061	469.06
482.28	450.06
482.498	464.06
482.717	434.06
482.935	457.06
483.153	462.06
483.372	470.06
483.59	458.06
483.808	480.06
484.027	476.06
484.245	484.06
484.463	456.06
484.681	461.06
484.9	462.06
485.118	487.06
485.336	454.06
485.554	472.06
485.772	484.06
485.99	454.06
486.209	470.06
486.427	484.06
486.645	480.06
486.863	512.06
487.081	512.06
487.299	481.06
487.517	485.06
487.735	460.06
487.953	479.06
488.171	490.06
488.389	498.06
488.607	497.06
488.825	497.06
489.043	484.06
489.261	502.06
489.479	494.06
489.696	488.06
489.914	480.06
490.132	503.06
490.35	496.06
490.568	504.06
490.786	495.06
491.003	509.06
491.221	522.06
491.439	518.06
491.657	556.06
491.874	536.06
492.092	537.06
492.31	550.06
492.527	536.06
492.745	561.06
492.963	568.06
493.18	567.06
493.398	567.06
493.615	570.06
493.833	562.06
494.05	548.06
494.268	556.06
494.485	561.06
494.703	563.06
494.92	575.06
495.138	544.06
495.355	560.06
495.573	536.06
495.79	564.06
496.008	576.06
496.225	545.06
496.442	589.06
496.66	587.06
496.877	591.06
497.094	587.06
497.312	595.06
497.529	560.06
497.746	599.06
497.963	617.06
498.181	616.06
498.398	638.06
498.615	647.06
498.832	662.06
499.049	698.06
499.267	705.06
499.484	746.06
499.701	758.06
499.918	795.06
500.135	837.06
500.352	892.06
500.569	908.06
500.786	880.06
501.003	881.06
501.22	841.06
501.437	829.06
501.654	776.06
501.871	744.06
502.088	711.06
502.305	688.06
502.522	656.06
502.739	627.06
502.956	628.06
503.172	585.06
503.389	625.06
503.606	611.06
503.823	587.06
504.04	596.06
504.256	591.06
504.473	594.06
504.69	588.06
504.907	572.06
505.123	583.06
505.34	554.06
505.557	533.06
505.773	545.06
505.99	556.06
506.207	530.06
506.423	512.06
506.64	544.06
506.856	503.06
507.073	516.06
507.289	507.06
507.506	514.06
507.722	527.06
507.939	542.06
508.155	527.06
508.372	508.06
508.588	500.06
508.805	499.06
509.021	481.06
509.238	508.06
509.454	506.06
509.67	508.06
509.887	510.06
510.103	491.06
510.319	485.06
510.536	513.06
510.752	726.06
510.968	632.06
511.184	498.06
511.401	476.06
511.617	477.06
511.833	467.06
512.049	472.06
512.265	474.06
512.481	475.06
512.698	476.06
512.914	473.06
513.13	461.06
513.346	497.06
513.562	467.06
513.778	470.06
513.994	472.06
514.21	486.06
514.426	483.06
514.642	472.06
514.858	530.06
515.074	542.06
515.29	571.06
515.506	711.06
515.721	635.06
515.937	512.06
516.153	522.06
516.369	480.06
516.585	510.06
516.801	500.06
517.016	499.06
517.232	522.06
517.448	492.06
517.664	528.06
517.879	519.06
518.095	511.06
518.311	507.06
518.527	509.06
518.742	502.06
518.958	494.06
519.173	495.06
519.389	495.06
519.605	480.06
519.82	462.06
520.036	467.06
520.251	501.06
520.467	523.06
520.682	512.06
520.898	495.06
521.113	482.06
521.329	514.06
521.544	538.06
521.76	628.06
521.975	879.06
522.19	807.06
522.406	572.06
522.621	497.06
522.836	450.06
523.052	460.06
523.267	433.06
523.482	436.06
523.698	419.06
523.913	430.06
524.128	426.06
524.343	458.06
524.559	405.06
524.774	398.06
524.989	433.06
525.204	420.06
525.419	396.06
525.634	410.06
525.849	401.06
526.064	410.06
526.28	396.06
526.495	414.06
526.71	419.06
526.925	401.06
527.14	389.06
527.355	412.06
527.57	403.06
527.785	399.06
527.999	414.06
528.214	413.06
528.429	402.06
528.644	403.06
528.859	391.06
529.074	393.06
529.289	385.06
529.503	442.06
529.718	442.06
529.933	412.06
530.148	403.06
530.363	405.06
530.577	390.06
530.792	385.06
531.007	390.06
531.221	390.06
531.436	386.06
531.651	375.06
531.865	388.06
532.08	387.06
532.295	386.06
532.509	384.06
532.724	390.06
532.938	378.06
533.153	391.06
533.367	362.06
533.582	368.06
533.796	374.06
534.011	375.06
534.225	383.06
534.44	383.06
534.654	379.06
534.868	385.06
535.083	354.06
535.297	368.06
535.511	402.06
535.726	393.06
535.94	376.06
536.154	375.06
536.369	376.06
536.583	384.06
536.797	385.06
537.011	377.06
537.225	388.06
537.44	362.06
537.654	388.06
537.868	363.06
538.082	384.06
538.296	376.06
538.51	380.06
538.724	376.06
538.938	362.06
539.153	357.06
539.367	362.06
539.581	367.06
539.795	369.06
540.009	362.06
540.222	385.06
540.436	370.06
540.65	354.06
540.864	370.06
541.078	356.06
541.292	358.06
541.506	370.06
541.72	358.06
541.934	352.06
542.147	375.06
542.361	386.06
542.575	368.06
542.789	356.06
543.002	367.06
543.216	358.06
543.43	368.06
543.644	356.06
543.857	370.06
544.071	374.06
544.285	343.06
544.498	374.06
544.712	376.06
544.925	383.06
545.139	370.06
545.352	372.06
545.566	364.06
545.779	364.06
545.993	377.06
546.206	382.06
546.42	363.06
546.633	348.06
546.847	347.06
547.06	346.06
547.274	368.06
547.487	374.06
547.7	360.06
547.914	360.06
548.127	371.06
548.34	360.06
548.554	366.06
548.767	360.06
548.98	369.06
549.193	361.06
549.407	352.06
549.62	357.06
549.833	357.06
550.046	356.06
550.259	358.06
550.473	343.06
550.686	356.06
550.899	339.06
551.112	358.06
551.325	358.06
551.538	361.06
551.751	336.06
551.964	334.06
552.177	376.06
552.39	362.06
552.603	374.06
552.816	370.06
553.029	356.06
553.242	364.06
553.455	362.06
553.667	363.06
553.88	383.06
554.093	363.06
554.306	364.06
554.519	372.06
554.732	372.06
554.944	355.06
555.157	344.06
555.37	360.06
555.583	330.06
555.795	355.06
556.008	318.06
556.221	346.06
556.433	325.06
556.646	327.06
556.859	329.06
557.071	332.06
557.284	323.06
557.496	323.06
557.709	323.06
557.921	309.06
558.134	331.06
558.346	302.06
558.559	314.06
558.771	311.06
558.984	343.06
559.196	311.06
559.409	313.06
559.621	314.06
559.833	317.06
560.046	312.06
560.258	303.06
560.47	304.06
560.683	313.06
560.895	316.06
561.107	309.06
561.32	310.06
561.532	301.06
561.744	304.06
561.956	318.06
562.168	311.06
562.381	320.06
562.593	323.06
562.805	321.06
563.017	338.06
563.229	327.06
563.441	309.06
563.653	347.06
563.865	310.06
564.077	319.06
564.289	320.06
564.501	321.06
564.713	328.06
564.925	359.06
565.137	337.06
565.349	356.06
565.561	338.06
565.773	359.06
565.985	358.06
566.197	359.06
566.408	348.06
566.62	399.06
566.832	400.06
567.044	390.06
567.255	409.06
567.467	423.06
567.679	418.06
567.891	445.06
568.102	421.06
568.314	433.06
568.526	398.06
568.737	383.06
568.949	375.06
569.161	369.06
569.372	330.06
569.584	320.06
569.795	344.06
570.007	329.06
570.218	345.06
570.43	337.06
570.641	330.06
570.853	325.06
571.064	307.06
571.276	329.06
571.487	328.06
571.698	297.06
571.91	297.06
572.121	297.06
572.333	305.06
572.544	314.06
572.755	288.06
572.966	288.06
573.178	277.06
573.389	289.06
573.6	271.06
573.811	267.06
574.023	261.06
574.234	272.06
574.445	277.06
574.656	283.06
574.867	278.06
575.078	267.06
575.289	283.06
575.501	280.06
575.712	276.06
575.923	274.06
576.134	276.06
576.345	267.06
576.556	282.06
576.767	287.06
576.978	270.06
577.188	289.06
577.399	288.06
577.61	271.06
577.821	267.06
578.032	255.06
578.243	276.06
578.454	353.06
578.665	292.06
578.875	259.06
579.086	248.06
579.297	270.06
579.508	259.06
579.718	246.06
579.929	262.06
580.14	260.06
580.35	261.06
580.561	262.06
580.772	251.06
580.982	238.06
581.193	264.06
581.403	242.06
581.614	257.06
581.825	244.06
582.035	268.06
582.246	244.06
582.456	246.06
582.667	264.06
582.877	264.06
583.087	253.06
583.298	264.06
583.508	246.06
583.719	261.06
583.929	239.06
584.139	252.06
584.35	234.06
584.56	244.06
584.77	239.06
584.981	258.06
585.191	235.06
585.401	254.06
585.611	240.06
585.821	233.06
586.032	258.06
586.242	241.06
586.452	236.06
586.662	250.06
586.872	250.06
587.082	254.06
587.292	258.06
587.502	258.06
587.713	247.06
587.923	251.06
588.133	239.06
588.343	249.06
588.553	233.06
588.762	226.06
588.972	223.06
589.182	240.06
589.392	248.06
589.602	250.06
589.812	263.06
590.022	264.06
590.232	242.06
590.441	250.06
590.651	248.06
590.861	241.06
591.071	241.06
591.281	234.06
591.49	243.06
591.7	258.06
591.91	261.06
592.119	241.06
592.329	241.06
592.539	263.06
592.748	258.06
592.958	259.06
593.167	249.06
593.377	282.06
593.587	276.06
593.796	273.06
594.006	254.06
594.215	282.06
594.424	272.06
594.634	254.06
594.843	259.06
595.053	245.06
595.262	232.06
595.472	220.06
595.681	247.06
595.89	250.06
596.1	234.06
596.309	238.06
596.518	227.06
596.727	214.06
596.937	234.06
597.146	222.06
597.355	226.06
597.564	223.06
597.774	221.06
597.983	215.06
598.192	224.06
598.401	222.06
598.61	230.06
598.819	211.06
599.028	218.06
599.237	214.06
599.446	216.06
599.655	218.06
599.864	224.06
600.073	215.06
600.282	204.06
600.491	209.06
600.7	208.06
600.909	216.06
601.118	212.06
601.327	203.06
601.536	216.06
601.745	219.06
601.953	213.06
602.162	219.06
602.371	201.06
602.58	215.06
602.789	204.06
602.997	203.06
603.206	201.06
603.415	208.06
603.623	210.06
603.832	194.06
604.041	212.06
604.249	223.06
604.458	219.06
604.666	197.06
604.875	184.06
605.084	193.06
605.292	201.06
605.501	215.06
605.709	203.06
605.918	209.06
606.126	206.06
606.334	186.06
606.543	196.06
606.751	210.06
606.96	202.06
607.168	204.06
607.376	210.06
607.585	185.06
607.793	211.06
608.001	191.06
608.21	205.06
608.418	198.06
608.626	198.06
608.834	205.06
609.043	198.06
609.251	199.06
609.459	206.06
609.667	201.06
609.875	217.06
610.083	188.06
610.291	201.06
610.499	210.06
610.707	197.06
610.916	198.06
611.124	195.06
611.332	205.06
611.54	206.06
611.748	189.06
611.955	204.06
612.163	195.06
612.371	177.06
612.579	187.06
612.787	190.06
612.995	210.06
613.203	206.06
613.411	190.06
613.618	213.06
613.826	199.06
614.034	198.06
614.242	201.06
614.449	205.06
614.657	190.06
614.865	200.06
615.072	208.06
615.28	195.06
615.488	193.06
615.695	190.06
615.903	195.06
616.111	207.06
616.318	197.06
616.526	182.06
616.733	188.06
616.941	197.06
617.148	186.06
617.356	183.06
617.563	193.06
617.771	194.06
617.978	187.06
618.185	161.06
618.393	198.06
618.6	207.06
618.807	190.06
619.015	182.06
619.222	202.06
619.429	180.06
619.637	197.06
619.844	187.06
620.051	179.06
620.258	190.06
620.466	174.06
620.673	176.06
620.88	186.06
621.087	184.06
621.294	195.06
621.501	196.06
621.708	169.06
621.915	191.06
622.122	184.06
622.329	178.06
622.536	186.06
622.743	190.06
622.95	187.06
623.157	189.06
623.364	183.06
623.571	177.06
623.778	180.06
623.985	186.06
624.192	185.06
624.399	195.06
624.606	176.06
624.812	180.06
625.019	169.06
625.226	179.06
625.433	179.06
625.639	170.06
625.846	163.06
626.053	168.06
626.259	153.06
626.466	163.06
626.673	170.06
626.879	166.06
627.086	169.06
627.293	171.06
627.499	172.06
627.706	174.06
627.912	178.06
628.119	171.06
628.325	163.06
628.532	177.06
628.738	184.06
628.945	181.06
629.151	171.06
629.357	183.06
629.564	184.06
629.77	179.06
629.976	162.06
630.183	171.06
630.389	171.06
630.595	158.06
630.802	155.06
631.008	176.06
631.214	164.06
631.42	154.06
631.627	163.06
631.833	170.06
632.039	164.06
632.245	162.06
632.451	169.06
632.657	164.06
632.863	159.06
633.069	144.06
633.275	154.06
633.481	147.06
633.688	162.06
633.893	158.06
634.099	165.06
634.305	146.06
634.511	149.06
634.717	167.06
634.923	169.06
635.129	154.06
635.335	158.06
635.541	157.06
635.747	147.06
635.952	158.06
636.158	176.06
636.364	148.06
636.57	163.06
636.775	157.06
636.981	161.06
637.187	155.06
637.392	164.06
637.598	159.06
637.804	150.06
638.009	155.06
638.215	167.06
638.421	139.06
638.626	152.06
638.832	151.06
639.037	159.06
639.243	154.06
639.448	146.06
639.654	154.06
639.859	143.06
640.065	149.06
640.27	162.06
640.475	150.06
640.681	141.06
640.886	148.06
641.091	156.06
641.297	155.06
641.502	155.06
641.707	138.06
641.913	158.06
642.118	128.06
642.323	131.06
642.528	147.06
642.733	150.06
642.939	150.06
643.144	160.06
643.349	153.06
643.554	148.06
643.759	150.06
643.964	137.06
644.169	140.06
644.374	130.06
644.579	153.06
644.784	136.06
644.989	146.06
645.194	141.06
645.399	163.06
645.604	143.06
645.809	126.06
646.014	132.06
646.219	157.06
646.423	134.06
646.628	126.06
646.833	147.06
647.038	146.06
647.243	152.06
647.447	148.06
647.652	145.06
647.857	146.06
648.062	147.06
648.266	145.06
648.471	133.06
648.676	164.06
648.88	147.06
649.085	149.06
649.289	139.06
649.494	147.06
649.698	159.06
649.903	163.06
650.107	141.06
650.312	134.06
650.516	135.06
650.721	135.06
650.925	130.06
651.13	138.06
651.334	138.06
651.539	127.06
651.743	137.06
651.947	126.06
652.152	130.06
652.356	139.06
652.56	133.06
652.764	132.06
652.969	132.06
653.173	132.06
653.377	110.06
653.581	118.06
653.785	135.06
653.99	127.06
654.194	143.06
654.398	120.06
654.602	118.06
654.806	120.06
655.01	124.06
655.214	120.06
655.418	127.06
655.622	125.06
655.826	124.06
656.03	132.06
656.234	128.06
656.438	124.06
656.642	117.06
656.846	148.06
657.049	112.06
657.253	126.06
657.457	119.06
657.661	116.06
657.865	97.06
658.068	118.06
658.272	104.06
658.476	119.06
658.68	98.06
658.883	90.06
659.087	100.06
659.291	103.06
659.494	100.06
659.698	79.06
659.901	91.06
660.105	78.06
660.309	82.06
660.512	95.06
660.716	88.06
660.919	84.06
661.123	89.06
661.326	74.06
661.53	82.06
661.733	86.06
661.936	83.06
662.14	94.06
662.343	74.06
662.546	88.06
662.75	78.06
662.953	73.06
663.156	74.06
663.36	77.06
663.563	83.06
663.766	85.06
663.969	91.06
664.173	73.06
664.376	87.06
664.579	85.06
664.782	75.06
664.985	64.06
665.188	84.06
665.391	95.06
665.594	80.06
665.797	83.06
666	78.06
666.203	74.06
666.406	74.06
666.609	88.06
666.812	82.06
667.015	79.06
667.218	87.06
667.421	74.06
667.624	82.06
667.827	83.06
668.03	77.06
668.232	67.06
668.435	79.06
668.638	74.06
668.841	83.06
669.043	74.06
669.246	81.06
669.449	80.06
669.651	76.06
669.854	83.06
670.057	89.06
670.259	82.06
670.462	80.06
670.665	66.06
670.867	69.06
671.07	78.06
671.272	81.06
671.475	78.06
671.677	88.06
671.88	89.06
672.082	79.06
672.284	74.06
672.487	78.06
672.689	72.06
672.892	88.06
