Data from 1964.PennyLincolnUp.Lamp.En5.5.200Scan.071719.P1._HRD10591_14-05-35-910.txt Node
Date: Thu Jul 18 14:05:35 EDT 2019
User: cochatt
Spectrometer: HR+D1059
Trigger mode: 1
Integration Time (sec): 1.000000E-1
Scans to average: 1
Electric dark correction enabled: true
Nonlinearity correction enabled: false
Boxcar width: 0
XAxis mode: Wavelengths
Number of Pixels in Spectrum: 2048
>>>>>Begin Spectral Data<<<<<
223.165	-20.25
223.4	-20.25
223.635	-20.25
223.869	-13.25
224.104	-17.25
224.338	-21.25
224.573	-6.25
224.808	-4.25
225.042	-19.25
225.277	-8.25
225.511	2.75
225.746	8.75
225.98	12.75
226.215	14.75
226.449	16.75
226.683	11.75
226.918	17.75
227.152	24.75
227.387	40.75
227.621	43.75
227.856	38.75
228.09	57.75
228.324	55.75
228.559	45.75
228.793	58.75
229.027	88.75
229.262	105.75
229.496	110.75
229.73	114.75
229.964	148.75
230.199	125.75
230.433	106.75
230.667	98.75
230.901	101.75
231.136	109.75
231.37	123.75
231.604	119.75
231.838	101.75
232.072	118.75
232.306	118.75
232.541	121.75
232.775	116.75
233.009	108.75
233.243	118.75
233.477	132.75
233.711	109.75
233.945	115.75
234.179	116.75
234.413	115.75
234.647	112.75
234.881	112.75
235.115	118.75
235.349	130.75
235.583	131.75
235.817	103.75
236.051	121.75
236.285	135.75
236.519	131.75
236.753	130.75
236.987	145.75
237.221	164.75
237.455	210.75
237.689	186.75
237.922	140.75
238.156	138.75
238.39	116.75
238.624	128.75
238.858	130.75
239.091	126.75
239.325	128.75
239.559	147.75
239.793	130.75
240.027	141.75
240.26	133.75
240.494	152.75
240.728	137.75
240.961	144.75
241.195	141.75
241.429	126.75
241.662	131.75
241.896	138.75
242.13	136.75
242.363	141.75
242.597	131.75
242.83	140.75
243.064	136.75
243.298	148.75
243.531	146.75
243.765	141.75
243.998	144.75
244.232	130.75
244.465	144.75
244.699	142.75
244.932	138.75
245.166	140.75
245.399	152.75
245.633	162.75
245.866	158.75
246.099	156.75
246.333	148.75
246.566	158.75
246.8	173.75
247.033	156.75
247.266	157.75
247.5	168.75
247.733	166.75
247.966	168.75
248.2	191.75
248.433	171.75
248.666	163.75
248.899	187.75
249.133	182.75
249.366	213.75
249.599	208.75
249.832	184.75
250.066	187.75
250.299	188.75
250.532	190.75
250.765	203.75
250.998	227.75
251.231	218.75
251.465	212.75
251.698	198.75
251.931	194.75
252.164	192.75
252.397	193.75
252.63	194.75
252.863	208.75
253.096	214.75
253.329	230.75
253.562	206.75
253.795	219.75
254.028	223.75
254.261	228.75
254.494	233.75
254.727	276.75
254.96	278.75
255.193	262.75
255.426	249.75
255.659	232.75
255.892	237.75
256.124	252.75
256.357	245.75
256.59	226.75
256.823	215.75
257.056	214.75
257.289	216.75
257.521	232.75
257.754	211.75
257.987	217.75
258.22	227.75
258.452	208.75
258.685	219.75
258.918	221.75
259.151	216.75
259.383	234.75
259.616	217.75
259.849	237.75
260.081	230.75
260.314	222.75
260.547	254.75
260.779	263.75
261.012	252.75
261.244	236.75
261.477	245.75
261.71	234.75
261.942	242.75
262.175	238.75
262.407	231.75
262.64	221.75
262.872	229.75
263.105	217.75
263.337	239.75
263.57	226.75
263.802	229.75
264.035	229.75
264.267	235.75
264.499	225.75
264.732	231.75
264.964	228.75
265.197	223.75
265.429	235.75
265.661	235.75
265.894	234.75
266.126	236.75
266.358	234.75
266.591	230.75
266.823	253.75
267.055	239.75
267.287	233.75
267.52	230.75
267.752	241.75
267.984	250.75
268.216	246.75
268.448	245.75
268.681	232.75
268.913	267.75
269.145	266.75
269.377	290.75
269.609	307.75
269.841	278.75
270.073	283.75
270.306	311.75
270.538	312.75
270.77	322.75
271.002	315.75
271.234	310.75
271.466	320.75
271.698	325.75
271.93	326.75
272.162	329.75
272.394	302.75
272.626	294.75
272.858	298.75
273.09	299.75
273.322	293.75
273.553	273.75
273.785	286.75
274.017	286.75
274.249	299.75
274.481	281.75
274.713	282.75
274.945	286.75
275.176	279.75
275.408	288.75
275.64	278.75
275.872	264.75
276.104	278.75
276.335	284.75
276.567	283.75
276.799	318.75
277.031	332.75
277.262	323.75
277.494	321.75
277.726	332.75
277.957	316.75
278.189	311.75
278.421	285.75
278.652	318.75
278.884	294.75
279.115	300.75
279.347	296.75
279.579	307.75
279.81	295.75
280.042	313.75
280.273	306.75
280.505	294.75
280.736	314.75
280.968	291.75
281.199	299.75
281.431	295.75
281.662	300.75
281.894	301.75
282.125	299.75
282.356	297.75
282.588	326.75
282.819	327.75
283.051	283.75
283.282	298.75
283.513	311.75
283.745	310.75
283.976	319.75
284.207	306.75
284.439	333.75
284.67	320.75
284.901	303.75
285.132	302.75
285.364	296.75
285.595	313.75
285.826	296.75
286.057	326.75
286.288	324.75
286.52	301.75
286.751	310.75
286.982	294.75
287.213	324.75
287.444	320.75
287.675	336.75
287.906	335.75
288.138	334.75
288.369	334.75
288.6	339.75
288.831	335.75
289.062	338.75
289.293	333.75
289.524	323.75
289.755	331.75
289.986	339.75
290.217	319.75
290.448	322.75
290.679	318.75
290.91	309.75
291.141	324.75
291.371	316.75
291.602	334.75
291.833	320.75
292.064	341.75
292.295	339.75
292.526	322.75
292.757	311.75
292.987	335.75
293.218	334.75
293.449	339.75
293.68	345.75
293.91	317.75
294.141	326.75
294.372	325.75
294.603	332.75
294.833	329.75
295.064	334.75
295.295	316.75
295.525	339.75
295.756	338.75
295.987	344.75
296.217	347.75
296.448	354.75
296.679	342.75
296.909	341.75
297.14	335.75
297.37	350.75
297.601	331.75
297.831	353.75
298.062	349.75
298.292	334.75
298.523	364.75
298.753	354.75
298.984	350.75
299.214	334.75
299.445	352.75
299.675	350.75
299.905	339.75
300.136	367.75
300.366	367.75
300.597	374.75
300.827	365.75
301.057	351.75
301.288	364.75
301.518	366.75
301.748	361.75
301.979	360.75
302.209	384.75
302.439	380.75
302.669	376.75
302.9	380.75
303.13	370.75
303.36	375.75
303.59	384.75
303.82	379.75
304.051	371.75
304.281	373.75
304.511	371.75
304.741	361.75
304.971	359.75
305.201	359.75
305.431	362.75
305.661	367.75
305.891	360.75
306.121	390.75
306.352	374.75
306.582	365.75
306.812	362.75
307.042	360.75
307.272	364.75
307.502	352.75
307.731	361.75
307.961	363.75
308.191	375.75
308.421	354.75
308.651	372.75
308.881	406.75
309.111	372.75
309.341	384.75
309.571	378.75
309.8	396.75
310.03	387.75
310.26	391.75
310.49	379.75
310.72	410.75
310.949	409.75
311.179	401.75
311.409	395.75
311.639	398.75
311.868	410.75
312.098	424.75
312.328	410.75
312.557	416.75
312.787	424.75
313.017	432.75
313.246	407.75
313.476	389.75
313.706	417.75
313.935	412.75
314.165	428.75
314.394	396.75
314.624	444.75
314.853	415.75
315.083	413.75
315.312	409.75
315.542	420.75
315.771	395.75
316.001	391.75
316.23	400.75
316.46	399.75
316.689	396.75
316.919	409.75
317.148	420.75
317.377	412.75
317.607	421.75
317.836	410.75
318.065	427.75
318.295	418.75
318.524	408.75
318.753	415.75
318.983	409.75
319.212	399.75
319.441	404.75
319.67	413.75
319.9	406.75
320.129	420.75
320.358	422.75
320.587	405.75
320.816	417.75
321.046	428.75
321.275	420.75
321.504	409.75
321.733	420.75
321.962	427.75
322.191	449.75
322.42	439.75
322.649	432.75
322.878	450.75
323.108	426.75
323.337	483.75
323.566	494.75
323.795	500.75
324.024	540.75
324.253	653.75
324.482	844.75
324.71	1252.75
324.939	1663.75
325.168	1430.75
325.397	749.75
325.626	558.75
325.855	520.75
326.084	471.75
326.313	492.75
326.542	495.75
326.77	526.75
326.999	613.75
327.228	762.75
327.457	1119.75
327.686	1251.75
327.914	854.75
328.143	618.75
328.372	557.75
328.6	544.75
328.829	530.75
329.058	542.75
329.287	533.75
329.515	535.75
329.744	523.75
329.972	485.75
330.201	525.75
330.43	549.75
330.658	577.75
330.887	592.75
331.115	575.75
331.344	535.75
331.572	489.75
331.801	495.75
332.03	486.75
332.258	478.75
332.486	500.75
332.715	482.75
332.943	480.75
333.172	498.75
333.4	492.75
333.629	520.75
333.857	527.75
334.085	519.75
334.314	536.75
334.542	569.75
334.771	549.75
334.999	525.75
335.227	526.75
335.455	482.75
335.684	490.75
335.912	483.75
336.14	502.75
336.369	484.75
336.597	477.75
336.825	490.75
337.053	498.75
337.281	469.75
337.51	459.75
337.738	462.75
337.966	467.75
338.194	466.75
338.422	482.75
338.65	483.75
338.878	459.75
339.106	447.75
339.334	459.75
339.562	460.75
339.79	435.75
340.018	455.75
340.246	446.75
340.474	448.75
340.702	448.75
340.93	458.75
341.158	451.75
341.386	461.75
341.614	446.75
341.842	435.75
342.07	472.75
342.298	443.75
342.526	450.75
342.754	438.75
342.981	432.75
343.209	455.75
343.437	467.75
343.665	475.75
343.893	489.75
344.12	482.75
344.348	486.75
344.576	461.75
344.804	475.75
345.031	488.75
345.259	487.75
345.487	462.75
345.714	467.75
345.942	436.75
346.17	439.75
346.397	430.75
346.625	411.75
346.853	430.75
347.08	435.75
347.308	429.75
347.535	410.75
347.763	434.75
347.99	442.75
348.218	422.75
348.445	452.75
348.673	430.75
348.9	418.75
349.128	424.75
349.355	427.75
349.583	397.75
349.81	416.75
350.037	410.75
350.265	415.75
350.492	419.75
350.72	406.75
350.947	405.75
351.174	436.75
351.402	435.75
351.629	429.75
351.856	425.75
352.083	417.75
352.311	431.75
352.538	426.75
352.765	454.75
352.992	446.75
353.22	408.75
353.447	427.75
353.674	410.75
353.901	398.75
354.128	401.75
354.355	396.75
354.583	400.75
354.81	396.75
355.037	398.75
355.264	405.75
355.491	390.75
355.718	418.75
355.945	422.75
356.172	429.75
356.399	423.75
356.626	426.75
356.853	400.75
357.08	417.75
357.307	408.75
357.534	402.75
357.761	382.75
357.988	400.75
358.215	396.75
358.441	404.75
358.668	381.75
358.895	405.75
359.122	402.75
359.349	406.75
359.576	416.75
359.802	440.75
360.029	446.75
360.256	459.75
360.483	438.75
360.709	426.75
360.936	415.75
361.163	419.75
361.39	383.75
361.616	428.75
361.843	395.75
362.07	404.75
362.296	426.75
362.523	419.75
362.749	404.75
362.976	416.75
363.203	408.75
363.429	410.75
363.656	398.75
363.882	404.75
364.109	407.75
364.335	417.75
364.562	408.75
364.788	406.75
365.015	384.75
365.241	410.75
365.468	403.75
365.694	392.75
365.92	379.75
366.147	422.75
366.373	404.75
366.599	374.75
366.826	383.75
367.052	383.75
367.278	387.75
367.505	394.75
367.731	405.75
367.957	396.75
368.184	390.75
368.41	396.75
368.636	396.75
368.862	421.75
369.089	416.75
369.315	418.75
369.541	408.75
369.767	366.75
369.993	394.75
370.219	418.75
370.445	387.75
370.672	427.75
370.898	400.75
371.124	399.75
371.35	395.75
371.576	401.75
371.802	408.75
372.028	418.75
372.254	392.75
372.48	405.75
372.706	415.75
372.932	412.75
373.158	408.75
373.384	407.75
373.61	401.75
373.835	407.75
374.061	422.75
374.287	394.75
374.513	408.75
374.739	410.75
374.965	431.75
375.191	432.75
375.416	416.75
375.642	400.75
375.868	414.75
376.094	431.75
376.319	407.75
376.545	400.75
376.771	410.75
376.997	391.75
377.222	404.75
377.448	386.75
377.674	411.75
377.899	398.75
378.125	395.75
378.35	404.75
378.576	381.75
378.802	397.75
379.027	392.75
379.253	407.75
379.478	390.75
379.704	373.75
379.929	397.75
380.155	386.75
380.38	377.75
380.606	400.75
380.831	407.75
381.057	407.75
381.282	390.75
381.507	407.75
381.733	416.75
381.958	388.75
382.184	396.75
382.409	413.75
382.634	435.75
382.86	401.75
383.085	408.75
383.31	422.75
383.535	434.75
383.761	415.75
383.986	423.75
384.211	432.75
384.436	431.75
384.662	420.75
384.887	420.75
385.112	404.75
385.337	445.75
385.562	450.75
385.787	450.75
386.013	447.75
386.238	443.75
386.463	431.75
386.688	424.75
386.913	449.75
387.138	428.75
387.363	446.75
387.588	431.75
387.813	429.75
388.038	444.75
388.263	456.75
388.488	458.75
388.713	422.75
388.938	444.75
389.163	425.75
389.387	429.75
389.612	414.75
389.837	426.75
390.062	442.75
390.287	440.75
390.512	406.75
390.736	422.75
390.961	437.75
391.186	444.75
391.411	458.75
391.636	446.75
391.86	439.75
392.085	444.75
392.31	438.75
392.534	435.75
392.759	451.75
392.984	451.75
393.208	442.75
393.433	458.75
393.658	430.75
393.882	427.75
394.107	422.75
394.331	440.75
394.556	422.75
394.78	428.75
395.005	440.75
395.229	453.75
395.454	447.75
395.678	466.75
395.903	475.75
396.127	484.75
396.352	472.75
396.576	455.75
396.801	448.75
397.025	453.75
397.249	463.75
397.474	462.75
397.698	456.75
397.922	468.75
398.147	506.75
398.371	495.75
398.595	488.75
398.82	474.75
399.044	486.75
399.268	532.75
399.492	571.75
399.717	590.75
399.941	588.75
400.165	625.75
400.389	598.75
400.613	567.75
400.837	516.75
401.062	514.75
401.286	500.75
401.51	496.75
401.734	499.75
401.958	492.75
402.182	505.75
402.406	516.75
402.63	496.75
402.854	495.75
403.078	513.75
403.302	514.75
403.526	499.75
403.75	494.75
403.974	536.75
404.198	503.75
404.422	525.75
404.645	516.75
404.869	517.75
405.093	557.75
405.317	555.75
405.541	601.75
405.765	557.75
405.988	522.75
406.212	533.75
406.436	524.75
406.66	575.75
406.883	532.75
407.107	556.75
407.331	587.75
407.555	643.75
407.778	639.75
408.002	581.75
408.226	572.75
408.449	544.75
408.673	572.75
408.896	573.75
409.12	591.75
409.344	564.75
409.567	503.75
409.791	526.75
410.014	503.75
410.238	480.75
410.461	518.75
410.685	494.75
410.908	524.75
411.132	541.75
411.355	578.75
411.578	559.75
411.802	471.75
412.025	506.75
412.249	518.75
412.472	552.75
412.695	573.75
412.919	538.75
413.142	501.75
413.365	493.75
413.589	480.75
413.812	471.75
414.035	457.75
414.258	464.75
414.482	467.75
414.705	484.75
414.928	478.75
415.151	462.75
415.374	478.75
415.597	464.75
415.821	463.75
416.044	446.75
416.267	458.75
416.49	476.75
416.713	483.75
416.936	464.75
417.159	479.75
417.382	471.75
417.605	470.75
417.828	489.75
418.051	480.75
418.274	479.75
418.497	483.75
418.72	464.75
418.943	487.75
419.166	477.75
419.389	504.75
419.611	499.75
419.834	510.75
420.057	478.75
420.28	484.75
420.503	502.75
420.726	494.75
420.948	490.75
421.171	544.75
421.394	547.75
421.617	502.75
421.839	491.75
422.062	501.75
422.285	482.75
422.507	553.75
422.73	589.75
422.953	603.75
423.175	537.75
423.398	501.75
423.621	513.75
423.843	534.75
424.066	537.75
424.288	516.75
424.511	518.75
424.733	556.75
424.956	619.75
425.178	621.75
425.401	599.75
425.623	596.75
425.846	534.75
426.068	499.75
426.291	479.75
426.513	468.75
426.735	512.75
426.958	526.75
427.18	580.75
427.402	690.75
427.625	738.75
427.847	638.75
428.069	563.75
428.292	526.75
428.514	496.75
428.736	465.75
428.958	482.75
429.181	463.75
429.403	463.75
429.625	479.75
429.847	469.75
430.069	533.75
430.292	529.75
430.514	489.75
430.736	452.75
430.958	459.75
431.18	441.75
431.402	452.75
431.624	461.75
431.846	456.75
432.068	450.75
432.29	429.75
432.512	462.75
432.734	434.75
432.956	449.75
433.178	468.75
433.4	454.75
433.622	458.75
433.844	458.75
434.066	445.75
434.287	444.75
434.509	423.75
434.731	444.75
434.953	455.75
435.175	462.75
435.397	478.75
435.618	491.75
435.84	516.75
436.062	595.75
436.284	653.75
436.505	539.75
436.727	489.75
436.949	471.75
437.17	467.75
437.392	456.75
437.614	489.75
437.835	487.75
438.057	542.75
438.278	615.75
438.5	632.75
438.721	679.75
438.943	656.75
439.165	535.75
439.386	506.75
439.608	504.75
439.829	494.75
440.05	498.75
440.272	531.75
440.493	520.75
440.715	513.75
440.936	500.75
441.158	465.75
441.379	466.75
441.6	464.75
441.822	492.75
442.043	529.75
442.264	594.75
442.486	624.75
442.707	556.75
442.928	506.75
443.149	502.75
443.371	536.75
443.592	555.75
443.813	631.75
444.034	664.75
444.255	580.75
444.476	527.75
444.698	519.75
444.919	503.75
445.14	566.75
445.361	563.75
445.582	552.75
445.803	580.75
446.024	650.75
446.245	644.75
446.466	603.75
446.687	508.75
446.908	503.75
447.129	466.75
447.35	446.75
447.571	445.75
447.792	447.75
448.013	463.75
448.234	447.75
448.455	502.75
448.675	602.75
448.896	657.75
449.117	557.75
449.338	547.75
449.559	644.75
449.779	735.75
450	577.75
450.221	498.75
450.442	442.75
450.662	436.75
450.883	421.75
451.104	442.75
451.324	434.75
451.545	421.75
451.766	434.75
451.986	408.75
452.207	382.75
452.428	415.75
452.648	410.75
452.869	384.75
453.089	416.75
453.31	402.75
453.53	422.75
453.751	404.75
453.971	404.75
454.192	439.75
454.412	418.75
454.633	381.75
454.853	399.75
455.073	383.75
455.294	436.75
455.514	483.75
455.734	463.75
455.955	404.75
456.175	393.75
456.395	382.75
456.616	387.75
456.836	404.75
457.056	388.75
457.276	396.75
457.497	370.75
457.717	390.75
457.937	398.75
458.157	390.75
458.377	378.75
458.598	401.75
458.818	444.75
459.038	504.75
459.258	511.75
459.478	473.75
459.698	440.75
459.918	434.75
460.138	424.75
460.358	426.75
460.578	445.75
460.798	472.75
461.018	456.75
461.238	458.75
461.458	460.75
461.678	454.75
461.898	459.75
462.118	433.75
462.338	490.75
462.558	466.75
462.777	470.75
462.997	503.75
463.217	514.75
463.437	516.75
463.657	489.75
463.876	476.75
464.096	482.75
464.316	485.75
464.536	501.75
464.755	477.75
464.975	492.75
465.195	490.75
465.414	519.75
465.634	489.75
465.854	451.75
466.073	436.75
466.293	424.75
466.512	431.75
466.732	430.75
466.951	435.75
467.171	427.75
467.391	414.75
467.61	419.75
467.829	425.75
468.049	421.75
468.268	425.75
468.488	410.75
468.707	427.75
468.927	406.75
469.146	367.75
469.365	434.75
469.585	396.75
469.804	414.75
470.023	420.75
470.243	413.75
470.462	438.75
470.681	437.75
470.901	431.75
471.12	432.75
471.339	411.75
471.558	403.75
471.777	446.75
471.997	425.75
472.216	423.75
472.435	450.75
472.654	426.75
472.873	437.75
473.092	429.75
473.311	426.75
473.53	429.75
473.749	414.75
473.968	441.75
474.187	543.75
474.406	537.75
474.625	472.75
474.844	450.75
475.063	431.75
475.282	395.75
475.501	408.75
475.72	434.75
475.939	427.75
476.158	451.75
476.377	430.75
476.596	404.75
476.814	437.75
477.033	437.75
477.252	448.75
477.471	434.75
477.69	471.75
477.908	448.75
478.127	453.75
478.346	470.75
478.564	472.75
478.783	472.75
479.002	487.75
479.22	476.75
479.439	484.75
479.658	486.75
479.876	491.75
480.095	516.75
480.313	520.75
480.532	518.75
480.751	511.75
480.969	518.75
481.188	571.75
481.406	560.75
481.624	526.75
481.843	498.75
482.061	521.75
482.28	523.75
482.498	504.75
482.717	488.75
482.935	484.75
483.153	488.75
483.372	479.75
483.59	476.75
483.808	514.75
484.027	484.75
484.245	479.75
484.463	501.75
484.681	500.75
484.9	498.75
485.118	489.75
485.336	514.75
485.554	479.75
485.772	507.75
485.99	488.75
486.209	498.75
486.427	529.75
486.645	535.75
486.863	524.75
487.081	506.75
487.299	532.75
487.517	505.75
487.735	518.75
487.953	510.75
488.171	506.75
488.389	526.75
488.607	524.75
488.825	511.75
489.043	501.75
489.261	523.75
489.479	526.75
489.696	522.75
489.914	530.75
490.132	526.75
490.35	545.75
490.568	517.75
490.786	548.75
491.003	574.75
491.221	565.75
491.439	573.75
491.657	533.75
491.874	553.75
492.092	578.75
492.31	579.75
492.527	570.75
492.745	575.75
492.963	573.75
493.18	604.75
493.398	583.75
493.615	602.75
493.833	597.75
494.05	592.75
494.268	594.75
494.485	607.75
494.703	600.75
494.92	611.75
495.138	596.75
495.355	598.75
495.573	604.75
495.79	621.75
496.008	628.75
496.225	604.75
496.442	596.75
496.66	617.75
496.877	608.75
497.094	616.75
497.312	602.75
497.529	611.75
497.746	633.75
497.963	640.75
498.181	657.75
498.398	664.75
498.615	706.75
498.832	715.75
499.049	712.75
499.267	745.75
499.484	781.75
499.701	790.75
499.918	848.75
500.135	862.75
500.352	910.75
500.569	914.75
500.786	898.75
501.003	916.75
501.22	875.75
501.437	853.75
501.654	826.75
501.871	790.75
502.088	769.75
502.305	710.75
502.522	703.75
502.739	677.75
502.956	663.75
503.172	659.75
503.389	644.75
503.606	632.75
503.823	631.75
504.04	613.75
504.256	615.75
504.473	631.75
504.69	618.75
504.907	630.75
505.123	569.75
505.34	582.75
505.557	604.75
505.773	593.75
505.99	550.75
506.207	569.75
506.423	550.75
506.64	554.75
506.856	562.75
507.073	554.75
507.289	559.75
507.506	546.75
507.722	571.75
507.939	559.75
508.155	536.75
508.372	540.75
508.588	508.75
508.805	545.75
509.021	503.75
509.238	528.75
509.454	543.75
509.67	545.75
509.887	543.75
510.103	526.75
510.319	531.75
510.536	604.75
510.752	784.75
510.968	660.75
511.184	528.75
511.401	492.75
511.617	525.75
511.833	502.75
512.049	502.75
512.265	488.75
512.481	506.75
512.698	519.75
512.914	512.75
513.13	496.75
513.346	485.75
513.562	502.75
513.778	491.75
513.994	502.75
514.21	522.75
514.426	500.75
514.642	538.75
514.858	558.75
515.074	591.75
515.29	615.75
515.506	795.75
515.721	680.75
515.937	551.75
516.153	558.75
516.369	524.75
516.585	522.75
516.801	522.75
517.016	551.75
517.232	533.75
517.448	533.75
517.664	528.75
517.879	542.75
518.095	527.75
518.311	556.75
518.527	523.75
518.742	533.75
518.958	480.75
519.173	520.75
519.389	496.75
519.605	518.75
519.82	497.75
520.036	501.75
520.251	507.75
520.467	549.75
520.682	515.75
520.898	536.75
521.113	541.75
521.329	551.75
521.544	579.75
521.76	693.75
521.975	989.75
522.19	912.75
522.406	606.75
522.621	532.75
522.836	476.75
523.052	476.75
523.267	461.75
523.482	474.75
523.698	452.75
523.913	439.75
524.128	453.75
524.343	422.75
524.559	450.75
524.774	439.75
524.989	428.75
525.204	437.75
525.419	438.75
525.634	428.75
525.849	427.75
526.064	429.75
526.28	420.75
526.495	426.75
526.71	439.75
526.925	434.75
527.14	405.75
527.355	418.75
527.57	444.75
527.785	436.75
527.999	411.75
528.214	411.75
528.429	423.75
528.644	406.75
528.859	425.75
529.074	410.75
529.289	420.75
529.503	468.75
529.718	469.75
529.933	435.75
530.148	421.75
530.363	419.75
530.577	435.75
530.792	418.75
531.007	409.75
531.221	420.75
531.436	414.75
531.651	394.75
531.865	394.75
532.08	397.75
532.295	402.75
532.509	384.75
532.724	422.75
532.938	407.75
533.153	413.75
533.367	398.75
533.582	419.75
533.796	401.75
534.011	399.75
534.225	391.75
534.44	395.75
534.654	421.75
534.868	410.75
535.083	397.75
535.297	401.75
535.511	412.75
535.726	405.75
535.94	393.75
536.154	390.75
536.369	396.75
536.583	412.75
536.797	404.75
537.011	390.75
537.225	392.75
537.44	401.75
537.654	399.75
537.868	380.75
538.082	380.75
538.296	403.75
538.51	388.75
538.724	388.75
538.938	402.75
539.153	382.75
539.367	404.75
539.581	386.75
539.795	400.75
540.009	400.75
540.222	395.75
540.436	371.75
540.65	380.75
540.864	401.75
541.078	408.75
541.292	402.75
541.506	389.75
541.72	384.75
541.934	386.75
542.147	383.75
542.361	400.75
542.575	393.75
542.789	379.75
543.002	384.75
543.216	384.75
543.43	404.75
543.644	386.75
543.857	388.75
544.071	381.75
544.285	396.75
544.498	390.75
544.712	397.75
544.925	378.75
545.139	366.75
545.352	374.75
545.566	367.75
545.779	378.75
545.993	403.75
546.206	392.75
546.42	376.75
546.633	376.75
546.847	386.75
547.06	382.75
547.274	359.75
547.487	394.75
547.7	359.75
547.914	382.75
548.127	380.75
548.34	379.75
548.554	380.75
548.767	378.75
548.98	383.75
549.193	391.75
549.407	386.75
549.62	367.75
549.833	359.75
550.046	378.75
550.259	374.75
550.473	372.75
550.686	373.75
550.899	366.75
551.112	354.75
551.325	366.75
551.538	355.75
551.751	366.75
551.964	363.75
552.177	375.75
552.39	368.75
552.603	385.75
552.816	397.75
553.029	375.75
553.242	404.75
553.455	397.75
553.667	389.75
553.88	401.75
554.093	376.75
554.306	384.75
554.519	375.75
554.732	355.75
554.944	362.75
555.157	370.75
555.37	363.75
555.583	350.75
555.795	340.75
556.008	331.75
556.221	343.75
556.433	335.75
556.646	337.75
556.859	330.75
557.071	332.75
557.284	346.75
557.496	351.75
557.709	328.75
557.921	344.75
558.134	351.75
558.346	320.75
558.559	328.75
558.771	330.75
558.984	332.75
559.196	326.75
559.409	314.75
559.621	346.75
559.833	310.75
560.046	338.75
560.258	326.75
560.47	321.75
560.683	345.75
560.895	341.75
561.107	328.75
561.32	332.75
561.532	309.75
561.744	346.75
561.956	348.75
562.168	320.75
562.381	324.75
562.593	345.75
562.805	345.75
563.017	328.75
563.229	348.75
563.441	335.75
563.653	328.75
563.865	318.75
564.077	326.75
564.289	342.75
564.501	324.75
564.713	354.75
564.925	349.75
565.137	356.75
565.349	363.75
565.561	352.75
565.773	364.75
565.985	372.75
566.197	362.75
566.408	377.75
566.62	395.75
566.832	420.75
567.044	442.75
567.255	418.75
567.467	430.75
567.679	445.75
567.891	454.75
568.102	447.75
568.314	404.75
568.526	423.75
568.737	401.75
568.949	395.75
569.161	383.75
569.372	348.75
569.584	363.75
569.795	344.75
570.007	357.75
570.218	354.75
570.43	363.75
570.641	347.75
570.853	331.75
571.064	330.75
571.276	325.75
571.487	316.75
571.698	320.75
571.91	322.75
572.121	326.75
572.333	306.75
572.544	311.75
572.755	293.75
572.966	302.75
573.178	283.75
573.389	296.75
573.6	299.75
573.811	305.75
574.023	299.75
574.234	290.75
574.445	300.75
574.656	264.75
574.867	293.75
575.078	277.75
575.289	271.75
575.501	282.75
575.712	272.75
575.923	290.75
576.134	286.75
576.345	277.75
576.556	285.75
576.767	281.75
576.978	285.75
577.188	281.75
577.399	284.75
577.61	284.75
577.821	270.75
578.032	274.75
578.243	296.75
578.454	382.75
578.665	314.75
578.875	258.75
579.086	272.75
579.297	280.75
579.508	263.75
579.718	268.75
579.929	272.75
580.14	262.75
580.35	259.75
580.561	267.75
580.772	281.75
580.982	271.75
581.193	265.75
581.403	275.75
581.614	258.75
581.825	267.75
582.035	267.75
582.246	266.75
582.456	259.75
582.667	266.75
582.877	269.75
583.087	256.75
583.298	251.75
583.508	252.75
583.719	242.75
583.929	257.75
584.139	267.75
584.35	248.75
584.56	248.75
584.77	263.75
584.981	251.75
585.191	280.75
585.401	250.75
585.611	254.75
585.821	250.75
586.032	251.75
586.242	246.75
586.452	280.75
586.662	250.75
586.872	258.75
587.082	251.75
587.292	243.75
587.502	254.75
587.713	234.75
587.923	260.75
588.133	262.75
588.343	244.75
588.553	238.75
588.762	253.75
588.972	248.75
589.182	273.75
589.392	276.75
589.602	270.75
589.812	247.75
590.022	253.75
590.232	262.75
590.441	272.75
590.651	239.75
590.861	264.75
591.071	260.75
591.281	260.75
591.49	250.75
591.7	266.75
591.91	258.75
592.119	269.75
592.329	256.75
592.539	280.75
592.748	275.75
592.958	264.75
593.167	261.75
593.377	263.75
593.587	277.75
593.796	274.75
594.006	272.75
594.215	281.75
594.424	280.75
594.634	264.75
594.843	276.75
595.053	273.75
595.262	264.75
595.472	232.75
595.681	252.75
595.89	231.75
596.1	242.75
596.309	234.75
596.518	245.75
596.727	236.75
596.937	243.75
597.146	224.75
597.355	247.75
597.564	243.75
597.774	232.75
597.983	240.75
598.192	242.75
598.401	234.75
598.61	238.75
598.819	236.75
599.028	231.75
599.237	228.75
599.446	243.75
599.655	241.75
599.864	220.75
600.073	226.75
600.282	210.75
600.491	214.75
600.7	222.75
600.909	227.75
601.118	221.75
601.327	216.75
601.536	224.75
601.745	220.75
601.953	214.75
602.162	226.75
602.371	205.75
602.58	218.75
602.789	224.75
602.997	225.75
603.206	205.75
603.415	208.75
603.623	200.75
603.832	218.75
604.041	222.75
604.249	222.75
604.458	227.75
604.666	228.75
604.875	215.75
605.084	221.75
605.292	204.75
605.501	221.75
605.709	223.75
605.918	217.75
606.126	222.75
606.334	207.75
606.543	220.75
606.751	232.75
606.96	218.75
607.168	206.75
607.376	213.75
607.585	215.75
607.793	205.75
608.001	203.75
608.21	206.75
608.418	212.75
608.626	210.75
608.834	204.75
609.043	203.75
609.251	199.75
609.459	196.75
609.667	223.75
609.875	207.75
610.083	198.75
610.291	207.75
610.499	204.75
610.707	198.75
610.916	211.75
611.124	217.75
611.332	224.75
611.54	218.75
611.748	214.75
611.955	215.75
612.163	198.75
612.371	203.75
612.579	194.75
612.787	205.75
612.995	184.75
613.203	207.75
613.411	194.75
613.618	213.75
613.826	194.75
614.034	219.75
614.242	200.75
614.449	205.75
614.657	198.75
614.865	197.75
615.072	214.75
615.28	190.75
615.488	192.75
615.695	190.75
615.903	206.75
616.111	205.75
616.318	225.75
616.526	206.75
616.733	207.75
616.941	208.75
617.148	200.75
617.356	188.75
617.563	199.75
617.771	202.75
617.978	205.75
618.185	190.75
618.393	200.75
618.6	200.75
618.807	197.75
619.015	205.75
619.222	200.75
619.429	192.75
619.637	189.75
619.844	187.75
620.051	218.75
620.258	186.75
620.466	206.75
620.673	207.75
620.88	179.75
621.087	209.75
621.294	199.75
621.501	206.75
621.708	194.75
621.915	189.75
622.122	180.75
622.329	188.75
622.536	192.75
622.743	178.75
622.95	186.75
623.157	191.75
623.364	189.75
623.571	185.75
623.778	189.75
623.985	195.75
624.192	186.75
624.399	175.75
624.606	194.75
624.812	189.75
625.019	196.75
625.226	188.75
625.433	168.75
625.639	167.75
625.846	190.75
626.053	167.75
626.259	171.75
626.466	171.75
626.673	177.75
626.879	182.75
627.086	165.75
627.293	176.75
627.499	180.75
627.706	169.75
627.912	182.75
628.119	175.75
628.325	191.75
628.532	186.75
628.738	178.75
628.945	167.75
629.151	186.75
629.357	162.75
629.564	179.75
629.77	176.75
629.976	187.75
630.183	158.75
630.389	176.75
630.595	176.75
630.802	156.75
631.008	179.75
631.214	173.75
631.42	164.75
631.627	171.75
631.833	179.75
632.039	193.75
632.245	171.75
632.451	171.75
632.657	153.75
632.863	168.75
633.069	174.75
633.275	163.75
633.481	150.75
633.688	156.75
633.893	160.75
634.099	154.75
634.305	162.75
634.511	151.75
634.717	150.75
634.923	162.75
635.129	152.75
635.335	166.75
635.541	160.75
635.747	157.75
635.952	152.75
636.158	153.75
636.364	146.75
636.57	158.75
636.775	169.75
636.981	168.75
637.187	166.75
637.392	161.75
637.598	163.75
637.804	152.75
638.009	176.75
638.215	159.75
638.421	164.75
638.626	132.75
638.832	160.75
639.037	165.75
639.243	150.75
639.448	151.75
639.654	159.75
639.859	150.75
640.065	163.75
640.27	154.75
640.475	142.75
640.681	157.75
640.886	159.75
641.091	167.75
641.297	158.75
641.502	155.75
641.707	157.75
641.913	153.75
642.118	158.75
642.323	143.75
642.528	149.75
642.733	163.75
642.939	169.75
643.144	140.75
643.349	150.75
643.554	160.75
643.759	140.75
643.964	158.75
644.169	154.75
644.374	146.75
644.579	148.75
644.784	155.75
644.989	142.75
645.194	140.75
645.399	152.75
645.604	151.75
645.809	159.75
646.014	153.75
646.219	148.75
646.423	164.75
646.628	163.75
646.833	151.75
647.038	154.75
647.243	154.75
647.447	149.75
647.652	142.75
647.857	154.75
648.062	148.75
648.266	140.75
648.471	162.75
648.676	143.75
648.88	170.75
649.085	136.75
649.289	162.75
649.494	144.75
649.698	178.75
649.903	171.75
650.107	152.75
650.312	153.75
650.516	128.75
650.721	134.75
650.925	140.75
651.13	142.75
651.334	142.75
651.539	132.75
651.743	148.75
651.947	154.75
652.152	146.75
652.356	151.75
652.56	131.75
652.764	140.75
652.969	128.75
653.173	135.75
653.377	126.75
653.581	126.75
653.785	137.75
653.99	115.75
654.194	114.75
654.398	122.75
654.602	120.75
654.806	126.75
655.01	118.75
655.214	142.75
655.418	135.75
655.622	131.75
655.826	129.75
656.03	134.75
656.234	123.75
656.438	130.75
656.642	130.75
656.846	120.75
657.049	136.75
657.253	130.75
657.457	108.75
657.661	126.75
657.865	116.75
658.068	121.75
658.272	102.75
658.476	102.75
658.68	91.75
658.883	108.75
659.087	104.75
659.291	111.75
659.494	99.75
659.698	96.75
659.901	102.75
660.105	82.75
660.309	87.75
660.512	94.75
660.716	97.75
660.919	75.75
661.123	107.75
661.326	92.75
661.53	118.75
661.733	108.75
661.936	93.75
662.14	74.75
662.343	89.75
662.546	91.75
662.75	90.75
662.953	83.75
663.156	93.75
663.36	81.75
663.563	76.75
663.766	86.75
663.969	90.75
664.173	94.75
664.376	84.75
664.579	84.75
664.782	78.75
664.985	92.75
665.188	79.75
665.391	89.75
665.594	79.75
665.797	81.75
666	94.75
666.203	88.75
666.406	77.75
666.609	83.75
666.812	81.75
667.015	76.75
667.218	78.75
667.421	83.75
667.624	84.75
667.827	81.75
668.03	86.75
668.232	90.75
668.435	78.75
668.638	87.75
668.841	100.75
669.043	91.75
669.246	77.75
669.449	89.75
669.651	91.75
669.854	101.75
670.057	97.75
670.259	77.75
670.462	74.75
670.665	77.75
670.867	83.75
671.07	81.75
671.272	84.75
671.475	101.75
671.677	81.75
671.88	84.75
672.082	91.75
672.284	87.75
672.487	78.75
672.689	85.75
672.892	84.75
