Data from 1964.PennyLincolnUp.Lamp.En5.5.200Scan.071719.P1._HRD10591_14-06-17-911.txt Node
Date: Thu Jul 18 14:06:17 EDT 2019
User: cochatt
Spectrometer: HR+D1059
Trigger mode: 1
Integration Time (sec): 1.000000E-1
Scans to average: 1
Electric dark correction enabled: true
Nonlinearity correction enabled: false
Boxcar width: 0
XAxis mode: Wavelengths
Number of Pixels in Spectrum: 2048
>>>>>Begin Spectral Data<<<<<
223.165	-0.12
223.4	-0.12
223.635	-0.12
223.869	-8.12
224.104	-28.12
224.338	-6.12
224.573	-25.12
224.808	-28.12
225.042	-2.12
225.277	-1.12
225.511	-3.12
225.746	3.88
225.98	14.88
226.215	15.88
226.449	11.88
226.683	5.88
226.918	12.88
227.152	36.88
227.387	43.88
227.621	45.88
227.856	49.88
228.09	43.88
228.324	61.88
228.559	58.88
228.793	64.88
229.027	101.88
229.262	107.88
229.496	96.88
229.73	125.88
229.964	153.88
230.199	133.88
230.433	113.88
230.667	105.88
230.901	106.88
231.136	119.88
231.37	93.88
231.604	100.88
231.838	112.88
232.072	118.88
232.306	123.88
232.541	128.88
232.775	124.88
233.009	110.88
233.243	128.88
233.477	131.88
233.711	126.88
233.945	111.88
234.179	101.88
234.413	116.88
234.647	125.88
234.881	112.88
235.115	128.88
235.349	138.88
235.583	117.88
235.817	124.88
236.051	117.88
236.285	133.88
236.519	125.88
236.753	129.88
236.987	149.88
237.221	173.88
237.455	218.88
237.689	162.88
237.922	136.88
238.156	137.88
238.39	144.88
238.624	123.88
238.858	133.88
239.091	124.88
239.325	129.88
239.559	139.88
239.793	121.88
240.027	124.88
240.26	135.88
240.494	158.88
240.728	136.88
240.961	159.88
241.195	136.88
241.429	145.88
241.662	154.88
241.896	148.88
242.13	145.88
242.363	143.88
242.597	135.88
242.83	140.88
243.064	151.88
243.298	156.88
243.531	154.88
243.765	142.88
243.998	151.88
244.232	144.88
244.465	156.88
244.699	157.88
244.932	153.88
245.166	160.88
245.399	148.88
245.633	162.88
245.866	154.88
246.099	152.88
246.333	154.88
246.566	169.88
246.8	165.88
247.033	168.88
247.266	156.88
247.5	168.88
247.733	173.88
247.966	158.88
248.2	165.88
248.433	170.88
248.666	176.88
248.899	191.88
249.133	198.88
249.366	204.88
249.599	208.88
249.832	197.88
250.066	196.88
250.299	177.88
250.532	202.88
250.765	212.88
250.998	239.88
251.231	238.88
251.465	226.88
251.698	206.88
251.931	210.88
252.164	208.88
252.397	198.88
252.63	224.88
252.863	220.88
253.096	235.88
253.329	226.88
253.562	234.88
253.795	226.88
254.028	216.88
254.261	216.88
254.494	226.88
254.727	255.88
254.96	287.88
255.193	276.88
255.426	263.88
255.659	246.88
255.892	253.88
256.124	255.88
256.357	258.88
256.59	234.88
256.823	218.88
257.056	218.88
257.289	239.88
257.521	246.88
257.754	240.88
257.987	235.88
258.22	215.88
258.452	232.88
258.685	217.88
258.918	223.88
259.151	239.88
259.383	225.88
259.616	237.88
259.849	248.88
260.081	249.88
260.314	260.88
260.547	266.88
260.779	264.88
261.012	257.88
261.244	229.88
261.477	230.88
261.71	232.88
261.942	266.88
262.175	248.88
262.407	255.88
262.64	241.88
262.872	225.88
263.105	238.88
263.337	234.88
263.57	235.88
263.802	225.88
264.035	232.88
264.267	237.88
264.499	244.88
264.732	226.88
264.964	236.88
265.197	238.88
265.429	240.88
265.661	236.88
265.894	240.88
266.126	244.88
266.358	237.88
266.591	242.88
266.823	241.88
267.055	255.88
267.287	260.88
267.52	249.88
267.752	249.88
267.984	255.88
268.216	265.88
268.448	280.88
268.681	275.88
268.913	269.88
269.145	293.88
269.377	293.88
269.609	306.88
269.841	295.88
270.073	316.88
270.306	317.88
270.538	339.88
270.77	333.88
271.002	318.88
271.234	317.88
271.466	309.88
271.698	338.88
271.93	349.88
272.162	344.88
272.394	324.88
272.626	333.88
272.858	304.88
273.09	298.88
273.322	301.88
273.553	296.88
273.785	316.88
274.017	280.88
274.249	300.88
274.481	275.88
274.713	308.88
274.945	309.88
275.176	312.88
275.408	292.88
275.64	299.88
275.872	296.88
276.104	311.88
276.335	312.88
276.567	302.88
276.799	321.88
277.031	316.88
277.262	343.88
277.494	357.88
277.726	348.88
277.957	327.88
278.189	329.88
278.421	325.88
278.652	329.88
278.884	312.88
279.115	308.88
279.347	317.88
279.579	317.88
279.81	308.88
280.042	305.88
280.273	294.88
280.505	320.88
280.736	310.88
280.968	303.88
281.199	319.88
281.431	308.88
281.662	303.88
281.894	320.88
282.125	310.88
282.356	324.88
282.588	333.88
282.819	341.88
283.051	310.88
283.282	304.88
283.513	320.88
283.745	319.88
283.976	337.88
284.207	308.88
284.439	314.88
284.67	324.88
284.901	319.88
285.132	320.88
285.364	317.88
285.595	324.88
285.826	347.88
286.057	322.88
286.288	317.88
286.52	332.88
286.751	309.88
286.982	320.88
287.213	319.88
287.444	327.88
287.675	344.88
287.906	336.88
288.138	343.88
288.369	358.88
288.6	342.88
288.831	329.88
289.062	347.88
289.293	320.88
289.524	329.88
289.755	326.88
289.986	331.88
290.217	343.88
290.448	352.88
290.679	342.88
290.91	343.88
291.141	341.88
291.371	350.88
291.602	324.88
291.833	329.88
292.064	342.88
292.295	354.88
292.526	334.88
292.757	324.88
292.987	352.88
293.218	334.88
293.449	342.88
293.68	343.88
293.91	352.88
294.141	345.88
294.372	350.88
294.603	343.88
294.833	342.88
295.064	360.88
295.295	348.88
295.525	331.88
295.756	359.88
295.987	346.88
296.217	356.88
296.448	347.88
296.679	371.88
296.909	343.88
297.14	350.88
297.37	361.88
297.601	344.88
297.831	357.88
298.062	342.88
298.292	361.88
298.523	340.88
298.753	342.88
298.984	351.88
299.214	372.88
299.445	346.88
299.675	360.88
299.905	366.88
300.136	370.88
300.366	373.88
300.597	375.88
300.827	385.88
301.057	374.88
301.288	388.88
301.518	375.88
301.748	407.88
301.979	397.88
302.209	384.88
302.439	370.88
302.669	384.88
302.9	386.88
303.13	372.88
303.36	372.88
303.59	396.88
303.82	398.88
304.051	397.88
304.281	392.88
304.511	387.88
304.741	387.88
304.971	365.88
305.201	386.88
305.431	376.88
305.661	388.88
305.891	383.88
306.121	374.88
306.352	392.88
306.582	396.88
306.812	393.88
307.042	398.88
307.272	382.88
307.502	381.88
307.731	386.88
307.961	405.88
308.191	381.88
308.421	399.88
308.651	411.88
308.881	405.88
309.111	388.88
309.341	398.88
309.571	402.88
309.8	424.88
310.03	414.88
310.26	414.88
310.49	412.88
310.72	433.88
310.949	463.88
311.179	422.88
311.409	438.88
311.639	433.88
311.868	414.88
312.098	410.88
312.328	446.88
312.557	423.88
312.787	418.88
313.017	429.88
313.246	453.88
313.476	417.88
313.706	436.88
313.935	408.88
314.165	423.88
314.394	447.88
314.624	432.88
314.853	448.88
315.083	436.88
315.312	449.88
315.542	424.88
315.771	434.88
316.001	433.88
316.23	447.88
316.46	410.88
316.689	430.88
316.919	437.88
317.148	458.88
317.377	452.88
317.607	430.88
317.836	427.88
318.065	460.88
318.295	437.88
318.524	424.88
318.753	421.88
318.983	450.88
319.212	436.88
319.441	446.88
319.67	437.88
319.9	434.88
320.129	423.88
320.358	421.88
320.587	449.88
320.816	449.88
321.046	457.88
321.275	448.88
321.504	442.88
321.733	424.88
321.962	469.88
322.191	461.88
322.42	477.88
322.649	477.88
322.878	461.88
323.108	487.88
323.337	504.88
323.566	494.88
323.795	524.88
324.024	574.88
324.253	684.88
324.482	906.88
324.71	1329.88
324.939	1866.88
325.168	1574.88
325.397	832.88
325.626	600.88
325.855	544.88
326.084	537.88
326.313	550.88
326.542	528.88
326.77	565.88
326.999	613.88
327.228	825.88
327.457	1196.88
327.686	1362.88
327.914	954.88
328.143	654.88
328.372	611.88
328.6	575.88
328.829	571.88
329.058	559.88
329.287	590.88
329.515	559.88
329.744	546.88
329.972	565.88
330.201	546.88
330.43	570.88
330.658	594.88
330.887	618.88
331.115	588.88
331.344	539.88
331.572	512.88
331.801	543.88
332.03	523.88
332.258	485.88
332.486	486.88
332.715	490.88
332.943	509.88
333.172	538.88
333.4	535.88
333.629	541.88
333.857	570.88
334.085	554.88
334.314	557.88
334.542	580.88
334.771	593.88
334.999	544.88
335.227	554.88
335.455	501.88
335.684	516.88
335.912	492.88
336.14	501.88
336.369	492.88
336.597	488.88
336.825	480.88
337.053	501.88
337.281	471.88
337.51	480.88
337.738	513.88
337.966	511.88
338.194	510.88
338.422	490.88
338.65	501.88
338.878	495.88
339.106	476.88
339.334	498.88
339.562	487.88
339.79	466.88
340.018	467.88
340.246	468.88
340.474	472.88
340.702	462.88
340.93	461.88
341.158	484.88
341.386	462.88
341.614	473.88
341.842	472.88
342.07	476.88
342.298	450.88
342.526	465.88
342.754	470.88
342.981	462.88
343.209	476.88
343.437	489.88
343.665	484.88
343.893	487.88
344.12	522.88
344.348	480.88
344.576	516.88
344.804	485.88
345.031	474.88
345.259	480.88
345.487	478.88
345.714	466.88
345.942	485.88
346.17	460.88
346.397	453.88
346.625	446.88
346.853	452.88
347.08	440.88
347.308	457.88
347.535	477.88
347.763	433.88
347.99	441.88
348.218	452.88
348.445	465.88
348.673	460.88
348.9	445.88
349.128	446.88
349.355	434.88
349.583	430.88
349.81	433.88
350.037	421.88
350.265	439.88
350.492	412.88
350.72	414.88
350.947	432.88
351.174	450.88
351.402	448.88
351.629	430.88
351.856	440.88
352.083	438.88
352.311	453.88
352.538	446.88
352.765	464.88
352.992	454.88
353.22	445.88
353.447	460.88
353.674	454.88
353.901	442.88
354.128	445.88
354.355	426.88
354.583	407.88
354.81	416.88
355.037	404.88
355.264	406.88
355.491	424.88
355.718	425.88
355.945	416.88
356.172	427.88
356.399	423.88
356.626	410.88
356.853	434.88
357.08	412.88
357.307	420.88
357.534	412.88
357.761	413.88
357.988	423.88
358.215	425.88
358.441	419.88
358.668	425.88
358.895	422.88
359.122	422.88
359.349	455.88
359.576	424.88
359.802	441.88
360.029	455.88
360.256	465.88
360.483	455.88
360.709	447.88
360.936	420.88
361.163	430.88
361.39	428.88
361.616	438.88
361.843	440.88
362.07	442.88
362.296	425.88
362.523	421.88
362.749	430.88
362.976	417.88
363.203	415.88
363.429	418.88
363.656	430.88
363.882	400.88
364.109	418.88
364.335	421.88
364.562	417.88
364.788	434.88
365.015	418.88
365.241	429.88
365.468	437.88
365.694	410.88
365.92	420.88
366.147	407.88
366.373	421.88
366.599	396.88
366.826	425.88
367.052	422.88
367.278	403.88
367.505	401.88
367.731	420.88
367.957	410.88
368.184	411.88
368.41	424.88
368.636	420.88
368.862	421.88
369.089	422.88
369.315	406.88
369.541	425.88
369.767	413.88
369.993	412.88
370.219	423.88
370.445	428.88
370.672	433.88
370.898	419.88
371.124	426.88
371.35	421.88
371.576	422.88
371.802	425.88
372.028	421.88
372.254	431.88
372.48	437.88
372.706	407.88
372.932	412.88
373.158	432.88
373.384	429.88
373.61	427.88
373.835	427.88
374.061	429.88
374.287	421.88
374.513	421.88
374.739	440.88
374.965	428.88
375.191	420.88
375.416	425.88
375.642	428.88
375.868	407.88
376.094	427.88
376.319	419.88
376.545	406.88
376.771	417.88
376.997	400.88
377.222	424.88
377.448	413.88
377.674	412.88
377.899	393.88
378.125	414.88
378.35	412.88
378.576	408.88
378.802	418.88
379.027	414.88
379.253	410.88
379.478	409.88
379.704	407.88
379.929	417.88
380.155	379.88
380.38	413.88
380.606	429.88
380.831	403.88
381.057	404.88
381.282	413.88
381.507	407.88
381.733	413.88
381.958	411.88
382.184	433.88
382.409	414.88
382.634	441.88
382.86	414.88
383.085	441.88
383.31	428.88
383.535	433.88
383.761	428.88
383.986	410.88
384.211	426.88
384.436	438.88
384.662	433.88
384.887	458.88
385.112	434.88
385.337	450.88
385.562	448.88
385.787	458.88
386.013	466.88
386.238	448.88
386.463	460.88
386.688	449.88
386.913	445.88
387.138	438.88
387.363	445.88
387.588	455.88
387.813	461.88
388.038	442.88
388.263	438.88
388.488	435.88
388.713	467.88
388.938	458.88
389.163	461.88
389.387	448.88
389.612	463.88
389.837	451.88
390.062	456.88
390.287	454.88
390.512	438.88
390.736	443.88
390.961	441.88
391.186	457.88
391.411	465.88
391.636	429.88
391.86	459.88
392.085	470.88
392.31	447.88
392.534	464.88
392.759	466.88
392.984	464.88
393.208	460.88
393.433	441.88
393.658	434.88
393.882	450.88
394.107	454.88
394.331	440.88
394.556	458.88
394.78	466.88
395.005	460.88
395.229	462.88
395.454	458.88
395.678	470.88
395.903	476.88
396.127	481.88
396.352	495.88
396.576	494.88
396.801	480.88
397.025	454.88
397.249	470.88
397.474	487.88
397.698	463.88
397.922	490.88
398.147	504.88
398.371	528.88
398.595	487.88
398.82	503.88
399.044	527.88
399.268	542.88
399.492	572.88
399.717	593.88
399.941	622.88
400.165	622.88
400.389	630.88
400.613	594.88
400.837	542.88
401.062	500.88
401.286	516.88
401.51	485.88
401.734	490.88
401.958	493.88
402.182	508.88
402.406	520.88
402.63	518.88
402.854	526.88
403.078	519.88
403.302	538.88
403.526	553.88
403.75	526.88
403.974	516.88
404.198	507.88
404.422	519.88
404.645	536.88
404.869	521.88
405.093	549.88
405.317	587.88
405.541	637.88
405.765	568.88
405.988	528.88
406.212	544.88
406.436	567.88
406.66	574.88
406.883	566.88
407.107	566.88
407.331	635.88
407.555	680.88
407.778	668.88
408.002	612.88
408.226	576.88
408.449	576.88
408.673	573.88
408.896	604.88
409.12	622.88
409.344	585.88
409.567	549.88
409.791	538.88
410.014	520.88
410.238	534.88
410.461	520.88
410.685	534.88
410.908	528.88
411.132	561.88
411.355	578.88
411.578	549.88
411.802	527.88
412.025	503.88
412.249	529.88
412.472	546.88
412.695	561.88
412.919	564.88
413.142	549.88
413.365	516.88
413.589	504.88
413.812	482.88
414.035	500.88
414.258	486.88
414.482	479.88
414.705	481.88
414.928	491.88
415.151	477.88
415.374	490.88
415.597	474.88
415.821	505.88
416.044	513.88
416.267	495.88
416.49	489.88
416.713	466.88
416.936	470.88
417.159	488.88
417.382	515.88
417.605	479.88
417.828	499.88
418.051	522.88
418.274	508.88
418.497	505.88
418.72	482.88
418.943	479.88
419.166	502.88
419.389	513.88
419.611	523.88
419.834	528.88
420.057	507.88
420.28	516.88
420.503	503.88
420.726	506.88
420.948	527.88
421.171	537.88
421.394	560.88
421.617	510.88
421.839	496.88
422.062	493.88
422.285	517.88
422.507	563.88
422.73	615.88
422.953	603.88
423.175	533.88
423.398	536.88
423.621	512.88
423.843	533.88
424.066	533.88
424.288	530.88
424.511	556.88
424.733	592.88
424.956	660.88
425.178	635.88
425.401	618.88
425.623	655.88
425.846	550.88
426.068	501.88
426.291	511.88
426.513	520.88
426.735	530.88
426.958	558.88
427.18	630.88
427.402	741.88
427.625	796.88
427.847	668.88
428.069	605.88
428.292	550.88
428.514	526.88
428.736	488.88
428.958	486.88
429.181	494.88
429.403	478.88
429.625	482.88
429.847	505.88
430.069	563.88
430.292	544.88
430.514	485.88
430.736	496.88
430.958	474.88
431.18	468.88
431.402	480.88
431.624	471.88
431.846	443.88
432.068	457.88
432.29	460.88
432.512	456.88
432.734	475.88
432.956	469.88
433.178	490.88
433.4	492.88
433.622	471.88
433.844	496.88
434.066	460.88
434.287	453.88
434.509	463.88
434.731	472.88
434.953	499.88
435.175	501.88
435.397	516.88
435.618	529.88
435.84	560.88
436.062	624.88
436.284	663.88
436.505	555.88
436.727	521.88
436.949	471.88
437.17	464.88
437.392	465.88
437.614	479.88
437.835	534.88
438.057	566.88
438.278	664.88
438.5	670.88
438.721	735.88
438.943	663.88
439.165	549.88
439.386	517.88
439.608	525.88
439.829	528.88
440.05	552.88
440.272	576.88
440.493	532.88
440.715	493.88
440.936	475.88
441.158	482.88
441.379	485.88
441.6	495.88
441.822	505.88
442.043	531.88
442.264	631.88
442.486	643.88
442.707	586.88
442.928	528.88
443.149	537.88
443.371	522.88
443.592	580.88
443.813	664.88
444.034	726.88
444.255	603.88
444.476	551.88
444.698	526.88
444.919	509.88
445.14	640.88
445.361	577.88
445.582	572.88
445.803	604.88
446.024	691.88
446.245	674.88
446.466	621.88
446.687	542.88
446.908	501.88
447.129	493.88
447.35	494.88
447.571	465.88
447.792	456.88
448.013	487.88
448.234	492.88
448.455	517.88
448.675	614.88
448.896	706.88
449.117	584.88
449.338	549.88
449.559	658.88
449.779	746.88
450	597.88
450.221	510.88
450.442	455.88
450.662	440.88
450.883	456.88
451.104	448.88
451.324	455.88
451.545	450.88
451.766	420.88
451.986	441.88
452.207	412.88
452.428	423.88
452.648	406.88
452.869	431.88
453.089	416.88
453.31	422.88
453.53	423.88
453.751	423.88
453.971	416.88
454.192	418.88
454.412	411.88
454.633	411.88
454.853	384.88
455.073	429.88
455.294	441.88
455.514	483.88
455.734	475.88
455.955	417.88
456.175	423.88
456.395	398.88
456.616	402.88
456.836	420.88
457.056	401.88
457.276	386.88
457.497	405.88
457.717	409.88
457.937	405.88
458.157	413.88
458.377	403.88
458.598	431.88
458.818	469.88
459.038	550.88
459.258	540.88
459.478	487.88
459.698	464.88
459.918	454.88
460.138	446.88
460.358	474.88
460.578	469.88
460.798	461.88
461.018	474.88
461.238	467.88
461.458	448.88
461.678	441.88
461.898	482.88
462.118	474.88
462.338	510.88
462.558	486.88
462.777	480.88
462.997	514.88
463.217	524.88
463.437	527.88
463.657	493.88
463.876	502.88
464.096	504.88
464.316	486.88
464.536	511.88
464.755	486.88
464.975	506.88
465.195	516.88
465.414	545.88
465.634	497.88
465.854	471.88
466.073	457.88
466.293	438.88
466.512	441.88
466.732	438.88
466.951	463.88
467.171	414.88
467.391	427.88
467.61	432.88
467.829	441.88
468.049	421.88
468.268	420.88
468.488	408.88
468.707	438.88
468.927	427.88
469.146	409.88
469.365	403.88
469.585	433.88
469.804	433.88
470.023	439.88
470.243	420.88
470.462	450.88
470.681	458.88
470.901	455.88
471.12	431.88
471.339	433.88
471.558	433.88
471.777	436.88
471.997	444.88
472.216	439.88
472.435	446.88
472.654	439.88
472.873	431.88
473.092	431.88
473.311	446.88
473.53	433.88
473.749	438.88
473.968	487.88
474.187	552.88
474.406	558.88
474.625	482.88
474.844	448.88
475.063	445.88
475.282	442.88
475.501	441.88
475.72	453.88
475.939	459.88
476.158	444.88
476.377	465.88
476.596	442.88
476.814	430.88
477.033	444.88
477.252	472.88
477.471	469.88
477.69	452.88
477.908	465.88
478.127	480.88
478.346	477.88
478.564	480.88
478.783	494.88
479.002	516.88
479.22	512.88
479.439	490.88
479.658	510.88
479.876	515.88
480.095	524.88
480.313	564.88
480.532	573.88
480.751	542.88
480.969	545.88
481.188	581.88
481.406	574.88
481.624	565.88
481.843	554.88
482.061	501.88
482.28	534.88
482.498	493.88
482.717	508.88
482.935	522.88
483.153	509.88
483.372	497.88
483.59	479.88
483.808	502.88
484.027	502.88
484.245	494.88
484.463	511.88
484.681	529.88
484.9	513.88
485.118	520.88
485.336	528.88
485.554	527.88
485.772	525.88
485.99	540.88
486.209	534.88
486.427	538.88
486.645	543.88
486.863	518.88
487.081	554.88
487.299	529.88
487.517	545.88
487.735	499.88
487.953	537.88
488.171	537.88
488.389	541.88
488.607	531.88
488.825	539.88
489.043	512.88
489.261	528.88
489.479	560.88
489.696	551.88
489.914	543.88
490.132	568.88
490.35	539.88
490.568	556.88
490.786	571.88
491.003	572.88
491.221	564.88
491.439	585.88
491.657	582.88
491.874	573.88
492.092	587.88
492.31	593.88
492.527	602.88
492.745	611.88
492.963	622.88
493.18	629.88
493.398	635.88
493.615	624.88
493.833	619.88
494.05	608.88
494.268	617.88
494.485	609.88
494.703	616.88
494.92	621.88
495.138	629.88
495.355	630.88
495.573	621.88
495.79	630.88
496.008	618.88
496.225	618.88
496.442	635.88
496.66	636.88
496.877	669.88
497.094	647.88
497.312	633.88
497.529	651.88
497.746	688.88
497.963	685.88
498.181	694.88
498.398	709.88
498.615	719.88
498.832	732.88
499.049	741.88
499.267	778.88
499.484	833.88
499.701	856.88
499.918	866.88
500.135	914.88
500.352	952.88
500.569	946.88
500.786	934.88
501.003	957.88
501.22	908.88
501.437	878.88
501.654	846.88
501.871	813.88
502.088	786.88
502.305	760.88
502.522	723.88
502.739	720.88
502.956	695.88
503.172	677.88
503.389	680.88
503.606	647.88
503.823	652.88
504.04	656.88
504.256	640.88
504.473	637.88
504.69	641.88
504.907	638.88
505.123	622.88
505.34	632.88
505.557	617.88
505.773	610.88
505.99	590.88
506.207	586.88
506.423	604.88
506.64	577.88
506.856	584.88
507.073	577.88
507.289	572.88
507.506	570.88
507.722	567.88
507.939	589.88
508.155	599.88
508.372	567.88
508.588	558.88
508.805	569.88
509.021	562.88
509.238	577.88
509.454	589.88
509.67	554.88
509.887	570.88
510.103	568.88
510.319	548.88
510.536	597.88
510.752	832.88
510.968	706.88
511.184	557.88
511.401	529.88
511.617	569.88
511.833	542.88
512.049	518.88
512.265	536.88
512.481	537.88
512.698	537.88
512.914	538.88
513.13	515.88
513.346	515.88
513.562	510.88
513.778	475.88
513.994	511.88
514.21	525.88
514.426	552.88
514.642	573.88
514.858	579.88
515.074	587.88
515.29	635.88
515.506	820.88
515.721	717.88
515.937	588.88
516.153	544.88
516.369	551.88
516.585	525.88
516.801	544.88
517.016	548.88
517.232	548.88
517.448	549.88
517.664	582.88
517.879	559.88
518.095	559.88
518.311	556.88
518.527	551.88
518.742	525.88
518.958	540.88
519.173	526.88
519.389	498.88
519.605	530.88
519.82	527.88
520.036	548.88
520.251	530.88
520.467	553.88
520.682	563.88
520.898	566.88
521.113	550.88
521.329	560.88
521.544	613.88
521.76	708.88
521.975	1017.88
522.19	956.88
522.406	647.88
522.621	545.88
522.836	493.88
523.052	496.88
523.267	462.88
523.482	458.88
523.698	466.88
523.913	483.88
524.128	478.88
524.343	452.88
524.559	442.88
524.774	449.88
524.989	463.88
525.204	465.88
525.419	457.88
525.634	462.88
525.849	457.88
526.064	438.88
526.28	444.88
526.495	411.88
526.71	439.88
526.925	458.88
527.14	436.88
527.355	449.88
527.57	436.88
527.785	418.88
527.999	416.88
528.214	426.88
528.429	418.88
528.644	424.88
528.859	430.88
529.074	454.88
529.289	471.88
529.503	489.88
529.718	488.88
529.933	445.88
530.148	448.88
530.363	437.88
530.577	437.88
530.792	421.88
531.007	417.88
531.221	446.88
531.436	424.88
531.651	446.88
531.865	400.88
532.08	412.88
532.295	432.88
532.509	413.88
532.724	416.88
532.938	422.88
533.153	429.88
533.367	405.88
533.582	440.88
533.796	416.88
534.011	415.88
534.225	418.88
534.44	407.88
534.654	400.88
534.868	421.88
535.083	418.88
535.297	406.88
535.511	430.88
535.726	413.88
535.94	401.88
536.154	406.88
536.369	412.88
536.583	421.88
536.797	429.88
537.011	406.88
537.225	397.88
537.44	402.88
537.654	411.88
537.868	386.88
538.082	396.88
538.296	380.88
538.51	394.88
538.724	408.88
538.938	404.88
539.153	418.88
539.367	420.88
539.581	412.88
539.795	397.88
540.009	380.88
540.222	404.88
540.436	410.88
540.65	394.88
540.864	391.88
541.078	411.88
541.292	397.88
541.506	400.88
541.72	417.88
541.934	392.88
542.147	407.88
542.361	395.88
542.575	398.88
542.789	380.88
543.002	394.88
543.216	388.88
543.43	381.88
543.644	396.88
543.857	384.88
544.071	378.88
544.285	386.88
544.498	402.88
544.712	393.88
544.925	376.88
545.139	406.88
545.352	393.88
545.566	385.88
545.779	386.88
545.993	397.88
546.206	392.88
546.42	393.88
546.633	393.88
546.847	396.88
547.06	386.88
547.274	379.88
547.487	392.88
547.7	398.88
547.914	390.88
548.127	380.88
548.34	371.88
548.554	386.88
548.767	379.88
548.98	384.88
549.193	384.88
549.407	381.88
549.62	386.88
549.833	378.88
550.046	392.88
550.259	381.88
550.473	376.88
550.686	388.88
550.899	381.88
551.112	372.88
551.325	375.88
551.538	381.88
551.751	386.88
551.964	384.88
552.177	376.88
552.39	377.88
552.603	381.88
552.816	383.88
553.029	396.88
553.242	401.88
553.455	398.88
553.667	379.88
553.88	398.88
554.093	397.88
554.306	403.88
554.519	384.88
554.732	401.88
554.944	381.88
555.157	384.88
555.37	373.88
555.583	375.88
555.795	386.88
556.008	359.88
556.221	359.88
556.433	364.88
556.646	353.88
556.859	341.88
557.071	357.88
557.284	338.88
557.496	327.88
557.709	341.88
557.921	341.88
558.134	351.88
558.346	353.88
558.559	348.88
558.771	352.88
558.984	351.88
559.196	353.88
559.409	333.88
559.621	337.88
559.833	333.88
560.046	347.88
560.258	348.88
560.47	325.88
560.683	356.88
560.895	327.88
561.107	325.88
561.32	329.88
561.532	361.88
561.744	344.88
561.956	337.88
562.168	327.88
562.381	335.88
562.593	346.88
562.805	352.88
563.017	351.88
563.229	336.88
563.441	334.88
563.653	345.88
563.865	342.88
564.077	343.88
564.289	355.88
564.501	363.88
564.713	375.88
564.925	365.88
565.137	368.88
565.349	375.88
565.561	358.88
565.773	376.88
565.985	382.88
566.197	396.88
566.408	410.88
566.62	433.88
566.832	428.88
567.044	453.88
567.255	445.88
567.467	448.88
567.679	451.88
567.891	454.88
568.102	465.88
568.314	458.88
568.526	423.88
568.737	428.88
568.949	406.88
569.161	388.88
569.372	386.88
569.584	365.88
569.795	359.88
570.007	347.88
570.218	366.88
570.43	350.88
570.641	334.88
570.853	345.88
571.064	341.88
571.276	320.88
571.487	340.88
571.698	311.88
571.91	324.88
572.121	327.88
572.333	309.88
572.544	302.88
572.755	301.88
572.966	304.88
573.178	298.88
573.389	293.88
573.6	309.88
573.811	303.88
574.023	290.88
574.234	274.88
574.445	310.88
574.656	313.88
574.867	288.88
575.078	321.88
575.289	290.88
575.501	303.88
575.712	281.88
575.923	292.88
576.134	300.88
576.345	285.88
576.556	303.88
576.767	288.88
576.978	306.88
577.188	293.88
577.399	291.88
577.61	270.88
577.821	278.88
578.032	303.88
578.243	313.88
578.454	376.88
578.665	337.88
578.875	270.88
579.086	278.88
579.297	298.88
579.508	274.88
579.718	277.88
579.929	272.88
580.14	292.88
580.35	280.88
580.561	281.88
580.772	284.88
580.982	271.88
581.193	264.88
581.403	280.88
581.614	256.88
581.825	261.88
582.035	264.88
582.246	281.88
582.456	274.88
582.667	268.88
582.877	261.88
583.087	277.88
583.298	251.88
583.508	252.88
583.719	269.88
583.929	283.88
584.139	274.88
584.35	254.88
584.56	257.88
584.77	271.88
584.981	271.88
585.191	252.88
585.401	267.88
585.611	263.88
585.821	263.88
586.032	263.88
586.242	280.88
586.452	263.88
586.662	272.88
586.872	246.88
587.082	254.88
587.292	246.88
587.502	245.88
587.713	270.88
587.923	256.88
588.133	263.88
588.343	252.88
588.553	258.88
588.762	286.88
588.972	262.88
589.182	266.88
589.392	270.88
589.602	255.88
589.812	261.88
590.022	270.88
590.232	257.88
590.441	251.88
590.651	258.88
590.861	261.88
591.071	261.88
591.281	282.88
591.49	258.88
591.7	279.88
591.91	281.88
592.119	257.88
592.329	263.88
592.539	272.88
592.748	288.88
592.958	273.88
593.167	275.88
593.377	292.88
593.587	275.88
593.796	289.88
594.006	267.88
594.215	282.88
594.424	288.88
594.634	284.88
594.843	297.88
595.053	277.88
595.262	268.88
595.472	271.88
595.681	256.88
595.89	254.88
596.1	256.88
596.309	262.88
596.518	251.88
596.727	251.88
596.937	245.88
597.146	244.88
597.355	265.88
597.564	247.88
597.774	238.88
597.983	242.88
598.192	235.88
598.401	238.88
598.61	226.88
598.819	248.88
599.028	237.88
599.237	219.88
599.446	232.88
599.655	219.88
599.864	232.88
600.073	220.88
600.282	248.88
600.491	248.88
600.7	232.88
600.909	224.88
601.118	217.88
601.327	217.88
601.536	226.88
601.745	216.88
601.953	228.88
602.162	235.88
602.371	236.88
602.58	224.88
602.789	238.88
602.997	224.88
603.206	238.88
603.415	234.88
603.623	237.88
603.832	218.88
604.041	222.88
604.249	228.88
604.458	229.88
604.666	217.88
604.875	220.88
605.084	211.88
605.292	226.88
605.501	209.88
605.709	224.88
605.918	227.88
606.126	210.88
606.334	217.88
606.543	222.88
606.751	224.88
606.96	210.88
607.168	215.88
607.376	206.88
607.585	210.88
607.793	215.88
608.001	228.88
608.21	210.88
608.418	212.88
608.626	201.88
608.834	221.88
609.043	207.88
609.251	214.88
609.459	209.88
609.667	224.88
609.875	221.88
610.083	211.88
610.291	228.88
610.499	207.88
610.707	220.88
610.916	202.88
611.124	224.88
611.332	216.88
611.54	212.88
611.748	222.88
611.955	212.88
612.163	218.88
612.371	217.88
612.579	208.88
612.787	212.88
612.995	214.88
613.203	219.88
613.411	199.88
613.618	201.88
613.826	197.88
614.034	206.88
614.242	222.88
614.449	192.88
614.657	221.88
614.865	216.88
615.072	208.88
615.28	213.88
615.488	215.88
615.695	206.88
615.903	205.88
616.111	215.88
616.318	218.88
616.526	201.88
616.733	201.88
616.941	204.88
617.148	193.88
617.356	214.88
617.563	222.88
617.771	218.88
617.978	188.88
618.185	201.88
618.393	206.88
618.6	199.88
618.807	190.88
619.015	194.88
619.222	204.88
619.429	210.88
619.637	190.88
619.844	195.88
620.051	208.88
620.258	214.88
620.466	206.88
620.673	192.88
620.88	204.88
621.087	174.88
621.294	201.88
621.501	196.88
621.708	210.88
621.915	216.88
622.122	213.88
622.329	206.88
622.536	205.88
622.743	200.88
622.95	199.88
623.157	195.88
623.364	183.88
623.571	204.88
623.778	191.88
623.985	189.88
624.192	178.88
624.399	188.88
624.606	194.88
624.812	189.88
625.019	192.88
625.226	194.88
625.433	185.88
625.639	187.88
625.846	185.88
626.053	195.88
626.259	189.88
626.466	194.88
626.673	202.88
626.879	188.88
627.086	176.88
627.293	184.88
627.499	181.88
627.706	179.88
627.912	181.88
628.119	177.88
628.325	184.88
628.532	193.88
628.738	171.88
628.945	180.88
629.151	177.88
629.357	174.88
629.564	175.88
629.77	184.88
629.976	188.88
630.183	173.88
630.389	184.88
630.595	185.88
630.802	174.88
631.008	166.88
631.214	176.88
631.42	186.88
631.627	167.88
631.833	176.88
632.039	172.88
632.245	159.88
632.451	166.88
632.657	188.88
632.863	166.88
633.069	175.88
633.275	167.88
633.481	162.88
633.688	171.88
633.893	170.88
634.099	157.88
634.305	159.88
634.511	157.88
634.717	161.88
634.923	175.88
635.129	163.88
635.335	172.88
635.541	159.88
635.747	156.88
635.952	149.88
636.158	157.88
636.364	172.88
636.57	180.88
636.775	173.88
636.981	175.88
637.187	164.88
637.392	162.88
637.598	189.88
637.804	165.88
638.009	178.88
638.215	155.88
638.421	149.88
638.626	169.88
638.832	163.88
639.037	168.88
639.243	160.88
639.448	158.88
639.654	182.88
639.859	156.88
640.065	165.88
640.27	176.88
640.475	164.88
640.681	138.88
640.886	180.88
641.091	160.88
641.297	174.88
641.502	160.88
641.707	166.88
641.913	157.88
642.118	155.88
642.323	163.88
642.528	162.88
642.733	163.88
642.939	166.88
643.144	149.88
643.349	156.88
643.554	153.88
643.759	136.88
643.964	150.88
644.169	164.88
644.374	145.88
644.579	144.88
644.784	153.88
644.989	159.88
645.194	154.88
645.399	148.88
645.604	148.88
645.809	168.88
646.014	153.88
646.219	142.88
646.423	163.88
646.628	148.88
646.833	148.88
647.038	156.88
647.243	156.88
647.447	163.88
647.652	152.88
647.857	165.88
648.062	164.88
648.266	151.88
648.471	165.88
648.676	150.88
648.88	150.88
649.085	160.88
649.289	158.88
649.494	165.88
649.698	184.88
649.903	161.88
650.107	145.88
650.312	162.88
650.516	140.88
650.721	144.88
650.925	156.88
651.13	140.88
651.334	157.88
651.539	142.88
651.743	148.88
651.947	150.88
652.152	140.88
652.356	129.88
652.56	138.88
652.764	139.88
652.969	126.88
653.173	139.88
653.377	142.88
653.581	125.88
653.785	130.88
653.99	143.88
654.194	128.88
654.398	140.88
654.602	130.88
654.806	135.88
655.01	132.88
655.214	133.88
655.418	136.88
655.622	116.88
655.826	124.88
656.03	125.88
656.234	148.88
656.438	131.88
656.642	139.88
656.846	130.88
657.049	137.88
657.253	144.88
657.457	128.88
657.661	117.88
657.865	106.88
658.068	108.88
658.272	129.88
658.476	116.88
658.68	106.88
658.883	96.88
659.087	99.88
659.291	105.88
659.494	105.88
659.698	99.88
659.901	99.88
660.105	96.88
660.309	93.88
660.512	86.88
660.716	94.88
660.919	103.88
661.123	94.88
661.326	99.88
661.53	90.88
661.733	79.88
661.936	107.88
662.14	97.88
662.343	90.88
662.546	90.88
662.75	91.88
662.953	91.88
663.156	83.88
663.36	96.88
663.563	77.88
663.766	93.88
663.969	81.88
664.173	81.88
664.376	87.88
664.579	93.88
664.782	87.88
664.985	83.88
665.188	73.88
665.391	100.88
665.594	81.88
665.797	82.88
666	88.88
666.203	97.88
666.406	84.88
666.609	80.88
666.812	79.88
667.015	88.88
667.218	94.88
667.421	91.88
667.624	78.88
667.827	99.88
668.03	88.88
668.232	80.88
668.435	100.88
668.638	99.88
668.841	94.88
669.043	80.88
669.246	84.88
669.449	96.88
669.651	77.88
669.854	77.88
670.057	74.88
670.259	85.88
670.462	90.88
670.665	88.88
670.867	95.88
671.07	83.88
671.272	94.88
671.475	85.88
671.677	89.88
671.88	92.88
672.082	85.88
672.284	81.88
672.487	71.88
672.689	84.88
672.892	75.88
