Data from 1964.PennyLincolnUp.Lamp.En5.5.200Scan.071719.P1._HRD10591_14-04-28-909.txt Node
Date: Thu Jul 18 14:04:28 EDT 2019
User: cochatt
Spectrometer: HR+D1059
Trigger mode: 1
Integration Time (sec): 1.000000E-1
Scans to average: 1
Electric dark correction enabled: true
Nonlinearity correction enabled: false
Boxcar width: 0
XAxis mode: Wavelengths
Number of Pixels in Spectrum: 2048
>>>>>Begin Spectral Data<<<<<
223.165	-10.12
223.4	-10.12
223.635	-10.12
223.869	-22.12
224.104	-29.12
224.338	-9.12
224.573	-17.12
224.808	-4.12
225.042	-9.12
225.277	-6.12
225.511	-8.12
225.746	-7.12
225.98	10.88
226.215	18.88
226.449	19.88
226.683	12.88
226.918	27.88
227.152	31.88
227.387	39.88
227.621	33.88
227.856	23.88
228.09	49.88
228.324	51.88
228.559	56.88
228.793	67.88
229.027	93.88
229.262	88.88
229.496	98.88
229.73	108.88
229.964	121.88
230.199	110.88
230.433	91.88
230.667	112.88
230.901	92.88
231.136	110.88
231.37	105.88
231.604	113.88
231.838	100.88
232.072	96.88
232.306	97.88
232.541	116.88
232.775	118.88
233.009	101.88
233.243	111.88
233.477	101.88
233.711	120.88
233.945	120.88
234.179	110.88
234.413	123.88
234.647	115.88
234.881	109.88
235.115	111.88
235.349	118.88
235.583	114.88
235.817	125.88
236.051	128.88
236.285	119.88
236.519	104.88
236.753	128.88
236.987	136.88
237.221	156.88
237.455	183.88
237.689	154.88
237.922	140.88
238.156	148.88
238.39	111.88
238.624	122.88
238.858	123.88
239.091	118.88
239.325	130.88
239.559	132.88
239.793	123.88
240.027	121.88
240.26	135.88
240.494	134.88
240.728	130.88
240.961	134.88
241.195	148.88
241.429	152.88
241.662	138.88
241.896	124.88
242.13	128.88
242.363	143.88
242.597	118.88
242.83	138.88
243.064	155.88
243.298	132.88
243.531	134.88
243.765	139.88
243.998	124.88
244.232	147.88
244.465	143.88
244.699	148.88
244.932	146.88
245.166	144.88
245.399	143.88
245.633	142.88
245.866	151.88
246.099	154.88
246.333	146.88
246.566	149.88
246.8	144.88
247.033	149.88
247.266	151.88
247.5	161.88
247.733	158.88
247.966	160.88
248.2	168.88
248.433	160.88
248.666	165.88
248.899	160.88
249.133	196.88
249.366	185.88
249.599	183.88
249.832	180.88
250.066	175.88
250.299	182.88
250.532	186.88
250.765	202.88
250.998	220.88
251.231	205.88
251.465	209.88
251.698	212.88
251.931	189.88
252.164	199.88
252.397	192.88
252.63	192.88
252.863	197.88
253.096	213.88
253.329	212.88
253.562	204.88
253.795	198.88
254.028	217.88
254.261	185.88
254.494	203.88
254.727	233.88
254.96	253.88
255.193	243.88
255.426	239.88
255.659	220.88
255.892	216.88
256.124	224.88
256.357	225.88
256.59	207.88
256.823	212.88
257.056	215.88
257.289	210.88
257.521	206.88
257.754	205.88
257.987	203.88
258.22	207.88
258.452	209.88
258.685	199.88
258.918	209.88
259.151	200.88
259.383	208.88
259.616	218.88
259.849	213.88
260.081	245.88
260.314	229.88
260.547	238.88
260.779	226.88
261.012	203.88
261.244	222.88
261.477	203.88
261.71	235.88
261.942	199.88
262.175	208.88
262.407	225.88
262.64	208.88
262.872	213.88
263.105	212.88
263.337	223.88
263.57	222.88
263.802	225.88
264.035	219.88
264.267	214.88
264.499	218.88
264.732	226.88
264.964	224.88
265.197	210.88
265.429	219.88
265.661	212.88
265.894	216.88
266.126	235.88
266.358	212.88
266.591	231.88
266.823	226.88
267.055	212.88
267.287	234.88
267.52	237.88
267.752	247.88
267.984	227.88
268.216	226.88
268.448	235.88
268.681	238.88
268.913	243.88
269.145	262.88
269.377	250.88
269.609	265.88
269.841	270.88
270.073	253.88
270.306	284.88
270.538	310.88
270.77	310.88
271.002	291.88
271.234	288.88
271.466	288.88
271.698	291.88
271.93	298.88
272.162	295.88
272.394	299.88
272.626	306.88
272.858	276.88
273.09	278.88
273.322	270.88
273.553	275.88
273.785	268.88
274.017	252.88
274.249	253.88
274.481	263.88
274.713	266.88
274.945	257.88
275.176	280.88
275.408	280.88
275.64	279.88
275.872	269.88
276.104	263.88
276.335	277.88
276.567	263.88
276.799	303.88
277.031	289.88
277.262	283.88
277.494	310.88
277.726	304.88
277.957	312.88
278.189	288.88
278.421	278.88
278.652	268.88
278.884	277.88
279.115	275.88
279.347	251.88
279.579	283.88
279.81	271.88
280.042	274.88
280.273	291.88
280.505	268.88
280.736	300.88
280.968	269.88
281.199	306.88
281.431	282.88
281.662	293.88
281.894	289.88
282.125	304.88
282.356	294.88
282.588	295.88
282.819	300.88
283.051	284.88
283.282	296.88
283.513	298.88
283.745	298.88
283.976	300.88
284.207	299.88
284.439	282.88
284.67	303.88
284.901	279.88
285.132	301.88
285.364	276.88
285.595	289.88
285.826	298.88
286.057	294.88
286.288	299.88
286.52	301.88
286.751	300.88
286.982	310.88
287.213	293.88
287.444	304.88
287.675	313.88
287.906	315.88
288.138	322.88
288.369	344.88
288.6	325.88
288.831	321.88
289.062	317.88
289.293	320.88
289.524	316.88
289.755	316.88
289.986	312.88
290.217	323.88
290.448	305.88
290.679	308.88
290.91	317.88
291.141	294.88
291.371	310.88
291.602	315.88
291.833	311.88
292.064	306.88
292.295	322.88
292.526	299.88
292.757	322.88
292.987	318.88
293.218	298.88
293.449	312.88
293.68	310.88
293.91	312.88
294.141	311.88
294.372	308.88
294.603	321.88
294.833	322.88
295.064	321.88
295.295	310.88
295.525	303.88
295.756	332.88
295.987	320.88
296.217	320.88
296.448	333.88
296.679	308.88
296.909	309.88
297.14	317.88
297.37	332.88
297.601	336.88
297.831	340.88
298.062	330.88
298.292	315.88
298.523	336.88
298.753	326.88
298.984	329.88
299.214	337.88
299.445	325.88
299.675	312.88
299.905	354.88
300.136	347.88
300.366	326.88
300.597	334.88
300.827	348.88
301.057	351.88
301.288	335.88
301.518	335.88
301.748	336.88
301.979	344.88
302.209	351.88
302.439	358.88
302.669	351.88
302.9	356.88
303.13	342.88
303.36	350.88
303.59	354.88
303.82	342.88
304.051	353.88
304.281	350.88
304.511	345.88
304.741	353.88
304.971	363.88
305.201	354.88
305.431	345.88
305.661	352.88
305.891	349.88
306.121	335.88
306.352	367.88
306.582	353.88
306.812	348.88
307.042	371.88
307.272	354.88
307.502	348.88
307.731	358.88
307.961	357.88
308.191	356.88
308.421	350.88
308.651	340.88
308.881	354.88
309.111	359.88
309.341	355.88
309.571	360.88
309.8	366.88
310.03	358.88
310.26	380.88
310.49	380.88
310.72	380.88
310.949	393.88
311.179	390.88
311.409	414.88
311.639	375.88
311.868	377.88
312.098	380.88
312.328	385.88
312.557	410.88
312.787	404.88
313.017	398.88
313.246	411.88
313.476	379.88
313.706	392.88
313.935	386.88
314.165	401.88
314.394	420.88
314.624	401.88
314.853	399.88
315.083	393.88
315.312	392.88
315.542	408.88
315.771	379.88
316.001	373.88
316.23	364.88
316.46	396.88
316.689	386.88
316.919	390.88
317.148	397.88
317.377	392.88
317.607	377.88
317.836	383.88
318.065	399.88
318.295	414.88
318.524	402.88
318.753	384.88
318.983	406.88
319.212	401.88
319.441	393.88
319.67	401.88
319.9	399.88
320.129	390.88
320.358	380.88
320.587	389.88
320.816	404.88
321.046	406.88
321.275	400.88
321.504	401.88
321.733	385.88
321.962	417.88
322.191	425.88
322.42	424.88
322.649	423.88
322.878	424.88
323.108	400.88
323.337	445.88
323.566	444.88
323.795	469.88
324.024	503.88
324.253	561.88
324.482	739.88
324.71	1062.88
324.939	1435.88
325.168	1224.88
325.397	669.88
325.626	526.88
325.855	478.88
326.084	478.88
326.313	457.88
326.542	458.88
326.77	489.88
326.999	552.88
327.228	708.88
327.457	947.88
327.686	1087.88
327.914	756.88
328.143	587.88
328.372	522.88
328.6	496.88
328.829	491.88
329.058	492.88
329.287	502.88
329.515	491.88
329.744	464.88
329.972	473.88
330.201	474.88
330.43	493.88
330.658	513.88
330.887	534.88
331.115	502.88
331.344	436.88
331.572	464.88
331.801	464.88
332.03	472.88
332.258	465.88
332.486	470.88
332.715	477.88
332.943	442.88
333.172	460.88
333.4	478.88
333.629	484.88
333.857	477.88
334.085	502.88
334.314	508.88
334.542	534.88
334.771	540.88
334.999	495.88
335.227	505.88
335.455	461.88
335.684	477.88
335.912	478.88
336.14	471.88
336.369	466.88
336.597	484.88
336.825	440.88
337.053	458.88
337.281	456.88
337.51	444.88
337.738	461.88
337.966	459.88
338.194	455.88
338.422	456.88
338.65	435.88
338.878	455.88
339.106	446.88
339.334	440.88
339.562	431.88
339.79	434.88
340.018	441.88
340.246	458.88
340.474	437.88
340.702	453.88
340.93	439.88
341.158	435.88
341.386	406.88
341.614	420.88
341.842	423.88
342.07	418.88
342.298	446.88
342.526	413.88
342.754	436.88
342.981	442.88
343.209	431.88
343.437	434.88
343.665	452.88
343.893	467.88
344.12	477.88
344.348	454.88
344.576	462.88
344.804	463.88
345.031	446.88
345.259	440.88
345.487	435.88
345.714	412.88
345.942	447.88
346.17	430.88
346.397	432.88
346.625	407.88
346.853	413.88
347.08	393.88
347.308	390.88
347.535	425.88
347.763	429.88
347.99	429.88
348.218	422.88
348.445	405.88
348.673	404.88
348.9	414.88
349.128	418.88
349.355	403.88
349.583	411.88
349.81	385.88
350.037	401.88
350.265	431.88
350.492	404.88
350.72	398.88
350.947	401.88
351.174	400.88
351.402	406.88
351.629	406.88
351.856	398.88
352.083	410.88
352.311	399.88
352.538	398.88
352.765	408.88
352.992	390.88
353.22	394.88
353.447	410.88
353.674	383.88
353.901	404.88
354.128	386.88
354.355	388.88
354.583	406.88
354.81	404.88
355.037	382.88
355.264	373.88
355.491	398.88
355.718	378.88
355.945	382.88
356.172	365.88
356.399	394.88
356.626	399.88
356.853	384.88
357.08	388.88
357.307	394.88
357.534	379.88
357.761	380.88
357.988	392.88
358.215	375.88
358.441	388.88
358.668	388.88
358.895	385.88
359.122	381.88
359.349	366.88
359.576	406.88
359.802	424.88
360.029	437.88
360.256	416.88
360.483	397.88
360.709	394.88
360.936	406.88
361.163	408.88
361.39	388.88
361.616	390.88
361.843	390.88
362.07	400.88
362.296	394.88
362.523	396.88
362.749	407.88
362.976	404.88
363.203	399.88
363.429	402.88
363.656	382.88
363.882	389.88
364.109	376.88
364.335	380.88
364.562	380.88
364.788	374.88
365.015	402.88
365.241	402.88
365.468	382.88
365.694	382.88
365.92	408.88
366.147	398.88
366.373	379.88
366.599	367.88
366.826	392.88
367.052	368.88
367.278	382.88
367.505	386.88
367.731	380.88
367.957	396.88
368.184	390.88
368.41	386.88
368.636	404.88
368.862	396.88
369.089	396.88
369.315	395.88
369.541	389.88
369.767	386.88
369.993	380.88
370.219	401.88
370.445	398.88
370.672	392.88
370.898	407.88
371.124	390.88
371.35	395.88
371.576	388.88
371.802	384.88
372.028	379.88
372.254	395.88
372.48	387.88
372.706	389.88
372.932	408.88
373.158	382.88
373.384	382.88
373.61	388.88
373.835	393.88
374.061	383.88
374.287	390.88
374.513	394.88
374.739	407.88
374.965	391.88
375.191	386.88
375.416	390.88
375.642	379.88
375.868	394.88
376.094	374.88
376.319	377.88
376.545	393.88
376.771	385.88
376.997	381.88
377.222	377.88
377.448	394.88
377.674	384.88
377.899	383.88
378.125	390.88
378.35	367.88
378.576	388.88
378.802	380.88
379.027	359.88
379.253	390.88
379.478	394.88
379.704	376.88
379.929	376.88
380.155	381.88
380.38	380.88
380.606	390.88
380.831	392.88
381.057	387.88
381.282	387.88
381.507	375.88
381.733	372.88
381.958	404.88
382.184	379.88
382.409	395.88
382.634	395.88
382.86	396.88
383.085	419.88
383.31	389.88
383.535	409.88
383.761	376.88
383.986	414.88
384.211	404.88
384.436	407.88
384.662	396.88
384.887	407.88
385.112	434.88
385.337	398.88
385.562	430.88
385.787	423.88
386.013	432.88
386.238	438.88
386.463	423.88
386.688	436.88
386.913	415.88
387.138	434.88
387.363	415.88
387.588	411.88
387.813	431.88
388.038	407.88
388.263	415.88
388.488	427.88
388.713	411.88
388.938	423.88
389.163	419.88
389.387	432.88
389.612	394.88
389.837	409.88
390.062	405.88
390.287	404.88
390.512	413.88
390.736	414.88
390.961	421.88
391.186	407.88
391.411	406.88
391.636	415.88
391.86	413.88
392.085	443.88
392.31	434.88
392.534	432.88
392.759	436.88
392.984	432.88
393.208	436.88
393.433	421.88
393.658	438.88
393.882	424.88
394.107	427.88
394.331	424.88
394.556	435.88
394.78	440.88
395.005	415.88
395.229	412.88
395.454	453.88
395.678	432.88
395.903	458.88
396.127	460.88
396.352	456.88
396.576	450.88
396.801	451.88
397.025	442.88
397.249	418.88
397.474	443.88
397.698	440.88
397.922	437.88
398.147	468.88
398.371	455.88
398.595	460.88
398.82	461.88
399.044	481.88
399.268	519.88
399.492	534.88
399.717	581.88
399.941	580.88
400.165	585.88
400.389	580.88
400.613	526.88
400.837	500.88
401.062	492.88
401.286	485.88
401.51	462.88
401.734	459.88
401.958	492.88
402.182	495.88
402.406	459.88
402.63	462.88
402.854	454.88
403.078	465.88
403.302	473.88
403.526	489.88
403.75	479.88
403.974	516.88
404.198	491.88
404.422	498.88
404.645	510.88
404.869	500.88
405.093	521.88
405.317	558.88
405.541	589.88
405.765	526.88
405.988	505.88
406.212	504.88
406.436	509.88
406.66	516.88
406.883	500.88
407.107	555.88
407.331	557.88
407.555	614.88
407.778	596.88
408.002	560.88
408.226	522.88
408.449	549.88
408.673	528.88
408.896	560.88
409.12	563.88
409.344	536.88
409.567	468.88
409.791	509.88
410.014	483.88
410.238	488.88
410.461	470.88
410.685	486.88
410.908	486.88
411.132	509.88
411.355	531.88
411.578	514.88
411.802	506.88
412.025	445.88
412.249	499.88
412.472	497.88
412.695	533.88
412.919	535.88
413.142	488.88
413.365	466.88
413.589	458.88
413.812	446.88
414.035	448.88
414.258	452.88
414.482	459.88
414.705	449.88
414.928	472.88
415.151	452.88
415.374	446.88
415.597	451.88
415.821	446.88
416.044	445.88
416.267	453.88
416.49	443.88
416.713	438.88
416.936	438.88
417.159	434.88
417.382	447.88
417.605	464.88
417.828	462.88
418.051	482.88
418.274	486.88
418.497	456.88
418.72	443.88
418.943	429.88
419.166	447.88
419.389	482.88
419.611	467.88
419.834	454.88
420.057	458.88
420.28	468.88
420.503	454.88
420.726	451.88
420.948	478.88
421.171	495.88
421.394	530.88
421.617	473.88
421.839	486.88
422.062	464.88
422.285	456.88
422.507	505.88
422.73	547.88
422.953	529.88
423.175	495.88
423.398	498.88
423.621	471.88
423.843	498.88
424.066	483.88
424.288	508.88
424.511	506.88
424.733	519.88
424.956	582.88
425.178	555.88
425.401	570.88
425.623	599.88
425.846	504.88
426.068	470.88
426.291	486.88
426.513	499.88
426.735	475.88
426.958	532.88
427.18	562.88
427.402	675.88
427.625	698.88
427.847	603.88
428.069	518.88
428.292	510.88
428.514	463.88
428.736	444.88
428.958	451.88
429.181	435.88
429.403	429.88
429.625	443.88
429.847	461.88
430.069	513.88
430.292	511.88
430.514	461.88
430.736	414.88
430.958	427.88
431.18	427.88
431.402	430.88
431.624	403.88
431.846	431.88
432.068	429.88
432.29	432.88
432.512	422.88
432.734	426.88
432.956	414.88
433.178	440.88
433.4	437.88
433.622	430.88
433.844	430.88
434.066	425.88
434.287	429.88
434.509	435.88
434.731	462.88
434.953	449.88
435.175	459.88
435.397	484.88
435.618	500.88
435.84	508.88
436.062	558.88
436.284	601.88
436.505	506.88
436.727	469.88
436.949	449.88
437.17	448.88
437.392	438.88
437.614	447.88
437.835	455.88
438.057	516.88
438.278	573.88
438.5	598.88
438.721	658.88
438.943	605.88
439.165	514.88
439.386	470.88
439.608	470.88
439.829	458.88
440.05	495.88
440.272	508.88
440.493	487.88
440.715	446.88
440.936	445.88
441.158	454.88
441.379	435.88
441.6	457.88
441.822	451.88
442.043	501.88
442.264	570.88
442.486	575.88
442.707	514.88
442.928	469.88
443.149	483.88
443.371	521.88
443.592	527.88
443.813	598.88
444.034	634.88
444.255	510.88
444.476	475.88
444.698	485.88
444.919	487.88
445.14	609.88
445.361	559.88
445.582	496.88
445.803	527.88
446.024	602.88
446.245	589.88
446.466	534.88
446.687	494.88
446.908	466.88
447.129	457.88
447.35	442.88
447.571	432.88
447.792	420.88
448.013	422.88
448.234	444.88
448.455	457.88
448.675	539.88
448.896	623.88
449.117	516.88
449.338	523.88
449.559	612.88
449.779	660.88
450	546.88
450.221	450.88
450.442	423.88
450.662	423.88
450.883	423.88
451.104	426.88
451.324	423.88
451.545	415.88
451.766	410.88
451.986	374.88
452.207	379.88
452.428	388.88
452.648	404.88
452.869	372.88
453.089	396.88
453.31	408.88
453.53	389.88
453.751	419.88
453.971	390.88
454.192	385.88
454.412	373.88
454.633	379.88
454.853	373.88
455.073	385.88
455.294	413.88
455.514	440.88
455.734	422.88
455.955	386.88
456.175	373.88
456.395	370.88
456.616	364.88
456.836	369.88
457.056	371.88
457.276	362.88
457.497	368.88
457.717	356.88
457.937	373.88
458.157	360.88
458.377	386.88
458.598	412.88
458.818	435.88
459.038	472.88
459.258	490.88
459.478	462.88
459.698	400.88
459.918	434.88
460.138	427.88
460.358	413.88
460.578	435.88
460.798	426.88
461.018	429.88
461.238	436.88
461.458	411.88
461.678	414.88
461.898	432.88
462.118	448.88
462.338	460.88
462.558	459.88
462.777	453.88
462.997	467.88
463.217	502.88
463.437	496.88
463.657	484.88
463.876	469.88
464.096	431.88
464.316	463.88
464.536	472.88
464.755	461.88
464.975	456.88
465.195	487.88
465.414	479.88
465.634	443.88
465.854	412.88
466.073	425.88
466.293	407.88
466.512	404.88
466.732	394.88
466.951	379.88
467.171	416.88
467.391	404.88
467.61	414.88
467.829	410.88
468.049	408.88
468.268	379.88
468.488	391.88
468.707	382.88
468.927	379.88
469.146	390.88
469.365	370.88
469.585	392.88
469.804	392.88
470.023	418.88
470.243	399.88
470.462	400.88
470.681	407.88
470.901	397.88
471.12	408.88
471.339	404.88
471.558	388.88
471.777	409.88
471.997	414.88
472.216	412.88
472.435	432.88
472.654	416.88
472.873	412.88
473.092	388.88
473.311	382.88
473.53	396.88
473.749	419.88
473.968	436.88
474.187	474.88
474.406	510.88
474.625	439.88
474.844	408.88
475.063	406.88
475.282	410.88
475.501	386.88
475.72	412.88
475.939	398.88
476.158	426.88
476.377	430.88
476.596	399.88
476.814	409.88
477.033	423.88
477.252	440.88
477.471	425.88
477.69	440.88
477.908	444.88
478.127	440.88
478.346	473.88
478.564	454.88
478.783	448.88
479.002	466.88
479.22	461.88
479.439	468.88
479.658	469.88
479.876	468.88
480.095	471.88
480.313	496.88
480.532	487.88
480.751	506.88
480.969	502.88
481.188	529.88
481.406	565.88
481.624	507.88
481.843	450.88
482.061	463.88
482.28	473.88
482.498	472.88
482.717	462.88
482.935	484.88
483.153	466.88
483.372	464.88
483.59	452.88
483.808	460.88
484.027	464.88
484.245	452.88
484.463	480.88
484.681	448.88
484.9	464.88
485.118	489.88
485.336	475.88
485.554	454.88
485.772	485.88
485.99	457.88
486.209	489.88
486.427	487.88
486.645	502.88
486.863	478.88
487.081	471.88
487.299	494.88
487.517	502.88
487.735	502.88
487.953	495.88
488.171	510.88
488.389	484.88
488.607	498.88
488.825	480.88
489.043	474.88
489.261	482.88
489.479	496.88
489.696	496.88
489.914	496.88
490.132	495.88
490.35	494.88
490.568	501.88
490.786	511.88
491.003	518.88
491.221	541.88
491.439	522.88
491.657	546.88
491.874	543.88
492.092	541.88
492.31	518.88
492.527	557.88
492.745	556.88
492.963	561.88
493.18	569.88
493.398	566.88
493.615	555.88
493.833	558.88
494.05	565.88
494.268	570.88
494.485	569.88
494.703	572.88
494.92	571.88
495.138	546.88
495.355	567.88
495.573	555.88
495.79	571.88
496.008	571.88
496.225	562.88
496.442	583.88
496.66	562.88
496.877	581.88
497.094	570.88
497.312	573.88
497.529	591.88
497.746	612.88
497.963	622.88
498.181	621.88
498.398	637.88
498.615	651.88
498.832	694.88
499.049	676.88
499.267	724.88
499.484	744.88
499.701	777.88
499.918	796.88
500.135	835.88
500.352	885.88
500.569	866.88
500.786	898.88
501.003	875.88
501.22	850.88
501.437	787.88
501.654	794.88
501.871	755.88
502.088	743.88
502.305	702.88
502.522	666.88
502.739	682.88
502.956	631.88
503.172	616.88
503.389	610.88
503.606	595.88
503.823	596.88
504.04	604.88
504.256	610.88
504.473	586.88
504.69	588.88
504.907	605.88
505.123	586.88
505.34	557.88
505.557	550.88
505.773	565.88
505.99	542.88
506.207	546.88
506.423	523.88
506.64	554.88
506.856	528.88
507.073	523.88
507.289	522.88
507.506	527.88
507.722	529.88
507.939	523.88
508.155	504.88
508.372	491.88
508.588	486.88
508.805	484.88
509.021	495.88
509.238	491.88
509.454	500.88
509.67	514.88
509.887	520.88
510.103	490.88
510.319	480.88
510.536	527.88
510.752	746.88
510.968	626.88
511.184	480.88
511.401	481.88
511.617	459.88
511.833	465.88
512.049	473.88
512.265	464.88
512.481	477.88
512.698	487.88
512.914	466.88
513.13	479.88
513.346	482.88
513.562	463.88
513.778	478.88
513.994	470.88
514.21	482.88
514.426	479.88
514.642	490.88
514.858	520.88
515.074	513.88
515.29	604.88
515.506	742.88
515.721	633.88
515.937	520.88
516.153	489.88
516.369	506.88
516.585	500.88
516.801	500.88
517.016	519.88
517.232	494.88
517.448	508.88
517.664	516.88
517.879	530.88
518.095	516.88
518.311	523.88
518.527	502.88
518.742	496.88
518.958	475.88
519.173	484.88
519.389	494.88
519.605	508.88
519.82	480.88
520.036	468.88
520.251	479.88
520.467	485.88
520.682	496.88
520.898	487.88
521.113	487.88
521.329	511.88
521.544	526.88
521.76	594.88
521.975	871.88
522.19	825.88
522.406	558.88
522.621	453.88
522.836	444.88
523.052	450.88
523.267	443.88
523.482	421.88
523.698	436.88
523.913	429.88
524.128	420.88
524.343	406.88
524.559	410.88
524.774	400.88
524.989	417.88
525.204	424.88
525.419	442.88
525.634	414.88
525.849	405.88
526.064	397.88
526.28	412.88
526.495	400.88
526.71	394.88
526.925	411.88
527.14	401.88
527.355	390.88
527.57	388.88
527.785	392.88
527.999	412.88
528.214	398.88
528.429	380.88
528.644	409.88
528.859	398.88
529.074	419.88
529.289	422.88
529.503	413.88
529.718	435.88
529.933	436.88
530.148	418.88
530.363	394.88
530.577	394.88
530.792	366.88
531.007	377.88
531.221	390.88
531.436	384.88
531.651	400.88
531.865	397.88
532.08	388.88
532.295	399.88
532.509	386.88
532.724	394.88
532.938	382.88
533.153	395.88
533.367	388.88
533.582	383.88
533.796	382.88
534.011	393.88
534.225	397.88
534.44	398.88
534.654	382.88
534.868	393.88
535.083	388.88
535.297	373.88
535.511	380.88
535.726	399.88
535.94	404.88
536.154	392.88
536.369	361.88
536.583	374.88
536.797	370.88
537.011	376.88
537.225	382.88
537.44	373.88
537.654	377.88
537.868	369.88
538.082	365.88
538.296	391.88
538.51	361.88
538.724	356.88
538.938	349.88
539.153	376.88
539.367	378.88
539.581	389.88
539.795	384.88
540.009	357.88
540.222	386.88
540.436	382.88
540.65	392.88
540.864	358.88
541.078	380.88
541.292	388.88
541.506	379.88
541.72	380.88
541.934	378.88
542.147	367.88
542.361	364.88
542.575	369.88
542.789	366.88
543.002	368.88
543.216	373.88
543.43	361.88
543.644	357.88
543.857	387.88
544.071	356.88
544.285	375.88
544.498	378.88
544.712	379.88
544.925	365.88
545.139	372.88
545.352	371.88
545.566	352.88
545.779	362.88
545.993	375.88
546.206	363.88
546.42	363.88
546.633	365.88
546.847	356.88
547.06	394.88
547.274	360.88
547.487	363.88
547.7	350.88
547.914	362.88
548.127	362.88
548.34	371.88
548.554	374.88
548.767	358.88
548.98	381.88
549.193	382.88
549.407	366.88
549.62	352.88
549.833	360.88
550.046	367.88
550.259	358.88
550.473	370.88
550.686	359.88
550.899	343.88
551.112	350.88
551.325	350.88
551.538	343.88
551.751	346.88
551.964	356.88
552.177	359.88
552.39	380.88
552.603	374.88
552.816	358.88
553.029	346.88
553.242	355.88
553.455	372.88
553.667	370.88
553.88	373.88
554.093	362.88
554.306	336.88
554.519	370.88
554.732	348.88
554.944	365.88
555.157	362.88
555.37	344.88
555.583	356.88
555.795	360.88
556.008	330.88
556.221	324.88
556.433	331.88
556.646	343.88
556.859	326.88
557.071	328.88
557.284	317.88
557.496	334.88
557.709	319.88
557.921	331.88
558.134	320.88
558.346	316.88
558.559	326.88
558.771	313.88
558.984	322.88
559.196	326.88
559.409	326.88
559.621	330.88
559.833	321.88
560.046	311.88
560.258	318.88
560.47	314.88
560.683	315.88
560.895	323.88
561.107	323.88
561.32	317.88
561.532	332.88
561.744	330.88
561.956	324.88
562.168	313.88
562.381	316.88
562.593	307.88
562.805	313.88
563.017	317.88
563.229	318.88
563.441	319.88
563.653	328.88
563.865	332.88
564.077	337.88
564.289	314.88
564.501	332.88
564.713	362.88
564.925	336.88
565.137	340.88
565.349	335.88
565.561	332.88
565.773	358.88
565.985	383.88
566.197	391.88
566.408	379.88
566.62	406.88
566.832	392.88
567.044	413.88
567.255	427.88
567.467	420.88
567.679	422.88
567.891	432.88
568.102	419.88
568.314	413.88
568.526	398.88
568.737	386.88
568.949	372.88
569.161	374.88
569.372	343.88
569.584	357.88
569.795	350.88
570.007	355.88
570.218	342.88
570.43	339.88
570.641	323.88
570.853	315.88
571.064	330.88
571.276	316.88
571.487	294.88
571.698	311.88
571.91	302.88
572.121	310.88
572.333	308.88
572.544	284.88
572.755	297.88
572.966	286.88
573.178	290.88
573.389	295.88
573.6	290.88
573.811	283.88
574.023	276.88
574.234	264.88
574.445	273.88
574.656	271.88
574.867	293.88
575.078	272.88
575.289	292.88
575.501	283.88
575.712	285.88
575.923	294.88
576.134	279.88
576.345	288.88
576.556	261.88
576.767	266.88
576.978	262.88
577.188	275.88
577.399	263.88
577.61	271.88
577.821	266.88
578.032	270.88
578.243	298.88
578.454	370.88
578.665	292.88
578.875	254.88
579.086	246.88
579.297	259.88
579.508	282.88
579.718	237.88
579.929	245.88
580.14	266.88
580.35	268.88
580.561	272.88
580.772	258.88
580.982	252.88
581.193	242.88
581.403	239.88
581.614	244.88
581.825	238.88
582.035	252.88
582.246	254.88
582.456	233.88
582.667	262.88
582.877	269.88
583.087	257.88
583.298	241.88
583.508	251.88
583.719	262.88
583.929	259.88
584.139	258.88
584.35	254.88
584.56	261.88
584.77	236.88
584.981	246.88
585.191	235.88
585.401	255.88
585.611	244.88
585.821	250.88
586.032	243.88
586.242	237.88
586.452	243.88
586.662	244.88
586.872	249.88
587.082	240.88
587.292	235.88
587.502	245.88
587.713	236.88
587.923	235.88
588.133	245.88
588.343	232.88
588.553	251.88
588.762	264.88
588.972	257.88
589.182	239.88
589.392	248.88
589.602	246.88
589.812	228.88
590.022	260.88
590.232	242.88
590.441	247.88
590.651	235.88
590.861	231.88
591.071	228.88
591.281	237.88
591.49	243.88
591.7	244.88
591.91	263.88
592.119	253.88
592.329	258.88
592.539	263.88
592.748	268.88
592.958	272.88
593.167	269.88
593.377	268.88
593.587	262.88
593.796	282.88
594.006	276.88
594.215	267.88
594.424	283.88
594.634	273.88
594.843	246.88
595.053	244.88
595.262	252.88
595.472	243.88
595.681	251.88
595.89	255.88
596.1	251.88
596.309	250.88
596.518	253.88
596.727	233.88
596.937	226.88
597.146	236.88
597.355	240.88
597.564	222.88
597.774	230.88
597.983	229.88
598.192	222.88
598.401	214.88
598.61	232.88
598.819	228.88
599.028	224.88
599.237	230.88
599.446	225.88
599.655	227.88
599.864	224.88
600.073	204.88
600.282	233.88
600.491	235.88
600.7	219.88
600.909	221.88
601.118	222.88
601.327	231.88
601.536	207.88
601.745	220.88
601.953	220.88
602.162	208.88
602.371	210.88
602.58	199.88
602.789	212.88
602.997	216.88
603.206	213.88
603.415	210.88
603.623	200.88
603.832	194.88
604.041	220.88
604.249	215.88
604.458	210.88
604.666	214.88
604.875	217.88
605.084	215.88
605.292	215.88
605.501	199.88
605.709	207.88
605.918	213.88
606.126	196.88
606.334	208.88
606.543	211.88
606.751	201.88
606.96	202.88
607.168	230.88
607.376	181.88
607.585	221.88
607.793	213.88
608.001	212.88
608.21	196.88
608.418	198.88
608.626	208.88
608.834	203.88
609.043	204.88
609.251	203.88
609.459	202.88
609.667	199.88
609.875	192.88
610.083	213.88
610.291	208.88
610.499	194.88
610.707	205.88
610.916	218.88
611.124	207.88
611.332	215.88
611.54	202.88
611.748	203.88
611.955	198.88
612.163	205.88
612.371	200.88
612.579	193.88
612.787	199.88
612.995	200.88
613.203	198.88
613.411	205.88
613.618	217.88
613.826	203.88
614.034	196.88
614.242	201.88
614.449	186.88
614.657	202.88
614.865	204.88
615.072	202.88
615.28	212.88
615.488	195.88
615.695	182.88
615.903	210.88
616.111	203.88
616.318	204.88
616.526	198.88
616.733	191.88
616.941	198.88
617.148	194.88
617.356	205.88
617.563	187.88
617.771	203.88
617.978	195.88
618.185	193.88
618.393	197.88
618.6	186.88
618.807	182.88
619.015	183.88
619.222	210.88
619.429	192.88
619.637	203.88
619.844	184.88
620.051	175.88
620.258	189.88
620.466	179.88
620.673	180.88
620.88	186.88
621.087	189.88
621.294	199.88
621.501	185.88
621.708	184.88
621.915	175.88
622.122	193.88
622.329	194.88
622.536	178.88
622.743	171.88
622.95	188.88
623.157	195.88
623.364	177.88
623.571	189.88
623.778	184.88
623.985	182.88
624.192	181.88
624.399	174.88
624.606	187.88
624.812	184.88
625.019	187.88
625.226	184.88
625.433	182.88
625.639	171.88
625.846	166.88
626.053	181.88
626.259	177.88
626.466	184.88
626.673	178.88
626.879	155.88
627.086	166.88
627.293	164.88
627.499	166.88
627.706	173.88
627.912	168.88
628.119	159.88
628.325	188.88
628.532	173.88
628.738	182.88
628.945	164.88
629.151	165.88
629.357	167.88
629.564	174.88
629.77	180.88
629.976	158.88
630.183	166.88
630.389	179.88
630.595	151.88
630.802	164.88
631.008	165.88
631.214	170.88
631.42	173.88
631.627	175.88
631.833	166.88
632.039	164.88
632.245	173.88
632.451	156.88
632.657	160.88
632.863	163.88
633.069	158.88
633.275	162.88
633.481	161.88
633.688	156.88
633.893	164.88
634.099	165.88
634.305	165.88
634.511	163.88
634.717	134.88
634.923	139.88
635.129	157.88
635.335	159.88
635.541	159.88
635.747	166.88
635.952	151.88
636.158	157.88
636.364	152.88
636.57	180.88
636.775	149.88
636.981	158.88
637.187	160.88
637.392	153.88
637.598	156.88
637.804	159.88
638.009	154.88
638.215	160.88
638.421	168.88
638.626	155.88
638.832	139.88
639.037	157.88
639.243	159.88
639.448	162.88
639.654	145.88
639.859	154.88
640.065	135.88
640.27	171.88
640.475	146.88
640.681	144.88
640.886	142.88
641.091	150.88
641.297	151.88
641.502	147.88
641.707	156.88
641.913	143.88
642.118	141.88
642.323	163.88
642.528	135.88
642.733	147.88
642.939	152.88
643.144	144.88
643.349	155.88
643.554	158.88
643.759	146.88
643.964	151.88
644.169	171.88
644.374	155.88
644.579	147.88
644.784	141.88
644.989	151.88
645.194	139.88
645.399	151.88
645.604	148.88
645.809	150.88
646.014	151.88
646.219	144.88
646.423	148.88
646.628	148.88
646.833	147.88
647.038	140.88
647.243	146.88
647.447	143.88
647.652	138.88
647.857	163.88
648.062	148.88
648.266	145.88
648.471	155.88
648.676	157.88
648.88	139.88
649.085	151.88
649.289	143.88
649.494	150.88
649.698	168.88
649.903	164.88
650.107	160.88
650.312	146.88
650.516	140.88
650.721	141.88
650.925	143.88
651.13	149.88
651.334	128.88
651.539	141.88
651.743	138.88
651.947	144.88
652.152	131.88
652.356	133.88
652.56	127.88
652.764	134.88
652.969	122.88
653.173	135.88
653.377	128.88
653.581	140.88
653.785	119.88
653.99	112.88
654.194	124.88
654.398	130.88
654.602	146.88
654.806	118.88
655.01	123.88
655.214	114.88
655.418	127.88
655.622	136.88
655.826	120.88
656.03	136.88
656.234	144.88
656.438	136.88
656.642	139.88
656.846	137.88
657.049	105.88
657.253	120.88
657.457	120.88
657.661	110.88
657.865	116.88
658.068	99.88
658.272	109.88
658.476	114.88
658.68	115.88
658.883	100.88
659.087	94.88
659.291	81.88
659.494	94.88
659.698	96.88
659.901	84.88
660.105	93.88
660.309	103.88
660.512	90.88
660.716	102.88
660.919	96.88
661.123	103.88
661.326	85.88
661.53	89.88
661.733	88.88
661.936	84.88
662.14	100.88
662.343	103.88
662.546	95.88
662.75	89.88
662.953	90.88
663.156	76.88
663.36	70.88
663.563	82.88
663.766	99.88
663.969	86.88
664.173	83.88
664.376	77.88
664.579	76.88
664.782	82.88
664.985	94.88
665.188	74.88
665.391	97.88
665.594	87.88
665.797	84.88
666	76.88
666.203	91.88
666.406	96.88
666.609	84.88
666.812	87.88
667.015	77.88
667.218	102.88
667.421	68.88
667.624	75.88
667.827	86.88
668.03	78.88
668.232	81.88
668.435	86.88
668.638	81.88
668.841	87.88
669.043	93.88
669.246	71.88
669.449	91.88
669.651	69.88
669.854	80.88
670.057	90.88
670.259	80.88
670.462	77.88
670.665	93.88
670.867	81.88
671.07	82.88
671.272	88.88
671.475	80.88
671.677	71.88
671.88	85.88
672.082	90.88
672.284	87.88
672.487	100.88
672.689	86.88
672.892	87.88
