Data from 1964.PennyLincolnUp.Lamp.En5.5.200Scan.071719.P1._HRD10591_14-06-27-909.txt Node
Date: Thu Jul 18 14:06:27 EDT 2019
User: cochatt
Spectrometer: HR+D1059
Trigger mode: 1
Integration Time (sec): 1.000000E-1
Scans to average: 1
Electric dark correction enabled: true
Nonlinearity correction enabled: false
Boxcar width: 0
XAxis mode: Wavelengths
Number of Pixels in Spectrum: 2048
>>>>>Begin Spectral Data<<<<<
223.165	-17.25
223.4	-17.25
223.635	-17.25
223.869	-32.25
224.104	-17.25
224.338	0.75
224.573	-19.25
224.808	-23.25
225.042	-9.25
225.277	-15.25
225.511	12.75
225.746	8.75
225.98	1.75
226.215	7.75
226.449	21.75
226.683	30.75
226.918	23.75
227.152	25.75
227.387	41.75
227.621	33.75
227.856	48.75
228.09	57.75
228.324	59.75
228.559	62.75
228.793	70.75
229.027	93.75
229.262	104.75
229.496	112.75
229.73	129.75
229.964	144.75
230.199	128.75
230.433	99.75
230.667	111.75
230.901	118.75
231.136	102.75
231.37	106.75
231.604	123.75
231.838	118.75
232.072	117.75
232.306	112.75
232.541	127.75
232.775	125.75
233.009	121.75
233.243	119.75
233.477	128.75
233.711	117.75
233.945	119.75
234.179	139.75
234.413	125.75
234.647	119.75
234.881	127.75
235.115	119.75
235.349	112.75
235.583	125.75
235.817	120.75
236.051	133.75
236.285	123.75
236.519	127.75
236.753	135.75
236.987	140.75
237.221	163.75
237.455	189.75
237.689	180.75
237.922	145.75
238.156	141.75
238.39	109.75
238.624	127.75
238.858	127.75
239.091	124.75
239.325	122.75
239.559	119.75
239.793	133.75
240.027	137.75
240.26	133.75
240.494	172.75
240.728	134.75
240.961	133.75
241.195	152.75
241.429	139.75
241.662	127.75
241.896	139.75
242.13	129.75
242.363	139.75
242.597	138.75
242.83	151.75
243.064	166.75
243.298	149.75
243.531	147.75
243.765	160.75
243.998	155.75
244.232	139.75
244.465	144.75
244.699	141.75
244.932	149.75
245.166	153.75
245.399	155.75
245.633	156.75
245.866	144.75
246.099	165.75
246.333	160.75
246.566	145.75
246.8	165.75
247.033	151.75
247.266	168.75
247.5	174.75
247.733	168.75
247.966	176.75
248.2	190.75
248.433	170.75
248.666	168.75
248.899	187.75
249.133	199.75
249.366	213.75
249.599	205.75
249.832	194.75
250.066	193.75
250.299	186.75
250.532	200.75
250.765	218.75
250.998	221.75
251.231	216.75
251.465	213.75
251.698	220.75
251.931	200.75
252.164	198.75
252.397	198.75
252.63	212.75
252.863	222.75
253.096	215.75
253.329	235.75
253.562	231.75
253.795	214.75
254.028	209.75
254.261	217.75
254.494	223.75
254.727	252.75
254.96	272.75
255.193	278.75
255.426	257.75
255.659	237.75
255.892	235.75
256.124	232.75
256.357	233.75
256.59	232.75
256.823	231.75
257.056	222.75
257.289	215.75
257.521	231.75
257.754	207.75
257.987	215.75
258.22	238.75
258.452	218.75
258.685	215.75
258.918	229.75
259.151	213.75
259.383	240.75
259.616	240.75
259.849	232.75
260.081	231.75
260.314	251.75
260.547	243.75
260.779	256.75
261.012	234.75
261.244	236.75
261.477	234.75
261.71	250.75
261.942	227.75
262.175	246.75
262.407	234.75
262.64	253.75
262.872	233.75
263.105	241.75
263.337	226.75
263.57	230.75
263.802	225.75
264.035	226.75
264.267	219.75
264.499	230.75
264.732	234.75
264.964	219.75
265.197	222.75
265.429	218.75
265.661	235.75
265.894	248.75
266.126	238.75
266.358	246.75
266.591	236.75
266.823	236.75
267.055	228.75
267.287	251.75
267.52	246.75
267.752	251.75
267.984	249.75
268.216	268.75
268.448	264.75
268.681	273.75
268.913	264.75
269.145	265.75
269.377	301.75
269.609	281.75
269.841	299.75
270.073	294.75
270.306	305.75
270.538	302.75
270.77	340.75
271.002	313.75
271.234	287.75
271.466	308.75
271.698	343.75
271.93	332.75
272.162	330.75
272.394	323.75
272.626	316.75
272.858	309.75
273.09	323.75
273.322	291.75
273.553	288.75
273.785	291.75
274.017	283.75
274.249	296.75
274.481	292.75
274.713	293.75
274.945	310.75
275.176	296.75
275.408	324.75
275.64	297.75
275.872	285.75
276.104	297.75
276.335	296.75
276.567	293.75
276.799	317.75
277.031	320.75
277.262	329.75
277.494	343.75
277.726	341.75
277.957	307.75
278.189	313.75
278.421	287.75
278.652	304.75
278.884	304.75
279.115	310.75
279.347	310.75
279.579	303.75
279.81	296.75
280.042	311.75
280.273	308.75
280.505	295.75
280.736	293.75
280.968	303.75
281.199	297.75
281.431	305.75
281.662	300.75
281.894	305.75
282.125	311.75
282.356	329.75
282.588	327.75
282.819	334.75
283.051	308.75
283.282	319.75
283.513	310.75
283.745	301.75
283.976	323.75
284.207	323.75
284.439	352.75
284.67	307.75
284.901	330.75
285.132	337.75
285.364	303.75
285.595	319.75
285.826	301.75
286.057	332.75
286.288	313.75
286.52	322.75
286.751	321.75
286.982	329.75
287.213	325.75
287.444	343.75
287.675	339.75
287.906	342.75
288.138	352.75
288.369	349.75
288.6	329.75
288.831	326.75
289.062	329.75
289.293	326.75
289.524	351.75
289.755	342.75
289.986	332.75
290.217	320.75
290.448	330.75
290.679	336.75
290.91	333.75
291.141	323.75
291.371	341.75
291.602	332.75
291.833	316.75
292.064	345.75
292.295	334.75
292.526	323.75
292.757	329.75
292.987	332.75
293.218	312.75
293.449	356.75
293.68	345.75
293.91	331.75
294.141	349.75
294.372	343.75
294.603	319.75
294.833	335.75
295.064	337.75
295.295	321.75
295.525	347.75
295.756	334.75
295.987	337.75
296.217	351.75
296.448	355.75
296.679	351.75
296.909	343.75
297.14	341.75
297.37	333.75
297.601	366.75
297.831	366.75
298.062	349.75
298.292	347.75
298.523	348.75
298.753	367.75
298.984	371.75
299.214	361.75
299.445	357.75
299.675	360.75
299.905	345.75
300.136	350.75
300.366	358.75
300.597	346.75
300.827	365.75
301.057	378.75
301.288	379.75
301.518	383.75
301.748	356.75
301.979	378.75
302.209	371.75
302.439	362.75
302.669	382.75
302.9	375.75
303.13	368.75
303.36	391.75
303.59	363.75
303.82	378.75
304.051	371.75
304.281	394.75
304.511	379.75
304.741	372.75
304.971	344.75
305.201	371.75
305.431	376.75
305.661	371.75
305.891	380.75
306.121	367.75
306.352	365.75
306.582	375.75
306.812	383.75
307.042	371.75
307.272	374.75
307.502	382.75
307.731	368.75
307.961	379.75
308.191	371.75
308.421	375.75
308.651	382.75
308.881	393.75
309.111	384.75
309.341	408.75
309.571	411.75
309.8	398.75
310.03	392.75
310.26	422.75
310.49	395.75
310.72	410.75
310.949	406.75
311.179	417.75
311.409	430.75
311.639	413.75
311.868	412.75
312.098	422.75
312.328	416.75
312.557	418.75
312.787	442.75
313.017	402.75
313.246	433.75
313.476	416.75
313.706	425.75
313.935	408.75
314.165	415.75
314.394	424.75
314.624	423.75
314.853	428.75
315.083	436.75
315.312	418.75
315.542	433.75
315.771	404.75
316.001	430.75
316.23	423.75
316.46	412.75
316.689	419.75
316.919	425.75
317.148	445.75
317.377	449.75
317.607	420.75
317.836	415.75
318.065	413.75
318.295	407.75
318.524	436.75
318.753	419.75
318.983	428.75
319.212	430.75
319.441	404.75
319.67	418.75
319.9	413.75
320.129	413.75
320.358	416.75
320.587	423.75
320.816	414.75
321.046	436.75
321.275	443.75
321.504	417.75
321.733	433.75
321.962	419.75
322.191	441.75
322.42	439.75
322.649	470.75
322.878	467.75
323.108	478.75
323.337	484.75
323.566	484.75
323.795	510.75
324.024	550.75
324.253	652.75
324.482	897.75
324.71	1307.75
324.939	1843.75
325.168	1502.75
325.397	825.75
325.626	579.75
325.855	535.75
326.084	513.75
326.313	531.75
326.542	518.75
326.77	522.75
326.999	644.75
327.228	806.75
327.457	1158.75
327.686	1352.75
327.914	930.75
328.143	649.75
328.372	616.75
328.6	574.75
328.829	549.75
329.058	564.75
329.287	575.75
329.515	521.75
329.744	537.75
329.972	563.75
330.201	558.75
330.43	561.75
330.658	565.75
330.887	591.75
331.115	549.75
331.344	526.75
331.572	508.75
331.801	524.75
332.03	494.75
332.258	515.75
332.486	511.75
332.715	485.75
332.943	512.75
333.172	493.75
333.4	515.75
333.629	527.75
333.857	515.75
334.085	552.75
334.314	552.75
334.542	580.75
334.771	575.75
334.999	529.75
335.227	513.75
335.455	505.75
335.684	496.75
335.912	500.75
336.14	486.75
336.369	495.75
336.597	500.75
336.825	472.75
337.053	505.75
337.281	502.75
337.51	478.75
337.738	471.75
337.966	472.75
338.194	472.75
338.422	475.75
338.65	492.75
338.878	490.75
339.106	478.75
339.334	475.75
339.562	460.75
339.79	474.75
340.018	463.75
340.246	479.75
340.474	465.75
340.702	491.75
340.93	452.75
341.158	455.75
341.386	463.75
341.614	461.75
341.842	465.75
342.07	455.75
342.298	455.75
342.526	441.75
342.754	435.75
342.981	431.75
343.209	468.75
343.437	467.75
343.665	467.75
343.893	508.75
344.12	495.75
344.348	494.75
344.576	491.75
344.804	494.75
345.031	489.75
345.259	487.75
345.487	473.75
345.714	494.75
345.942	466.75
346.17	445.75
346.397	456.75
346.625	431.75
346.853	463.75
347.08	437.75
347.308	423.75
347.535	439.75
347.763	450.75
347.99	424.75
348.218	456.75
348.445	449.75
348.673	439.75
348.9	458.75
349.128	449.75
349.355	431.75
349.583	435.75
349.81	445.75
350.037	440.75
350.265	443.75
350.492	434.75
350.72	431.75
350.947	410.75
351.174	443.75
351.402	447.75
351.629	455.75
351.856	463.75
352.083	449.75
352.311	434.75
352.538	411.75
352.765	448.75
352.992	446.75
353.22	423.75
353.447	432.75
353.674	416.75
353.901	412.75
354.128	402.75
354.355	419.75
354.583	422.75
354.81	413.75
355.037	413.75
355.264	416.75
355.491	428.75
355.718	404.75
355.945	403.75
356.172	406.75
356.399	395.75
356.626	399.75
356.853	396.75
357.08	399.75
357.307	424.75
357.534	406.75
357.761	396.75
357.988	412.75
358.215	394.75
358.441	405.75
358.668	415.75
358.895	420.75
359.122	433.75
359.349	428.75
359.576	437.75
359.802	455.75
360.029	457.75
360.256	451.75
360.483	457.75
360.709	405.75
360.936	424.75
361.163	421.75
361.39	443.75
361.616	451.75
361.843	422.75
362.07	424.75
362.296	431.75
362.523	425.75
362.749	416.75
362.976	411.75
363.203	423.75
363.429	415.75
363.656	406.75
363.882	407.75
364.109	407.75
364.335	406.75
364.562	380.75
364.788	393.75
365.015	416.75
365.241	397.75
365.468	422.75
365.694	399.75
365.92	442.75
366.147	416.75
366.373	425.75
366.599	389.75
366.826	407.75
367.052	410.75
367.278	403.75
367.505	407.75
367.731	430.75
367.957	409.75
368.184	410.75
368.41	413.75
368.636	410.75
368.862	415.75
369.089	406.75
369.315	402.75
369.541	399.75
369.767	424.75
369.993	419.75
370.219	422.75
370.445	390.75
370.672	392.75
370.898	415.75
371.124	424.75
371.35	423.75
371.576	413.75
371.802	401.75
372.028	411.75
372.254	415.75
372.48	425.75
372.706	420.75
372.932	422.75
373.158	438.75
373.384	405.75
373.61	423.75
373.835	412.75
374.061	421.75
374.287	408.75
374.513	401.75
374.739	417.75
374.965	419.75
375.191	405.75
375.416	419.75
375.642	406.75
375.868	417.75
376.094	415.75
376.319	409.75
376.545	417.75
376.771	412.75
376.997	406.75
377.222	395.75
377.448	414.75
377.674	406.75
377.899	396.75
378.125	406.75
378.35	411.75
378.576	393.75
378.802	391.75
379.027	395.75
379.253	414.75
379.478	401.75
379.704	405.75
379.929	397.75
380.155	386.75
380.38	393.75
380.606	419.75
380.831	414.75
381.057	405.75
381.282	408.75
381.507	420.75
381.733	415.75
381.958	413.75
382.184	421.75
382.409	425.75
382.634	421.75
382.86	411.75
383.085	413.75
383.31	438.75
383.535	444.75
383.761	440.75
383.986	436.75
384.211	435.75
384.436	436.75
384.662	418.75
384.887	421.75
385.112	448.75
385.337	437.75
385.562	440.75
385.787	463.75
386.013	439.75
386.238	436.75
386.463	444.75
386.688	465.75
386.913	444.75
387.138	440.75
387.363	415.75
387.588	441.75
387.813	441.75
388.038	440.75
388.263	422.75
388.488	443.75
388.713	421.75
388.938	435.75
389.163	438.75
389.387	444.75
389.612	432.75
389.837	432.75
390.062	455.75
390.287	423.75
390.512	441.75
390.736	462.75
390.961	457.75
391.186	466.75
391.411	459.75
391.636	441.75
391.86	446.75
392.085	468.75
392.31	459.75
392.534	474.75
392.759	459.75
392.984	447.75
393.208	437.75
393.433	456.75
393.658	461.75
393.882	454.75
394.107	445.75
394.331	456.75
394.556	445.75
394.78	445.75
395.005	427.75
395.229	424.75
395.454	442.75
395.678	444.75
395.903	479.75
396.127	508.75
396.352	473.75
396.576	469.75
396.801	451.75
397.025	456.75
397.249	453.75
397.474	447.75
397.698	473.75
397.922	488.75
398.147	513.75
398.371	491.75
398.595	486.75
398.82	479.75
399.044	517.75
399.268	532.75
399.492	585.75
399.717	601.75
399.941	614.75
400.165	627.75
400.389	621.75
400.613	556.75
400.837	531.75
401.062	537.75
401.286	513.75
401.51	496.75
401.734	512.75
401.958	477.75
402.182	482.75
402.406	507.75
402.63	515.75
402.854	501.75
403.078	483.75
403.302	521.75
403.526	532.75
403.75	526.75
403.974	514.75
404.198	511.75
404.422	521.75
404.645	542.75
404.869	537.75
405.093	557.75
405.317	581.75
405.541	607.75
405.765	571.75
405.988	532.75
406.212	554.75
406.436	549.75
406.66	576.75
406.883	548.75
407.107	576.75
407.331	617.75
407.555	657.75
407.778	639.75
408.002	620.75
408.226	569.75
408.449	537.75
408.673	569.75
408.896	576.75
409.12	600.75
409.344	581.75
409.567	545.75
409.791	525.75
410.014	530.75
410.238	525.75
410.461	515.75
410.685	511.75
410.908	535.75
411.132	577.75
411.355	584.75
411.578	551.75
411.802	504.75
412.025	502.75
412.249	527.75
412.472	527.75
412.695	577.75
412.919	571.75
413.142	524.75
413.365	501.75
413.589	508.75
413.812	478.75
414.035	496.75
414.258	475.75
414.482	484.75
414.705	501.75
414.928	474.75
415.151	490.75
415.374	477.75
415.597	482.75
415.821	479.75
416.044	489.75
416.267	490.75
416.49	465.75
416.713	484.75
416.936	471.75
417.159	468.75
417.382	485.75
417.605	484.75
417.828	489.75
418.051	503.75
418.274	493.75
418.497	495.75
418.72	476.75
418.943	465.75
419.166	477.75
419.389	520.75
419.611	527.75
419.834	507.75
420.057	499.75
420.28	515.75
420.503	507.75
420.726	484.75
420.948	503.75
421.171	533.75
421.394	533.75
421.617	516.75
421.839	475.75
422.062	488.75
422.285	512.75
422.507	567.75
422.73	603.75
422.953	589.75
423.175	529.75
423.398	515.75
423.621	513.75
423.843	567.75
424.066	551.75
424.288	513.75
424.511	552.75
424.733	588.75
424.956	631.75
425.178	617.75
425.401	630.75
425.623	618.75
425.846	558.75
426.068	520.75
426.291	509.75
426.513	515.75
426.735	517.75
426.958	560.75
427.18	598.75
427.402	716.75
427.625	779.75
427.847	671.75
428.069	623.75
428.292	553.75
428.514	499.75
428.736	488.75
428.958	485.75
429.181	470.75
429.403	468.75
429.625	487.75
429.847	519.75
430.069	556.75
430.292	548.75
430.514	504.75
430.736	491.75
430.958	442.75
431.18	449.75
431.402	458.75
431.624	444.75
431.846	457.75
432.068	467.75
432.29	460.75
432.512	463.75
432.734	470.75
432.956	464.75
433.178	483.75
433.4	450.75
433.622	457.75
433.844	442.75
434.066	443.75
434.287	449.75
434.509	462.75
434.731	471.75
434.953	479.75
435.175	472.75
435.397	511.75
435.618	493.75
435.84	530.75
436.062	580.75
436.284	662.75
436.505	547.75
436.727	523.75
436.949	467.75
437.17	485.75
437.392	470.75
437.614	485.75
437.835	515.75
438.057	593.75
438.278	675.75
438.5	662.75
438.721	711.75
438.943	675.75
439.165	536.75
439.386	507.75
439.608	514.75
439.829	508.75
440.05	532.75
440.272	546.75
440.493	548.75
440.715	511.75
440.936	487.75
441.158	494.75
441.379	487.75
441.6	485.75
441.822	493.75
442.043	549.75
442.264	588.75
442.486	637.75
442.707	538.75
442.928	513.75
443.149	501.75
443.371	536.75
443.592	589.75
443.813	661.75
444.034	695.75
444.255	592.75
444.476	535.75
444.698	519.75
444.919	528.75
445.14	623.75
445.361	563.75
445.582	552.75
445.803	591.75
446.024	658.75
446.245	683.75
446.466	614.75
446.687	550.75
446.908	518.75
447.129	469.75
447.35	459.75
447.571	467.75
447.792	449.75
448.013	462.75
448.234	475.75
448.455	532.75
448.675	589.75
448.896	692.75
449.117	591.75
449.338	559.75
449.559	656.75
449.779	722.75
450	570.75
450.221	500.75
450.442	446.75
450.662	449.75
450.883	431.75
451.104	465.75
451.324	435.75
451.545	434.75
451.766	423.75
451.986	421.75
452.207	425.75
452.428	408.75
452.648	413.75
452.869	409.75
453.089	428.75
453.31	405.75
453.53	414.75
453.751	420.75
453.971	404.75
454.192	427.75
454.412	416.75
454.633	407.75
454.853	409.75
455.073	404.75
455.294	437.75
455.514	507.75
455.734	480.75
455.955	414.75
456.175	419.75
456.395	404.75
456.616	417.75
456.836	403.75
457.056	399.75
457.276	400.75
457.497	404.75
457.717	382.75
457.937	387.75
458.157	393.75
458.377	422.75
458.598	430.75
458.818	471.75
459.038	518.75
459.258	533.75
459.478	469.75
459.698	448.75
459.918	438.75
460.138	427.75
460.358	449.75
460.578	447.75
460.798	456.75
461.018	463.75
461.238	482.75
461.458	448.75
461.678	468.75
461.898	475.75
462.118	469.75
462.338	469.75
462.558	487.75
462.777	479.75
462.997	529.75
463.217	527.75
463.437	516.75
463.657	528.75
463.876	508.75
464.096	500.75
464.316	521.75
464.536	501.75
464.755	491.75
464.975	487.75
465.195	504.75
465.414	513.75
465.634	488.75
465.854	462.75
466.073	458.75
466.293	446.75
466.512	444.75
466.732	413.75
466.951	441.75
467.171	425.75
467.391	422.75
467.61	433.75
467.829	418.75
468.049	443.75
468.268	436.75
468.488	426.75
468.707	418.75
468.927	402.75
469.146	393.75
469.365	402.75
469.585	408.75
469.804	415.75
470.023	437.75
470.243	436.75
470.462	446.75
470.681	432.75
470.901	445.75
471.12	429.75
471.339	432.75
471.558	439.75
471.777	443.75
471.997	436.75
472.216	426.75
472.435	429.75
472.654	445.75
472.873	425.75
473.092	415.75
473.311	419.75
473.53	424.75
473.749	445.75
473.968	479.75
474.187	583.75
474.406	560.75
474.625	461.75
474.844	453.75
475.063	418.75
475.282	404.75
475.501	413.75
475.72	432.75
475.939	422.75
476.158	437.75
476.377	444.75
476.596	428.75
476.814	457.75
477.033	459.75
477.252	442.75
477.471	455.75
477.69	475.75
477.908	472.75
478.127	475.75
478.346	463.75
478.564	475.75
478.783	472.75
479.002	475.75
479.22	473.75
479.439	489.75
479.658	504.75
479.876	511.75
480.095	535.75
480.313	547.75
480.532	537.75
480.751	533.75
480.969	540.75
481.188	564.75
481.406	596.75
481.624	543.75
481.843	516.75
482.061	521.75
482.28	495.75
482.498	487.75
482.717	494.75
482.935	497.75
483.153	494.75
483.372	501.75
483.59	487.75
483.808	499.75
484.027	491.75
484.245	505.75
484.463	500.75
484.681	508.75
484.9	514.75
485.118	504.75
485.336	495.75
485.554	522.75
485.772	516.75
485.99	497.75
486.209	521.75
486.427	529.75
486.645	522.75
486.863	528.75
487.081	564.75
487.299	539.75
487.517	509.75
487.735	520.75
487.953	528.75
488.171	519.75
488.389	496.75
488.607	527.75
488.825	505.75
489.043	560.75
489.261	549.75
489.479	547.75
489.696	536.75
489.914	552.75
490.132	526.75
490.35	535.75
490.568	527.75
490.786	545.75
491.003	570.75
491.221	593.75
491.439	561.75
491.657	569.75
491.874	593.75
492.092	599.75
492.31	601.75
492.527	583.75
492.745	598.75
492.963	583.75
493.18	585.75
493.398	613.75
493.615	613.75
493.833	628.75
494.05	600.75
494.268	637.75
494.485	623.75
494.703	603.75
494.92	606.75
495.138	600.75
495.355	613.75
495.573	624.75
495.79	610.75
496.008	620.75
496.225	607.75
496.442	595.75
496.66	604.75
496.877	613.75
497.094	608.75
497.312	632.75
497.529	659.75
497.746	630.75
497.963	653.75
498.181	682.75
498.398	685.75
498.615	705.75
498.832	703.75
499.049	720.75
499.267	748.75
499.484	787.75
499.701	819.75
499.918	856.75
500.135	901.75
500.352	919.75
500.569	941.75
500.786	953.75
501.003	923.75
501.22	895.75
501.437	866.75
501.654	825.75
501.871	821.75
502.088	781.75
502.305	751.75
502.522	714.75
502.739	681.75
502.956	671.75
503.172	647.75
503.389	651.75
503.606	647.75
503.823	627.75
504.04	632.75
504.256	642.75
504.473	625.75
504.69	614.75
504.907	636.75
505.123	617.75
505.34	598.75
505.557	603.75
505.773	612.75
505.99	588.75
506.207	595.75
506.423	586.75
506.64	564.75
506.856	565.75
507.073	562.75
507.289	581.75
507.506	561.75
507.722	547.75
507.939	574.75
508.155	581.75
508.372	541.75
508.588	559.75
508.805	557.75
509.021	544.75
509.238	554.75
509.454	553.75
509.67	555.75
509.887	565.75
510.103	543.75
510.319	545.75
510.536	598.75
510.752	813.75
510.968	671.75
511.184	532.75
511.401	523.75
511.617	527.75
511.833	527.75
512.049	525.75
512.265	536.75
512.481	519.75
512.698	524.75
512.914	521.75
513.13	517.75
513.346	506.75
513.562	517.75
513.778	496.75
513.994	512.75
514.21	537.75
514.426	529.75
514.642	563.75
514.858	548.75
515.074	572.75
515.29	639.75
515.506	821.75
515.721	706.75
515.937	594.75
516.153	560.75
516.369	529.75
516.585	536.75
516.801	544.75
517.016	549.75
517.232	546.75
517.448	553.75
517.664	554.75
517.879	553.75
518.095	539.75
518.311	529.75
518.527	551.75
518.742	523.75
518.958	541.75
519.173	518.75
519.389	525.75
519.605	518.75
519.82	507.75
520.036	527.75
520.251	509.75
520.467	543.75
520.682	549.75
520.898	533.75
521.113	543.75
521.329	571.75
521.544	619.75
521.76	700.75
521.975	1029.75
522.19	972.75
522.406	653.75
522.621	530.75
522.836	495.75
523.052	492.75
523.267	488.75
523.482	466.75
523.698	473.75
523.913	441.75
524.128	449.75
524.343	461.75
524.559	471.75
524.774	442.75
524.989	456.75
525.204	441.75
525.419	453.75
525.634	459.75
525.849	437.75
526.064	412.75
526.28	417.75
526.495	427.75
526.71	429.75
526.925	427.75
527.14	441.75
527.355	418.75
527.57	413.75
527.785	445.75
527.999	453.75
528.214	426.75
528.429	441.75
528.644	409.75
528.859	432.75
529.074	419.75
529.289	430.75
529.503	484.75
529.718	471.75
529.933	447.75
530.148	440.75
530.363	438.75
530.577	451.75
530.792	409.75
531.007	416.75
531.221	407.75
531.436	424.75
531.651	439.75
531.865	430.75
532.08	419.75
532.295	410.75
532.509	410.75
532.724	415.75
532.938	416.75
533.153	409.75
533.367	409.75
533.582	414.75
533.796	401.75
534.011	406.75
534.225	443.75
534.44	396.75
534.654	408.75
534.868	418.75
535.083	400.75
535.297	412.75
535.511	425.75
535.726	407.75
535.94	406.75
536.154	413.75
536.369	393.75
536.583	392.75
536.797	403.75
537.011	387.75
537.225	404.75
537.44	391.75
537.654	390.75
537.868	389.75
538.082	395.75
538.296	393.75
538.51	383.75
538.724	394.75
538.938	392.75
539.153	407.75
539.367	415.75
539.581	401.75
539.795	384.75
540.009	380.75
540.222	401.75
540.436	388.75
540.65	386.75
540.864	416.75
541.078	407.75
541.292	399.75
541.506	391.75
541.72	407.75
541.934	380.75
542.147	390.75
542.361	397.75
542.575	405.75
542.789	369.75
543.002	389.75
543.216	387.75
543.43	407.75
543.644	400.75
543.857	398.75
544.071	396.75
544.285	400.75
544.498	392.75
544.712	375.75
544.925	395.75
545.139	397.75
545.352	379.75
545.566	397.75
545.779	396.75
545.993	391.75
546.206	387.75
546.42	399.75
546.633	391.75
546.847	388.75
547.06	383.75
547.274	364.75
547.487	369.75
547.7	380.75
547.914	359.75
548.127	375.75
548.34	376.75
548.554	403.75
548.767	385.75
548.98	393.75
549.193	397.75
549.407	378.75
549.62	377.75
549.833	387.75
550.046	399.75
550.259	382.75
550.473	389.75
550.686	383.75
550.899	374.75
551.112	384.75
551.325	399.75
551.538	379.75
551.751	386.75
551.964	393.75
552.177	372.75
552.39	376.75
552.603	395.75
552.816	397.75
553.029	392.75
553.242	390.75
553.455	383.75
553.667	398.75
553.88	383.75
554.093	380.75
554.306	408.75
554.519	381.75
554.732	378.75
554.944	377.75
555.157	371.75
555.37	371.75
555.583	372.75
555.795	343.75
556.008	348.75
556.221	328.75
556.433	344.75
556.646	361.75
556.859	358.75
557.071	335.75
557.284	355.75
557.496	355.75
557.709	343.75
557.921	341.75
558.134	338.75
558.346	337.75
558.559	349.75
558.771	318.75
558.984	330.75
559.196	353.75
559.409	331.75
559.621	341.75
559.833	331.75
560.046	344.75
560.258	342.75
560.47	337.75
560.683	323.75
560.895	354.75
561.107	327.75
561.32	315.75
561.532	330.75
561.744	350.75
561.956	317.75
562.168	328.75
562.381	326.75
562.593	333.75
562.805	352.75
563.017	353.75
563.229	333.75
563.441	339.75
563.653	338.75
563.865	356.75
564.077	347.75
564.289	355.75
564.501	352.75
564.713	357.75
564.925	352.75
565.137	361.75
565.349	378.75
565.561	385.75
565.773	383.75
565.985	394.75
566.197	384.75
566.408	372.75
566.62	413.75
566.832	425.75
567.044	424.75
567.255	440.75
567.467	444.75
567.679	446.75
567.891	449.75
568.102	465.75
568.314	440.75
568.526	439.75
568.737	412.75
568.949	379.75
569.161	376.75
569.372	361.75
569.584	342.75
569.795	363.75
570.007	343.75
570.218	368.75
570.43	381.75
570.641	347.75
570.853	327.75
571.064	337.75
571.276	334.75
571.487	317.75
571.698	324.75
571.91	317.75
572.121	308.75
572.333	303.75
572.544	319.75
572.755	319.75
572.966	290.75
573.178	303.75
573.389	287.75
573.6	291.75
573.811	309.75
574.023	299.75
574.234	287.75
574.445	295.75
574.656	299.75
574.867	304.75
575.078	293.75
575.289	296.75
575.501	284.75
575.712	295.75
575.923	276.75
576.134	295.75
576.345	300.75
576.556	281.75
576.767	259.75
576.978	282.75
577.188	279.75
577.399	288.75
577.61	273.75
577.821	285.75
578.032	270.75
578.243	293.75
578.454	387.75
578.665	315.75
578.875	284.75
579.086	283.75
579.297	265.75
579.508	268.75
579.718	279.75
579.929	277.75
580.14	257.75
580.35	285.75
580.561	286.75
580.772	263.75
580.982	281.75
581.193	248.75
581.403	268.75
581.614	261.75
581.825	263.75
582.035	253.75
582.246	248.75
582.456	263.75
582.667	259.75
582.877	285.75
583.087	266.75
583.298	265.75
583.508	268.75
583.719	251.75
583.929	257.75
584.139	268.75
584.35	265.75
584.56	265.75
584.77	257.75
584.981	252.75
585.191	267.75
585.401	260.75
585.611	269.75
585.821	262.75
586.032	256.75
586.242	264.75
586.452	273.75
586.662	252.75
586.872	250.75
587.082	256.75
587.292	238.75
587.502	251.75
587.713	251.75
587.923	234.75
588.133	260.75
588.343	269.75
588.553	247.75
588.762	263.75
588.972	256.75
589.182	257.75
589.392	268.75
589.602	248.75
589.812	237.75
590.022	263.75
590.232	245.75
590.441	236.75
590.651	257.75
590.861	267.75
591.071	271.75
591.281	258.75
591.49	267.75
591.7	257.75
591.91	272.75
592.119	263.75
592.329	267.75
592.539	266.75
592.748	273.75
592.958	282.75
593.167	270.75
593.377	304.75
593.587	282.75
593.796	278.75
594.006	273.75
594.215	294.75
594.424	278.75
594.634	270.75
594.843	263.75
595.053	264.75
595.262	265.75
595.472	269.75
595.681	254.75
595.89	255.75
596.1	237.75
596.309	257.75
596.518	235.75
596.727	235.75
596.937	233.75
597.146	240.75
597.355	230.75
597.564	230.75
597.774	243.75
597.983	227.75
598.192	230.75
598.401	240.75
598.61	216.75
598.819	217.75
599.028	226.75
599.237	220.75
599.446	223.75
599.655	218.75
599.864	227.75
600.073	211.75
600.282	256.75
600.491	215.75
600.7	221.75
600.909	232.75
601.118	235.75
601.327	213.75
601.536	203.75
601.745	223.75
601.953	214.75
602.162	224.75
602.371	231.75
602.58	235.75
602.789	223.75
602.997	220.75
603.206	231.75
603.415	235.75
603.623	218.75
603.832	229.75
604.041	219.75
604.249	207.75
604.458	200.75
604.666	213.75
604.875	221.75
605.084	224.75
605.292	218.75
605.501	224.75
605.709	212.75
605.918	202.75
606.126	208.75
606.334	215.75
606.543	215.75
606.751	219.75
606.96	207.75
607.168	223.75
607.376	223.75
607.585	224.75
607.793	208.75
608.001	217.75
608.21	216.75
608.418	219.75
608.626	202.75
608.834	200.75
609.043	210.75
609.251	208.75
609.459	199.75
609.667	221.75
609.875	215.75
610.083	212.75
610.291	205.75
610.499	213.75
610.707	207.75
610.916	221.75
611.124	222.75
611.332	227.75
611.54	227.75
611.748	193.75
611.955	209.75
612.163	215.75
612.371	207.75
612.579	198.75
612.787	210.75
612.995	204.75
613.203	196.75
613.411	206.75
613.618	209.75
613.826	208.75
614.034	228.75
614.242	201.75
614.449	200.75
614.657	207.75
614.865	194.75
615.072	214.75
615.28	210.75
615.488	203.75
615.695	217.75
615.903	211.75
616.111	197.75
616.318	205.75
616.526	204.75
616.733	206.75
616.941	209.75
617.148	220.75
617.356	211.75
617.563	207.75
617.771	209.75
617.978	191.75
618.185	217.75
618.393	197.75
618.6	203.75
618.807	206.75
619.015	192.75
619.222	202.75
619.429	204.75
619.637	189.75
619.844	211.75
620.051	200.75
620.258	199.75
620.466	200.75
620.673	206.75
620.88	187.75
621.087	199.75
621.294	203.75
621.501	183.75
621.708	220.75
621.915	208.75
622.122	193.75
622.329	193.75
622.536	186.75
622.743	199.75
622.95	204.75
623.157	199.75
623.364	179.75
623.571	190.75
623.778	182.75
623.985	197.75
624.192	189.75
624.399	184.75
624.606	190.75
624.812	204.75
625.019	192.75
625.226	201.75
625.433	197.75
625.639	184.75
625.846	187.75
626.053	188.75
626.259	190.75
626.466	190.75
626.673	174.75
626.879	182.75
627.086	195.75
627.293	183.75
627.499	176.75
627.706	188.75
627.912	189.75
628.119	179.75
628.325	185.75
628.532	184.75
628.738	187.75
628.945	177.75
629.151	182.75
629.357	184.75
629.564	156.75
629.77	179.75
629.976	180.75
630.183	181.75
630.389	175.75
630.595	177.75
630.802	171.75
631.008	166.75
631.214	188.75
631.42	156.75
631.627	167.75
631.833	168.75
632.039	172.75
632.245	155.75
632.451	180.75
632.657	172.75
632.863	173.75
633.069	159.75
633.275	160.75
633.481	169.75
633.688	172.75
633.893	159.75
634.099	179.75
634.305	175.75
634.511	172.75
634.717	159.75
634.923	151.75
635.129	154.75
635.335	166.75
635.541	162.75
635.747	159.75
635.952	162.75
636.158	150.75
636.364	167.75
636.57	163.75
636.775	176.75
636.981	174.75
637.187	175.75
637.392	164.75
637.598	159.75
637.804	159.75
638.009	157.75
638.215	158.75
638.421	172.75
638.626	162.75
638.832	169.75
639.037	147.75
639.243	158.75
639.448	165.75
639.654	169.75
639.859	145.75
640.065	167.75
640.27	165.75
640.475	169.75
640.681	151.75
640.886	154.75
641.091	165.75
641.297	173.75
641.502	153.75
641.707	157.75
641.913	176.75
642.118	145.75
642.323	129.75
642.528	163.75
642.733	153.75
642.939	151.75
643.144	161.75
643.349	159.75
643.554	157.75
643.759	137.75
643.964	163.75
644.169	158.75
644.374	145.75
644.579	152.75
644.784	173.75
644.989	152.75
645.194	146.75
645.399	162.75
645.604	152.75
645.809	161.75
646.014	151.75
646.219	150.75
646.423	149.75
646.628	144.75
646.833	175.75
647.038	158.75
647.243	156.75
647.447	164.75
647.652	167.75
647.857	157.75
648.062	160.75
648.266	158.75
648.471	154.75
648.676	139.75
648.88	167.75
649.085	149.75
649.289	147.75
649.494	167.75
649.698	167.75
649.903	185.75
650.107	169.75
650.312	153.75
650.516	152.75
650.721	154.75
650.925	143.75
651.13	143.75
651.334	131.75
651.539	124.75
651.743	138.75
651.947	143.75
652.152	149.75
652.356	142.75
652.56	138.75
652.764	139.75
652.969	133.75
653.173	144.75
653.377	127.75
653.581	137.75
653.785	123.75
653.99	129.75
654.194	121.75
654.398	135.75
654.602	135.75
654.806	128.75
655.01	138.75
655.214	143.75
655.418	140.75
655.622	139.75
655.826	133.75
656.03	136.75
656.234	133.75
656.438	124.75
656.642	127.75
656.846	125.75
657.049	135.75
657.253	117.75
657.457	122.75
657.661	116.75
657.865	120.75
658.068	107.75
658.272	101.75
658.476	113.75
658.68	101.75
658.883	107.75
659.087	106.75
659.291	103.75
659.494	78.75
659.698	101.75
659.901	103.75
660.105	99.75
660.309	87.75
660.512	101.75
660.716	83.75
660.919	76.75
661.123	97.75
661.326	99.75
661.53	104.75
661.733	93.75
661.936	92.75
662.14	88.75
662.343	92.75
662.546	89.75
662.75	90.75
662.953	88.75
663.156	76.75
663.36	88.75
663.563	92.75
663.766	84.75
663.969	85.75
664.173	78.75
664.376	84.75
664.579	79.75
664.782	86.75
664.985	83.75
665.188	90.75
665.391	90.75
665.594	103.75
665.797	73.75
666	86.75
666.203	100.75
666.406	82.75
666.609	75.75
666.812	96.75
667.015	85.75
667.218	89.75
667.421	85.75
667.624	88.75
667.827	87.75
668.03	79.75
668.232	94.75
668.435	86.75
668.638	82.75
668.841	102.75
669.043	90.75
669.246	86.75
669.449	85.75
669.651	93.75
669.854	96.75
670.057	97.75
670.259	92.75
670.462	83.75
670.665	80.75
670.867	71.75
671.07	76.75
671.272	80.75
671.475	81.75
671.677	92.75
671.88	87.75
672.082	91.75
672.284	83.75
672.487	92.75
672.689	91.75
672.892	89.75
