Data from 1964.PennyLincolnUp.Lamp.En5.5.200Scan.071719.P1._HRD10591_14-05-59-910.txt Node
Date: Thu Jul 18 14:05:59 EDT 2019
User: cochatt
Spectrometer: HR+D1059
Trigger mode: 1
Integration Time (sec): 1.000000E-1
Scans to average: 1
Electric dark correction enabled: true
Nonlinearity correction enabled: false
Boxcar width: 0
XAxis mode: Wavelengths
Number of Pixels in Spectrum: 2048
>>>>>Begin Spectral Data<<<<<
223.165	-20.25
223.4	-20.25
223.635	-20.25
223.869	-3.25
224.104	-23.25
224.338	-17.25
224.573	-16.25
224.808	-4.25
225.042	-6.25
225.277	-2.25
225.511	-9.25
225.746	2.75
225.98	-0.25
226.215	18.75
226.449	9.75
226.683	18.75
226.918	23.75
227.152	28.75
227.387	38.75
227.621	25.75
227.856	47.75
228.09	46.75
228.324	48.75
228.559	64.75
228.793	54.75
229.027	96.75
229.262	95.75
229.496	96.75
229.73	145.75
229.964	141.75
230.199	108.75
230.433	114.75
230.667	111.75
230.901	101.75
231.136	108.75
231.37	108.75
231.604	113.75
231.838	108.75
232.072	118.75
232.306	115.75
232.541	106.75
232.775	125.75
233.009	118.75
233.243	122.75
233.477	116.75
233.711	110.75
233.945	113.75
234.179	105.75
234.413	114.75
234.647	126.75
234.881	100.75
235.115	130.75
235.349	128.75
235.583	121.75
235.817	120.75
236.051	133.75
236.285	137.75
236.519	128.75
236.753	129.75
236.987	140.75
237.221	162.75
237.455	194.75
237.689	167.75
237.922	140.75
238.156	134.75
238.39	140.75
238.624	125.75
238.858	126.75
239.091	118.75
239.325	116.75
239.559	130.75
239.793	132.75
240.027	148.75
240.26	148.75
240.494	151.75
240.728	142.75
240.961	137.75
241.195	141.75
241.429	144.75
241.662	157.75
241.896	137.75
242.13	134.75
242.363	135.75
242.597	141.75
242.83	146.75
243.064	145.75
243.298	132.75
243.531	154.75
243.765	145.75
243.998	136.75
244.232	135.75
244.465	134.75
244.699	146.75
244.932	151.75
245.166	164.75
245.399	161.75
245.633	158.75
245.866	157.75
246.099	146.75
246.333	148.75
246.566	150.75
246.8	160.75
247.033	163.75
247.266	175.75
247.5	182.75
247.733	167.75
247.966	176.75
248.2	144.75
248.433	180.75
248.666	169.75
248.899	188.75
249.133	191.75
249.366	212.75
249.599	210.75
249.832	189.75
250.066	183.75
250.299	186.75
250.532	203.75
250.765	204.75
250.998	229.75
251.231	218.75
251.465	205.75
251.698	203.75
251.931	194.75
252.164	183.75
252.397	200.75
252.63	215.75
252.863	214.75
253.096	219.75
253.329	238.75
253.562	241.75
253.795	227.75
254.028	232.75
254.261	227.75
254.494	233.75
254.727	264.75
254.96	282.75
255.193	261.75
255.426	245.75
255.659	226.75
255.892	239.75
256.124	244.75
256.357	241.75
256.59	238.75
256.823	222.75
257.056	215.75
257.289	211.75
257.521	221.75
257.754	225.75
257.987	206.75
258.22	233.75
258.452	221.75
258.685	221.75
258.918	219.75
259.151	211.75
259.383	235.75
259.616	233.75
259.849	224.75
260.081	245.75
260.314	248.75
260.547	284.75
260.779	267.75
261.012	252.75
261.244	236.75
261.477	241.75
261.71	225.75
261.942	237.75
262.175	241.75
262.407	241.75
262.64	234.75
262.872	238.75
263.105	233.75
263.337	233.75
263.57	222.75
263.802	216.75
264.035	216.75
264.267	231.75
264.499	221.75
264.732	225.75
264.964	237.75
265.197	238.75
265.429	210.75
265.661	249.75
265.894	234.75
266.126	234.75
266.358	250.75
266.591	231.75
266.823	230.75
267.055	257.75
267.287	270.75
267.52	258.75
267.752	239.75
267.984	238.75
268.216	234.75
268.448	267.75
268.681	257.75
268.913	255.75
269.145	292.75
269.377	283.75
269.609	268.75
269.841	298.75
270.073	301.75
270.306	312.75
270.538	325.75
270.77	325.75
271.002	299.75
271.234	310.75
271.466	308.75
271.698	322.75
271.93	308.75
272.162	326.75
272.394	330.75
272.626	310.75
272.858	320.75
273.09	289.75
273.322	288.75
273.553	282.75
273.785	291.75
274.017	287.75
274.249	266.75
274.481	294.75
274.713	288.75
274.945	292.75
275.176	290.75
275.408	303.75
275.64	280.75
275.872	283.75
276.104	296.75
276.335	286.75
276.567	296.75
276.799	302.75
277.031	316.75
277.262	324.75
277.494	337.75
277.726	318.75
277.957	310.75
278.189	297.75
278.421	292.75
278.652	292.75
278.884	282.75
279.115	294.75
279.347	309.75
279.579	294.75
279.81	287.75
280.042	296.75
280.273	281.75
280.505	288.75
280.736	288.75
280.968	293.75
281.199	284.75
281.431	312.75
281.662	316.75
281.894	304.75
282.125	298.75
282.356	313.75
282.588	315.75
282.819	327.75
283.051	318.75
283.282	309.75
283.513	299.75
283.745	314.75
283.976	325.75
284.207	300.75
284.439	322.75
284.67	321.75
284.901	306.75
285.132	341.75
285.364	316.75
285.595	326.75
285.826	313.75
286.057	325.75
286.288	313.75
286.52	326.75
286.751	314.75
286.982	322.75
287.213	313.75
287.444	313.75
287.675	326.75
287.906	323.75
288.138	333.75
288.369	316.75
288.6	339.75
288.831	338.75
289.062	342.75
289.293	334.75
289.524	334.75
289.755	335.75
289.986	327.75
290.217	337.75
290.448	320.75
290.679	332.75
290.91	340.75
291.141	321.75
291.371	337.75
291.602	337.75
291.833	335.75
292.064	333.75
292.295	345.75
292.526	333.75
292.757	322.75
292.987	311.75
293.218	335.75
293.449	332.75
293.68	334.75
293.91	331.75
294.141	333.75
294.372	345.75
294.603	311.75
294.833	313.75
295.064	336.75
295.295	348.75
295.525	346.75
295.756	326.75
295.987	331.75
296.217	338.75
296.448	353.75
296.679	348.75
296.909	333.75
297.14	338.75
297.37	318.75
297.601	340.75
297.831	340.75
298.062	331.75
298.292	344.75
298.523	367.75
298.753	368.75
298.984	325.75
299.214	348.75
299.445	347.75
299.675	334.75
299.905	354.75
300.136	349.75
300.366	349.75
300.597	355.75
300.827	357.75
301.057	365.75
301.288	362.75
301.518	389.75
301.748	368.75
301.979	375.75
302.209	353.75
302.439	378.75
302.669	358.75
302.9	361.75
303.13	365.75
303.36	376.75
303.59	390.75
303.82	369.75
304.051	374.75
304.281	386.75
304.511	390.75
304.741	358.75
304.971	348.75
305.201	373.75
305.431	358.75
305.661	374.75
305.891	364.75
306.121	372.75
306.352	389.75
306.582	400.75
306.812	365.75
307.042	362.75
307.272	357.75
307.502	357.75
307.731	364.75
307.961	345.75
308.191	353.75
308.421	363.75
308.651	380.75
308.881	346.75
309.111	386.75
309.341	380.75
309.571	379.75
309.8	393.75
310.03	383.75
310.26	408.75
310.49	396.75
310.72	410.75
310.949	450.75
311.179	421.75
311.409	416.75
311.639	396.75
311.868	404.75
312.098	379.75
312.328	415.75
312.557	413.75
312.787	435.75
313.017	433.75
313.246	415.75
313.476	401.75
313.706	422.75
313.935	410.75
314.165	420.75
314.394	419.75
314.624	432.75
314.853	410.75
315.083	411.75
315.312	404.75
315.542	391.75
315.771	416.75
316.001	408.75
316.23	414.75
316.46	393.75
316.689	423.75
316.919	406.75
317.148	443.75
317.377	415.75
317.607	407.75
317.836	417.75
318.065	424.75
318.295	419.75
318.524	417.75
318.753	418.75
318.983	421.75
319.212	424.75
319.441	426.75
319.67	422.75
319.9	426.75
320.129	434.75
320.358	405.75
320.587	396.75
320.816	415.75
321.046	406.75
321.275	412.75
321.504	412.75
321.733	440.75
321.962	433.75
322.191	439.75
322.42	471.75
322.649	464.75
322.878	476.75
323.108	471.75
323.337	470.75
323.566	480.75
323.795	491.75
324.024	539.75
324.253	640.75
324.482	842.75
324.71	1243.75
324.939	1718.75
325.168	1462.75
325.397	757.75
325.626	581.75
325.855	501.75
326.084	510.75
326.313	505.75
326.542	489.75
326.77	537.75
326.999	609.75
327.228	760.75
327.457	1105.75
327.686	1281.75
327.914	889.75
328.143	643.75
328.372	584.75
328.6	574.75
328.829	539.75
329.058	538.75
329.287	551.75
329.515	534.75
329.744	526.75
329.972	509.75
330.201	537.75
330.43	550.75
330.658	551.75
330.887	593.75
331.115	562.75
331.344	522.75
331.572	494.75
331.801	495.75
332.03	500.75
332.258	480.75
332.486	480.75
332.715	485.75
332.943	479.75
333.172	508.75
333.4	496.75
333.629	497.75
333.857	542.75
334.085	528.75
334.314	537.75
334.542	556.75
334.771	584.75
334.999	540.75
335.227	526.75
335.455	514.75
335.684	493.75
335.912	502.75
336.14	475.75
336.369	500.75
336.597	480.75
336.825	490.75
337.053	471.75
337.281	460.75
337.51	465.75
337.738	482.75
337.966	465.75
338.194	475.75
338.422	494.75
338.65	458.75
338.878	474.75
339.106	451.75
339.334	457.75
339.562	450.75
339.79	454.75
340.018	456.75
340.246	453.75
340.474	454.75
340.702	444.75
340.93	464.75
341.158	433.75
341.386	461.75
341.614	448.75
341.842	447.75
342.07	449.75
342.298	444.75
342.526	445.75
342.754	424.75
342.981	445.75
343.209	461.75
343.437	474.75
343.665	438.75
343.893	470.75
344.12	465.75
344.348	505.75
344.576	475.75
344.804	470.75
345.031	491.75
345.259	475.75
345.487	442.75
345.714	457.75
345.942	441.75
346.17	432.75
346.397	444.75
346.625	445.75
346.853	445.75
347.08	431.75
347.308	439.75
347.535	441.75
347.763	457.75
347.99	439.75
348.218	428.75
348.445	454.75
348.673	427.75
348.9	441.75
349.128	408.75
349.355	415.75
349.583	421.75
349.81	412.75
350.037	425.75
350.265	424.75
350.492	427.75
350.72	430.75
350.947	438.75
351.174	418.75
351.402	447.75
351.629	424.75
351.856	430.75
352.083	438.75
352.311	424.75
352.538	428.75
352.765	425.75
352.992	414.75
353.22	448.75
353.447	431.75
353.674	433.75
353.901	408.75
354.128	408.75
354.355	396.75
354.583	402.75
354.81	421.75
355.037	407.75
355.264	410.75
355.491	390.75
355.718	401.75
355.945	406.75
356.172	408.75
356.399	399.75
356.626	403.75
356.853	391.75
357.08	416.75
357.307	401.75
357.534	414.75
357.761	415.75
357.988	422.75
358.215	388.75
358.441	417.75
358.668	391.75
358.895	433.75
359.122	412.75
359.349	414.75
359.576	428.75
359.802	427.75
360.029	457.75
360.256	433.75
360.483	451.75
360.709	400.75
360.936	417.75
361.163	424.75
361.39	401.75
361.616	430.75
361.843	407.75
362.07	412.75
362.296	412.75
362.523	416.75
362.749	423.75
362.976	418.75
363.203	403.75
363.429	398.75
363.656	417.75
363.882	401.75
364.109	392.75
364.335	395.75
364.562	410.75
364.788	400.75
365.015	385.75
365.241	389.75
365.468	415.75
365.694	412.75
365.92	405.75
366.147	380.75
366.373	406.75
366.599	398.75
366.826	409.75
367.052	385.75
367.278	405.75
367.505	409.75
367.731	409.75
367.957	389.75
368.184	408.75
368.41	415.75
368.636	414.75
368.862	406.75
369.089	402.75
369.315	397.75
369.541	416.75
369.767	398.75
369.993	382.75
370.219	416.75
370.445	394.75
370.672	379.75
370.898	388.75
371.124	399.75
371.35	397.75
371.576	412.75
371.802	400.75
372.028	394.75
372.254	424.75
372.48	400.75
372.706	407.75
372.932	407.75
373.158	402.75
373.384	421.75
373.61	395.75
373.835	417.75
374.061	412.75
374.287	380.75
374.513	398.75
374.739	428.75
374.965	436.75
375.191	413.75
375.416	404.75
375.642	409.75
375.868	408.75
376.094	419.75
376.319	401.75
376.545	379.75
376.771	398.75
376.997	399.75
377.222	383.75
377.448	389.75
377.674	395.75
377.899	378.75
378.125	383.75
378.35	412.75
378.576	394.75
378.802	400.75
379.027	378.75
379.253	386.75
379.478	403.75
379.704	405.75
379.929	370.75
380.155	397.75
380.38	390.75
380.606	385.75
380.831	406.75
381.057	424.75
381.282	392.75
381.507	393.75
381.733	384.75
381.958	397.75
382.184	398.75
382.409	388.75
382.634	407.75
382.86	395.75
383.085	414.75
383.31	403.75
383.535	408.75
383.761	411.75
383.986	420.75
384.211	422.75
384.436	435.75
384.662	428.75
384.887	434.75
385.112	412.75
385.337	432.75
385.562	424.75
385.787	434.75
386.013	454.75
386.238	447.75
386.463	435.75
386.688	434.75
386.913	433.75
387.138	427.75
387.363	450.75
387.588	434.75
387.813	409.75
388.038	440.75
388.263	430.75
388.488	442.75
388.713	431.75
388.938	436.75
389.163	428.75
389.387	448.75
389.612	442.75
389.837	400.75
390.062	451.75
390.287	452.75
390.512	426.75
390.736	415.75
390.961	429.75
391.186	455.75
391.411	446.75
391.636	450.75
391.86	465.75
392.085	466.75
392.31	442.75
392.534	441.75
392.759	434.75
392.984	444.75
393.208	452.75
393.433	458.75
393.658	431.75
393.882	453.75
394.107	451.75
394.331	453.75
394.556	440.75
394.78	450.75
395.005	446.75
395.229	465.75
395.454	450.75
395.678	447.75
395.903	460.75
396.127	456.75
396.352	461.75
396.576	468.75
396.801	444.75
397.025	445.75
397.249	474.75
397.474	466.75
397.698	432.75
397.922	485.75
398.147	464.75
398.371	496.75
398.595	493.75
398.82	489.75
399.044	496.75
399.268	509.75
399.492	556.75
399.717	594.75
399.941	606.75
400.165	616.75
400.389	594.75
400.613	570.75
400.837	500.75
401.062	501.75
401.286	488.75
401.51	496.75
401.734	480.75
401.958	484.75
402.182	480.75
402.406	488.75
402.63	496.75
402.854	509.75
403.078	507.75
403.302	506.75
403.526	496.75
403.75	508.75
403.974	511.75
404.198	509.75
404.422	521.75
404.645	506.75
404.869	526.75
405.093	570.75
405.317	566.75
405.541	585.75
405.765	560.75
405.988	526.75
406.212	553.75
406.436	539.75
406.66	557.75
406.883	555.75
407.107	557.75
407.331	593.75
407.555	657.75
407.778	645.75
408.002	605.75
408.226	557.75
408.449	553.75
408.673	560.75
408.896	584.75
409.12	594.75
409.344	570.75
409.567	539.75
409.791	512.75
410.014	489.75
410.238	508.75
410.461	502.75
410.685	492.75
410.908	509.75
411.132	553.75
411.355	556.75
411.578	519.75
411.802	515.75
412.025	487.75
412.249	506.75
412.472	543.75
412.695	560.75
412.919	540.75
413.142	504.75
413.365	503.75
413.589	494.75
413.812	496.75
414.035	468.75
414.258	463.75
414.482	496.75
414.705	465.75
414.928	487.75
415.151	497.75
415.374	476.75
415.597	462.75
415.821	474.75
416.044	482.75
416.267	474.75
416.49	468.75
416.713	482.75
416.936	454.75
417.159	454.75
417.382	482.75
417.605	483.75
417.828	485.75
418.051	482.75
418.274	488.75
418.497	464.75
418.72	488.75
418.943	474.75
419.166	471.75
419.389	511.75
419.611	505.75
419.834	457.75
420.057	488.75
420.28	511.75
420.503	472.75
420.726	462.75
420.948	503.75
421.171	509.75
421.394	520.75
421.617	499.75
421.839	486.75
422.062	495.75
422.285	497.75
422.507	552.75
422.73	578.75
422.953	580.75
423.175	511.75
423.398	496.75
423.621	493.75
423.843	499.75
424.066	523.75
424.288	504.75
424.511	512.75
424.733	556.75
424.956	610.75
425.178	598.75
425.401	574.75
425.623	606.75
425.846	550.75
426.068	502.75
426.291	492.75
426.513	498.75
426.735	521.75
426.958	531.75
427.18	588.75
427.402	704.75
427.625	764.75
427.847	649.75
428.069	591.75
428.292	522.75
428.514	492.75
428.736	452.75
428.958	460.75
429.181	464.75
429.403	456.75
429.625	463.75
429.847	487.75
430.069	555.75
430.292	542.75
430.514	452.75
430.736	456.75
430.958	445.75
431.18	431.75
431.402	456.75
431.624	426.75
431.846	438.75
432.068	446.75
432.29	453.75
432.512	446.75
432.734	453.75
432.956	440.75
433.178	462.75
433.4	454.75
433.622	460.75
433.844	448.75
434.066	445.75
434.287	438.75
434.509	457.75
434.731	447.75
434.953	465.75
435.175	466.75
435.397	524.75
435.618	486.75
435.84	530.75
436.062	591.75
436.284	629.75
436.505	537.75
436.727	498.75
436.949	458.75
437.17	467.75
437.392	469.75
437.614	470.75
437.835	473.75
438.057	534.75
438.278	614.75
438.5	626.75
438.721	679.75
438.943	662.75
439.165	548.75
439.386	494.75
439.608	497.75
439.829	506.75
440.05	508.75
440.272	540.75
440.493	495.75
440.715	495.75
440.936	474.75
441.158	468.75
441.379	449.75
441.6	470.75
441.822	477.75
442.043	536.75
442.264	586.75
442.486	607.75
442.707	566.75
442.928	498.75
443.149	498.75
443.371	527.75
443.592	562.75
443.813	617.75
444.034	680.75
444.255	574.75
444.476	500.75
444.698	518.75
444.919	518.75
445.14	639.75
445.361	587.75
445.582	536.75
445.803	558.75
446.024	633.75
446.245	642.75
446.466	607.75
446.687	528.75
446.908	487.75
447.129	468.75
447.35	439.75
447.571	472.75
447.792	451.75
448.013	444.75
448.234	473.75
448.455	512.75
448.675	588.75
448.896	657.75
449.117	569.75
449.338	560.75
449.559	639.75
449.779	705.75
450	576.75
450.221	482.75
450.442	445.75
450.662	450.75
450.883	436.75
451.104	433.75
451.324	448.75
451.545	412.75
451.766	429.75
451.986	405.75
452.207	397.75
452.428	405.75
452.648	399.75
452.869	400.75
453.089	401.75
453.31	403.75
453.53	418.75
453.751	396.75
453.971	414.75
454.192	414.75
454.412	410.75
454.633	413.75
454.853	378.75
455.073	398.75
455.294	446.75
455.514	495.75
455.734	463.75
455.955	402.75
456.175	395.75
456.395	396.75
456.616	392.75
456.836	387.75
457.056	392.75
457.276	366.75
457.497	396.75
457.717	391.75
457.937	395.75
458.157	397.75
458.377	390.75
458.598	402.75
458.818	446.75
459.038	516.75
459.258	510.75
459.478	456.75
459.698	454.75
459.918	433.75
460.138	430.75
460.358	448.75
460.578	462.75
460.798	448.75
461.018	460.75
461.238	461.75
461.458	450.75
461.678	445.75
461.898	448.75
462.118	461.75
462.338	459.75
462.558	492.75
462.777	498.75
462.997	501.75
463.217	496.75
463.437	528.75
463.657	502.75
463.876	504.75
464.096	497.75
464.316	481.75
464.536	494.75
464.755	502.75
464.975	483.75
465.195	502.75
465.414	529.75
465.634	454.75
465.854	453.75
466.073	452.75
466.293	447.75
466.512	410.75
466.732	416.75
466.951	416.75
467.171	409.75
467.391	405.75
467.61	432.75
467.829	416.75
468.049	415.75
468.268	412.75
468.488	402.75
468.707	395.75
468.927	395.75
469.146	421.75
469.365	420.75
469.585	384.75
469.804	407.75
470.023	426.75
470.243	423.75
470.462	420.75
470.681	421.75
470.901	423.75
471.12	428.75
471.339	428.75
471.558	431.75
471.777	426.75
471.997	412.75
472.216	401.75
472.435	433.75
472.654	426.75
472.873	403.75
473.092	408.75
473.311	410.75
473.53	428.75
473.749	438.75
473.968	457.75
474.187	558.75
474.406	559.75
474.625	475.75
474.844	417.75
475.063	404.75
475.282	430.75
475.501	423.75
475.72	436.75
475.939	432.75
476.158	457.75
476.377	433.75
476.596	423.75
476.814	456.75
477.033	444.75
477.252	448.75
477.471	449.75
477.69	457.75
477.908	465.75
478.127	452.75
478.346	470.75
478.564	478.75
478.783	477.75
479.002	460.75
479.22	496.75
479.439	488.75
479.658	503.75
479.876	500.75
480.095	502.75
480.313	520.75
480.532	524.75
480.751	524.75
480.969	532.75
481.188	559.75
481.406	564.75
481.624	505.75
481.843	503.75
482.061	513.75
482.28	498.75
482.498	465.75
482.717	469.75
482.935	483.75
483.153	482.75
483.372	479.75
483.59	484.75
483.808	476.75
484.027	480.75
484.245	489.75
484.463	476.75
484.681	510.75
484.9	512.75
485.118	498.75
485.336	488.75
485.554	504.75
485.772	508.75
485.99	490.75
486.209	516.75
486.427	499.75
486.645	509.75
486.863	508.75
487.081	533.75
487.299	495.75
487.517	496.75
487.735	519.75
487.953	506.75
488.171	507.75
488.389	510.75
488.607	530.75
488.825	493.75
489.043	507.75
489.261	516.75
489.479	526.75
489.696	527.75
489.914	517.75
490.132	530.75
490.35	529.75
490.568	537.75
490.786	528.75
491.003	528.75
491.221	575.75
491.439	557.75
491.657	585.75
491.874	589.75
492.092	576.75
492.31	553.75
492.527	569.75
492.745	570.75
492.963	581.75
493.18	590.75
493.398	583.75
493.615	603.75
493.833	617.75
494.05	589.75
494.268	596.75
494.485	585.75
494.703	599.75
494.92	598.75
495.138	578.75
495.355	579.75
495.573	582.75
495.79	592.75
496.008	605.75
496.225	593.75
496.442	616.75
496.66	624.75
496.877	621.75
497.094	615.75
497.312	612.75
497.529	620.75
497.746	654.75
497.963	657.75
498.181	649.75
498.398	682.75
498.615	667.75
498.832	710.75
499.049	730.75
499.267	741.75
499.484	759.75
499.701	787.75
499.918	832.75
500.135	862.75
500.352	936.75
500.569	910.75
500.786	912.75
501.003	936.75
501.22	877.75
501.437	839.75
501.654	816.75
501.871	807.75
502.088	727.75
502.305	719.75
502.522	703.75
502.739	700.75
502.956	660.75
503.172	645.75
503.389	641.75
503.606	632.75
503.823	616.75
504.04	631.75
504.256	612.75
504.473	616.75
504.69	614.75
504.907	638.75
505.123	631.75
505.34	577.75
505.557	586.75
505.773	551.75
505.99	587.75
506.207	559.75
506.423	578.75
506.64	550.75
506.856	542.75
507.073	572.75
507.289	537.75
507.506	550.75
507.722	524.75
507.939	540.75
508.155	541.75
508.372	557.75
508.588	524.75
508.805	530.75
509.021	534.75
509.238	532.75
509.454	542.75
509.67	543.75
509.887	522.75
510.103	545.75
510.319	558.75
510.536	580.75
510.752	791.75
510.968	643.75
511.184	529.75
511.401	500.75
511.617	492.75
511.833	516.75
512.049	489.75
512.265	520.75
512.481	504.75
512.698	481.75
512.914	508.75
513.13	512.75
513.346	520.75
513.562	488.75
513.778	488.75
513.994	492.75
514.21	504.75
514.426	534.75
514.642	526.75
514.858	536.75
515.074	560.75
515.29	647.75
515.506	803.75
515.721	701.75
515.937	568.75
516.153	562.75
516.369	526.75
516.585	525.75
516.801	535.75
517.016	523.75
517.232	526.75
517.448	539.75
517.664	545.75
517.879	542.75
518.095	540.75
518.311	526.75
518.527	520.75
518.742	512.75
518.958	523.75
519.173	519.75
519.389	503.75
519.605	513.75
519.82	487.75
520.036	509.75
520.251	523.75
520.467	529.75
520.682	524.75
520.898	532.75
521.113	532.75
521.329	543.75
521.544	588.75
521.76	673.75
521.975	965.75
522.19	946.75
522.406	605.75
522.621	518.75
522.836	504.75
523.052	470.75
523.267	462.75
523.482	472.75
523.698	453.75
523.913	449.75
524.128	441.75
524.343	447.75
524.559	428.75
524.774	425.75
524.989	436.75
525.204	434.75
525.419	443.75
525.634	432.75
525.849	426.75
526.064	407.75
526.28	405.75
526.495	429.75
526.71	428.75
526.925	413.75
527.14	422.75
527.355	424.75
527.57	432.75
527.785	410.75
527.999	427.75
528.214	441.75
528.429	404.75
528.644	429.75
528.859	425.75
529.074	423.75
529.289	430.75
529.503	469.75
529.718	472.75
529.933	434.75
530.148	423.75
530.363	429.75
530.577	409.75
530.792	408.75
531.007	405.75
531.221	424.75
531.436	406.75
531.651	401.75
531.865	392.75
532.08	400.75
532.295	402.75
532.509	394.75
532.724	398.75
532.938	407.75
533.153	385.75
533.367	396.75
533.582	401.75
533.796	395.75
534.011	414.75
534.225	399.75
534.44	427.75
534.654	405.75
534.868	383.75
535.083	411.75
535.297	408.75
535.511	405.75
535.726	417.75
535.94	394.75
536.154	385.75
536.369	403.75
536.583	384.75
536.797	384.75
537.011	392.75
537.225	395.75
537.44	395.75
537.654	391.75
537.868	409.75
538.082	398.75
538.296	371.75
538.51	395.75
538.724	396.75
538.938	388.75
539.153	396.75
539.367	405.75
539.581	392.75
539.795	372.75
540.009	376.75
540.222	388.75
540.436	366.75
540.65	379.75
540.864	384.75
541.078	381.75
541.292	394.75
541.506	381.75
541.72	390.75
541.934	401.75
542.147	398.75
542.361	395.75
542.575	379.75
542.789	380.75
543.002	382.75
543.216	390.75
543.43	400.75
543.644	382.75
543.857	374.75
544.071	396.75
544.285	388.75
544.498	397.75
544.712	380.75
544.925	380.75
545.139	361.75
545.352	378.75
545.566	396.75
545.779	380.75
545.993	388.75
546.206	369.75
546.42	381.75
546.633	381.75
546.847	372.75
547.06	361.75
547.274	383.75
547.487	374.75
547.7	361.75
547.914	382.75
548.127	372.75
548.34	384.75
548.554	385.75
548.767	379.75
548.98	397.75
549.193	386.75
549.407	377.75
549.62	388.75
549.833	382.75
550.046	362.75
550.259	348.75
550.473	365.75
550.686	398.75
550.899	358.75
551.112	382.75
551.325	386.75
551.538	359.75
551.751	368.75
551.964	385.75
552.177	372.75
552.39	377.75
552.603	385.75
552.816	359.75
553.029	384.75
553.242	366.75
553.455	385.75
553.667	372.75
553.88	382.75
554.093	405.75
554.306	392.75
554.519	372.75
554.732	388.75
554.944	387.75
555.157	351.75
555.37	372.75
555.583	356.75
555.795	356.75
556.008	363.75
556.221	355.75
556.433	338.75
556.646	341.75
556.859	329.75
557.071	352.75
557.284	332.75
557.496	320.75
557.709	331.75
557.921	338.75
558.134	334.75
558.346	328.75
558.559	343.75
558.771	328.75
558.984	344.75
559.196	333.75
559.409	321.75
559.621	342.75
559.833	314.75
560.046	337.75
560.258	334.75
560.47	329.75
560.683	326.75
560.895	327.75
561.107	362.75
561.32	320.75
561.532	314.75
561.744	331.75
561.956	327.75
562.168	316.75
562.381	337.75
562.593	332.75
562.805	342.75
563.017	330.75
563.229	338.75
563.441	326.75
563.653	333.75
563.865	334.75
564.077	327.75
564.289	332.75
564.501	351.75
564.713	373.75
564.925	352.75
565.137	358.75
565.349	368.75
565.561	361.75
565.773	386.75
565.985	366.75
566.197	365.75
566.408	405.75
566.62	414.75
566.832	417.75
567.044	406.75
567.255	423.75
567.467	404.75
567.679	445.75
567.891	441.75
568.102	461.75
568.314	447.75
568.526	427.75
568.737	395.75
568.949	391.75
569.161	365.75
569.372	363.75
569.584	356.75
569.795	352.75
570.007	344.75
570.218	354.75
570.43	363.75
570.641	328.75
570.853	331.75
571.064	326.75
571.276	330.75
571.487	348.75
571.698	320.75
571.91	312.75
572.121	314.75
572.333	313.75
572.544	307.75
572.755	303.75
572.966	298.75
573.178	295.75
573.389	299.75
573.6	300.75
573.811	308.75
574.023	303.75
574.234	285.75
574.445	303.75
574.656	292.75
574.867	289.75
575.078	292.75
575.289	297.75
575.501	301.75
575.712	274.75
575.923	288.75
576.134	288.75
576.345	285.75
576.556	274.75
576.767	292.75
576.978	281.75
577.188	280.75
577.399	284.75
577.61	284.75
577.821	283.75
578.032	286.75
578.243	295.75
578.454	375.75
578.665	332.75
578.875	290.75
579.086	274.75
579.297	269.75
579.508	257.75
579.718	269.75
579.929	271.75
580.14	261.75
580.35	264.75
580.561	268.75
580.772	275.75
580.982	263.75
581.193	269.75
581.403	263.75
581.614	259.75
581.825	278.75
582.035	291.75
582.246	249.75
582.456	264.75
582.667	253.75
582.877	259.75
583.087	260.75
583.298	263.75
583.508	274.75
583.719	238.75
583.929	252.75
584.139	266.75
584.35	248.75
584.56	270.75
584.77	246.75
584.981	249.75
585.191	258.75
585.401	265.75
585.611	253.75
585.821	265.75
586.032	266.75
586.242	265.75
586.452	257.75
586.662	260.75
586.872	264.75
587.082	264.75
587.292	258.75
587.502	256.75
587.713	272.75
587.923	248.75
588.133	256.75
588.343	244.75
588.553	245.75
588.762	245.75
588.972	256.75
589.182	265.75
589.392	261.75
589.602	251.75
589.812	251.75
590.022	249.75
590.232	257.75
590.441	265.75
590.651	246.75
590.861	248.75
591.071	264.75
591.281	235.75
591.49	253.75
591.7	254.75
591.91	257.75
592.119	249.75
592.329	261.75
592.539	253.75
592.748	281.75
592.958	274.75
593.167	279.75
593.377	282.75
593.587	286.75
593.796	284.75
594.006	270.75
594.215	272.75
594.424	281.75
594.634	273.75
594.843	268.75
595.053	263.75
595.262	254.75
595.472	260.75
595.681	270.75
595.89	246.75
596.1	257.75
596.309	256.75
596.518	265.75
596.727	228.75
596.937	232.75
597.146	234.75
597.355	234.75
597.564	238.75
597.774	240.75
597.983	246.75
598.192	229.75
598.401	228.75
598.61	233.75
598.819	245.75
599.028	230.75
599.237	225.75
599.446	216.75
599.655	217.75
599.864	237.75
600.073	232.75
600.282	222.75
600.491	228.75
600.7	225.75
600.909	217.75
601.118	216.75
601.327	237.75
601.536	212.75
601.745	239.75
601.953	227.75
602.162	204.75
602.371	216.75
602.58	219.75
602.789	214.75
602.997	243.75
603.206	216.75
603.415	232.75
603.623	226.75
603.832	231.75
604.041	230.75
604.249	223.75
604.458	217.75
604.666	212.75
604.875	208.75
605.084	215.75
605.292	212.75
605.501	217.75
605.709	224.75
605.918	192.75
606.126	220.75
606.334	200.75
606.543	211.75
606.751	217.75
606.96	219.75
607.168	214.75
607.376	206.75
607.585	193.75
607.793	218.75
608.001	210.75
608.21	224.75
608.418	210.75
608.626	205.75
608.834	206.75
609.043	210.75
609.251	223.75
609.459	208.75
609.667	205.75
609.875	207.75
610.083	212.75
610.291	215.75
610.499	206.75
610.707	231.75
610.916	228.75
611.124	232.75
611.332	216.75
611.54	196.75
611.748	216.75
611.955	208.75
612.163	197.75
612.371	211.75
612.579	219.75
612.787	224.75
612.995	209.75
613.203	213.75
613.411	206.75
613.618	194.75
613.826	196.75
614.034	209.75
614.242	199.75
614.449	213.75
614.657	207.75
614.865	204.75
615.072	209.75
615.28	197.75
615.488	206.75
615.695	210.75
615.903	205.75
616.111	206.75
616.318	210.75
616.526	197.75
616.733	210.75
616.941	212.75
617.148	202.75
617.356	198.75
617.563	208.75
617.771	219.75
617.978	202.75
618.185	212.75
618.393	200.75
618.6	201.75
618.807	197.75
619.015	202.75
619.222	201.75
619.429	197.75
619.637	206.75
619.844	204.75
620.051	206.75
620.258	215.75
620.466	193.75
620.673	204.75
620.88	186.75
621.087	204.75
621.294	179.75
621.501	193.75
621.708	197.75
621.915	181.75
622.122	204.75
622.329	198.75
622.536	198.75
622.743	212.75
622.95	202.75
623.157	191.75
623.364	193.75
623.571	201.75
623.778	180.75
623.985	197.75
624.192	201.75
624.399	188.75
624.606	210.75
624.812	167.75
625.019	174.75
625.226	181.75
625.433	193.75
625.639	184.75
625.846	180.75
626.053	189.75
626.259	189.75
626.466	177.75
626.673	191.75
626.879	166.75
627.086	210.75
627.293	190.75
627.499	199.75
627.706	188.75
627.912	186.75
628.119	177.75
628.325	190.75
628.532	194.75
628.738	167.75
628.945	180.75
629.151	171.75
629.357	175.75
629.564	174.75
629.77	178.75
629.976	170.75
630.183	162.75
630.389	183.75
630.595	176.75
630.802	177.75
631.008	190.75
631.214	172.75
631.42	178.75
631.627	167.75
631.833	184.75
632.039	182.75
632.245	173.75
632.451	161.75
632.657	172.75
632.863	184.75
633.069	157.75
633.275	157.75
633.481	167.75
633.688	170.75
633.893	165.75
634.099	167.75
634.305	156.75
634.511	182.75
634.717	162.75
634.923	162.75
635.129	172.75
635.335	171.75
635.541	175.75
635.747	156.75
635.952	168.75
636.158	161.75
636.364	149.75
636.57	154.75
636.775	169.75
636.981	156.75
637.187	167.75
637.392	155.75
637.598	157.75
637.804	165.75
638.009	180.75
638.215	164.75
638.421	155.75
638.626	168.75
638.832	154.75
639.037	169.75
639.243	145.75
639.448	162.75
639.654	162.75
639.859	143.75
640.065	164.75
640.27	160.75
640.475	168.75
640.681	170.75
640.886	163.75
641.091	160.75
641.297	161.75
641.502	174.75
641.707	152.75
641.913	152.75
642.118	162.75
642.323	140.75
642.528	150.75
642.733	152.75
642.939	152.75
643.144	149.75
643.349	142.75
643.554	153.75
643.759	174.75
643.964	152.75
644.169	144.75
644.374	157.75
644.579	154.75
644.784	144.75
644.989	148.75
645.194	160.75
645.399	153.75
645.604	158.75
645.809	159.75
646.014	151.75
646.219	148.75
646.423	161.75
646.628	150.75
646.833	147.75
647.038	156.75
647.243	158.75
647.447	158.75
647.652	138.75
647.857	143.75
648.062	160.75
648.266	152.75
648.471	155.75
648.676	164.75
648.88	158.75
649.085	164.75
649.289	143.75
649.494	158.75
649.698	193.75
649.903	180.75
650.107	151.75
650.312	149.75
650.516	149.75
650.721	155.75
650.925	141.75
651.13	143.75
651.334	150.75
651.539	156.75
651.743	145.75
651.947	147.75
652.152	150.75
652.356	132.75
652.56	130.75
652.764	131.75
652.969	120.75
653.173	128.75
653.377	137.75
653.581	125.75
653.785	130.75
653.99	147.75
654.194	130.75
654.398	132.75
654.602	144.75
654.806	126.75
655.01	123.75
655.214	148.75
655.418	145.75
655.622	127.75
655.826	137.75
656.03	145.75
656.234	137.75
656.438	141.75
656.642	132.75
656.846	114.75
657.049	120.75
657.253	113.75
657.457	116.75
657.661	140.75
657.865	122.75
658.068	128.75
658.272	111.75
658.476	98.75
658.68	119.75
658.883	106.75
659.087	113.75
659.291	101.75
659.494	111.75
659.698	97.75
659.901	106.75
660.105	95.75
660.309	89.75
660.512	85.75
660.716	104.75
660.919	97.75
661.123	95.75
661.326	95.75
661.53	97.75
661.733	94.75
661.936	89.75
662.14	82.75
662.343	82.75
662.546	79.75
662.75	95.75
662.953	105.75
663.156	86.75
663.36	88.75
663.563	94.75
663.766	95.75
663.969	91.75
664.173	98.75
664.376	83.75
664.579	72.75
664.782	87.75
664.985	82.75
665.188	89.75
665.391	90.75
665.594	86.75
665.797	96.75
666	90.75
666.203	90.75
666.406	101.75
666.609	83.75
666.812	96.75
667.015	82.75
667.218	92.75
667.421	88.75
667.624	78.75
667.827	92.75
668.03	84.75
668.232	78.75
668.435	93.75
668.638	90.75
668.841	88.75
669.043	79.75
669.246	88.75
669.449	91.75
669.651	88.75
669.854	97.75
670.057	73.75
670.259	77.75
670.462	73.75
670.665	94.75
670.867	91.75
671.07	101.75
671.272	90.75
671.475	90.75
671.677	98.75
671.88	95.75
672.082	88.75
672.284	96.75
672.487	82.75
672.689	80.75
672.892	79.75
