Data from 1964.PennyLincolnUp.Lamp.En5.5.200Scan.071719.P1._HRD10591_14-05-27-909.txt Node
Date: Thu Jul 18 14:05:27 EDT 2019
User: cochatt
Spectrometer: HR+D1059
Trigger mode: 1
Integration Time (sec): 1.000000E-1
Scans to average: 1
Electric dark correction enabled: true
Nonlinearity correction enabled: false
Boxcar width: 0
XAxis mode: Wavelengths
Number of Pixels in Spectrum: 2048
>>>>>Begin Spectral Data<<<<<
223.165	-18.31
223.4	-18.31
223.635	-18.31
223.869	-17.31
224.104	-25.31
224.338	-17.31
224.573	-9.31
224.808	-12.31
225.042	-15.31
225.277	-5.31
225.511	-4.31
225.746	4.69
225.98	9.69
226.215	11.69
226.449	16.69
226.683	22.69
226.918	24.69
227.152	34.69
227.387	42.69
227.621	32.69
227.856	48.69
228.09	52.69
228.324	58.69
228.559	56.69
228.793	80.69
229.027	88.69
229.262	102.69
229.496	101.69
229.73	124.69
229.964	134.69
230.199	118.69
230.433	102.69
230.667	102.69
230.901	108.69
231.136	112.69
231.37	117.69
231.604	100.69
231.838	102.69
232.072	109.69
232.306	103.69
232.541	107.69
232.775	106.69
233.009	108.69
233.243	106.69
233.477	107.69
233.711	119.69
233.945	119.69
234.179	106.69
234.413	116.69
234.647	125.69
234.881	110.69
235.115	107.69
235.349	125.69
235.583	128.69
235.817	127.69
236.051	116.69
236.285	110.69
236.519	119.69
236.753	112.69
236.987	134.69
237.221	165.69
237.455	191.69
237.689	160.69
237.922	138.69
238.156	130.69
238.39	129.69
238.624	118.69
238.858	142.69
239.091	127.69
239.325	105.69
239.559	105.69
239.793	118.69
240.027	116.69
240.26	139.69
240.494	161.69
240.728	144.69
240.961	136.69
241.195	131.69
241.429	124.69
241.662	126.69
241.896	128.69
242.13	137.69
242.363	130.69
242.597	120.69
242.83	136.69
243.064	133.69
243.298	144.69
243.531	143.69
243.765	140.69
243.998	129.69
244.232	144.69
244.465	150.69
244.699	135.69
244.932	143.69
245.166	169.69
245.399	148.69
245.633	142.69
245.866	149.69
246.099	136.69
246.333	160.69
246.566	143.69
246.8	162.69
247.033	153.69
247.266	156.69
247.5	165.69
247.733	170.69
247.966	165.69
248.2	162.69
248.433	160.69
248.666	162.69
248.899	162.69
249.133	177.69
249.366	194.69
249.599	201.69
249.832	194.69
250.066	193.69
250.299	180.69
250.532	188.69
250.765	186.69
250.998	213.69
251.231	220.69
251.465	208.69
251.698	196.69
251.931	198.69
252.164	190.69
252.397	199.69
252.63	192.69
252.863	205.69
253.096	223.69
253.329	219.69
253.562	213.69
253.795	216.69
254.028	210.69
254.261	212.69
254.494	229.69
254.727	231.69
254.96	266.69
255.193	271.69
255.426	228.69
255.659	221.69
255.892	223.69
256.124	238.69
256.357	219.69
256.59	232.69
256.823	238.69
257.056	222.69
257.289	212.69
257.521	218.69
257.754	205.69
257.987	216.69
258.22	212.69
258.452	203.69
258.685	207.69
258.918	218.69
259.151	222.69
259.383	222.69
259.616	215.69
259.849	233.69
260.081	227.69
260.314	244.69
260.547	242.69
260.779	238.69
261.012	219.69
261.244	225.69
261.477	216.69
261.71	219.69
261.942	231.69
262.175	261.69
262.407	232.69
262.64	220.69
262.872	226.69
263.105	226.69
263.337	234.69
263.57	229.69
263.802	215.69
264.035	215.69
264.267	223.69
264.499	211.69
264.732	222.69
264.964	210.69
265.197	236.69
265.429	235.69
265.661	224.69
265.894	229.69
266.126	232.69
266.358	227.69
266.591	242.69
266.823	226.69
267.055	226.69
267.287	248.69
267.52	246.69
267.752	246.69
267.984	241.69
268.216	241.69
268.448	238.69
268.681	236.69
268.913	247.69
269.145	289.69
269.377	271.69
269.609	286.69
269.841	261.69
270.073	269.69
270.306	295.69
270.538	302.69
270.77	326.69
271.002	292.69
271.234	312.69
271.466	294.69
271.698	309.69
271.93	327.69
272.162	291.69
272.394	302.69
272.626	304.69
272.858	286.69
273.09	297.69
273.322	296.69
273.553	275.69
273.785	278.69
274.017	266.69
274.249	274.69
274.481	280.69
274.713	267.69
274.945	291.69
275.176	279.69
275.408	282.69
275.64	267.69
275.872	275.69
276.104	270.69
276.335	274.69
276.567	283.69
276.799	293.69
277.031	304.69
277.262	315.69
277.494	309.69
277.726	315.69
277.957	286.69
278.189	318.69
278.421	277.69
278.652	283.69
278.884	290.69
279.115	285.69
279.347	291.69
279.579	282.69
279.81	282.69
280.042	297.69
280.273	286.69
280.505	294.69
280.736	281.69
280.968	295.69
281.199	293.69
281.431	281.69
281.662	288.69
281.894	292.69
282.125	288.69
282.356	287.69
282.588	302.69
282.819	330.69
283.051	288.69
283.282	306.69
283.513	292.69
283.745	300.69
283.976	300.69
284.207	298.69
284.439	300.69
284.67	299.69
284.901	299.69
285.132	299.69
285.364	293.69
285.595	303.69
285.826	294.69
286.057	315.69
286.288	290.69
286.52	302.69
286.751	296.69
286.982	329.69
287.213	314.69
287.444	311.69
287.675	327.69
287.906	329.69
288.138	319.69
288.369	333.69
288.6	322.69
288.831	312.69
289.062	315.69
289.293	324.69
289.524	308.69
289.755	307.69
289.986	316.69
290.217	309.69
290.448	324.69
290.679	325.69
290.91	326.69
291.141	326.69
291.371	303.69
291.602	327.69
291.833	329.69
292.064	330.69
292.295	326.69
292.526	332.69
292.757	318.69
292.987	315.69
293.218	307.69
293.449	308.69
293.68	310.69
293.91	306.69
294.141	322.69
294.372	334.69
294.603	312.69
294.833	323.69
295.064	322.69
295.295	324.69
295.525	327.69
295.756	312.69
295.987	318.69
296.217	346.69
296.448	349.69
296.679	332.69
296.909	331.69
297.14	333.69
297.37	343.69
297.601	319.69
297.831	335.69
298.062	323.69
298.292	332.69
298.523	336.69
298.753	347.69
298.984	343.69
299.214	330.69
299.445	340.69
299.675	340.69
299.905	365.69
300.136	332.69
300.366	336.69
300.597	335.69
300.827	345.69
301.057	355.69
301.288	354.69
301.518	334.69
301.748	354.69
301.979	357.69
302.209	354.69
302.439	365.69
302.669	370.69
302.9	374.69
303.13	342.69
303.36	355.69
303.59	362.69
303.82	362.69
304.051	362.69
304.281	335.69
304.511	364.69
304.741	355.69
304.971	365.69
305.201	361.69
305.431	358.69
305.661	345.69
305.891	352.69
306.121	355.69
306.352	378.69
306.582	340.69
306.812	342.69
307.042	348.69
307.272	375.69
307.502	363.69
307.731	363.69
307.961	361.69
308.191	333.69
308.421	352.69
308.651	370.69
308.881	374.69
309.111	381.69
309.341	363.69
309.571	374.69
309.8	378.69
310.03	380.69
310.26	387.69
310.49	402.69
310.72	392.69
310.949	396.69
311.179	409.69
311.409	391.69
311.639	386.69
311.868	398.69
312.098	400.69
312.328	390.69
312.557	402.69
312.787	409.69
313.017	413.69
313.246	391.69
313.476	386.69
313.706	386.69
313.935	415.69
314.165	407.69
314.394	416.69
314.624	418.69
314.853	419.69
315.083	383.69
315.312	382.69
315.542	387.69
315.771	408.69
316.001	394.69
316.23	404.69
316.46	403.69
316.689	421.69
316.919	422.69
317.148	389.69
317.377	410.69
317.607	399.69
317.836	416.69
318.065	380.69
318.295	396.69
318.524	400.69
318.753	401.69
318.983	394.69
319.212	404.69
319.441	410.69
319.67	405.69
319.9	411.69
320.129	414.69
320.358	401.69
320.587	404.69
320.816	399.69
321.046	432.69
321.275	420.69
321.504	403.69
321.733	412.69
321.962	416.69
322.191	413.69
322.42	423.69
322.649	440.69
322.878	458.69
323.108	430.69
323.337	469.69
323.566	484.69
323.795	470.69
324.024	522.69
324.253	603.69
324.482	801.69
324.71	1162.69
324.939	1625.69
325.168	1322.69
325.397	739.69
325.626	565.69
325.855	479.69
326.084	498.69
326.313	457.69
326.542	480.69
326.77	517.69
326.999	580.69
327.228	720.69
327.457	1069.69
327.686	1175.69
327.914	831.69
328.143	597.69
328.372	551.69
328.6	547.69
328.829	518.69
329.058	526.69
329.287	520.69
329.515	533.69
329.744	475.69
329.972	501.69
330.201	506.69
330.43	529.69
330.658	543.69
330.887	548.69
331.115	546.69
331.344	490.69
331.572	486.69
331.801	486.69
332.03	479.69
332.258	470.69
332.486	471.69
332.715	471.69
332.943	472.69
333.172	482.69
333.4	500.69
333.629	489.69
333.857	514.69
334.085	496.69
334.314	514.69
334.542	540.69
334.771	546.69
334.999	509.69
335.227	502.69
335.455	498.69
335.684	470.69
335.912	471.69
336.14	474.69
336.369	455.69
336.597	495.69
336.825	473.69
337.053	462.69
337.281	476.69
337.51	472.69
337.738	474.69
337.966	465.69
338.194	453.69
338.422	451.69
338.65	458.69
338.878	468.69
339.106	454.69
339.334	439.69
339.562	438.69
339.79	447.69
340.018	442.69
340.246	464.69
340.474	465.69
340.702	442.69
340.93	458.69
341.158	455.69
341.386	442.69
341.614	445.69
341.842	437.69
342.07	441.69
342.298	416.69
342.526	446.69
342.754	443.69
342.981	455.69
343.209	444.69
343.437	451.69
343.665	454.69
343.893	476.69
344.12	454.69
344.348	470.69
344.576	454.69
344.804	477.69
345.031	463.69
345.259	460.69
345.487	445.69
345.714	446.69
345.942	444.69
346.17	426.69
346.397	423.69
346.625	444.69
346.853	417.69
347.08	434.69
347.308	422.69
347.535	414.69
347.763	440.69
347.99	427.69
348.218	418.69
348.445	448.69
348.673	423.69
348.9	430.69
349.128	408.69
349.355	409.69
349.583	414.69
349.81	396.69
350.037	418.69
350.265	400.69
350.492	406.69
350.72	407.69
350.947	414.69
351.174	410.69
351.402	406.69
351.629	394.69
351.856	406.69
352.083	419.69
352.311	420.69
352.538	436.69
352.765	425.69
352.992	395.69
353.22	407.69
353.447	406.69
353.674	406.69
353.901	376.69
354.128	395.69
354.355	399.69
354.583	386.69
354.81	398.69
355.037	390.69
355.264	412.69
355.491	391.69
355.718	396.69
355.945	393.69
356.172	404.69
356.399	404.69
356.626	397.69
356.853	390.69
357.08	380.69
357.307	393.69
357.534	400.69
357.761	395.69
357.988	395.69
358.215	380.69
358.441	395.69
358.668	385.69
358.895	415.69
359.122	407.69
359.349	387.69
359.576	422.69
359.802	400.69
360.029	444.69
360.256	436.69
360.483	438.69
360.709	389.69
360.936	420.69
361.163	407.69
361.39	413.69
361.616	410.69
361.843	418.69
362.07	409.69
362.296	399.69
362.523	390.69
362.749	398.69
362.976	406.69
363.203	424.69
363.429	399.69
363.656	406.69
363.882	402.69
364.109	401.69
364.335	400.69
364.562	383.69
364.788	391.69
365.015	391.69
365.241	400.69
365.468	382.69
365.694	396.69
365.92	405.69
366.147	400.69
366.373	391.69
366.599	389.69
366.826	393.69
367.052	392.69
367.278	382.69
367.505	394.69
367.731	397.69
367.957	406.69
368.184	382.69
368.41	387.69
368.636	410.69
368.862	400.69
369.089	378.69
369.315	390.69
369.541	399.69
369.767	376.69
369.993	391.69
370.219	407.69
370.445	394.69
370.672	392.69
370.898	396.69
371.124	401.69
371.35	394.69
371.576	401.69
371.802	384.69
372.028	395.69
372.254	393.69
372.48	392.69
372.706	398.69
372.932	400.69
373.158	396.69
373.384	386.69
373.61	400.69
373.835	403.69
374.061	394.69
374.287	407.69
374.513	405.69
374.739	398.69
374.965	427.69
375.191	399.69
375.416	400.69
375.642	410.69
375.868	422.69
376.094	391.69
376.319	407.69
376.545	391.69
376.771	391.69
376.997	387.69
377.222	376.69
377.448	385.69
377.674	392.69
377.899	396.69
378.125	402.69
378.35	388.69
378.576	391.69
378.802	407.69
379.027	387.69
379.253	394.69
379.478	392.69
379.704	386.69
379.929	401.69
380.155	389.69
380.38	386.69
380.606	384.69
380.831	384.69
381.057	391.69
381.282	389.69
381.507	391.69
381.733	405.69
381.958	368.69
382.184	386.69
382.409	392.69
382.634	394.69
382.86	411.69
383.085	406.69
383.31	406.69
383.535	386.69
383.761	404.69
383.986	411.69
384.211	392.69
384.436	417.69
384.662	417.69
384.887	411.69
385.112	414.69
385.337	418.69
385.562	427.69
385.787	427.69
386.013	453.69
386.238	415.69
386.463	420.69
386.688	453.69
386.913	434.69
387.138	430.69
387.363	415.69
387.588	437.69
387.813	429.69
388.038	439.69
388.263	424.69
388.488	426.69
388.713	433.69
388.938	436.69
389.163	424.69
389.387	416.69
389.612	425.69
389.837	431.69
390.062	427.69
390.287	439.69
390.512	425.69
390.736	418.69
390.961	430.69
391.186	439.69
391.411	423.69
391.636	413.69
391.86	452.69
392.085	451.69
392.31	421.69
392.534	426.69
392.759	443.69
392.984	440.69
393.208	456.69
393.433	434.69
393.658	438.69
393.882	418.69
394.107	408.69
394.331	431.69
394.556	418.69
394.78	435.69
395.005	454.69
395.229	430.69
395.454	439.69
395.678	434.69
395.903	446.69
396.127	446.69
396.352	455.69
396.576	429.69
396.801	429.69
397.025	435.69
397.249	447.69
397.474	458.69
397.698	458.69
397.922	460.69
398.147	467.69
398.371	480.69
398.595	476.69
398.82	480.69
399.044	494.69
399.268	505.69
399.492	554.69
399.717	578.69
399.941	594.69
400.165	588.69
400.389	595.69
400.613	559.69
400.837	514.69
401.062	504.69
401.286	486.69
401.51	487.69
401.734	479.69
401.958	500.69
402.182	486.69
402.406	494.69
402.63	492.69
402.854	500.69
403.078	500.69
403.302	487.69
403.526	494.69
403.75	484.69
403.974	489.69
404.198	495.69
404.422	466.69
404.645	498.69
404.869	510.69
405.093	524.69
405.317	560.69
405.541	597.69
405.765	545.69
405.988	512.69
406.212	519.69
406.436	530.69
406.66	543.69
406.883	514.69
407.107	551.69
407.331	576.69
407.555	630.69
407.778	630.69
408.002	595.69
408.226	546.69
408.449	562.69
408.673	542.69
408.896	524.69
409.12	581.69
409.344	560.69
409.567	520.69
409.791	502.69
410.014	502.69
410.238	490.69
410.461	508.69
410.685	499.69
410.908	518.69
411.132	519.69
411.355	552.69
411.578	537.69
411.802	496.69
412.025	486.69
412.249	496.69
412.472	510.69
412.695	530.69
412.919	517.69
413.142	499.69
413.365	471.69
413.589	491.69
413.812	479.69
414.035	462.69
414.258	465.69
414.482	466.69
414.705	462.69
414.928	471.69
415.151	463.69
415.374	454.69
415.597	462.69
415.821	444.69
416.044	462.69
416.267	462.69
416.49	444.69
416.713	452.69
416.936	441.69
417.159	471.69
417.382	460.69
417.605	460.69
417.828	454.69
418.051	483.69
418.274	485.69
418.497	446.69
418.72	468.69
418.943	472.69
419.166	482.69
419.389	477.69
419.611	495.69
419.834	502.69
420.057	486.69
420.28	493.69
420.503	462.69
420.726	472.69
420.948	490.69
421.171	516.69
421.394	526.69
421.617	506.69
421.839	483.69
422.062	486.69
422.285	476.69
422.507	524.69
422.73	582.69
422.953	565.69
423.175	503.69
423.398	508.69
423.621	480.69
423.843	503.69
424.066	495.69
424.288	504.69
424.511	519.69
424.733	543.69
424.956	619.69
425.178	588.69
425.401	579.69
425.623	591.69
425.846	522.69
426.068	498.69
426.291	498.69
426.513	481.69
426.735	494.69
426.958	542.69
427.18	576.69
427.402	663.69
427.625	722.69
427.847	632.69
428.069	571.69
428.292	532.69
428.514	476.69
428.736	464.69
428.958	478.69
429.181	444.69
429.403	438.69
429.625	474.69
429.847	481.69
430.069	503.69
430.292	523.69
430.514	450.69
430.736	435.69
430.958	438.69
431.18	428.69
431.402	426.69
431.624	427.69
431.846	436.69
432.068	429.69
432.29	427.69
432.512	449.69
432.734	443.69
432.956	436.69
433.178	461.69
433.4	452.69
433.622	428.69
433.844	442.69
434.066	450.69
434.287	420.69
434.509	446.69
434.731	482.69
434.953	438.69
435.175	448.69
435.397	475.69
435.618	481.69
435.84	496.69
436.062	587.69
436.284	630.69
436.505	532.69
436.727	478.69
436.949	484.69
437.17	454.69
437.392	467.69
437.614	434.69
437.835	470.69
438.057	535.69
438.278	632.69
438.5	620.69
438.721	647.69
438.943	644.69
439.165	535.69
439.386	484.69
439.608	487.69
439.829	491.69
440.05	498.69
440.272	532.69
440.493	483.69
440.715	479.69
440.936	464.69
441.158	456.69
441.379	454.69
441.6	459.69
441.822	492.69
442.043	514.69
442.264	556.69
442.486	598.69
442.707	518.69
442.928	508.69
443.149	490.69
443.371	511.69
443.592	540.69
443.813	619.69
444.034	636.69
444.255	524.69
444.476	516.69
444.698	512.69
444.919	495.69
445.14	576.69
445.361	520.69
445.582	524.69
445.803	555.69
446.024	601.69
446.245	619.69
446.466	567.69
446.687	500.69
446.908	487.69
447.129	465.69
447.35	436.69
447.571	434.69
447.792	434.69
448.013	461.69
448.234	452.69
448.455	483.69
448.675	572.69
448.896	650.69
449.117	561.69
449.338	529.69
449.559	624.69
449.779	657.69
450	546.69
450.221	460.69
450.442	452.69
450.662	432.69
450.883	430.69
451.104	440.69
451.324	434.69
451.545	426.69
451.766	407.69
451.986	423.69
452.207	385.69
452.428	389.69
452.648	417.69
452.869	386.69
453.089	405.69
453.31	391.69
453.53	407.69
453.751	396.69
453.971	378.69
454.192	386.69
454.412	395.69
454.633	391.69
454.853	358.69
455.073	392.69
455.294	422.69
455.514	467.69
455.734	447.69
455.955	386.69
456.175	396.69
456.395	389.69
456.616	379.69
456.836	375.69
457.056	382.69
457.276	365.69
457.497	383.69
457.717	380.69
457.937	387.69
458.157	397.69
458.377	394.69
458.598	412.69
458.818	434.69
459.038	475.69
459.258	503.69
459.478	448.69
459.698	420.69
459.918	438.69
460.138	429.69
460.358	423.69
460.578	458.69
460.798	460.69
461.018	446.69
461.238	443.69
461.458	439.69
461.678	431.69
461.898	449.69
462.118	442.69
462.338	461.69
462.558	468.69
462.777	480.69
462.997	485.69
463.217	518.69
463.437	501.69
463.657	489.69
463.876	482.69
464.096	493.69
464.316	480.69
464.536	470.69
464.755	462.69
464.975	491.69
465.195	483.69
465.414	512.69
465.634	470.69
465.854	450.69
466.073	418.69
466.293	429.69
466.512	419.69
466.732	404.69
466.951	412.69
467.171	414.69
467.391	425.69
467.61	420.69
467.829	412.69
468.049	413.69
468.268	412.69
468.488	414.69
468.707	407.69
468.927	412.69
469.146	390.69
469.365	401.69
469.585	420.69
469.804	408.69
470.023	428.69
470.243	421.69
470.462	427.69
470.681	430.69
470.901	414.69
471.12	420.69
471.339	402.69
471.558	416.69
471.777	416.69
471.997	391.69
472.216	408.69
472.435	434.69
472.654	424.69
472.873	409.69
473.092	422.69
473.311	416.69
473.53	417.69
473.749	419.69
473.968	475.69
474.187	522.69
474.406	526.69
474.625	446.69
474.844	421.69
475.063	413.69
475.282	407.69
475.501	435.69
475.72	430.69
475.939	438.69
476.158	417.69
476.377	430.69
476.596	422.69
476.814	415.69
477.033	447.69
477.252	422.69
477.471	444.69
477.69	432.69
477.908	451.69
478.127	481.69
478.346	475.69
478.564	478.69
478.783	473.69
479.002	483.69
479.22	454.69
479.439	486.69
479.658	486.69
479.876	498.69
480.095	502.69
480.313	527.69
480.532	488.69
480.751	511.69
480.969	510.69
481.188	551.69
481.406	530.69
481.624	514.69
481.843	508.69
482.061	469.69
482.28	493.69
482.498	472.69
482.717	470.69
482.935	469.69
483.153	474.69
483.372	467.69
483.59	469.69
483.808	482.69
484.027	498.69
484.245	489.69
484.463	461.69
484.681	487.69
484.9	473.69
485.118	497.69
485.336	482.69
485.554	487.69
485.772	476.69
485.99	484.69
486.209	486.69
486.427	492.69
486.645	517.69
486.863	508.69
487.081	516.69
487.299	510.69
487.517	531.69
487.735	502.69
487.953	499.69
488.171	480.69
488.389	522.69
488.607	493.69
488.825	512.69
489.043	510.69
489.261	499.69
489.479	484.69
489.696	524.69
489.914	483.69
490.132	515.69
490.35	505.69
490.568	521.69
490.786	494.69
491.003	526.69
491.221	537.69
491.439	526.69
491.657	550.69
491.874	549.69
492.092	578.69
492.31	564.69
492.527	572.69
492.745	575.69
492.963	571.69
493.18	556.69
493.398	568.69
493.615	575.69
493.833	573.69
494.05	584.69
494.268	583.69
494.485	565.69
494.703	576.69
494.92	578.69
495.138	578.69
495.355	567.69
495.573	569.69
495.79	572.69
496.008	595.69
496.225	605.69
496.442	586.69
496.66	585.69
496.877	582.69
497.094	582.69
497.312	592.69
497.529	621.69
497.746	610.69
497.963	621.69
498.181	626.69
498.398	654.69
498.615	670.69
498.832	684.69
499.049	679.69
499.267	721.69
499.484	731.69
499.701	795.69
499.918	807.69
500.135	861.69
500.352	893.69
500.569	907.69
500.786	876.69
501.003	894.69
501.22	855.69
501.437	816.69
501.654	797.69
501.871	776.69
502.088	715.69
502.305	706.69
502.522	660.69
502.739	677.69
502.956	647.69
503.172	623.69
503.389	638.69
503.606	620.69
503.823	602.69
504.04	603.69
504.256	621.69
504.473	620.69
504.69	611.69
504.907	591.69
505.123	579.69
505.34	586.69
505.557	570.69
505.773	564.69
505.99	555.69
506.207	547.69
506.423	545.69
506.64	538.69
506.856	544.69
507.073	542.69
507.289	525.69
507.506	555.69
507.722	527.69
507.939	549.69
508.155	543.69
508.372	554.69
508.588	517.69
508.805	518.69
509.021	511.69
509.238	525.69
509.454	526.69
509.67	521.69
509.887	521.69
510.103	490.69
510.319	512.69
510.536	569.69
510.752	798.69
510.968	655.69
511.184	507.69
511.401	512.69
511.617	493.69
511.833	501.69
512.049	529.69
512.265	512.69
512.481	498.69
512.698	488.69
512.914	518.69
513.13	488.69
513.346	463.69
513.562	484.69
513.778	464.69
513.994	478.69
514.21	493.69
514.426	513.69
514.642	506.69
514.858	530.69
515.074	518.69
515.29	610.69
515.506	768.69
515.721	664.69
515.937	549.69
516.153	526.69
516.369	537.69
516.585	514.69
516.801	505.69
517.016	534.69
517.232	521.69
517.448	541.69
517.664	541.69
517.879	525.69
518.095	532.69
518.311	540.69
518.527	541.69
518.742	498.69
518.958	506.69
519.173	501.69
519.389	502.69
519.605	486.69
519.82	497.69
520.036	494.69
520.251	510.69
520.467	514.69
520.682	518.69
520.898	529.69
521.113	520.69
521.329	523.69
521.544	574.69
521.76	642.69
521.975	920.69
522.19	904.69
522.406	600.69
522.621	498.69
522.836	487.69
523.052	465.69
523.267	443.69
523.482	453.69
523.698	447.69
523.913	450.69
524.128	434.69
524.343	436.69
524.559	448.69
524.774	440.69
524.989	436.69
525.204	443.69
525.419	421.69
525.634	439.69
525.849	413.69
526.064	420.69
526.28	413.69
526.495	419.69
526.71	426.69
526.925	424.69
527.14	403.69
527.355	393.69
527.57	414.69
527.785	402.69
527.999	410.69
528.214	414.69
528.429	393.69
528.644	425.69
528.859	411.69
529.074	412.69
529.289	413.69
529.503	445.69
529.718	432.69
529.933	427.69
530.148	418.69
530.363	414.69
530.577	400.69
530.792	385.69
531.007	416.69
531.221	398.69
531.436	398.69
531.651	406.69
531.865	391.69
532.08	388.69
532.295	409.69
532.509	400.69
532.724	391.69
532.938	393.69
533.153	405.69
533.367	390.69
533.582	397.69
533.796	397.69
534.011	378.69
534.225	399.69
534.44	371.69
534.654	368.69
534.868	373.69
535.083	377.69
535.297	400.69
535.511	398.69
535.726	385.69
535.94	411.69
536.154	392.69
536.369	364.69
536.583	371.69
536.797	388.69
537.011	395.69
537.225	381.69
537.44	380.69
537.654	361.69
537.868	388.69
538.082	370.69
538.296	388.69
538.51	394.69
538.724	378.69
538.938	378.69
539.153	379.69
539.367	393.69
539.581	392.69
539.795	365.69
540.009	363.69
540.222	374.69
540.436	376.69
540.65	364.69
540.864	362.69
541.078	384.69
541.292	382.69
541.506	383.69
541.72	365.69
541.934	380.69
542.147	357.69
542.361	374.69
542.575	366.69
542.789	382.69
543.002	362.69
543.216	392.69
543.43	370.69
543.644	384.69
543.857	386.69
544.071	362.69
544.285	378.69
544.498	378.69
544.712	379.69
544.925	380.69
545.139	367.69
545.352	373.69
545.566	368.69
545.779	392.69
545.993	370.69
546.206	387.69
546.42	365.69
546.633	386.69
546.847	374.69
547.06	363.69
547.274	378.69
547.487	356.69
547.7	369.69
547.914	370.69
548.127	368.69
548.34	355.69
548.554	374.69
548.767	367.69
548.98	364.69
549.193	364.69
549.407	376.69
549.62	362.69
549.833	374.69
550.046	373.69
550.259	398.69
550.473	342.69
550.686	352.69
550.899	378.69
551.112	362.69
551.325	364.69
551.538	356.69
551.751	373.69
551.964	378.69
552.177	367.69
552.39	375.69
552.603	372.69
552.816	374.69
553.029	378.69
553.242	370.69
553.455	367.69
553.667	365.69
553.88	387.69
554.093	365.69
554.306	354.69
554.519	361.69
554.732	366.69
554.944	352.69
555.157	336.69
555.37	343.69
555.583	330.69
555.795	348.69
556.008	328.69
556.221	339.69
556.433	327.69
556.646	339.69
556.859	330.69
557.071	328.69
557.284	324.69
557.496	327.69
557.709	347.69
557.921	335.69
558.134	336.69
558.346	346.69
558.559	318.69
558.771	320.69
558.984	354.69
559.196	326.69
559.409	325.69
559.621	324.69
559.833	332.69
560.046	327.69
560.258	313.69
560.47	321.69
560.683	308.69
560.895	315.69
561.107	317.69
561.32	334.69
561.532	325.69
561.744	308.69
561.956	313.69
562.168	343.69
562.381	340.69
562.593	336.69
562.805	332.69
563.017	333.69
563.229	332.69
563.441	332.69
563.653	331.69
563.865	356.69
564.077	348.69
564.289	341.69
564.501	339.69
564.713	322.69
564.925	349.69
565.137	340.69
565.349	345.69
565.561	354.69
565.773	364.69
565.985	373.69
566.197	396.69
566.408	395.69
566.62	402.69
566.832	422.69
567.044	402.69
567.255	419.69
567.467	410.69
567.679	456.69
567.891	433.69
568.102	438.69
568.314	438.69
568.526	411.69
568.737	406.69
568.949	406.69
569.161	362.69
569.372	342.69
569.584	342.69
569.795	349.69
570.007	347.69
570.218	337.69
570.43	356.69
570.641	335.69
570.853	327.69
571.064	341.69
571.276	322.69
571.487	324.69
571.698	315.69
571.91	320.69
572.121	316.69
572.333	309.69
572.544	297.69
572.755	308.69
572.966	294.69
573.178	297.69
573.389	294.69
573.6	282.69
573.811	323.69
574.023	286.69
574.234	303.69
574.445	280.69
574.656	278.69
574.867	275.69
575.078	275.69
575.289	286.69
575.501	260.69
575.712	279.69
575.923	300.69
576.134	268.69
576.345	272.69
576.556	286.69
576.767	258.69
576.978	290.69
577.188	266.69
577.399	278.69
577.61	287.69
577.821	274.69
578.032	269.69
578.243	271.69
578.454	375.69
578.665	320.69
578.875	264.69
579.086	271.69
579.297	280.69
579.508	278.69
579.718	271.69
579.929	275.69
580.14	266.69
580.35	273.69
580.561	268.69
580.772	260.69
580.982	270.69
581.193	248.69
581.403	258.69
581.614	256.69
581.825	257.69
582.035	244.69
582.246	263.69
582.456	263.69
582.667	251.69
582.877	255.69
583.087	253.69
583.298	258.69
583.508	235.69
583.719	268.69
583.929	255.69
584.139	257.69
584.35	230.69
584.56	251.69
584.77	248.69
584.981	255.69
585.191	260.69
585.401	259.69
585.611	245.69
585.821	258.69
586.032	236.69
586.242	221.69
586.452	242.69
586.662	261.69
586.872	231.69
587.082	239.69
587.292	258.69
587.502	248.69
587.713	246.69
587.923	236.69
588.133	235.69
588.343	244.69
588.553	263.69
588.762	263.69
588.972	248.69
589.182	251.69
589.392	259.69
589.602	252.69
589.812	258.69
590.022	246.69
590.232	246.69
590.441	251.69
590.651	258.69
590.861	244.69
591.071	257.69
591.281	254.69
591.49	247.69
591.7	265.69
591.91	282.69
592.119	231.69
592.329	242.69
592.539	253.69
592.748	255.69
592.958	256.69
593.167	270.69
593.377	279.69
593.587	290.69
593.796	278.69
594.006	272.69
594.215	279.69
594.424	278.69
594.634	260.69
594.843	269.69
595.053	271.69
595.262	251.69
595.472	249.69
595.681	242.69
595.89	269.69
596.1	260.69
596.309	245.69
596.518	235.69
596.727	247.69
596.937	249.69
597.146	244.69
597.355	241.69
597.564	230.69
597.774	230.69
597.983	248.69
598.192	233.69
598.401	232.69
598.61	232.69
598.819	238.69
599.028	234.69
599.237	221.69
599.446	217.69
599.655	227.69
599.864	226.69
600.073	238.69
600.282	239.69
600.491	213.69
600.7	223.69
600.909	224.69
601.118	220.69
601.327	201.69
601.536	225.69
601.745	227.69
601.953	214.69
602.162	182.69
602.371	208.69
602.58	228.69
602.789	229.69
602.997	216.69
603.206	230.69
603.415	199.69
603.623	207.69
603.832	201.69
604.041	199.69
604.249	212.69
604.458	206.69
604.666	201.69
604.875	210.69
605.084	208.69
605.292	183.69
605.501	197.69
605.709	222.69
605.918	217.69
606.126	188.69
606.334	216.69
606.543	202.69
606.751	204.69
606.96	202.69
607.168	190.69
607.376	224.69
607.585	204.69
607.793	219.69
608.001	192.69
608.21	210.69
608.418	216.69
608.626	201.69
608.834	202.69
609.043	205.69
609.251	201.69
609.459	204.69
609.667	206.69
609.875	200.69
610.083	218.69
610.291	212.69
610.499	194.69
610.707	195.69
610.916	203.69
611.124	213.69
611.332	215.69
611.54	216.69
611.748	202.69
611.955	203.69
612.163	201.69
612.371	202.69
612.579	214.69
612.787	202.69
612.995	201.69
613.203	199.69
613.411	200.69
613.618	203.69
613.826	186.69
614.034	196.69
614.242	200.69
614.449	198.69
614.657	192.69
614.865	199.69
615.072	198.69
615.28	202.69
615.488	189.69
615.695	194.69
615.903	203.69
616.111	205.69
616.318	202.69
616.526	211.69
616.733	202.69
616.941	188.69
617.148	210.69
617.356	189.69
617.563	197.69
617.771	203.69
617.978	186.69
618.185	192.69
618.393	207.69
618.6	183.69
618.807	186.69
619.015	208.69
619.222	189.69
619.429	196.69
619.637	205.69
619.844	194.69
620.051	180.69
620.258	204.69
620.466	203.69
620.673	195.69
620.88	188.69
621.087	188.69
621.294	174.69
621.501	189.69
621.708	196.69
621.915	186.69
622.122	199.69
622.329	200.69
622.536	190.69
622.743	191.69
622.95	195.69
623.157	204.69
623.364	199.69
623.571	185.69
623.778	184.69
623.985	209.69
624.192	187.69
624.399	179.69
624.606	189.69
624.812	183.69
625.019	189.69
625.226	169.69
625.433	176.69
625.639	188.69
625.846	175.69
626.053	165.69
626.259	181.69
626.466	180.69
626.673	178.69
626.879	187.69
627.086	188.69
627.293	178.69
627.499	180.69
627.706	171.69
627.912	182.69
628.119	174.69
628.325	166.69
628.532	178.69
628.738	164.69
628.945	161.69
629.151	165.69
629.357	184.69
629.564	181.69
629.77	180.69
629.976	179.69
630.183	156.69
630.389	169.69
630.595	167.69
630.802	164.69
631.008	158.69
631.214	163.69
631.42	165.69
631.627	182.69
631.833	164.69
632.039	165.69
632.245	174.69
632.451	176.69
632.657	183.69
632.863	166.69
633.069	158.69
633.275	180.69
633.481	162.69
633.688	162.69
633.893	164.69
634.099	167.69
634.305	174.69
634.511	178.69
634.717	144.69
634.923	169.69
635.129	154.69
635.335	148.69
635.541	144.69
635.747	172.69
635.952	146.69
636.158	149.69
636.364	171.69
636.57	169.69
636.775	166.69
636.981	163.69
637.187	169.69
637.392	155.69
637.598	159.69
637.804	145.69
638.009	145.69
638.215	163.69
638.421	147.69
638.626	161.69
638.832	166.69
639.037	154.69
639.243	156.69
639.448	159.69
639.654	153.69
639.859	152.69
640.065	152.69
640.27	153.69
640.475	156.69
640.681	143.69
640.886	145.69
641.091	154.69
641.297	139.69
641.502	139.69
641.707	162.69
641.913	145.69
642.118	143.69
642.323	166.69
642.528	150.69
642.733	152.69
642.939	145.69
643.144	153.69
643.349	164.69
643.554	154.69
643.759	158.69
643.964	162.69
644.169	154.69
644.374	145.69
644.579	156.69
644.784	159.69
644.989	152.69
645.194	146.69
645.399	155.69
645.604	151.69
645.809	161.69
646.014	171.69
646.219	143.69
646.423	146.69
646.628	146.69
646.833	145.69
647.038	151.69
647.243	138.69
647.447	156.69
647.652	155.69
647.857	139.69
648.062	148.69
648.266	142.69
648.471	162.69
648.676	150.69
648.88	138.69
649.085	157.69
649.289	160.69
649.494	147.69
649.698	156.69
649.903	163.69
650.107	163.69
650.312	160.69
650.516	154.69
650.721	144.69
650.925	144.69
651.13	141.69
651.334	149.69
651.539	138.69
651.743	138.69
651.947	136.69
652.152	127.69
652.356	134.69
652.56	118.69
652.764	122.69
652.969	142.69
653.173	125.69
653.377	113.69
653.581	119.69
653.785	119.69
653.99	135.69
654.194	141.69
654.398	136.69
654.602	118.69
654.806	115.69
655.01	141.69
655.214	140.69
655.418	127.69
655.622	116.69
655.826	140.69
656.03	127.69
656.234	138.69
656.438	122.69
656.642	126.69
656.846	139.69
657.049	122.69
657.253	122.69
657.457	98.69
657.661	126.69
657.865	117.69
658.068	115.69
658.272	120.69
658.476	110.69
658.68	109.69
658.883	108.69
659.087	107.69
659.291	99.69
659.494	92.69
659.698	94.69
659.901	88.69
660.105	100.69
660.309	81.69
660.512	95.69
660.716	101.69
660.919	88.69
661.123	102.69
661.326	90.69
661.53	92.69
661.733	85.69
661.936	94.69
662.14	94.69
662.343	89.69
662.546	90.69
662.75	87.69
662.953	101.69
663.156	92.69
663.36	93.69
663.563	92.69
663.766	86.69
663.969	84.69
664.173	98.69
664.376	80.69
664.579	85.69
664.782	78.69
664.985	84.69
665.188	67.69
665.391	74.69
665.594	90.69
665.797	86.69
666	77.69
666.203	88.69
666.406	85.69
666.609	76.69
666.812	75.69
667.015	85.69
667.218	71.69
667.421	83.69
667.624	88.69
667.827	94.69
668.03	84.69
668.232	79.69
668.435	86.69
668.638	84.69
668.841	87.69
669.043	88.69
669.246	92.69
669.449	80.69
669.651	75.69
669.854	87.69
670.057	86.69
670.259	78.69
670.462	92.69
670.665	93.69
670.867	71.69
671.07	87.69
671.272	81.69
671.475	107.69
671.677	71.69
671.88	94.69
672.082	90.69
672.284	85.69
672.487	85.69
672.689	89.69
672.892	71.69
