Data from 1964.PennyLincolnUp.Lamp.En5.5.200Scan.071719.P1._HRD10591_14-03-47-908.txt Node
Date: Thu Jul 18 14:03:47 EDT 2019
User: cochatt
Spectrometer: HR+D1059
Trigger mode: 1
Integration Time (sec): 1.000000E-1
Scans to average: 1
Electric dark correction enabled: true
Nonlinearity correction enabled: false
Boxcar width: 0
XAxis mode: Wavelengths
Number of Pixels in Spectrum: 2048
>>>>>Begin Spectral Data<<<<<
223.165	-7.12
223.4	-7.12
223.635	-7.12
223.869	-14.12
224.104	-18.12
224.338	-11.12
224.573	-29.12
224.808	-8.12
225.042	-7.12
225.277	-2.12
225.511	2.88
225.746	5.88
225.98	0.88
226.215	12.88
226.449	5.88
226.683	21.88
226.918	15.88
227.152	30.88
227.387	27.88
227.621	37.88
227.856	40.88
228.09	42.88
228.324	71.88
228.559	44.88
228.793	85.88
229.027	83.88
229.262	102.88
229.496	100.88
229.73	113.88
229.964	118.88
230.199	126.88
230.433	102.88
230.667	98.88
230.901	127.88
231.136	109.88
231.37	109.88
231.604	116.88
231.838	116.88
232.072	122.88
232.306	107.88
232.541	103.88
232.775	108.88
233.009	114.88
233.243	114.88
233.477	111.88
233.711	113.88
233.945	120.88
234.179	107.88
234.413	128.88
234.647	101.88
234.881	113.88
235.115	118.88
235.349	108.88
235.583	124.88
235.817	120.88
236.051	111.88
236.285	113.88
236.519	126.88
236.753	112.88
236.987	128.88
237.221	145.88
237.455	193.88
237.689	152.88
237.922	131.88
238.156	128.88
238.39	120.88
238.624	109.88
238.858	114.88
239.091	118.88
239.325	121.88
239.559	125.88
239.793	138.88
240.027	128.88
240.26	145.88
240.494	124.88
240.728	140.88
240.961	131.88
241.195	144.88
241.429	132.88
241.662	128.88
241.896	137.88
242.13	138.88
242.363	128.88
242.597	124.88
242.83	127.88
243.064	124.88
243.298	143.88
243.531	134.88
243.765	138.88
243.998	153.88
244.232	144.88
244.465	142.88
244.699	137.88
244.932	141.88
245.166	155.88
245.399	149.88
245.633	143.88
245.866	137.88
246.099	144.88
246.333	156.88
246.566	139.88
246.8	151.88
247.033	152.88
247.266	134.88
247.5	160.88
247.733	167.88
247.966	152.88
248.2	151.88
248.433	160.88
248.666	165.88
248.899	161.88
249.133	188.88
249.366	190.88
249.599	172.88
249.832	168.88
250.066	164.88
250.299	164.88
250.532	175.88
250.765	183.88
250.998	210.88
251.231	203.88
251.465	191.88
251.698	188.88
251.931	183.88
252.164	181.88
252.397	182.88
252.63	186.88
252.863	196.88
253.096	190.88
253.329	205.88
253.562	203.88
253.795	199.88
254.028	202.88
254.261	201.88
254.494	192.88
254.727	228.88
254.96	244.88
255.193	239.88
255.426	215.88
255.659	226.88
255.892	219.88
256.124	215.88
256.357	225.88
256.59	206.88
256.823	194.88
257.056	222.88
257.289	205.88
257.521	208.88
257.754	197.88
257.987	208.88
258.22	202.88
258.452	220.88
258.685	201.88
258.918	199.88
259.151	208.88
259.383	197.88
259.616	215.88
259.849	227.88
260.081	225.88
260.314	253.88
260.547	232.88
260.779	217.88
261.012	222.88
261.244	217.88
261.477	203.88
261.71	216.88
261.942	219.88
262.175	229.88
262.407	229.88
262.64	223.88
262.872	216.88
263.105	218.88
263.337	224.88
263.57	210.88
263.802	210.88
264.035	211.88
264.267	208.88
264.499	210.88
264.732	215.88
264.964	213.88
265.197	211.88
265.429	227.88
265.661	217.88
265.894	208.88
266.126	220.88
266.358	206.88
266.591	210.88
266.823	230.88
267.055	220.88
267.287	247.88
267.52	214.88
267.752	217.88
267.984	215.88
268.216	215.88
268.448	240.88
268.681	236.88
268.913	236.88
269.145	241.88
269.377	254.88
269.609	255.88
269.841	245.88
270.073	262.88
270.306	255.88
270.538	289.88
270.77	269.88
271.002	295.88
271.234	261.88
271.466	277.88
271.698	278.88
271.93	283.88
272.162	287.88
272.394	286.88
272.626	286.88
272.858	273.88
273.09	271.88
273.322	268.88
273.553	236.88
273.785	267.88
274.017	276.88
274.249	267.88
274.481	270.88
274.713	273.88
274.945	261.88
275.176	267.88
275.408	258.88
275.64	262.88
275.872	266.88
276.104	262.88
276.335	258.88
276.567	270.88
276.799	273.88
277.031	297.88
277.262	292.88
277.494	299.88
277.726	288.88
277.957	287.88
278.189	255.88
278.421	284.88
278.652	270.88
278.884	298.88
279.115	273.88
279.347	273.88
279.579	266.88
279.81	291.88
280.042	264.88
280.273	282.88
280.505	286.88
280.736	287.88
280.968	278.88
281.199	268.88
281.431	278.88
281.662	279.88
281.894	270.88
282.125	268.88
282.356	281.88
282.588	296.88
282.819	292.88
283.051	296.88
283.282	285.88
283.513	272.88
283.745	307.88
283.976	293.88
284.207	296.88
284.439	308.88
284.67	288.88
284.901	293.88
285.132	301.88
285.364	298.88
285.595	282.88
285.826	302.88
286.057	292.88
286.288	285.88
286.52	293.88
286.751	294.88
286.982	276.88
287.213	274.88
287.444	306.88
287.675	310.88
287.906	306.88
288.138	308.88
288.369	316.88
288.6	310.88
288.831	314.88
289.062	287.88
289.293	312.88
289.524	293.88
289.755	296.88
289.986	309.88
290.217	316.88
290.448	295.88
290.679	320.88
290.91	303.88
291.141	296.88
291.371	301.88
291.602	297.88
291.833	314.88
292.064	328.88
292.295	317.88
292.526	319.88
292.757	298.88
292.987	292.88
293.218	282.88
293.449	305.88
293.68	302.88
293.91	311.88
294.141	314.88
294.372	297.88
294.603	333.88
294.833	317.88
295.064	320.88
295.295	306.88
295.525	295.88
295.756	323.88
295.987	328.88
296.217	326.88
296.448	313.88
296.679	328.88
296.909	310.88
297.14	325.88
297.37	318.88
297.601	337.88
297.831	287.88
298.062	320.88
298.292	333.88
298.523	331.88
298.753	329.88
298.984	322.88
299.214	316.88
299.445	329.88
299.675	327.88
299.905	349.88
300.136	315.88
300.366	303.88
300.597	327.88
300.827	372.88
301.057	339.88
301.288	336.88
301.518	337.88
301.748	327.88
301.979	318.88
302.209	359.88
302.439	344.88
302.669	355.88
302.9	360.88
303.13	336.88
303.36	351.88
303.59	358.88
303.82	360.88
304.051	360.88
304.281	352.88
304.511	350.88
304.741	330.88
304.971	349.88
305.201	333.88
305.431	334.88
305.661	345.88
305.891	342.88
306.121	357.88
306.352	346.88
306.582	351.88
306.812	341.88
307.042	357.88
307.272	336.88
307.502	338.88
307.731	336.88
307.961	349.88
308.191	336.88
308.421	334.88
308.651	341.88
308.881	347.88
309.111	337.88
309.341	350.88
309.571	351.88
309.8	371.88
310.03	358.88
310.26	380.88
310.49	348.88
310.72	359.88
310.949	369.88
311.179	362.88
311.409	362.88
311.639	373.88
311.868	358.88
312.098	375.88
312.328	362.88
312.557	396.88
312.787	372.88
313.017	394.88
313.246	389.88
313.476	386.88
313.706	362.88
313.935	372.88
314.165	377.88
314.394	381.88
314.624	383.88
314.853	383.88
315.083	382.88
315.312	392.88
315.542	381.88
315.771	377.88
316.001	345.88
316.23	385.88
316.46	358.88
316.689	374.88
316.919	392.88
317.148	395.88
317.377	394.88
317.607	380.88
317.836	358.88
318.065	373.88
318.295	364.88
318.524	377.88
318.753	374.88
318.983	378.88
319.212	378.88
319.441	385.88
319.67	390.88
319.9	381.88
320.129	376.88
320.358	388.88
320.587	377.88
320.816	370.88
321.046	392.88
321.275	387.88
321.504	409.88
321.733	375.88
321.962	397.88
322.191	392.88
322.42	393.88
322.649	392.88
322.878	419.88
323.108	394.88
323.337	416.88
323.566	439.88
323.795	436.88
324.024	456.88
324.253	530.88
324.482	682.88
324.71	985.88
324.939	1340.88
325.168	1182.88
325.397	633.88
325.626	493.88
325.855	441.88
326.084	423.88
326.313	432.88
326.542	439.88
326.77	460.88
326.999	530.88
327.228	661.88
327.457	894.88
327.686	1034.88
327.914	726.88
328.143	535.88
328.372	472.88
328.6	447.88
328.829	477.88
329.058	469.88
329.287	464.88
329.515	450.88
329.744	453.88
329.972	456.88
330.201	454.88
330.43	474.88
330.658	500.88
330.887	496.88
331.115	481.88
331.344	452.88
331.572	465.88
331.801	424.88
332.03	441.88
332.258	453.88
332.486	423.88
332.715	436.88
332.943	468.88
333.172	422.88
333.4	456.88
333.629	464.88
333.857	472.88
334.085	515.88
334.314	509.88
334.542	514.88
334.771	534.88
334.999	474.88
335.227	466.88
335.455	465.88
335.684	453.88
335.912	434.88
336.14	433.88
336.369	421.88
336.597	463.88
336.825	434.88
337.053	452.88
337.281	428.88
337.51	426.88
337.738	438.88
337.966	441.88
338.194	425.88
338.422	434.88
338.65	423.88
338.878	421.88
339.106	417.88
339.334	430.88
339.562	416.88
339.79	425.88
340.018	411.88
340.246	419.88
340.474	408.88
340.702	418.88
340.93	422.88
341.158	401.88
341.386	424.88
341.614	401.88
341.842	412.88
342.07	417.88
342.298	421.88
342.526	446.88
342.754	402.88
342.981	407.88
343.209	406.88
343.437	430.88
343.665	444.88
343.893	444.88
344.12	432.88
344.348	445.88
344.576	438.88
344.804	421.88
345.031	425.88
345.259	425.88
345.487	419.88
345.714	418.88
345.942	401.88
346.17	412.88
346.397	386.88
346.625	389.88
346.853	402.88
347.08	416.88
347.308	410.88
347.535	412.88
347.763	416.88
347.99	412.88
348.218	396.88
348.445	388.88
348.673	413.88
348.9	417.88
349.128	385.88
349.355	386.88
349.583	392.88
349.81	391.88
350.037	389.88
350.265	361.88
350.492	369.88
350.72	369.88
350.947	385.88
351.174	380.88
351.402	400.88
351.629	387.88
351.856	401.88
352.083	401.88
352.311	399.88
352.538	378.88
352.765	392.88
352.992	385.88
353.22	365.88
353.447	384.88
353.674	382.88
353.901	373.88
354.128	394.88
354.355	378.88
354.583	366.88
354.81	370.88
355.037	381.88
355.264	372.88
355.491	358.88
355.718	339.88
355.945	368.88
356.172	364.88
356.399	366.88
356.626	386.88
356.853	384.88
357.08	377.88
357.307	392.88
357.534	362.88
357.761	370.88
357.988	388.88
358.215	372.88
358.441	375.88
358.668	369.88
358.895	390.88
359.122	376.88
359.349	385.88
359.576	386.88
359.802	375.88
360.029	392.88
360.256	401.88
360.483	414.88
360.709	387.88
360.936	402.88
361.163	388.88
361.39	369.88
361.616	386.88
361.843	376.88
362.07	392.88
362.296	388.88
362.523	394.88
362.749	382.88
362.976	376.88
363.203	387.88
363.429	388.88
363.656	387.88
363.882	393.88
364.109	369.88
364.335	388.88
364.562	374.88
364.788	366.88
365.015	364.88
365.241	383.88
365.468	367.88
365.694	375.88
365.92	348.88
366.147	377.88
366.373	368.88
366.599	359.88
366.826	366.88
367.052	372.88
367.278	382.88
367.505	375.88
367.731	375.88
367.957	361.88
368.184	379.88
368.41	368.88
368.636	370.88
368.862	374.88
369.089	385.88
369.315	386.88
369.541	403.88
369.767	380.88
369.993	380.88
370.219	377.88
370.445	374.88
370.672	373.88
370.898	361.88
371.124	364.88
371.35	378.88
371.576	384.88
371.802	393.88
372.028	375.88
372.254	385.88
372.48	388.88
372.706	390.88
372.932	396.88
373.158	377.88
373.384	382.88
373.61	377.88
373.835	392.88
374.061	358.88
374.287	352.88
374.513	378.88
374.739	387.88
374.965	384.88
375.191	377.88
375.416	376.88
375.642	372.88
375.868	368.88
376.094	368.88
376.319	362.88
376.545	380.88
376.771	368.88
376.997	372.88
377.222	364.88
377.448	364.88
377.674	359.88
377.899	362.88
378.125	361.88
378.35	384.88
378.576	365.88
378.802	363.88
379.027	374.88
379.253	354.88
379.478	371.88
379.704	376.88
379.929	367.88
380.155	366.88
380.38	362.88
380.606	359.88
380.831	357.88
381.057	378.88
381.282	363.88
381.507	356.88
381.733	373.88
381.958	364.88
382.184	369.88
382.409	383.88
382.634	390.88
382.86	379.88
383.085	352.88
383.31	370.88
383.535	385.88
383.761	400.88
383.986	386.88
384.211	408.88
384.436	408.88
384.662	381.88
384.887	422.88
385.112	408.88
385.337	416.88
385.562	408.88
385.787	401.88
386.013	435.88
386.238	419.88
386.463	404.88
386.688	408.88
386.913	388.88
387.138	391.88
387.363	397.88
387.588	401.88
387.813	390.88
388.038	390.88
388.263	409.88
388.488	410.88
388.713	414.88
388.938	400.88
389.163	402.88
389.387	400.88
389.612	384.88
389.837	408.88
390.062	408.88
390.287	406.88
390.512	408.88
390.736	400.88
390.961	408.88
391.186	416.88
391.411	397.88
391.636	418.88
391.86	413.88
392.085	415.88
392.31	434.88
392.534	420.88
392.759	409.88
392.984	388.88
393.208	405.88
393.433	409.88
393.658	412.88
393.882	394.88
394.107	420.88
394.331	412.88
394.556	405.88
394.78	407.88
395.005	413.88
395.229	404.88
395.454	415.88
395.678	442.88
395.903	442.88
396.127	437.88
396.352	446.88
396.576	426.88
396.801	410.88
397.025	416.88
397.249	427.88
397.474	440.88
397.698	417.88
397.922	448.88
398.147	447.88
398.371	468.88
398.595	444.88
398.82	461.88
399.044	465.88
399.268	481.88
399.492	508.88
399.717	534.88
399.941	541.88
400.165	577.88
400.389	573.88
400.613	505.88
400.837	476.88
401.062	447.88
401.286	470.88
401.51	452.88
401.734	461.88
401.958	453.88
402.182	444.88
402.406	474.88
402.63	475.88
402.854	471.88
403.078	448.88
403.302	473.88
403.526	473.88
403.75	470.88
403.974	486.88
404.198	474.88
404.422	486.88
404.645	476.88
404.869	463.88
405.093	509.88
405.317	516.88
405.541	543.88
405.765	511.88
405.988	473.88
406.212	476.88
406.436	462.88
406.66	493.88
406.883	492.88
407.107	534.88
407.331	534.88
407.555	592.88
407.778	598.88
408.002	546.88
408.226	516.88
408.449	507.88
408.673	495.88
408.896	524.88
409.12	536.88
409.344	508.88
409.567	479.88
409.791	463.88
410.014	478.88
410.238	453.88
410.461	462.88
410.685	468.88
410.908	461.88
411.132	492.88
411.355	516.88
411.578	502.88
411.802	480.88
412.025	469.88
412.249	489.88
412.472	491.88
412.695	517.88
412.919	489.88
413.142	471.88
413.365	476.88
413.589	453.88
413.812	463.88
414.035	456.88
414.258	456.88
414.482	445.88
414.705	433.88
414.928	432.88
415.151	417.88
415.374	453.88
415.597	453.88
415.821	428.88
416.044	445.88
416.267	432.88
416.49	436.88
416.713	408.88
416.936	423.88
417.159	428.88
417.382	454.88
417.605	427.88
417.828	446.88
418.051	429.88
418.274	438.88
418.497	412.88
418.72	433.88
418.943	440.88
419.166	415.88
419.389	476.88
419.611	468.88
419.834	466.88
420.057	461.88
420.28	469.88
420.503	430.88
420.726	437.88
420.948	452.88
421.171	476.88
421.394	501.88
421.617	469.88
421.839	456.88
422.062	439.88
422.285	454.88
422.507	497.88
422.73	541.88
422.953	515.88
423.175	465.88
423.398	444.88
423.621	447.88
423.843	463.88
424.066	466.88
424.288	457.88
424.511	485.88
424.733	515.88
424.956	576.88
425.178	548.88
425.401	539.88
425.623	568.88
425.846	512.88
426.068	470.88
426.291	469.88
426.513	449.88
426.735	469.88
426.958	480.88
427.18	549.88
427.402	628.88
427.625	654.88
427.847	578.88
428.069	526.88
428.292	477.88
428.514	449.88
428.736	463.88
428.958	429.88
429.181	423.88
429.403	416.88
429.625	436.88
429.847	469.88
430.069	486.88
430.292	473.88
430.514	434.88
430.736	418.88
430.958	424.88
431.18	409.88
431.402	411.88
431.624	404.88
431.846	410.88
432.068	393.88
432.29	414.88
432.512	424.88
432.734	425.88
432.956	422.88
433.178	398.88
433.4	410.88
433.622	405.88
433.844	398.88
434.066	391.88
434.287	414.88
434.509	403.88
434.731	428.88
434.953	436.88
435.175	425.88
435.397	449.88
435.618	454.88
435.84	469.88
436.062	538.88
436.284	569.88
436.505	508.88
436.727	464.88
436.949	423.88
437.17	406.88
437.392	423.88
437.614	429.88
437.835	455.88
438.057	512.88
438.278	586.88
438.5	560.88
438.721	612.88
438.943	604.88
439.165	485.88
439.386	463.88
439.608	454.88
439.829	430.88
440.05	454.88
440.272	492.88
440.493	455.88
440.715	431.88
440.936	415.88
441.158	439.88
441.379	433.88
441.6	438.88
441.822	454.88
442.043	465.88
442.264	523.88
442.486	554.88
442.707	475.88
442.928	484.88
443.149	450.88
443.371	461.88
443.592	519.88
443.813	558.88
444.034	609.88
444.255	530.88
444.476	489.88
444.698	469.88
444.919	467.88
445.14	598.88
445.361	534.88
445.582	485.88
445.803	508.88
446.024	582.88
446.245	591.88
446.466	531.88
446.687	467.88
446.908	438.88
447.129	427.88
447.35	421.88
447.571	419.88
447.792	389.88
448.013	400.88
448.234	415.88
448.455	456.88
448.675	522.88
448.896	610.88
449.117	496.88
449.338	481.88
449.559	551.88
449.779	618.88
450	512.88
450.221	439.88
450.442	408.88
450.662	393.88
450.883	406.88
451.104	408.88
451.324	405.88
451.545	384.88
451.766	384.88
451.986	389.88
452.207	386.88
452.428	388.88
452.648	382.88
452.869	378.88
453.089	358.88
453.31	384.88
453.53	374.88
453.751	380.88
453.971	353.88
454.192	374.88
454.412	346.88
454.633	349.88
454.853	364.88
455.073	381.88
455.294	377.88
455.514	412.88
455.734	403.88
455.955	366.88
456.175	344.88
456.395	364.88
456.616	349.88
456.836	356.88
457.056	353.88
457.276	352.88
457.497	361.88
457.717	348.88
457.937	368.88
458.157	377.88
458.377	370.88
458.598	377.88
458.818	404.88
459.038	455.88
459.258	463.88
459.478	428.88
459.698	413.88
459.918	400.88
460.138	402.88
460.358	420.88
460.578	404.88
460.798	419.88
461.018	402.88
461.238	421.88
461.458	420.88
461.678	428.88
461.898	420.88
462.118	431.88
462.338	437.88
462.558	438.88
462.777	449.88
462.997	467.88
463.217	472.88
463.437	469.88
463.657	455.88
463.876	446.88
464.096	465.88
464.316	432.88
464.536	450.88
464.755	462.88
464.975	450.88
465.195	460.88
465.414	461.88
465.634	420.88
465.854	415.88
466.073	410.88
466.293	395.88
466.512	385.88
466.732	377.88
466.951	394.88
467.171	381.88
467.391	354.88
467.61	382.88
467.829	395.88
468.049	394.88
468.268	379.88
468.488	371.88
468.707	378.88
468.927	383.88
469.146	384.88
469.365	377.88
469.585	387.88
469.804	382.88
470.023	389.88
470.243	416.88
470.462	396.88
470.681	402.88
470.901	406.88
471.12	396.88
471.339	404.88
471.558	396.88
471.777	394.88
471.997	363.88
472.216	390.88
472.435	422.88
472.654	417.88
472.873	390.88
473.092	388.88
473.311	399.88
473.53	386.88
473.749	384.88
473.968	417.88
474.187	472.88
474.406	480.88
474.625	442.88
474.844	405.88
475.063	406.88
475.282	394.88
475.501	396.88
475.72	393.88
475.939	394.88
476.158	408.88
476.377	379.88
476.596	396.88
476.814	424.88
477.033	399.88
477.252	422.88
477.471	408.88
477.69	420.88
477.908	429.88
478.127	439.88
478.346	424.88
478.564	438.88
478.783	443.88
479.002	450.88
479.22	431.88
479.439	443.88
479.658	460.88
479.876	449.88
480.095	461.88
480.313	477.88
480.532	475.88
480.751	481.88
480.969	471.88
481.188	505.88
481.406	506.88
481.624	482.88
481.843	452.88
482.061	463.88
482.28	452.88
482.498	450.88
482.717	441.88
482.935	442.88
483.153	453.88
483.372	454.88
483.59	446.88
483.808	468.88
484.027	440.88
484.245	460.88
484.463	465.88
484.681	458.88
484.9	435.88
485.118	466.88
485.336	446.88
485.554	474.88
485.772	458.88
485.99	458.88
486.209	470.88
486.427	452.88
486.645	458.88
486.863	480.88
487.081	473.88
487.299	494.88
487.517	505.88
487.735	458.88
487.953	456.88
488.171	480.88
488.389	476.88
488.607	471.88
488.825	472.88
489.043	470.88
489.261	470.88
489.479	479.88
489.696	489.88
489.914	461.88
490.132	493.88
490.35	479.88
490.568	478.88
490.786	472.88
491.003	500.88
491.221	514.88
491.439	500.88
491.657	525.88
491.874	536.88
492.092	528.88
492.31	510.88
492.527	538.88
492.745	550.88
492.963	541.88
493.18	540.88
493.398	536.88
493.615	536.88
493.833	556.88
494.05	552.88
494.268	533.88
494.485	568.88
494.703	540.88
494.92	552.88
495.138	548.88
495.355	548.88
495.573	545.88
495.79	566.88
496.008	548.88
496.225	545.88
496.442	554.88
496.66	565.88
496.877	568.88
497.094	570.88
497.312	570.88
497.529	575.88
497.746	575.88
497.963	611.88
498.181	601.88
498.398	610.88
498.615	636.88
498.832	638.88
499.049	653.88
499.267	690.88
499.484	698.88
499.701	710.88
499.918	773.88
500.135	789.88
500.352	836.88
500.569	865.88
500.786	872.88
501.003	843.88
501.22	808.88
501.437	803.88
501.654	752.88
501.871	722.88
502.088	706.88
502.305	684.88
502.522	642.88
502.739	628.88
502.956	621.88
503.172	590.88
503.389	582.88
503.606	572.88
503.823	575.88
504.04	584.88
504.256	568.88
504.473	566.88
504.69	573.88
504.907	555.88
505.123	549.88
505.34	541.88
505.557	553.88
505.773	541.88
505.99	520.88
506.207	543.88
506.423	522.88
506.64	500.88
506.856	478.88
507.073	504.88
507.289	504.88
507.506	491.88
507.722	516.88
507.939	523.88
508.155	506.88
508.372	476.88
508.588	470.88
508.805	494.88
509.021	476.88
509.238	488.88
509.454	488.88
509.67	473.88
509.887	472.88
510.103	471.88
510.319	468.88
510.536	534.88
510.752	659.88
510.968	569.88
511.184	467.88
511.401	449.88
511.617	463.88
511.833	458.88
512.049	469.88
512.265	464.88
512.481	466.88
512.698	447.88
512.914	473.88
513.13	458.88
513.346	447.88
513.562	437.88
513.778	445.88
513.994	460.88
514.21	467.88
514.426	465.88
514.642	455.88
514.858	449.88
515.074	493.88
515.29	565.88
515.506	662.88
515.721	602.88
515.937	505.88
516.153	487.88
516.369	482.88
516.585	463.88
516.801	480.88
517.016	484.88
517.232	482.88
517.448	491.88
517.664	488.88
517.879	505.88
518.095	513.88
518.311	490.88
518.527	513.88
518.742	486.88
518.958	469.88
519.173	476.88
519.389	475.88
519.605	457.88
519.82	462.88
520.036	468.88
520.251	476.88
520.467	475.88
520.682	466.88
520.898	468.88
521.113	491.88
521.329	479.88
521.544	485.88
521.76	570.88
521.975	772.88
522.19	733.88
522.406	527.88
522.621	476.88
522.836	436.88
523.052	445.88
523.267	428.88
523.482	408.88
523.698	397.88
523.913	420.88
524.128	402.88
524.343	408.88
524.559	413.88
524.774	376.88
524.989	410.88
525.204	406.88
525.419	393.88
525.634	381.88
525.849	398.88
526.064	392.88
526.28	391.88
526.495	394.88
526.71	395.88
526.925	384.88
527.14	389.88
527.355	392.88
527.57	400.88
527.785	384.88
527.999	376.88
528.214	383.88
528.429	383.88
528.644	388.88
528.859	386.88
529.074	394.88
529.289	428.88
529.503	433.88
529.718	409.88
529.933	416.88
530.148	401.88
530.363	392.88
530.577	410.88
530.792	379.88
531.007	383.88
531.221	374.88
531.436	370.88
531.651	384.88
531.865	380.88
532.08	391.88
532.295	393.88
532.509	388.88
532.724	378.88
532.938	368.88
533.153	370.88
533.367	369.88
533.582	377.88
533.796	386.88
534.011	378.88
534.225	379.88
534.44	366.88
534.654	384.88
534.868	375.88
535.083	372.88
535.297	359.88
535.511	379.88
535.726	381.88
535.94	381.88
536.154	373.88
536.369	352.88
536.583	374.88
536.797	370.88
537.011	382.88
537.225	369.88
537.44	342.88
537.654	369.88
537.868	360.88
538.082	345.88
538.296	355.88
538.51	351.88
538.724	358.88
538.938	365.88
539.153	350.88
539.367	378.88
539.581	345.88
539.795	355.88
540.009	361.88
540.222	362.88
540.436	337.88
540.65	355.88
540.864	363.88
541.078	364.88
541.292	353.88
541.506	363.88
541.72	363.88
541.934	374.88
542.147	342.88
542.361	382.88
542.575	353.88
542.789	358.88
543.002	349.88
543.216	366.88
543.43	345.88
543.644	349.88
543.857	366.88
544.071	377.88
544.285	340.88
544.498	354.88
544.712	351.88
544.925	350.88
545.139	349.88
545.352	356.88
545.566	354.88
545.779	364.88
545.993	365.88
546.206	361.88
546.42	331.88
546.633	355.88
546.847	348.88
547.06	362.88
547.274	344.88
547.487	356.88
547.7	362.88
547.914	345.88
548.127	346.88
548.34	338.88
548.554	331.88
548.767	363.88
548.98	351.88
549.193	353.88
549.407	343.88
549.62	351.88
549.833	361.88
550.046	344.88
550.259	345.88
550.473	339.88
550.686	340.88
550.899	353.88
551.112	343.88
551.325	346.88
551.538	343.88
551.751	352.88
551.964	343.88
552.177	351.88
552.39	344.88
552.603	353.88
552.816	349.88
553.029	335.88
553.242	354.88
553.455	352.88
553.667	366.88
553.88	376.88
554.093	384.88
554.306	358.88
554.519	351.88
554.732	352.88
554.944	332.88
555.157	357.88
555.37	348.88
555.583	339.88
555.795	316.88
556.008	331.88
556.221	316.88
556.433	324.88
556.646	325.88
556.859	314.88
557.071	304.88
557.284	314.88
557.496	315.88
557.709	302.88
557.921	336.88
558.134	306.88
558.346	343.88
558.559	322.88
558.771	301.88
558.984	324.88
559.196	293.88
559.409	307.88
559.621	325.88
559.833	329.88
560.046	322.88
560.258	305.88
560.47	308.88
560.683	309.88
560.895	325.88
561.107	302.88
561.32	306.88
561.532	301.88
561.744	313.88
561.956	330.88
562.168	314.88
562.381	332.88
562.593	314.88
562.805	308.88
563.017	302.88
563.229	323.88
563.441	304.88
563.653	313.88
563.865	324.88
564.077	315.88
564.289	315.88
564.501	332.88
564.713	343.88
564.925	343.88
565.137	352.88
565.349	342.88
565.561	357.88
565.773	347.88
565.985	357.88
566.197	363.88
566.408	385.88
566.62	376.88
566.832	380.88
567.044	406.88
567.255	385.88
567.467	393.88
567.679	389.88
567.891	422.88
568.102	426.88
568.314	425.88
568.526	396.88
568.737	367.88
568.949	372.88
569.161	334.88
569.372	348.88
569.584	325.88
569.795	324.88
570.007	345.88
570.218	344.88
570.43	345.88
570.641	310.88
570.853	313.88
571.064	321.88
571.276	318.88
571.487	305.88
571.698	308.88
571.91	302.88
572.121	297.88
572.333	308.88
572.544	268.88
572.755	287.88
572.966	278.88
573.178	280.88
573.389	284.88
573.6	278.88
573.811	283.88
574.023	274.88
574.234	289.88
574.445	282.88
574.656	269.88
574.867	270.88
575.078	268.88
575.289	272.88
575.501	273.88
575.712	263.88
575.923	275.88
576.134	250.88
576.345	262.88
576.556	270.88
576.767	271.88
576.978	292.88
577.188	253.88
577.399	242.88
577.61	264.88
577.821	274.88
578.032	265.88
578.243	272.88
578.454	324.88
578.665	314.88
578.875	268.88
579.086	260.88
579.297	252.88
579.508	250.88
579.718	260.88
579.929	228.88
580.14	241.88
580.35	247.88
580.561	267.88
580.772	250.88
580.982	250.88
581.193	266.88
581.403	249.88
581.614	258.88
581.825	264.88
582.035	242.88
582.246	257.88
582.456	255.88
582.667	258.88
582.877	256.88
583.087	241.88
583.298	257.88
583.508	241.88
583.719	254.88
583.929	255.88
584.139	234.88
584.35	233.88
584.56	258.88
584.77	262.88
584.981	241.88
585.191	236.88
585.401	249.88
585.611	242.88
585.821	244.88
586.032	244.88
586.242	236.88
586.452	240.88
586.662	239.88
586.872	248.88
587.082	231.88
587.292	244.88
587.502	234.88
587.713	237.88
587.923	227.88
588.133	247.88
588.343	228.88
588.553	258.88
588.762	250.88
588.972	244.88
589.182	278.88
589.392	264.88
589.602	248.88
589.812	258.88
590.022	255.88
590.232	241.88
590.441	257.88
590.651	246.88
590.861	244.88
591.071	242.88
591.281	248.88
591.49	248.88
591.7	264.88
591.91	248.88
592.119	235.88
592.329	256.88
592.539	266.88
592.748	268.88
592.958	260.88
593.167	262.88
593.377	266.88
593.587	279.88
593.796	280.88
594.006	278.88
594.215	270.88
594.424	272.88
594.634	273.88
594.843	250.88
595.053	261.88
595.262	250.88
595.472	260.88
595.681	223.88
595.89	254.88
596.1	248.88
596.309	245.88
596.518	225.88
596.727	219.88
596.937	226.88
597.146	237.88
597.355	231.88
597.564	215.88
597.774	217.88
597.983	219.88
598.192	220.88
598.401	203.88
598.61	212.88
598.819	220.88
599.028	220.88
599.237	230.88
599.446	217.88
599.655	223.88
599.864	224.88
600.073	225.88
600.282	215.88
600.491	220.88
600.7	210.88
600.909	219.88
601.118	217.88
601.327	214.88
601.536	205.88
601.745	213.88
601.953	206.88
602.162	225.88
602.371	202.88
602.58	207.88
602.789	204.88
602.997	205.88
603.206	208.88
603.415	196.88
603.623	194.88
603.832	210.88
604.041	207.88
604.249	226.88
604.458	193.88
604.666	193.88
604.875	216.88
605.084	205.88
605.292	201.88
605.501	198.88
605.709	203.88
605.918	192.88
606.126	193.88
606.334	201.88
606.543	210.88
606.751	210.88
606.96	212.88
607.168	202.88
607.376	202.88
607.585	201.88
607.793	201.88
608.001	201.88
608.21	196.88
608.418	192.88
608.626	191.88
608.834	207.88
609.043	210.88
609.251	204.88
609.459	188.88
609.667	213.88
609.875	199.88
610.083	212.88
610.291	213.88
610.499	209.88
610.707	212.88
610.916	196.88
611.124	196.88
611.332	202.88
611.54	222.88
611.748	202.88
611.955	210.88
612.163	198.88
612.371	202.88
612.579	194.88
612.787	202.88
612.995	212.88
613.203	196.88
613.411	201.88
613.618	189.88
613.826	192.88
614.034	193.88
614.242	203.88
614.449	199.88
614.657	186.88
614.865	189.88
615.072	181.88
615.28	206.88
615.488	212.88
615.695	206.88
615.903	184.88
616.111	202.88
616.318	198.88
616.526	197.88
616.733	212.88
616.941	178.88
617.148	187.88
617.356	186.88
617.563	189.88
617.771	197.88
617.978	201.88
618.185	183.88
618.393	188.88
618.6	187.88
618.807	193.88
619.015	183.88
619.222	184.88
619.429	202.88
619.637	216.88
619.844	176.88
620.051	190.88
620.258	194.88
620.466	189.88
620.673	185.88
620.88	188.88
621.087	190.88
621.294	189.88
621.501	197.88
621.708	194.88
621.915	190.88
622.122	190.88
622.329	177.88
622.536	179.88
622.743	187.88
622.95	186.88
623.157	166.88
623.364	183.88
623.571	183.88
623.778	178.88
623.985	175.88
624.192	182.88
624.399	176.88
624.606	175.88
624.812	190.88
625.019	172.88
625.226	191.88
625.433	161.88
625.639	185.88
625.846	185.88
626.053	188.88
626.259	178.88
626.466	178.88
626.673	166.88
626.879	174.88
627.086	162.88
627.293	170.88
627.499	192.88
627.706	168.88
627.912	169.88
628.119	173.88
628.325	169.88
628.532	173.88
628.738	172.88
628.945	174.88
629.151	176.88
629.357	176.88
629.564	178.88
629.77	169.88
629.976	165.88
630.183	159.88
630.389	164.88
630.595	165.88
630.802	177.88
631.008	171.88
631.214	177.88
631.42	160.88
631.627	160.88
631.833	164.88
632.039	171.88
632.245	170.88
632.451	159.88
632.657	173.88
632.863	161.88
633.069	175.88
633.275	175.88
633.481	162.88
633.688	155.88
633.893	162.88
634.099	154.88
634.305	152.88
634.511	157.88
634.717	144.88
634.923	150.88
635.129	160.88
635.335	139.88
635.541	150.88
635.747	164.88
635.952	152.88
636.158	165.88
636.364	147.88
636.57	162.88
636.775	156.88
636.981	160.88
637.187	163.88
637.392	148.88
637.598	145.88
637.804	160.88
638.009	149.88
638.215	171.88
638.421	158.88
638.626	164.88
638.832	164.88
639.037	146.88
639.243	158.88
639.448	161.88
639.654	140.88
639.859	152.88
640.065	172.88
640.27	160.88
640.475	160.88
640.681	148.88
640.886	158.88
641.091	154.88
641.297	142.88
641.502	152.88
641.707	150.88
641.913	141.88
642.118	136.88
642.323	157.88
642.528	158.88
642.733	147.88
642.939	158.88
643.144	146.88
643.349	151.88
643.554	139.88
643.759	150.88
643.964	147.88
644.169	154.88
644.374	130.88
644.579	149.88
644.784	156.88
644.989	149.88
645.194	141.88
645.399	142.88
645.604	118.88
645.809	142.88
646.014	141.88
646.219	167.88
646.423	138.88
646.628	142.88
646.833	148.88
647.038	143.88
647.243	152.88
647.447	147.88
647.652	143.88
647.857	151.88
648.062	153.88
648.266	138.88
648.471	147.88
648.676	153.88
648.88	141.88
649.085	129.88
649.289	152.88
649.494	164.88
649.698	149.88
649.903	156.88
650.107	154.88
650.312	166.88
650.516	143.88
650.721	132.88
650.925	132.88
651.13	133.88
651.334	131.88
651.539	131.88
651.743	137.88
651.947	126.88
652.152	146.88
652.356	142.88
652.56	137.88
652.764	136.88
652.969	145.88
653.173	145.88
653.377	135.88
653.581	128.88
653.785	131.88
653.99	100.88
654.194	120.88
654.398	140.88
654.602	134.88
654.806	126.88
655.01	123.88
655.214	133.88
655.418	138.88
655.622	121.88
655.826	130.88
656.03	120.88
656.234	122.88
656.438	140.88
656.642	143.88
656.846	145.88
657.049	123.88
657.253	110.88
657.457	111.88
657.661	132.88
657.865	125.88
658.068	116.88
658.272	119.88
658.476	117.88
658.68	110.88
658.883	99.88
659.087	112.88
659.291	106.88
659.494	89.88
659.698	94.88
659.901	104.88
660.105	91.88
660.309	96.88
660.512	91.88
660.716	89.88
660.919	89.88
661.123	96.88
661.326	82.88
661.53	76.88
661.733	83.88
661.936	102.88
662.14	94.88
662.343	89.88
662.546	105.88
662.75	106.88
662.953	94.88
663.156	86.88
663.36	84.88
663.563	93.88
663.766	90.88
663.969	98.88
664.173	89.88
664.376	84.88
664.579	91.88
664.782	74.88
664.985	83.88
665.188	82.88
665.391	80.88
665.594	83.88
665.797	93.88
666	82.88
666.203	99.88
666.406	85.88
666.609	107.88
666.812	70.88
667.015	102.88
667.218	82.88
667.421	83.88
667.624	88.88
667.827	93.88
668.03	85.88
668.232	86.88
668.435	88.88
668.638	91.88
668.841	89.88
669.043	88.88
669.246	83.88
669.449	78.88
669.651	85.88
669.854	90.88
670.057	96.88
670.259	76.88
670.462	82.88
670.665	86.88
670.867	86.88
671.07	89.88
671.272	70.88
671.475	88.88
671.677	79.88
671.88	87.88
672.082	79.88
672.284	78.88
672.487	85.88
672.689	90.88
672.892	86.88
