Data from 1964.PennyLincolnUp.Lamp.En5.5.200Scan.071719.P1._HRD10591_14-04-56-912.txt Node
Date: Thu Jul 18 14:04:56 EDT 2019
User: cochatt
Spectrometer: HR+D1059
Trigger mode: 1
Integration Time (sec): 1.000000E-1
Scans to average: 1
Electric dark correction enabled: true
Nonlinearity correction enabled: false
Boxcar width: 0
XAxis mode: Wavelengths
Number of Pixels in Spectrum: 2048
>>>>>Begin Spectral Data<<<<<
223.165	-14.94
223.4	-14.94
223.635	-14.94
223.869	-21.94
224.104	-20.94
224.338	-12.94
224.573	-4.94
224.808	-15.94
225.042	2.06
225.277	-9.94
225.511	-3.94
225.746	1.06
225.98	4.06
226.215	18.06
226.449	21.06
226.683	24.06
226.918	18.06
227.152	17.06
227.387	39.06
227.621	32.06
227.856	41.06
228.09	41.06
228.324	49.06
228.559	38.06
228.793	53.06
229.027	91.06
229.262	96.06
229.496	103.06
229.73	116.06
229.964	130.06
230.199	118.06
230.433	116.06
230.667	107.06
230.901	107.06
231.136	113.06
231.37	106.06
231.604	105.06
231.838	120.06
232.072	102.06
232.306	104.06
232.541	119.06
232.775	111.06
233.009	116.06
233.243	108.06
233.477	116.06
233.711	107.06
233.945	119.06
234.179	120.06
234.413	102.06
234.647	122.06
234.881	106.06
235.115	114.06
235.349	109.06
235.583	108.06
235.817	120.06
236.051	114.06
236.285	124.06
236.519	125.06
236.753	132.06
236.987	142.06
237.221	155.06
237.455	200.06
237.689	160.06
237.922	136.06
238.156	140.06
238.39	124.06
238.624	131.06
238.858	120.06
239.091	109.06
239.325	124.06
239.559	136.06
239.793	126.06
240.027	136.06
240.26	139.06
240.494	141.06
240.728	149.06
240.961	128.06
241.195	136.06
241.429	146.06
241.662	136.06
241.896	124.06
242.13	141.06
242.363	120.06
242.597	128.06
242.83	134.06
243.064	138.06
243.298	145.06
243.531	132.06
243.765	124.06
243.998	134.06
244.232	149.06
244.465	146.06
244.699	149.06
244.932	140.06
245.166	148.06
245.399	158.06
245.633	153.06
245.866	163.06
246.099	149.06
246.333	121.06
246.566	156.06
246.8	148.06
247.033	152.06
247.266	154.06
247.5	153.06
247.733	168.06
247.966	172.06
248.2	151.06
248.433	164.06
248.666	163.06
248.899	177.06
249.133	176.06
249.366	191.06
249.599	191.06
249.832	185.06
250.066	189.06
250.299	193.06
250.532	171.06
250.765	193.06
250.998	196.06
251.231	219.06
251.465	206.06
251.698	196.06
251.931	192.06
252.164	200.06
252.397	178.06
252.63	197.06
252.863	219.06
253.096	216.06
253.329	233.06
253.562	220.06
253.795	212.06
254.028	211.06
254.261	229.06
254.494	217.06
254.727	231.06
254.96	259.06
255.193	263.06
255.426	233.06
255.659	223.06
255.892	220.06
256.124	234.06
256.357	237.06
256.59	228.06
256.823	207.06
257.056	217.06
257.289	219.06
257.521	210.06
257.754	194.06
257.987	211.06
258.22	215.06
258.452	238.06
258.685	230.06
258.918	206.06
259.151	224.06
259.383	208.06
259.616	224.06
259.849	229.06
260.081	250.06
260.314	246.06
260.547	253.06
260.779	251.06
261.012	257.06
261.244	221.06
261.477	241.06
261.71	212.06
261.942	235.06
262.175	221.06
262.407	226.06
262.64	213.06
262.872	235.06
263.105	212.06
263.337	209.06
263.57	224.06
263.802	215.06
264.035	209.06
264.267	214.06
264.499	219.06
264.732	228.06
264.964	224.06
265.197	229.06
265.429	219.06
265.661	225.06
265.894	234.06
266.126	218.06
266.358	241.06
266.591	227.06
266.823	236.06
267.055	234.06
267.287	233.06
267.52	241.06
267.752	235.06
267.984	258.06
268.216	238.06
268.448	237.06
268.681	234.06
268.913	240.06
269.145	269.06
269.377	272.06
269.609	272.06
269.841	259.06
270.073	265.06
270.306	293.06
270.538	308.06
270.77	313.06
271.002	326.06
271.234	299.06
271.466	301.06
271.698	315.06
271.93	326.06
272.162	312.06
272.394	314.06
272.626	307.06
272.858	296.06
273.09	289.06
273.322	291.06
273.553	281.06
273.785	274.06
274.017	284.06
274.249	290.06
274.481	278.06
274.713	270.06
274.945	267.06
275.176	275.06
275.408	279.06
275.64	288.06
275.872	290.06
276.104	289.06
276.335	288.06
276.567	264.06
276.799	293.06
277.031	295.06
277.262	325.06
277.494	330.06
277.726	322.06
277.957	309.06
278.189	297.06
278.421	280.06
278.652	266.06
278.884	282.06
279.115	298.06
279.347	302.06
279.579	292.06
279.81	285.06
280.042	301.06
280.273	291.06
280.505	299.06
280.736	284.06
280.968	290.06
281.199	296.06
281.431	301.06
281.662	306.06
281.894	314.06
282.125	270.06
282.356	296.06
282.588	324.06
282.819	300.06
283.051	300.06
283.282	312.06
283.513	284.06
283.745	288.06
283.976	300.06
284.207	299.06
284.439	297.06
284.67	317.06
284.901	313.06
285.132	334.06
285.364	313.06
285.595	285.06
285.826	295.06
286.057	304.06
286.288	306.06
286.52	306.06
286.751	332.06
286.982	325.06
287.213	333.06
287.444	315.06
287.675	311.06
287.906	319.06
288.138	339.06
288.369	329.06
288.6	336.06
288.831	312.06
289.062	339.06
289.293	335.06
289.524	328.06
289.755	297.06
289.986	318.06
290.217	292.06
290.448	321.06
290.679	322.06
290.91	330.06
291.141	300.06
291.371	331.06
291.602	317.06
291.833	321.06
292.064	336.06
292.295	317.06
292.526	320.06
292.757	311.06
292.987	314.06
293.218	318.06
293.449	329.06
293.68	342.06
293.91	324.06
294.141	315.06
294.372	332.06
294.603	319.06
294.833	316.06
295.064	323.06
295.295	324.06
295.525	322.06
295.756	326.06
295.987	344.06
296.217	338.06
296.448	327.06
296.679	329.06
296.909	323.06
297.14	315.06
297.37	340.06
297.601	330.06
297.831	338.06
298.062	331.06
298.292	347.06
298.523	321.06
298.753	338.06
298.984	339.06
299.214	358.06
299.445	340.06
299.675	322.06
299.905	350.06
300.136	349.06
300.366	341.06
300.597	329.06
300.827	354.06
301.057	361.06
301.288	351.06
301.518	371.06
301.748	355.06
301.979	351.06
302.209	351.06
302.439	361.06
302.669	365.06
302.9	371.06
303.13	348.06
303.36	357.06
303.59	360.06
303.82	352.06
304.051	398.06
304.281	337.06
304.511	352.06
304.741	352.06
304.971	361.06
305.201	359.06
305.431	365.06
305.661	355.06
305.891	371.06
306.121	367.06
306.352	347.06
306.582	357.06
306.812	349.06
307.042	380.06
307.272	371.06
307.502	367.06
307.731	373.06
307.961	378.06
308.191	351.06
308.421	352.06
308.651	372.06
308.881	368.06
309.111	368.06
309.341	372.06
309.571	390.06
309.8	381.06
310.03	392.06
310.26	386.06
310.49	389.06
310.72	396.06
310.949	391.06
311.179	405.06
311.409	399.06
311.639	413.06
311.868	407.06
312.098	409.06
312.328	410.06
312.557	398.06
312.787	426.06
313.017	395.06
313.246	421.06
313.476	416.06
313.706	406.06
313.935	403.06
314.165	413.06
314.394	416.06
314.624	417.06
314.853	409.06
315.083	401.06
315.312	412.06
315.542	397.06
315.771	398.06
316.001	406.06
316.23	391.06
316.46	405.06
316.689	438.06
316.919	424.06
317.148	394.06
317.377	411.06
317.607	389.06
317.836	420.06
318.065	396.06
318.295	396.06
318.524	396.06
318.753	403.06
318.983	398.06
319.212	389.06
319.441	409.06
319.67	409.06
319.9	404.06
320.129	404.06
320.358	377.06
320.587	424.06
320.816	407.06
321.046	395.06
321.275	420.06
321.504	412.06
321.733	407.06
321.962	406.06
322.191	433.06
322.42	434.06
322.649	448.06
322.878	446.06
323.108	454.06
323.337	454.06
323.566	461.06
323.795	500.06
324.024	537.06
324.253	601.06
324.482	786.06
324.71	1148.06
324.939	1544.06
325.168	1303.06
325.397	734.06
325.626	569.06
325.855	516.06
326.084	472.06
326.313	470.06
326.542	477.06
326.77	530.06
326.999	580.06
327.228	740.06
327.457	1034.06
327.686	1199.06
327.914	838.06
328.143	628.06
328.372	547.06
328.6	524.06
328.829	524.06
329.058	534.06
329.287	548.06
329.515	504.06
329.744	501.06
329.972	503.06
330.201	508.06
330.43	541.06
330.658	539.06
330.887	551.06
331.115	548.06
331.344	492.06
331.572	489.06
331.801	491.06
332.03	501.06
332.258	496.06
332.486	498.06
332.715	481.06
332.943	472.06
333.172	481.06
333.4	485.06
333.629	509.06
333.857	532.06
334.085	521.06
334.314	530.06
334.542	519.06
334.771	548.06
334.999	532.06
335.227	499.06
335.455	503.06
335.684	470.06
335.912	466.06
336.14	463.06
336.369	472.06
336.597	482.06
336.825	487.06
337.053	479.06
337.281	454.06
337.51	452.06
337.738	458.06
337.966	456.06
338.194	458.06
338.422	462.06
338.65	458.06
338.878	461.06
339.106	466.06
339.334	448.06
339.562	444.06
339.79	459.06
340.018	440.06
340.246	463.06
340.474	472.06
340.702	458.06
340.93	443.06
341.158	432.06
341.386	445.06
341.614	473.06
341.842	449.06
342.07	424.06
342.298	422.06
342.526	435.06
342.754	427.06
342.981	434.06
343.209	462.06
343.437	457.06
343.665	469.06
343.893	456.06
344.12	474.06
344.348	466.06
344.576	465.06
344.804	443.06
345.031	453.06
345.259	462.06
345.487	469.06
345.714	432.06
345.942	428.06
346.17	461.06
346.397	418.06
346.625	429.06
346.853	444.06
347.08	424.06
347.308	418.06
347.535	430.06
347.763	427.06
347.99	425.06
348.218	432.06
348.445	432.06
348.673	437.06
348.9	417.06
349.128	435.06
349.355	402.06
349.583	420.06
349.81	427.06
350.037	409.06
350.265	402.06
350.492	406.06
350.72	411.06
350.947	417.06
351.174	426.06
351.402	396.06
351.629	420.06
351.856	416.06
352.083	431.06
352.311	422.06
352.538	422.06
352.765	437.06
352.992	409.06
353.22	418.06
353.447	435.06
353.674	396.06
353.901	411.06
354.128	405.06
354.355	408.06
354.583	390.06
354.81	405.06
355.037	394.06
355.264	404.06
355.491	378.06
355.718	408.06
355.945	387.06
356.172	406.06
356.399	398.06
356.626	406.06
356.853	389.06
357.08	405.06
357.307	398.06
357.534	396.06
357.761	403.06
357.988	376.06
358.215	391.06
358.441	379.06
358.668	382.06
358.895	401.06
359.122	412.06
359.349	420.06
359.576	421.06
359.802	414.06
360.029	424.06
360.256	428.06
360.483	449.06
360.709	403.06
360.936	417.06
361.163	407.06
361.39	406.06
361.616	409.06
361.843	401.06
362.07	425.06
362.296	409.06
362.523	409.06
362.749	421.06
362.976	425.06
363.203	413.06
363.429	405.06
363.656	396.06
363.882	398.06
364.109	421.06
364.335	412.06
364.562	393.06
364.788	391.06
365.015	406.06
365.241	391.06
365.468	381.06
365.694	399.06
365.92	371.06
366.147	395.06
366.373	380.06
366.599	411.06
366.826	382.06
367.052	396.06
367.278	374.06
367.505	391.06
367.731	394.06
367.957	402.06
368.184	414.06
368.41	394.06
368.636	390.06
368.862	395.06
369.089	402.06
369.315	395.06
369.541	405.06
369.767	402.06
369.993	417.06
370.219	395.06
370.445	406.06
370.672	390.06
370.898	402.06
371.124	398.06
371.35	396.06
371.576	417.06
371.802	396.06
372.028	399.06
372.254	406.06
372.48	414.06
372.706	422.06
372.932	394.06
373.158	389.06
373.384	397.06
373.61	409.06
373.835	417.06
374.061	414.06
374.287	408.06
374.513	413.06
374.739	411.06
374.965	398.06
375.191	402.06
375.416	388.06
375.642	393.06
375.868	418.06
376.094	401.06
376.319	402.06
376.545	389.06
376.771	402.06
376.997	407.06
377.222	398.06
377.448	388.06
377.674	395.06
377.899	373.06
378.125	384.06
378.35	393.06
378.576	399.06
378.802	394.06
379.027	395.06
379.253	412.06
379.478	387.06
379.704	388.06
379.929	405.06
380.155	380.06
380.38	363.06
380.606	394.06
380.831	396.06
381.057	380.06
381.282	384.06
381.507	388.06
381.733	401.06
381.958	386.06
382.184	387.06
382.409	406.06
382.634	390.06
382.86	405.06
383.085	409.06
383.31	390.06
383.535	408.06
383.761	416.06
383.986	406.06
384.211	412.06
384.436	417.06
384.662	418.06
384.887	419.06
385.112	437.06
385.337	423.06
385.562	438.06
385.787	422.06
386.013	442.06
386.238	446.06
386.463	437.06
386.688	435.06
386.913	418.06
387.138	440.06
387.363	440.06
387.588	424.06
387.813	406.06
388.038	419.06
388.263	440.06
388.488	434.06
388.713	440.06
388.938	441.06
389.163	445.06
389.387	417.06
389.612	408.06
389.837	422.06
390.062	432.06
390.287	424.06
390.512	437.06
390.736	437.06
390.961	429.06
391.186	416.06
391.411	430.06
391.636	450.06
391.86	426.06
392.085	450.06
392.31	443.06
392.534	426.06
392.759	441.06
392.984	441.06
393.208	442.06
393.433	442.06
393.658	428.06
393.882	432.06
394.107	448.06
394.331	438.06
394.556	441.06
394.78	454.06
395.005	420.06
395.229	424.06
395.454	449.06
395.678	477.06
395.903	429.06
396.127	474.06
396.352	481.06
396.576	440.06
396.801	442.06
397.025	448.06
397.249	455.06
397.474	453.06
397.698	443.06
397.922	462.06
398.147	476.06
398.371	483.06
398.595	462.06
398.82	463.06
399.044	482.06
399.268	523.06
399.492	560.06
399.717	566.06
399.941	618.06
400.165	631.06
400.389	576.06
400.613	520.06
400.837	499.06
401.062	493.06
401.286	521.06
401.51	483.06
401.734	476.06
401.958	485.06
402.182	488.06
402.406	485.06
402.63	484.06
402.854	509.06
403.078	504.06
403.302	509.06
403.526	505.06
403.75	515.06
403.974	499.06
404.198	493.06
404.422	498.06
404.645	507.06
404.869	494.06
405.093	526.06
405.317	556.06
405.541	581.06
405.765	533.06
405.988	524.06
406.212	523.06
406.436	529.06
406.66	558.06
406.883	547.06
407.107	538.06
407.331	600.06
407.555	635.06
407.778	646.06
408.002	574.06
408.226	547.06
408.449	549.06
408.673	563.06
408.896	564.06
409.12	562.06
409.344	572.06
409.567	514.06
409.791	507.06
410.014	488.06
410.238	510.06
410.461	477.06
410.685	502.06
410.908	513.06
411.132	541.06
411.355	544.06
411.578	536.06
411.802	512.06
412.025	501.06
412.249	516.06
412.472	506.06
412.695	564.06
412.919	537.06
413.142	503.06
413.365	498.06
413.589	490.06
413.812	467.06
414.035	458.06
414.258	477.06
414.482	456.06
414.705	473.06
414.928	470.06
415.151	460.06
415.374	487.06
415.597	458.06
415.821	458.06
416.044	472.06
416.267	450.06
416.49	455.06
416.713	454.06
416.936	459.06
417.159	471.06
417.382	454.06
417.605	445.06
417.828	465.06
418.051	496.06
418.274	452.06
418.497	444.06
418.72	465.06
418.943	462.06
419.166	488.06
419.389	507.06
419.611	516.06
419.834	491.06
420.057	486.06
420.28	469.06
420.503	482.06
420.726	470.06
420.948	484.06
421.171	516.06
421.394	528.06
421.617	507.06
421.839	501.06
422.062	477.06
422.285	505.06
422.507	519.06
422.73	574.06
422.953	567.06
423.175	488.06
423.398	469.06
423.621	482.06
423.843	514.06
424.066	493.06
424.288	504.06
424.511	533.06
424.733	539.06
424.956	597.06
425.178	557.06
425.401	569.06
425.623	580.06
425.846	534.06
426.068	519.06
426.291	487.06
426.513	497.06
426.735	522.06
426.958	517.06
427.18	572.06
427.402	672.06
427.625	738.06
427.847	637.06
428.069	572.06
428.292	520.06
428.514	491.06
428.736	472.06
428.958	438.06
429.181	455.06
429.403	453.06
429.625	475.06
429.847	501.06
430.069	539.06
430.292	529.06
430.514	461.06
430.736	467.06
430.958	462.06
431.18	436.06
431.402	434.06
431.624	429.06
431.846	416.06
432.068	438.06
432.29	448.06
432.512	441.06
432.734	440.06
432.956	432.06
433.178	467.06
433.4	453.06
433.622	428.06
433.844	445.06
434.066	442.06
434.287	458.06
434.509	439.06
434.731	452.06
434.953	464.06
435.175	474.06
435.397	485.06
435.618	492.06
435.84	522.06
436.062	562.06
436.284	614.06
436.505	540.06
436.727	505.06
436.949	474.06
437.17	466.06
437.392	460.06
437.614	454.06
437.835	489.06
438.057	554.06
438.278	614.06
438.5	600.06
438.721	670.06
438.943	654.06
439.165	535.06
439.386	474.06
439.608	491.06
439.829	478.06
440.05	491.06
440.272	511.06
440.493	508.06
440.715	452.06
440.936	461.06
441.158	464.06
441.379	474.06
441.6	473.06
441.822	457.06
442.043	503.06
442.264	580.06
442.486	601.06
442.707	546.06
442.928	501.06
443.149	488.06
443.371	502.06
443.592	544.06
443.813	620.06
444.034	652.06
444.255	573.06
444.476	506.06
444.698	516.06
444.919	499.06
445.14	632.06
445.361	573.06
445.582	534.06
445.803	561.06
446.024	616.06
446.245	644.06
446.466	574.06
446.687	498.06
446.908	479.06
447.129	464.06
447.35	460.06
447.571	454.06
447.792	429.06
448.013	460.06
448.234	453.06
448.455	477.06
448.675	561.06
448.896	655.06
449.117	577.06
449.338	514.06
449.559	603.06
449.779	651.06
450	571.06
450.221	468.06
450.442	453.06
450.662	436.06
450.883	437.06
451.104	436.06
451.324	434.06
451.545	404.06
451.766	412.06
451.986	404.06
452.207	386.06
452.428	381.06
452.648	403.06
452.869	404.06
453.089	388.06
453.31	418.06
453.53	413.06
453.751	397.06
453.971	406.06
454.192	413.06
454.412	395.06
454.633	408.06
454.853	399.06
455.073	403.06
455.294	402.06
455.514	462.06
455.734	420.06
455.955	396.06
456.175	363.06
456.395	356.06
456.616	388.06
456.836	387.06
457.056	393.06
457.276	386.06
457.497	388.06
457.717	412.06
457.937	394.06
458.157	384.06
458.377	390.06
458.598	416.06
458.818	466.06
459.038	492.06
459.258	498.06
459.478	436.06
459.698	427.06
459.918	438.06
460.138	436.06
460.358	435.06
460.578	454.06
460.798	441.06
461.018	458.06
461.238	451.06
461.458	461.06
461.678	458.06
461.898	451.06
462.118	453.06
462.338	468.06
462.558	448.06
462.777	469.06
462.997	488.06
463.217	522.06
463.437	503.06
463.657	502.06
463.876	509.06
464.096	479.06
464.316	474.06
464.536	497.06
464.755	476.06
464.975	453.06
465.195	497.06
465.414	516.06
465.634	469.06
465.854	444.06
466.073	419.06
466.293	437.06
466.512	410.06
466.732	405.06
466.951	419.06
467.171	403.06
467.391	415.06
467.61	416.06
467.829	404.06
468.049	427.06
468.268	421.06
468.488	423.06
468.707	397.06
468.927	416.06
469.146	396.06
469.365	416.06
469.585	400.06
469.804	416.06
470.023	409.06
470.243	397.06
470.462	404.06
470.681	424.06
470.901	390.06
471.12	408.06
471.339	416.06
471.558	405.06
471.777	410.06
471.997	414.06
472.216	417.06
472.435	467.06
472.654	437.06
472.873	428.06
473.092	418.06
473.311	409.06
473.53	401.06
473.749	420.06
473.968	436.06
474.187	529.06
474.406	516.06
474.625	446.06
474.844	413.06
475.063	413.06
475.282	421.06
475.501	423.06
475.72	433.06
475.939	429.06
476.158	429.06
476.377	412.06
476.596	425.06
476.814	453.06
477.033	451.06
477.252	455.06
477.471	423.06
477.69	434.06
477.908	442.06
478.127	457.06
478.346	461.06
478.564	448.06
478.783	472.06
479.002	484.06
479.22	494.06
479.439	475.06
479.658	499.06
479.876	497.06
480.095	489.06
480.313	545.06
480.532	516.06
480.751	499.06
480.969	528.06
481.188	551.06
481.406	549.06
481.624	512.06
481.843	489.06
482.061	484.06
482.28	484.06
482.498	503.06
482.717	480.06
482.935	481.06
483.153	463.06
483.372	478.06
483.59	494.06
483.808	461.06
484.027	490.06
484.245	460.06
484.463	491.06
484.681	491.06
484.9	462.06
485.118	485.06
485.336	482.06
485.554	476.06
485.772	481.06
485.99	474.06
486.209	468.06
486.427	489.06
486.645	506.06
486.863	515.06
487.081	510.06
487.299	514.06
487.517	498.06
487.735	520.06
487.953	479.06
488.171	503.06
488.389	514.06
488.607	497.06
488.825	516.06
489.043	508.06
489.261	517.06
489.479	535.06
489.696	496.06
489.914	512.06
490.132	530.06
490.35	530.06
490.568	535.06
490.786	551.06
491.003	556.06
491.221	549.06
491.439	565.06
491.657	556.06
491.874	574.06
492.092	572.06
492.31	590.06
492.527	581.06
492.745	585.06
492.963	578.06
493.18	582.06
493.398	593.06
493.615	565.06
493.833	587.06
494.05	577.06
494.268	560.06
494.485	562.06
494.703	580.06
494.92	578.06
495.138	577.06
495.355	595.06
495.573	600.06
495.79	598.06
496.008	594.06
496.225	569.06
496.442	579.06
496.66	589.06
496.877	571.06
497.094	604.06
497.312	597.06
497.529	617.06
497.746	638.06
497.963	635.06
498.181	665.06
498.398	653.06
498.615	688.06
498.832	700.06
499.049	705.06
499.267	754.06
499.484	758.06
499.701	783.06
499.918	841.06
500.135	850.06
500.352	924.06
500.569	932.06
500.786	932.06
501.003	922.06
501.22	856.06
501.437	828.06
501.654	838.06
501.871	811.06
502.088	749.06
502.305	722.06
502.522	696.06
502.739	696.06
502.956	637.06
503.172	641.06
503.389	599.06
503.606	635.06
503.823	620.06
504.04	602.06
504.256	635.06
504.473	605.06
504.69	586.06
504.907	631.06
505.123	589.06
505.34	582.06
505.557	580.06
505.773	561.06
505.99	577.06
506.207	564.06
506.423	558.06
506.64	554.06
506.856	560.06
507.073	541.06
507.289	527.06
507.506	530.06
507.722	520.06
507.939	540.06
508.155	536.06
508.372	514.06
508.588	512.06
508.805	513.06
509.021	500.06
509.238	525.06
509.454	522.06
509.67	508.06
509.887	517.06
510.103	521.06
510.319	520.06
510.536	565.06
510.752	774.06
510.968	648.06
511.184	510.06
511.401	488.06
511.617	512.06
511.833	505.06
512.049	494.06
512.265	491.06
512.481	481.06
512.698	476.06
512.914	477.06
513.13	474.06
513.346	470.06
513.562	471.06
513.778	467.06
513.994	495.06
514.21	504.06
514.426	526.06
514.642	501.06
514.858	532.06
515.074	541.06
515.29	608.06
515.506	771.06
515.721	659.06
515.937	540.06
516.153	525.06
516.369	516.06
516.585	504.06
516.801	527.06
517.016	525.06
517.232	521.06
517.448	538.06
517.664	548.06
517.879	551.06
518.095	536.06
518.311	520.06
518.527	517.06
518.742	501.06
518.958	525.06
519.173	482.06
519.389	483.06
519.605	489.06
519.82	490.06
520.036	487.06
520.251	496.06
520.467	528.06
520.682	497.06
520.898	514.06
521.113	505.06
521.329	528.06
521.544	573.06
521.76	668.06
521.975	936.06
522.19	866.06
522.406	601.06
522.621	490.06
522.836	492.06
523.052	476.06
523.267	444.06
523.482	426.06
523.698	446.06
523.913	441.06
524.128	429.06
524.343	439.06
524.559	440.06
524.774	451.06
524.989	432.06
525.204	425.06
525.419	421.06
525.634	408.06
525.849	420.06
526.064	444.06
526.28	409.06
526.495	415.06
526.71	411.06
526.925	415.06
527.14	411.06
527.355	413.06
527.57	388.06
527.785	409.06
527.999	426.06
528.214	433.06
528.429	426.06
528.644	395.06
528.859	408.06
529.074	434.06
529.289	426.06
529.503	442.06
529.718	455.06
529.933	432.06
530.148	426.06
530.363	424.06
530.577	404.06
530.792	405.06
531.007	397.06
531.221	396.06
531.436	420.06
531.651	404.06
531.865	382.06
532.08	398.06
532.295	413.06
532.509	402.06
532.724	390.06
532.938	386.06
533.153	386.06
533.367	395.06
533.582	399.06
533.796	389.06
534.011	390.06
534.225	406.06
534.44	391.06
534.654	400.06
534.868	398.06
535.083	390.06
535.297	406.06
535.511	405.06
535.726	396.06
535.94	398.06
536.154	411.06
536.369	387.06
536.583	387.06
536.797	371.06
537.011	378.06
537.225	360.06
537.44	382.06
537.654	376.06
537.868	391.06
538.082	388.06
538.296	393.06
538.51	398.06
538.724	376.06
538.938	379.06
539.153	387.06
539.367	388.06
539.581	373.06
539.795	380.06
540.009	388.06
540.222	377.06
540.436	372.06
540.65	400.06
540.864	393.06
541.078	378.06
541.292	381.06
541.506	389.06
541.72	394.06
541.934	392.06
542.147	383.06
542.361	366.06
542.575	372.06
542.789	372.06
543.002	358.06
543.216	388.06
543.43	382.06
543.644	380.06
543.857	371.06
544.071	386.06
544.285	400.06
544.498	379.06
544.712	369.06
544.925	364.06
545.139	368.06
545.352	376.06
545.566	365.06
545.779	376.06
545.993	359.06
546.206	375.06
546.42	362.06
546.633	378.06
546.847	374.06
547.06	377.06
547.274	374.06
547.487	370.06
547.7	377.06
547.914	386.06
548.127	380.06
548.34	368.06
548.554	357.06
548.767	383.06
548.98	368.06
549.193	364.06
549.407	374.06
549.62	377.06
549.833	362.06
550.046	362.06
550.259	368.06
550.473	352.06
550.686	363.06
550.899	374.06
551.112	380.06
551.325	366.06
551.538	347.06
551.751	360.06
551.964	359.06
552.177	367.06
552.39	369.06
552.603	373.06
552.816	368.06
553.029	380.06
553.242	391.06
553.455	386.06
553.667	402.06
553.88	404.06
554.093	373.06
554.306	378.06
554.519	355.06
554.732	380.06
554.944	362.06
555.157	340.06
555.37	366.06
555.583	362.06
555.795	365.06
556.008	341.06
556.221	333.06
556.433	320.06
556.646	348.06
556.859	322.06
557.071	338.06
557.284	339.06
557.496	339.06
557.709	333.06
557.921	331.06
558.134	322.06
558.346	345.06
558.559	333.06
558.771	335.06
558.984	341.06
559.196	330.06
559.409	324.06
559.621	324.06
559.833	328.06
560.046	332.06
560.258	336.06
560.47	318.06
560.683	313.06
560.895	329.06
561.107	344.06
561.32	332.06
561.532	345.06
561.744	321.06
561.956	325.06
562.168	328.06
562.381	330.06
562.593	331.06
562.805	329.06
563.017	341.06
563.229	329.06
563.441	324.06
563.653	319.06
563.865	326.06
564.077	337.06
564.289	343.06
564.501	321.06
564.713	346.06
564.925	326.06
565.137	357.06
565.349	342.06
565.561	368.06
565.773	375.06
565.985	376.06
566.197	389.06
566.408	397.06
566.62	402.06
566.832	433.06
567.044	428.06
567.255	428.06
567.467	447.06
567.679	448.06
567.891	451.06
568.102	450.06
568.314	438.06
568.526	436.06
568.737	414.06
568.949	394.06
569.161	365.06
569.372	373.06
569.584	360.06
569.795	346.06
570.007	334.06
570.218	352.06
570.43	364.06
570.641	322.06
570.853	322.06
571.064	324.06
571.276	317.06
571.487	324.06
571.698	314.06
571.91	323.06
572.121	312.06
572.333	295.06
572.544	303.06
572.755	304.06
572.966	313.06
573.178	313.06
573.389	298.06
573.6	280.06
573.811	288.06
574.023	281.06
574.234	306.06
574.445	292.06
574.656	261.06
574.867	290.06
575.078	269.06
575.289	295.06
575.501	280.06
575.712	281.06
575.923	282.06
576.134	270.06
576.345	278.06
576.556	277.06
576.767	295.06
576.978	266.06
577.188	271.06
577.399	280.06
577.61	262.06
577.821	288.06
578.032	259.06
578.243	280.06
578.454	361.06
578.665	312.06
578.875	275.06
579.086	284.06
579.297	260.06
579.508	262.06
579.718	274.06
579.929	265.06
580.14	252.06
580.35	272.06
580.561	274.06
580.772	265.06
580.982	276.06
581.193	258.06
581.403	257.06
581.614	264.06
581.825	249.06
582.035	258.06
582.246	253.06
582.456	266.06
582.667	242.06
582.877	272.06
583.087	266.06
583.298	241.06
583.508	257.06
583.719	250.06
583.929	260.06
584.139	260.06
584.35	240.06
584.56	242.06
584.77	258.06
584.981	264.06
585.191	259.06
585.401	246.06
585.611	256.06
585.821	235.06
586.032	248.06
586.242	260.06
586.452	241.06
586.662	246.06
586.872	252.06
587.082	243.06
587.292	243.06
587.502	245.06
587.713	260.06
587.923	237.06
588.133	231.06
588.343	242.06
588.553	254.06
588.762	243.06
588.972	251.06
589.182	258.06
589.392	246.06
589.602	253.06
589.812	251.06
590.022	272.06
590.232	237.06
590.441	251.06
590.651	264.06
590.861	267.06
591.071	271.06
591.281	264.06
591.49	244.06
591.7	257.06
591.91	267.06
592.119	254.06
592.329	258.06
592.539	275.06
592.748	254.06
592.958	276.06
593.167	259.06
593.377	272.06
593.587	280.06
593.796	269.06
594.006	287.06
594.215	271.06
594.424	263.06
594.634	289.06
594.843	271.06
595.053	258.06
595.262	254.06
595.472	266.06
595.681	250.06
595.89	249.06
596.1	253.06
596.309	244.06
596.518	248.06
596.727	263.06
596.937	257.06
597.146	245.06
597.355	247.06
597.564	239.06
597.774	236.06
597.983	220.06
598.192	234.06
598.401	233.06
598.61	225.06
598.819	220.06
599.028	218.06
599.237	235.06
599.446	212.06
599.655	219.06
599.864	226.06
600.073	222.06
600.282	217.06
600.491	213.06
600.7	232.06
600.909	218.06
601.118	221.06
601.327	213.06
601.536	230.06
601.745	209.06
601.953	228.06
602.162	213.06
602.371	228.06
602.58	228.06
602.789	213.06
602.997	202.06
603.206	206.06
603.415	216.06
603.623	205.06
603.832	213.06
604.041	212.06
604.249	212.06
604.458	205.06
604.666	207.06
604.875	222.06
605.084	203.06
605.292	217.06
605.501	212.06
605.709	197.06
605.918	208.06
606.126	194.06
606.334	200.06
606.543	202.06
606.751	215.06
606.96	209.06
607.168	201.06
607.376	204.06
607.585	216.06
607.793	199.06
608.001	209.06
608.21	211.06
608.418	213.06
608.626	201.06
608.834	219.06
609.043	200.06
609.251	213.06
609.459	204.06
609.667	204.06
609.875	192.06
610.083	213.06
610.291	189.06
610.499	205.06
610.707	202.06
610.916	199.06
611.124	195.06
611.332	217.06
611.54	204.06
611.748	214.06
611.955	197.06
612.163	203.06
612.371	204.06
612.579	202.06
612.787	197.06
612.995	204.06
613.203	204.06
613.411	201.06
613.618	206.06
613.826	194.06
614.034	197.06
614.242	209.06
614.449	193.06
614.657	202.06
614.865	196.06
615.072	205.06
615.28	199.06
615.488	213.06
615.695	233.06
615.903	197.06
616.111	211.06
616.318	217.06
616.526	208.06
616.733	183.06
616.941	191.06
617.148	201.06
617.356	203.06
617.563	205.06
617.771	197.06
617.978	193.06
618.185	216.06
618.393	196.06
618.6	196.06
618.807	209.06
619.015	201.06
619.222	186.06
619.429	182.06
619.637	205.06
619.844	199.06
620.051	189.06
620.258	182.06
620.466	194.06
620.673	198.06
620.88	181.06
621.087	186.06
621.294	197.06
621.501	181.06
621.708	201.06
621.915	190.06
622.122	196.06
622.329	201.06
622.536	183.06
622.743	188.06
622.95	190.06
623.157	164.06
623.364	190.06
623.571	184.06
623.778	185.06
623.985	173.06
624.192	188.06
624.399	189.06
624.606	185.06
624.812	190.06
625.019	190.06
625.226	188.06
625.433	186.06
625.639	196.06
625.846	187.06
626.053	185.06
626.259	177.06
626.466	185.06
626.673	170.06
626.879	178.06
627.086	183.06
627.293	174.06
627.499	182.06
627.706	194.06
627.912	171.06
628.119	161.06
628.325	179.06
628.532	157.06
628.738	186.06
628.945	167.06
629.151	181.06
629.357	187.06
629.564	187.06
629.77	163.06
629.976	173.06
630.183	185.06
630.389	176.06
630.595	182.06
630.802	188.06
631.008	170.06
631.214	172.06
631.42	160.06
631.627	168.06
631.833	172.06
632.039	177.06
632.245	157.06
632.451	154.06
632.657	180.06
632.863	184.06
633.069	182.06
633.275	152.06
633.481	155.06
633.688	177.06
633.893	165.06
634.099	155.06
634.305	165.06
634.511	165.06
634.717	150.06
634.923	156.06
635.129	160.06
635.335	164.06
635.541	159.06
635.747	163.06
635.952	179.06
636.158	157.06
636.364	158.06
636.57	163.06
636.775	154.06
636.981	143.06
637.187	141.06
637.392	159.06
637.598	142.06
637.804	165.06
638.009	170.06
638.215	150.06
638.421	153.06
638.626	153.06
638.832	155.06
639.037	165.06
639.243	154.06
639.448	152.06
639.654	147.06
639.859	152.06
640.065	150.06
640.27	155.06
640.475	162.06
640.681	149.06
640.886	141.06
641.091	145.06
641.297	147.06
641.502	143.06
641.707	156.06
641.913	155.06
642.118	147.06
642.323	154.06
642.528	138.06
642.733	164.06
642.939	154.06
643.144	144.06
643.349	150.06
643.554	158.06
643.759	169.06
643.964	139.06
644.169	142.06
644.374	140.06
644.579	161.06
644.784	140.06
644.989	136.06
645.194	132.06
645.399	146.06
645.604	141.06
645.809	157.06
646.014	138.06
646.219	160.06
646.423	138.06
646.628	140.06
646.833	150.06
647.038	150.06
647.243	142.06
647.447	143.06
647.652	136.06
647.857	150.06
648.062	161.06
648.266	152.06
648.471	153.06
648.676	144.06
648.88	151.06
649.085	150.06
649.289	142.06
649.494	157.06
649.698	167.06
649.903	158.06
650.107	161.06
650.312	157.06
650.516	142.06
650.721	141.06
650.925	140.06
651.13	146.06
651.334	139.06
651.539	132.06
651.743	124.06
651.947	130.06
652.152	143.06
652.356	147.06
652.56	123.06
652.764	133.06
652.969	143.06
653.173	142.06
653.377	116.06
653.581	113.06
653.785	136.06
653.99	124.06
654.194	134.06
654.398	127.06
654.602	126.06
654.806	123.06
655.01	143.06
655.214	132.06
655.418	130.06
655.622	131.06
655.826	123.06
656.03	137.06
656.234	116.06
656.438	126.06
656.642	130.06
656.846	130.06
657.049	119.06
657.253	138.06
657.457	129.06
657.661	116.06
657.865	124.06
658.068	112.06
658.272	105.06
658.476	102.06
658.68	101.06
658.883	107.06
659.087	101.06
659.291	102.06
659.494	102.06
659.698	100.06
659.901	101.06
660.105	105.06
660.309	81.06
660.512	83.06
660.716	107.06
660.919	88.06
661.123	98.06
661.326	96.06
661.53	88.06
661.733	96.06
661.936	91.06
662.14	76.06
662.343	83.06
662.546	80.06
662.75	76.06
662.953	85.06
663.156	87.06
663.36	83.06
663.563	91.06
663.766	82.06
663.969	77.06
664.173	89.06
664.376	83.06
664.579	83.06
664.782	88.06
664.985	88.06
665.188	75.06
665.391	102.06
665.594	88.06
665.797	81.06
666	77.06
666.203	90.06
666.406	88.06
666.609	78.06
666.812	76.06
667.015	84.06
667.218	83.06
667.421	71.06
667.624	66.06
667.827	79.06
668.03	71.06
668.232	92.06
668.435	80.06
668.638	78.06
668.841	90.06
669.043	84.06
669.246	78.06
669.449	85.06
669.651	75.06
669.854	68.06
670.057	82.06
670.259	79.06
670.462	87.06
670.665	82.06
670.867	93.06
671.07	87.06
671.272	68.06
671.475	85.06
671.677	86.06
671.88	82.06
672.082	87.06
672.284	80.06
672.487	93.06
672.689	81.06
672.892	86.06
