Data from 1964.PennyLincolnUp.Lamp.En5.5.200Scan.071719.P1._HRD10591_14-04-54-909.txt Node
Date: Thu Jul 18 14:04:54 EDT 2019
User: cochatt
Spectrometer: HR+D1059
Trigger mode: 1
Integration Time (sec): 1.000000E-1
Scans to average: 1
Electric dark correction enabled: true
Nonlinearity correction enabled: false
Boxcar width: 0
XAxis mode: Wavelengths
Number of Pixels in Spectrum: 2048
>>>>>Begin Spectral Data<<<<<
223.165	-16.31
223.4	-16.31
223.635	-16.31
223.869	-14.31
224.104	-14.31
224.338	-16.31
224.573	-10.31
224.808	-6.31
225.042	-10.31
225.277	-9.31
225.511	4.69
225.746	13.69
225.98	1.69
226.215	-2.31
226.449	14.69
226.683	25.69
226.918	14.69
227.152	24.69
227.387	27.69
227.621	40.69
227.856	35.69
228.09	44.69
228.324	44.69
228.559	50.69
228.793	65.69
229.027	98.69
229.262	96.69
229.496	98.69
229.73	116.69
229.964	117.69
230.199	125.69
230.433	99.69
230.667	99.69
230.901	97.69
231.136	108.69
231.37	115.69
231.604	121.69
231.838	103.69
232.072	113.69
232.306	129.69
232.541	118.69
232.775	117.69
233.009	119.69
233.243	117.69
233.477	121.69
233.711	114.69
233.945	114.69
234.179	114.69
234.413	95.69
234.647	113.69
234.881	102.69
235.115	113.69
235.349	113.69
235.583	115.69
235.817	118.69
236.051	112.69
236.285	128.69
236.519	119.69
236.753	123.69
236.987	126.69
237.221	147.69
237.455	174.69
237.689	152.69
237.922	133.69
238.156	121.69
238.39	125.69
238.624	121.69
238.858	119.69
239.091	123.69
239.325	124.69
239.559	108.69
239.793	108.69
240.027	110.69
240.26	131.69
240.494	161.69
240.728	144.69
240.961	144.69
241.195	131.69
241.429	142.69
241.662	127.69
241.896	132.69
242.13	125.69
242.363	126.69
242.597	114.69
242.83	136.69
243.064	134.69
243.298	138.69
243.531	135.69
243.765	137.69
243.998	127.69
244.232	129.69
244.465	151.69
244.699	162.69
244.932	142.69
245.166	160.69
245.399	133.69
245.633	139.69
245.866	148.69
246.099	144.69
246.333	159.69
246.566	153.69
246.8	141.69
247.033	140.69
247.266	151.69
247.5	153.69
247.733	157.69
247.966	165.69
248.2	177.69
248.433	166.69
248.666	183.69
248.899	165.69
249.133	181.69
249.366	189.69
249.599	173.69
249.832	168.69
250.066	185.69
250.299	175.69
250.532	184.69
250.765	193.69
250.998	213.69
251.231	195.69
251.465	203.69
251.698	200.69
251.931	198.69
252.164	192.69
252.397	200.69
252.63	188.69
252.863	199.69
253.096	196.69
253.329	206.69
253.562	226.69
253.795	202.69
254.028	196.69
254.261	194.69
254.494	199.69
254.727	245.69
254.96	270.69
255.193	252.69
255.426	216.69
255.659	213.69
255.892	222.69
256.124	240.69
256.357	246.69
256.59	222.69
256.823	222.69
257.056	227.69
257.289	218.69
257.521	202.69
257.754	217.69
257.987	210.69
258.22	187.69
258.452	204.69
258.685	201.69
258.918	213.69
259.151	232.69
259.383	225.69
259.616	227.69
259.849	229.69
260.081	233.69
260.314	239.69
260.547	235.69
260.779	227.69
261.012	222.69
261.244	227.69
261.477	237.69
261.71	239.69
261.942	230.69
262.175	216.69
262.407	219.69
262.64	205.69
262.872	224.69
263.105	206.69
263.337	212.69
263.57	219.69
263.802	220.69
264.035	211.69
264.267	212.69
264.499	215.69
264.732	214.69
264.964	233.69
265.197	220.69
265.429	225.69
265.661	216.69
265.894	222.69
266.126	229.69
266.358	217.69
266.591	236.69
266.823	237.69
267.055	217.69
267.287	241.69
267.52	235.69
267.752	234.69
267.984	242.69
268.216	246.69
268.448	241.69
268.681	265.69
268.913	249.69
269.145	247.69
269.377	261.69
269.609	250.69
269.841	269.69
270.073	279.69
270.306	274.69
270.538	309.69
270.77	306.69
271.002	299.69
271.234	277.69
271.466	278.69
271.698	291.69
271.93	297.69
272.162	317.69
272.394	303.69
272.626	286.69
272.858	283.69
273.09	289.69
273.322	282.69
273.553	258.69
273.785	280.69
274.017	263.69
274.249	253.69
274.481	281.69
274.713	266.69
274.945	280.69
275.176	279.69
275.408	269.69
275.64	285.69
275.872	270.69
276.104	277.69
276.335	267.69
276.567	269.69
276.799	286.69
277.031	300.69
277.262	335.69
277.494	338.69
277.726	320.69
277.957	314.69
278.189	289.69
278.421	301.69
278.652	284.69
278.884	290.69
279.115	278.69
279.347	284.69
279.579	295.69
279.81	275.69
280.042	268.69
280.273	283.69
280.505	272.69
280.736	285.69
280.968	281.69
281.199	289.69
281.431	284.69
281.662	279.69
281.894	290.69
282.125	289.69
282.356	310.69
282.588	307.69
282.819	301.69
283.051	279.69
283.282	267.69
283.513	302.69
283.745	301.69
283.976	302.69
284.207	291.69
284.439	301.69
284.67	301.69
284.901	314.69
285.132	316.69
285.364	307.69
285.595	287.69
285.826	295.69
286.057	312.69
286.288	315.69
286.52	304.69
286.751	292.69
286.982	327.69
287.213	312.69
287.444	313.69
287.675	314.69
287.906	312.69
288.138	313.69
288.369	307.69
288.6	308.69
288.831	306.69
289.062	317.69
289.293	309.69
289.524	317.69
289.755	317.69
289.986	303.69
290.217	336.69
290.448	305.69
290.679	306.69
290.91	328.69
291.141	315.69
291.371	318.69
291.602	328.69
291.833	310.69
292.064	313.69
292.295	311.69
292.526	313.69
292.757	322.69
292.987	307.69
293.218	325.69
293.449	316.69
293.68	335.69
293.91	322.69
294.141	335.69
294.372	301.69
294.603	340.69
294.833	312.69
295.064	312.69
295.295	305.69
295.525	304.69
295.756	328.69
295.987	323.69
296.217	350.69
296.448	343.69
296.679	339.69
296.909	337.69
297.14	321.69
297.37	328.69
297.601	317.69
297.831	333.69
298.062	331.69
298.292	327.69
298.523	324.69
298.753	352.69
298.984	339.69
299.214	335.69
299.445	333.69
299.675	325.69
299.905	347.69
300.136	341.69
300.366	345.69
300.597	339.69
300.827	350.69
301.057	353.69
301.288	353.69
301.518	342.69
301.748	347.69
301.979	344.69
302.209	352.69
302.439	364.69
302.669	351.69
302.9	349.69
303.13	336.69
303.36	373.69
303.59	340.69
303.82	361.69
304.051	345.69
304.281	350.69
304.511	362.69
304.741	365.69
304.971	336.69
305.201	351.69
305.431	359.69
305.661	359.69
305.891	351.69
306.121	351.69
306.352	351.69
306.582	338.69
306.812	348.69
307.042	365.69
307.272	338.69
307.502	353.69
307.731	335.69
307.961	373.69
308.191	347.69
308.421	376.69
308.651	363.69
308.881	364.69
309.111	346.69
309.341	360.69
309.571	358.69
309.8	374.69
310.03	376.69
310.26	410.69
310.49	378.69
310.72	370.69
310.949	388.69
311.179	382.69
311.409	398.69
311.639	376.69
311.868	381.69
312.098	377.69
312.328	391.69
312.557	403.69
312.787	383.69
313.017	396.69
313.246	381.69
313.476	390.69
313.706	403.69
313.935	397.69
314.165	390.69
314.394	406.69
314.624	405.69
314.853	391.69
315.083	390.69
315.312	390.69
315.542	396.69
315.771	395.69
316.001	392.69
316.23	371.69
316.46	411.69
316.689	409.69
316.919	399.69
317.148	389.69
317.377	404.69
317.607	397.69
317.836	411.69
318.065	409.69
318.295	402.69
318.524	405.69
318.753	393.69
318.983	395.69
319.212	384.69
319.441	411.69
319.67	396.69
319.9	406.69
320.129	397.69
320.358	394.69
320.587	399.69
320.816	416.69
321.046	398.69
321.275	407.69
321.504	382.69
321.733	429.69
321.962	428.69
322.191	418.69
322.42	420.69
322.649	426.69
322.878	425.69
323.108	442.69
323.337	462.69
323.566	452.69
323.795	475.69
324.024	478.69
324.253	581.69
324.482	739.69
324.71	1129.69
324.939	1464.69
325.168	1290.69
325.397	670.69
325.626	527.69
325.855	470.69
326.084	458.69
326.313	461.69
326.542	470.69
326.77	499.69
326.999	534.69
327.228	711.69
327.457	1025.69
327.686	1113.69
327.914	795.69
328.143	550.69
328.372	532.69
328.6	484.69
328.829	469.69
329.058	502.69
329.287	512.69
329.515	471.69
329.744	483.69
329.972	497.69
330.201	514.69
330.43	491.69
330.658	539.69
330.887	545.69
331.115	512.69
331.344	474.69
331.572	465.69
331.801	479.69
332.03	466.69
332.258	461.69
332.486	489.69
332.715	466.69
332.943	470.69
333.172	469.69
333.4	479.69
333.629	460.69
333.857	501.69
334.085	483.69
334.314	491.69
334.542	533.69
334.771	549.69
334.999	497.69
335.227	481.69
335.455	473.69
335.684	474.69
335.912	473.69
336.14	470.69
336.369	456.69
336.597	473.69
336.825	466.69
337.053	443.69
337.281	450.69
337.51	440.69
337.738	445.69
337.966	465.69
338.194	476.69
338.422	451.69
338.65	459.69
338.878	444.69
339.106	438.69
339.334	449.69
339.562	436.69
339.79	457.69
340.018	426.69
340.246	428.69
340.474	413.69
340.702	447.69
340.93	424.69
341.158	443.69
341.386	447.69
341.614	429.69
341.842	425.69
342.07	427.69
342.298	426.69
342.526	445.69
342.754	433.69
342.981	422.69
343.209	437.69
343.437	427.69
343.665	462.69
343.893	450.69
344.12	461.69
344.348	471.69
344.576	465.69
344.804	433.69
345.031	425.69
345.259	441.69
345.487	443.69
345.714	446.69
345.942	418.69
346.17	413.69
346.397	426.69
346.625	428.69
346.853	429.69
347.08	404.69
347.308	403.69
347.535	412.69
347.763	416.69
347.99	414.69
348.218	398.69
348.445	419.69
348.673	407.69
348.9	433.69
349.128	419.69
349.355	406.69
349.583	408.69
349.81	421.69
350.037	407.69
350.265	422.69
350.492	414.69
350.72	419.69
350.947	396.69
351.174	409.69
351.402	437.69
351.629	410.69
351.856	403.69
352.083	409.69
352.311	417.69
352.538	424.69
352.765	437.69
352.992	409.69
353.22	402.69
353.447	397.69
353.674	407.69
353.901	397.69
354.128	355.69
354.355	372.69
354.583	384.69
354.81	385.69
355.037	401.69
355.264	381.69
355.491	380.69
355.718	389.69
355.945	387.69
356.172	394.69
356.399	371.69
356.626	388.69
356.853	400.69
357.08	401.69
357.307	388.69
357.534	401.69
357.761	381.69
357.988	396.69
358.215	378.69
358.441	385.69
358.668	383.69
358.895	397.69
359.122	387.69
359.349	396.69
359.576	419.69
359.802	420.69
360.029	418.69
360.256	421.69
360.483	416.69
360.709	397.69
360.936	385.69
361.163	395.69
361.39	402.69
361.616	405.69
361.843	393.69
362.07	397.69
362.296	406.69
362.523	419.69
362.749	400.69
362.976	403.69
363.203	387.69
363.429	393.69
363.656	395.69
363.882	394.69
364.109	389.69
364.335	389.69
364.562	379.69
364.788	397.69
365.015	395.69
365.241	406.69
365.468	377.69
365.694	389.69
365.92	389.69
366.147	402.69
366.373	387.69
366.599	383.69
366.826	389.69
367.052	380.69
367.278	381.69
367.505	391.69
367.731	383.69
367.957	380.69
368.184	380.69
368.41	392.69
368.636	402.69
368.862	393.69
369.089	370.69
369.315	396.69
369.541	412.69
369.767	386.69
369.993	378.69
370.219	385.69
370.445	396.69
370.672	387.69
370.898	388.69
371.124	405.69
371.35	381.69
371.576	385.69
371.802	386.69
372.028	395.69
372.254	389.69
372.48	387.69
372.706	372.69
372.932	389.69
373.158	399.69
373.384	408.69
373.61	395.69
373.835	381.69
374.061	396.69
374.287	391.69
374.513	385.69
374.739	405.69
374.965	398.69
375.191	406.69
375.416	415.69
375.642	387.69
375.868	402.69
376.094	388.69
376.319	391.69
376.545	386.69
376.771	386.69
376.997	367.69
377.222	381.69
377.448	393.69
377.674	396.69
377.899	378.69
378.125	380.69
378.35	374.69
378.576	390.69
378.802	376.69
379.027	407.69
379.253	388.69
379.478	376.69
379.704	365.69
379.929	375.69
380.155	383.69
380.38	381.69
380.606	381.69
380.831	388.69
381.057	371.69
381.282	373.69
381.507	377.69
381.733	387.69
381.958	377.69
382.184	380.69
382.409	394.69
382.634	395.69
382.86	395.69
383.085	407.69
383.31	388.69
383.535	389.69
383.761	399.69
383.986	409.69
384.211	387.69
384.436	438.69
384.662	417.69
384.887	420.69
385.112	422.69
385.337	405.69
385.562	422.69
385.787	416.69
386.013	425.69
386.238	431.69
386.463	410.69
386.688	414.69
386.913	406.69
387.138	417.69
387.363	406.69
387.588	413.69
387.813	416.69
388.038	428.69
388.263	433.69
388.488	402.69
388.713	417.69
388.938	422.69
389.163	411.69
389.387	422.69
389.612	415.69
389.837	411.69
390.062	405.69
390.287	415.69
390.512	400.69
390.736	409.69
390.961	408.69
391.186	413.69
391.411	415.69
391.636	431.69
391.86	430.69
392.085	440.69
392.31	429.69
392.534	424.69
392.759	425.69
392.984	407.69
393.208	430.69
393.433	422.69
393.658	398.69
393.882	418.69
394.107	420.69
394.331	431.69
394.556	429.69
394.78	430.69
395.005	409.69
395.229	425.69
395.454	430.69
395.678	436.69
395.903	435.69
396.127	450.69
396.352	446.69
396.576	450.69
396.801	412.69
397.025	431.69
397.249	442.69
397.474	456.69
397.698	439.69
397.922	446.69
398.147	470.69
398.371	466.69
398.595	444.69
398.82	457.69
399.044	490.69
399.268	509.69
399.492	534.69
399.717	549.69
399.941	571.69
400.165	570.69
400.389	571.69
400.613	522.69
400.837	505.69
401.062	487.69
401.286	490.69
401.51	482.69
401.734	450.69
401.958	499.69
402.182	481.69
402.406	484.69
402.63	487.69
402.854	473.69
403.078	489.69
403.302	481.69
403.526	475.69
403.75	489.69
403.974	475.69
404.198	472.69
404.422	507.69
404.645	511.69
404.869	500.69
405.093	531.69
405.317	556.69
405.541	580.69
405.765	524.69
405.988	506.69
406.212	494.69
406.436	516.69
406.66	506.69
406.883	524.69
407.107	557.69
407.331	579.69
407.555	625.69
407.778	615.69
408.002	584.69
408.226	544.69
408.449	547.69
408.673	516.69
408.896	553.69
409.12	572.69
409.344	527.69
409.567	488.69
409.791	507.69
410.014	500.69
410.238	482.69
410.461	475.69
410.685	467.69
410.908	489.69
411.132	521.69
411.355	543.69
411.578	539.69
411.802	490.69
412.025	473.69
412.249	487.69
412.472	501.69
412.695	531.69
412.919	505.69
413.142	478.69
413.365	473.69
413.589	464.69
413.812	465.69
414.035	455.69
414.258	474.69
414.482	451.69
414.705	469.69
414.928	486.69
415.151	466.69
415.374	459.69
415.597	456.69
415.821	429.69
416.044	429.69
416.267	450.69
416.49	420.69
416.713	436.69
416.936	445.69
417.159	467.69
417.382	483.69
417.605	458.69
417.828	461.69
418.051	477.69
418.274	476.69
418.497	450.69
418.72	462.69
418.943	443.69
419.166	483.69
419.389	498.69
419.611	492.69
419.834	495.69
420.057	495.69
420.28	459.69
420.503	455.69
420.726	454.69
420.948	483.69
421.171	502.69
421.394	514.69
421.617	479.69
421.839	471.69
422.062	442.69
422.285	473.69
422.507	517.69
422.73	571.69
422.953	535.69
423.175	484.69
423.398	465.69
423.621	496.69
423.843	495.69
424.066	511.69
424.288	498.69
424.511	511.69
424.733	561.69
424.956	577.69
425.178	561.69
425.401	569.69
425.623	583.69
425.846	491.69
426.068	492.69
426.291	486.69
426.513	476.69
426.735	484.69
426.958	525.69
427.18	564.69
427.402	661.69
427.625	677.69
427.847	616.69
428.069	552.69
428.292	519.69
428.514	449.69
428.736	446.69
428.958	449.69
429.181	447.69
429.403	434.69
429.625	439.69
429.847	464.69
430.069	523.69
430.292	528.69
430.514	471.69
430.736	434.69
430.958	432.69
431.18	436.69
431.402	414.69
431.624	426.69
431.846	410.69
432.068	418.69
432.29	424.69
432.512	411.69
432.734	412.69
432.956	417.69
433.178	438.69
433.4	445.69
433.622	429.69
433.844	440.69
434.066	430.69
434.287	436.69
434.509	431.69
434.731	443.69
434.953	445.69
435.175	455.69
435.397	474.69
435.618	476.69
435.84	513.69
436.062	547.69
436.284	599.69
436.505	507.69
436.727	478.69
436.949	449.69
437.17	463.69
437.392	466.69
437.614	446.69
437.835	467.69
438.057	527.69
438.278	603.69
438.5	607.69
438.721	646.69
438.943	622.69
439.165	524.69
439.386	495.69
439.608	466.69
439.829	451.69
440.05	474.69
440.272	520.69
440.493	489.69
440.715	461.69
440.936	442.69
441.158	449.69
441.379	445.69
441.6	455.69
441.822	469.69
442.043	487.69
442.264	552.69
442.486	594.69
442.707	499.69
442.928	479.69
443.149	504.69
443.371	505.69
443.592	537.69
443.813	600.69
444.034	639.69
444.255	573.69
444.476	510.69
444.698	500.69
444.919	489.69
445.14	607.69
445.361	551.69
445.582	493.69
445.803	534.69
446.024	617.69
446.245	600.69
446.466	551.69
446.687	474.69
446.908	469.69
447.129	434.69
447.35	422.69
447.571	450.69
447.792	418.69
448.013	430.69
448.234	434.69
448.455	476.69
448.675	541.69
448.896	666.69
449.117	547.69
449.338	525.69
449.559	611.69
449.779	683.69
450	564.69
450.221	482.69
450.442	446.69
450.662	433.69
450.883	431.69
451.104	442.69
451.324	409.69
451.545	405.69
451.766	402.69
451.986	384.69
452.207	392.69
452.428	392.69
452.648	385.69
452.869	381.69
453.089	396.69
453.31	375.69
453.53	383.69
453.751	380.69
453.971	387.69
454.192	390.69
454.412	379.69
454.633	382.69
454.853	403.69
455.073	381.69
455.294	399.69
455.514	436.69
455.734	439.69
455.955	397.69
456.175	389.69
456.395	357.69
456.616	375.69
456.836	365.69
457.056	371.69
457.276	357.69
457.497	354.69
457.717	390.69
457.937	373.69
458.157	380.69
458.377	386.69
458.598	404.69
458.818	437.69
459.038	470.69
459.258	475.69
459.478	450.69
459.698	401.69
459.918	412.69
460.138	428.69
460.358	452.69
460.578	426.69
460.798	441.69
461.018	460.69
461.238	426.69
461.458	427.69
461.678	454.69
461.898	450.69
462.118	436.69
462.338	446.69
462.558	446.69
462.777	468.69
462.997	488.69
463.217	499.69
463.437	501.69
463.657	505.69
463.876	480.69
464.096	478.69
464.316	475.69
464.536	472.69
464.755	460.69
464.975	464.69
465.195	479.69
465.414	502.69
465.634	454.69
465.854	415.69
466.073	436.69
466.293	421.69
466.512	378.69
466.732	406.69
466.951	407.69
467.171	393.69
467.391	420.69
467.61	400.69
467.829	409.69
468.049	420.69
468.268	409.69
468.488	380.69
468.707	391.69
468.927	391.69
469.146	374.69
469.365	396.69
469.585	368.69
469.804	397.69
470.023	411.69
470.243	411.69
470.462	407.69
470.681	412.69
470.901	411.69
471.12	426.69
471.339	391.69
471.558	397.69
471.777	414.69
471.997	395.69
472.216	407.69
472.435	435.69
472.654	420.69
472.873	407.69
473.092	395.69
473.311	407.69
473.53	416.69
473.749	413.69
473.968	442.69
474.187	509.69
474.406	527.69
474.625	456.69
474.844	409.69
475.063	396.69
475.282	405.69
475.501	411.69
475.72	402.69
475.939	403.69
476.158	427.69
476.377	431.69
476.596	410.69
476.814	422.69
477.033	421.69
477.252	427.69
477.471	428.69
477.69	461.69
477.908	436.69
478.127	425.69
478.346	471.69
478.564	439.69
478.783	467.69
479.002	460.69
479.22	473.69
479.439	453.69
479.658	473.69
479.876	472.69
480.095	484.69
480.313	521.69
480.532	501.69
480.751	515.69
480.969	510.69
481.188	499.69
481.406	526.69
481.624	508.69
481.843	471.69
482.061	470.69
482.28	471.69
482.498	481.69
482.717	460.69
482.935	454.69
483.153	466.69
483.372	469.69
483.59	456.69
483.808	467.69
484.027	472.69
484.245	454.69
484.463	473.69
484.681	484.69
484.9	461.69
485.118	478.69
485.336	460.69
485.554	478.69
485.772	469.69
485.99	478.69
486.209	462.69
486.427	475.69
486.645	487.69
486.863	491.69
487.081	494.69
487.299	507.69
487.517	500.69
487.735	495.69
487.953	510.69
488.171	490.69
488.389	484.69
488.607	479.69
488.825	522.69
489.043	487.69
489.261	486.69
489.479	513.69
489.696	505.69
489.914	504.69
490.132	503.69
490.35	484.69
490.568	515.69
490.786	520.69
491.003	546.69
491.221	526.69
491.439	534.69
491.657	538.69
491.874	554.69
492.092	559.69
492.31	553.69
492.527	567.69
492.745	536.69
492.963	565.69
493.18	564.69
493.398	571.69
493.615	568.69
493.833	560.69
494.05	561.69
494.268	538.69
494.485	569.69
494.703	569.69
494.92	573.69
495.138	570.69
495.355	574.69
495.573	565.69
495.79	582.69
496.008	595.69
496.225	586.69
496.442	581.69
496.66	588.69
496.877	581.69
497.094	580.69
497.312	598.69
497.529	607.69
497.746	625.69
497.963	609.69
498.181	636.69
498.398	625.69
498.615	683.69
498.832	698.69
499.049	690.69
499.267	703.69
499.484	723.69
499.701	746.69
499.918	799.69
500.135	840.69
500.352	888.69
500.569	902.69
500.786	901.69
501.003	857.69
501.22	852.69
501.437	809.69
501.654	794.69
501.871	771.69
502.088	742.69
502.305	708.69
502.522	676.69
502.739	682.69
502.956	622.69
503.172	633.69
503.389	594.69
503.606	602.69
503.823	606.69
504.04	606.69
504.256	594.69
504.473	614.69
504.69	594.69
504.907	587.69
505.123	588.69
505.34	569.69
505.557	556.69
505.773	532.69
505.99	559.69
506.207	560.69
506.423	557.69
506.64	543.69
506.856	541.69
507.073	539.69
507.289	539.69
507.506	510.69
507.722	533.69
507.939	534.69
508.155	525.69
508.372	529.69
508.588	494.69
508.805	506.69
509.021	494.69
509.238	505.69
509.454	530.69
509.67	510.69
509.887	512.69
510.103	516.69
510.319	479.69
510.536	548.69
510.752	750.69
510.968	622.69
511.184	510.69
511.401	483.69
511.617	487.69
511.833	478.69
512.049	473.69
512.265	495.69
512.481	489.69
512.698	489.69
512.914	498.69
513.13	466.69
513.346	477.69
513.562	473.69
513.778	461.69
513.994	460.69
514.21	472.69
514.426	485.69
514.642	522.69
514.858	537.69
515.074	527.69
515.29	610.69
515.506	731.69
515.721	637.69
515.937	515.69
516.153	502.69
516.369	498.69
516.585	504.69
516.801	489.69
517.016	523.69
517.232	521.69
517.448	486.69
517.664	517.69
517.879	525.69
518.095	505.69
518.311	522.69
518.527	525.69
518.742	513.69
518.958	478.69
519.173	500.69
519.389	478.69
519.605	478.69
519.82	462.69
520.036	483.69
520.251	497.69
520.467	492.69
520.682	493.69
520.898	488.69
521.113	485.69
521.329	522.69
521.544	533.69
521.76	636.69
521.975	875.69
522.19	821.69
522.406	589.69
522.621	489.69
522.836	469.69
523.052	437.69
523.267	432.69
523.482	456.69
523.698	428.69
523.913	419.69
524.128	414.69
524.343	437.69
524.559	418.69
524.774	406.69
524.989	443.69
525.204	429.69
525.419	415.69
525.634	432.69
525.849	397.69
526.064	417.69
526.28	423.69
526.495	410.69
526.71	401.69
526.925	398.69
527.14	403.69
527.355	392.69
527.57	395.69
527.785	409.69
527.999	405.69
528.214	409.69
528.429	405.69
528.644	388.69
528.859	404.69
529.074	405.69
529.289	417.69
529.503	425.69
529.718	444.69
529.933	438.69
530.148	408.69
530.363	405.69
530.577	398.69
530.792	389.69
531.007	396.69
531.221	386.69
531.436	400.69
531.651	414.69
531.865	404.69
532.08	397.69
532.295	391.69
532.509	385.69
532.724	400.69
532.938	385.69
533.153	400.69
533.367	387.69
533.582	383.69
533.796	403.69
534.011	389.69
534.225	401.69
534.44	393.69
534.654	381.69
534.868	378.69
535.083	365.69
535.297	378.69
535.511	387.69
535.726	405.69
535.94	392.69
536.154	387.69
536.369	383.69
536.583	379.69
536.797	389.69
537.011	378.69
537.225	381.69
537.44	362.69
537.654	373.69
537.868	371.69
538.082	378.69
538.296	381.69
538.51	400.69
538.724	373.69
538.938	376.69
539.153	377.69
539.367	396.69
539.581	371.69
539.795	376.69
540.009	371.69
540.222	379.69
540.436	379.69
540.65	380.69
540.864	370.69
541.078	391.69
541.292	387.69
541.506	388.69
541.72	376.69
541.934	380.69
542.147	358.69
542.361	391.69
542.575	371.69
542.789	382.69
543.002	383.69
543.216	387.69
543.43	393.69
543.644	364.69
543.857	391.69
544.071	364.69
544.285	362.69
544.498	383.69
544.712	372.69
544.925	365.69
545.139	381.69
545.352	381.69
545.566	378.69
545.779	374.69
545.993	358.69
546.206	360.69
546.42	343.69
546.633	371.69
546.847	358.69
547.06	362.69
547.274	378.69
547.487	380.69
547.7	380.69
547.914	363.69
548.127	385.69
548.34	385.69
548.554	373.69
548.767	365.69
548.98	362.69
549.193	362.69
549.407	367.69
549.62	362.69
549.833	366.69
550.046	369.69
550.259	358.69
550.473	360.69
550.686	360.69
550.899	335.69
551.112	341.69
551.325	351.69
551.538	357.69
551.751	356.69
551.964	347.69
552.177	366.69
552.39	339.69
552.603	362.69
552.816	374.69
553.029	378.69
553.242	363.69
553.455	378.69
553.667	371.69
553.88	393.69
554.093	379.69
554.306	347.69
554.519	356.69
554.732	350.69
554.944	350.69
555.157	348.69
555.37	343.69
555.583	332.69
555.795	333.69
556.008	338.69
556.221	343.69
556.433	337.69
556.646	327.69
556.859	332.69
557.071	335.69
557.284	332.69
557.496	317.69
557.709	325.69
557.921	330.69
558.134	322.69
558.346	340.69
558.559	345.69
558.771	324.69
558.984	308.69
559.196	321.69
559.409	316.69
559.621	328.69
559.833	310.69
560.046	325.69
560.258	325.69
560.47	316.69
560.683	310.69
560.895	310.69
561.107	309.69
561.32	330.69
561.532	319.69
561.744	326.69
561.956	317.69
562.168	324.69
562.381	323.69
562.593	319.69
562.805	335.69
563.017	324.69
563.229	309.69
563.441	321.69
563.653	318.69
563.865	320.69
564.077	330.69
564.289	340.69
564.501	326.69
564.713	327.69
564.925	343.69
565.137	343.69
565.349	331.69
565.561	350.69
565.773	348.69
565.985	346.69
566.197	374.69
566.408	387.69
566.62	393.69
566.832	410.69
567.044	403.69
567.255	407.69
567.467	415.69
567.679	424.69
567.891	430.69
568.102	445.69
568.314	420.69
568.526	401.69
568.737	396.69
568.949	378.69
569.161	354.69
569.372	360.69
569.584	358.69
569.795	325.69
570.007	315.69
570.218	356.69
570.43	337.69
570.641	333.69
570.853	319.69
571.064	317.69
571.276	304.69
571.487	314.69
571.698	309.69
571.91	313.69
572.121	315.69
572.333	316.69
572.544	297.69
572.755	285.69
572.966	294.69
573.178	295.69
573.389	302.69
573.6	290.69
573.811	277.69
574.023	271.69
574.234	276.69
574.445	297.69
574.656	275.69
574.867	268.69
575.078	260.69
575.289	274.69
575.501	287.69
575.712	284.69
575.923	271.69
576.134	258.69
576.345	251.69
576.556	280.69
576.767	272.69
576.978	278.69
577.188	270.69
577.399	275.69
577.61	281.69
577.821	263.69
578.032	259.69
578.243	282.69
578.454	365.69
578.665	314.69
578.875	271.69
579.086	248.69
579.297	254.69
579.508	295.69
579.718	279.69
579.929	274.69
580.14	274.69
580.35	252.69
580.561	254.69
580.772	243.69
580.982	252.69
581.193	261.69
581.403	254.69
581.614	271.69
581.825	262.69
582.035	246.69
582.246	256.69
582.456	253.69
582.667	243.69
582.877	246.69
583.087	272.69
583.298	256.69
583.508	258.69
583.719	254.69
583.929	249.69
584.139	255.69
584.35	252.69
584.56	262.69
584.77	246.69
584.981	242.69
585.191	246.69
585.401	235.69
585.611	250.69
585.821	248.69
586.032	274.69
586.242	264.69
586.452	250.69
586.662	237.69
586.872	247.69
587.082	248.69
587.292	239.69
587.502	233.69
587.713	237.69
587.923	245.69
588.133	247.69
588.343	241.69
588.553	227.69
588.762	261.69
588.972	261.69
589.182	250.69
589.392	277.69
589.602	255.69
589.812	257.69
590.022	276.69
590.232	238.69
590.441	231.69
590.651	249.69
590.861	238.69
591.071	247.69
591.281	265.69
591.49	249.69
591.7	258.69
591.91	261.69
592.119	248.69
592.329	252.69
592.539	251.69
592.748	265.69
592.958	271.69
593.167	260.69
593.377	257.69
593.587	267.69
593.796	275.69
594.006	274.69
594.215	264.69
594.424	245.69
594.634	267.69
594.843	277.69
595.053	252.69
595.262	266.69
595.472	252.69
595.681	250.69
595.89	232.69
596.1	249.69
596.309	243.69
596.518	249.69
596.727	229.69
596.937	236.69
597.146	214.69
597.355	225.69
597.564	237.69
597.774	226.69
597.983	224.69
598.192	225.69
598.401	219.69
598.61	216.69
598.819	239.69
599.028	241.69
599.237	229.69
599.446	210.69
599.655	230.69
599.864	227.69
600.073	205.69
600.282	224.69
600.491	217.69
600.7	215.69
600.909	209.69
601.118	222.69
601.327	214.69
601.536	219.69
601.745	194.69
601.953	224.69
602.162	201.69
602.371	194.69
602.58	211.69
602.789	207.69
602.997	213.69
603.206	220.69
603.415	217.69
603.623	203.69
603.832	209.69
604.041	226.69
604.249	215.69
604.458	211.69
604.666	203.69
604.875	192.69
605.084	214.69
605.292	214.69
605.501	191.69
605.709	187.69
605.918	197.69
606.126	197.69
606.334	210.69
606.543	191.69
606.751	201.69
606.96	200.69
607.168	211.69
607.376	211.69
607.585	197.69
607.793	201.69
608.001	198.69
608.21	220.69
608.418	194.69
608.626	189.69
608.834	211.69
609.043	212.69
609.251	194.69
609.459	222.69
609.667	204.69
609.875	188.69
610.083	200.69
610.291	180.69
610.499	216.69
610.707	206.69
610.916	201.69
611.124	195.69
611.332	214.69
611.54	195.69
611.748	217.69
611.955	214.69
612.163	215.69
612.371	211.69
612.579	193.69
612.787	212.69
612.995	197.69
613.203	204.69
613.411	211.69
613.618	213.69
613.826	193.69
614.034	198.69
614.242	197.69
614.449	204.69
614.657	198.69
614.865	197.69
615.072	197.69
615.28	203.69
615.488	187.69
615.695	207.69
615.903	199.69
616.111	183.69
616.318	191.69
616.526	199.69
616.733	194.69
616.941	185.69
617.148	200.69
617.356	202.69
617.563	194.69
617.771	195.69
617.978	200.69
618.185	183.69
618.393	187.69
618.6	201.69
618.807	192.69
619.015	190.69
619.222	193.69
619.429	195.69
619.637	197.69
619.844	193.69
620.051	205.69
620.258	202.69
620.466	193.69
620.673	193.69
620.88	197.69
621.087	183.69
621.294	183.69
621.501	196.69
621.708	183.69
621.915	187.69
622.122	189.69
622.329	190.69
622.536	183.69
622.743	186.69
622.95	185.69
623.157	197.69
623.364	187.69
623.571	179.69
623.778	162.69
623.985	198.69
624.192	181.69
624.399	185.69
624.606	183.69
624.812	170.69
625.019	162.69
625.226	188.69
625.433	187.69
625.639	170.69
625.846	173.69
626.053	184.69
626.259	184.69
626.466	191.69
626.673	173.69
626.879	159.69
627.086	186.69
627.293	177.69
627.499	171.69
627.706	169.69
627.912	179.69
628.119	195.69
628.325	189.69
628.532	180.69
628.738	162.69
628.945	188.69
629.151	169.69
629.357	170.69
629.564	181.69
629.77	167.69
629.976	172.69
630.183	186.69
630.389	162.69
630.595	176.69
630.802	173.69
631.008	151.69
631.214	172.69
631.42	166.69
631.627	177.69
631.833	183.69
632.039	161.69
632.245	173.69
632.451	173.69
632.657	152.69
632.863	154.69
633.069	162.69
633.275	159.69
633.481	160.69
633.688	174.69
633.893	165.69
634.099	178.69
634.305	161.69
634.511	155.69
634.717	159.69
634.923	151.69
635.129	184.69
635.335	163.69
635.541	159.69
635.747	151.69
635.952	170.69
636.158	174.69
636.364	142.69
636.57	167.69
636.775	158.69
636.981	172.69
637.187	139.69
637.392	143.69
637.598	152.69
637.804	149.69
638.009	157.69
638.215	159.69
638.421	166.69
638.626	140.69
638.832	156.69
639.037	148.69
639.243	159.69
639.448	152.69
639.654	163.69
639.859	149.69
640.065	138.69
640.27	165.69
640.475	142.69
640.681	164.69
640.886	147.69
641.091	159.69
641.297	138.69
641.502	143.69
641.707	150.69
641.913	155.69
642.118	155.69
642.323	153.69
642.528	155.69
642.733	147.69
642.939	137.69
643.144	142.69
643.349	139.69
643.554	157.69
643.759	160.69
643.964	150.69
644.169	150.69
644.374	156.69
644.579	142.69
644.784	139.69
644.989	142.69
645.194	144.69
645.399	150.69
645.604	140.69
645.809	151.69
646.014	167.69
646.219	153.69
646.423	152.69
646.628	143.69
646.833	155.69
647.038	155.69
647.243	152.69
647.447	149.69
647.652	147.69
647.857	143.69
648.062	143.69
648.266	156.69
648.471	147.69
648.676	149.69
648.88	161.69
649.085	166.69
649.289	149.69
649.494	158.69
649.698	157.69
649.903	151.69
650.107	168.69
650.312	151.69
650.516	146.69
650.721	142.69
650.925	129.69
651.13	137.69
651.334	130.69
651.539	132.69
651.743	134.69
651.947	139.69
652.152	133.69
652.356	152.69
652.56	143.69
652.764	127.69
652.969	126.69
653.173	128.69
653.377	128.69
653.581	130.69
653.785	125.69
653.99	119.69
654.194	126.69
654.398	127.69
654.602	122.69
654.806	128.69
655.01	123.69
655.214	131.69
655.418	132.69
655.622	129.69
655.826	123.69
656.03	119.69
656.234	129.69
656.438	133.69
656.642	124.69
656.846	132.69
657.049	116.69
657.253	111.69
657.457	91.69
657.661	102.69
657.865	113.69
658.068	110.69
658.272	118.69
658.476	104.69
658.68	107.69
658.883	102.69
659.087	95.69
659.291	96.69
659.494	92.69
659.698	94.69
659.901	87.69
660.105	99.69
660.309	103.69
660.512	85.69
660.716	102.69
660.919	95.69
661.123	95.69
661.326	102.69
661.53	87.69
661.733	72.69
661.936	78.69
662.14	63.69
662.343	85.69
662.546	87.69
662.75	79.69
662.953	89.69
663.156	76.69
663.36	74.69
663.563	78.69
663.766	98.69
663.969	71.69
664.173	73.69
664.376	70.69
664.579	90.69
664.782	83.69
664.985	75.69
665.188	84.69
665.391	77.69
665.594	85.69
665.797	86.69
666	87.69
666.203	88.69
666.406	89.69
666.609	83.69
666.812	89.69
667.015	87.69
667.218	82.69
667.421	75.69
667.624	90.69
667.827	82.69
668.03	85.69
668.232	92.69
668.435	86.69
668.638	95.69
668.841	90.69
669.043	74.69
669.246	88.69
669.449	77.69
669.651	73.69
669.854	73.69
670.057	98.69
670.259	79.69
670.462	85.69
670.665	93.69
670.867	81.69
671.07	82.69
671.272	76.69
671.475	68.69
671.677	70.69
671.88	80.69
672.082	83.69
672.284	76.69
672.487	75.69
672.689	91.69
672.892	84.69
