Data from 1964.PennyLincolnUp.Lamp.En5.5.200Scan.071719.P1._HRD10591_14-04-14-909.txt Node
Date: Thu Jul 18 14:04:14 EDT 2019
User: cochatt
Spectrometer: HR+D1059
Trigger mode: 1
Integration Time (sec): 1.000000E-1
Scans to average: 1
Electric dark correction enabled: true
Nonlinearity correction enabled: false
Boxcar width: 0
XAxis mode: Wavelengths
Number of Pixels in Spectrum: 2048
>>>>>Begin Spectral Data<<<<<
223.165	-11.25
223.4	-11.25
223.635	-11.25
223.869	-11.25
224.104	1.75
224.338	-21.25
224.573	-19.25
224.808	-9.25
225.042	-5.25
225.277	-8.25
225.511	-5.25
225.746	3.75
225.98	-8.25
226.215	6.75
226.449	7.75
226.683	20.75
226.918	27.75
227.152	30.75
227.387	35.75
227.621	33.75
227.856	44.75
228.09	44.75
228.324	32.75
228.559	61.75
228.793	65.75
229.027	88.75
229.262	100.75
229.496	90.75
229.73	126.75
229.964	140.75
230.199	110.75
230.433	114.75
230.667	129.75
230.901	110.75
231.136	102.75
231.37	102.75
231.604	102.75
231.838	102.75
232.072	114.75
232.306	119.75
232.541	120.75
232.775	117.75
233.009	112.75
233.243	109.75
233.477	122.75
233.711	110.75
233.945	117.75
234.179	115.75
234.413	111.75
234.647	100.75
234.881	85.75
235.115	119.75
235.349	119.75
235.583	128.75
235.817	121.75
236.051	132.75
236.285	114.75
236.519	110.75
236.753	112.75
236.987	131.75
237.221	153.75
237.455	181.75
237.689	152.75
237.922	121.75
238.156	121.75
238.39	115.75
238.624	117.75
238.858	117.75
239.091	130.75
239.325	135.75
239.559	130.75
239.793	105.75
240.027	137.75
240.26	137.75
240.494	132.75
240.728	138.75
240.961	128.75
241.195	142.75
241.429	135.75
241.662	133.75
241.896	127.75
242.13	123.75
242.363	134.75
242.597	139.75
242.83	138.75
243.064	144.75
243.298	141.75
243.531	116.75
243.765	142.75
243.998	133.75
244.232	149.75
244.465	136.75
244.699	141.75
244.932	143.75
245.166	139.75
245.399	142.75
245.633	125.75
245.866	138.75
246.099	144.75
246.333	151.75
246.566	159.75
246.8	146.75
247.033	143.75
247.266	158.75
247.5	135.75
247.733	170.75
247.966	168.75
248.2	172.75
248.433	161.75
248.666	179.75
248.899	183.75
249.133	184.75
249.366	183.75
249.599	197.75
249.832	159.75
250.066	170.75
250.299	174.75
250.532	189.75
250.765	186.75
250.998	213.75
251.231	217.75
251.465	197.75
251.698	191.75
251.931	195.75
252.164	189.75
252.397	184.75
252.63	200.75
252.863	204.75
253.096	193.75
253.329	217.75
253.562	231.75
253.795	217.75
254.028	226.75
254.261	197.75
254.494	223.75
254.727	234.75
254.96	237.75
255.193	239.75
255.426	238.75
255.659	202.75
255.892	224.75
256.124	225.75
256.357	255.75
256.59	228.75
256.823	207.75
257.056	196.75
257.289	217.75
257.521	227.75
257.754	217.75
257.987	218.75
258.22	205.75
258.452	198.75
258.685	198.75
258.918	206.75
259.151	223.75
259.383	218.75
259.616	214.75
259.849	223.75
260.081	227.75
260.314	240.75
260.547	254.75
260.779	232.75
261.012	234.75
261.244	234.75
261.477	220.75
261.71	220.75
261.942	234.75
262.175	217.75
262.407	219.75
262.64	215.75
262.872	214.75
263.105	228.75
263.337	220.75
263.57	229.75
263.802	213.75
264.035	206.75
264.267	234.75
264.499	220.75
264.732	224.75
264.964	221.75
265.197	203.75
265.429	240.75
265.661	223.75
265.894	231.75
266.126	243.75
266.358	229.75
266.591	220.75
266.823	226.75
267.055	232.75
267.287	247.75
267.52	237.75
267.752	225.75
267.984	255.75
268.216	247.75
268.448	238.75
268.681	251.75
268.913	255.75
269.145	256.75
269.377	271.75
269.609	257.75
269.841	270.75
270.073	267.75
270.306	264.75
270.538	297.75
270.77	299.75
271.002	288.75
271.234	310.75
271.466	316.75
271.698	300.75
271.93	323.75
272.162	308.75
272.394	308.75
272.626	309.75
272.858	284.75
273.09	261.75
273.322	270.75
273.553	279.75
273.785	265.75
274.017	261.75
274.249	268.75
274.481	263.75
274.713	280.75
274.945	291.75
275.176	279.75
275.408	266.75
275.64	277.75
275.872	276.75
276.104	293.75
276.335	284.75
276.567	301.75
276.799	291.75
277.031	311.75
277.262	330.75
277.494	308.75
277.726	331.75
277.957	299.75
278.189	291.75
278.421	288.75
278.652	274.75
278.884	293.75
279.115	283.75
279.347	279.75
279.579	276.75
279.81	291.75
280.042	276.75
280.273	282.75
280.505	288.75
280.736	284.75
280.968	296.75
281.199	278.75
281.431	277.75
281.662	288.75
281.894	286.75
282.125	288.75
282.356	298.75
282.588	329.75
282.819	315.75
283.051	295.75
283.282	300.75
283.513	305.75
283.745	306.75
283.976	312.75
284.207	296.75
284.439	297.75
284.67	312.75
284.901	300.75
285.132	299.75
285.364	310.75
285.595	297.75
285.826	303.75
286.057	315.75
286.288	296.75
286.52	307.75
286.751	312.75
286.982	321.75
287.213	324.75
287.444	311.75
287.675	313.75
287.906	301.75
288.138	317.75
288.369	339.75
288.6	324.75
288.831	317.75
289.062	323.75
289.293	325.75
289.524	320.75
289.755	318.75
289.986	319.75
290.217	309.75
290.448	331.75
290.679	307.75
290.91	307.75
291.141	294.75
291.371	336.75
291.602	312.75
291.833	320.75
292.064	328.75
292.295	332.75
292.526	315.75
292.757	311.75
292.987	312.75
293.218	314.75
293.449	319.75
293.68	315.75
293.91	323.75
294.141	313.75
294.372	316.75
294.603	312.75
294.833	310.75
295.064	323.75
295.295	331.75
295.525	327.75
295.756	325.75
295.987	319.75
296.217	331.75
296.448	335.75
296.679	311.75
296.909	300.75
297.14	340.75
297.37	324.75
297.601	325.75
297.831	324.75
298.062	324.75
298.292	343.75
298.523	334.75
298.753	329.75
298.984	326.75
299.214	338.75
299.445	349.75
299.675	346.75
299.905	335.75
300.136	332.75
300.366	349.75
300.597	344.75
300.827	349.75
301.057	350.75
301.288	363.75
301.518	358.75
301.748	354.75
301.979	382.75
302.209	347.75
302.439	343.75
302.669	359.75
302.9	348.75
303.13	358.75
303.36	368.75
303.59	357.75
303.82	379.75
304.051	359.75
304.281	356.75
304.511	360.75
304.741	354.75
304.971	359.75
305.201	351.75
305.431	352.75
305.661	357.75
305.891	343.75
306.121	339.75
306.352	368.75
306.582	363.75
306.812	353.75
307.042	333.75
307.272	345.75
307.502	343.75
307.731	360.75
307.961	347.75
308.191	360.75
308.421	340.75
308.651	371.75
308.881	375.75
309.111	381.75
309.341	356.75
309.571	363.75
309.8	385.75
310.03	375.75
310.26	376.75
310.49	383.75
310.72	389.75
310.949	390.75
311.179	393.75
311.409	399.75
311.639	379.75
311.868	374.75
312.098	382.75
312.328	390.75
312.557	380.75
312.787	368.75
313.017	403.75
313.246	397.75
313.476	390.75
313.706	404.75
313.935	416.75
314.165	404.75
314.394	411.75
314.624	409.75
314.853	399.75
315.083	394.75
315.312	392.75
315.542	397.75
315.771	373.75
316.001	380.75
316.23	399.75
316.46	407.75
316.689	396.75
316.919	401.75
317.148	410.75
317.377	418.75
317.607	421.75
317.836	405.75
318.065	379.75
318.295	400.75
318.524	409.75
318.753	378.75
318.983	420.75
319.212	424.75
319.441	367.75
319.67	383.75
319.9	403.75
320.129	391.75
320.358	389.75
320.587	409.75
320.816	403.75
321.046	426.75
321.275	415.75
321.504	410.75
321.733	419.75
321.962	406.75
322.191	419.75
322.42	422.75
322.649	424.75
322.878	446.75
323.108	435.75
323.337	448.75
323.566	463.75
323.795	470.75
324.024	490.75
324.253	552.75
324.482	746.75
324.71	1060.75
324.939	1434.75
325.168	1227.75
325.397	688.75
325.626	524.75
325.855	493.75
326.084	446.75
326.313	466.75
326.542	483.75
326.77	483.75
326.999	546.75
327.228	714.75
327.457	957.75
327.686	1111.75
327.914	771.75
328.143	565.75
328.372	523.75
328.6	529.75
328.829	508.75
329.058	525.75
329.287	510.75
329.515	496.75
329.744	488.75
329.972	474.75
330.201	475.75
330.43	511.75
330.658	517.75
330.887	533.75
331.115	490.75
331.344	496.75
331.572	471.75
331.801	479.75
332.03	487.75
332.258	478.75
332.486	453.75
332.715	454.75
332.943	488.75
333.172	464.75
333.4	481.75
333.629	464.75
333.857	523.75
334.085	504.75
334.314	519.75
334.542	532.75
334.771	523.75
334.999	503.75
335.227	491.75
335.455	493.75
335.684	495.75
335.912	482.75
336.14	452.75
336.369	471.75
336.597	485.75
336.825	464.75
337.053	467.75
337.281	463.75
337.51	437.75
337.738	451.75
337.966	436.75
338.194	447.75
338.422	452.75
338.65	455.75
338.878	443.75
339.106	446.75
339.334	451.75
339.562	447.75
339.79	440.75
340.018	447.75
340.246	438.75
340.474	419.75
340.702	447.75
340.93	422.75
341.158	440.75
341.386	445.75
341.614	447.75
341.842	454.75
342.07	431.75
342.298	438.75
342.526	442.75
342.754	424.75
342.981	425.75
343.209	429.75
343.437	429.75
343.665	449.75
343.893	462.75
344.12	477.75
344.348	443.75
344.576	477.75
344.804	447.75
345.031	442.75
345.259	456.75
345.487	436.75
345.714	433.75
345.942	443.75
346.17	435.75
346.397	416.75
346.625	429.75
346.853	439.75
347.08	423.75
347.308	423.75
347.535	425.75
347.763	392.75
347.99	413.75
348.218	400.75
348.445	429.75
348.673	428.75
348.9	432.75
349.128	410.75
349.355	404.75
349.583	391.75
349.81	393.75
350.037	427.75
350.265	390.75
350.492	399.75
350.72	385.75
350.947	412.75
351.174	405.75
351.402	401.75
351.629	418.75
351.856	409.75
352.083	407.75
352.311	416.75
352.538	415.75
352.765	415.75
352.992	413.75
353.22	409.75
353.447	409.75
353.674	410.75
353.901	401.75
354.128	387.75
354.355	406.75
354.583	393.75
354.81	387.75
355.037	408.75
355.264	380.75
355.491	383.75
355.718	379.75
355.945	412.75
356.172	393.75
356.399	389.75
356.626	381.75
356.853	376.75
357.08	400.75
357.307	391.75
357.534	369.75
357.761	386.75
357.988	406.75
358.215	399.75
358.441	399.75
358.668	396.75
358.895	377.75
359.122	401.75
359.349	391.75
359.576	407.75
359.802	416.75
360.029	430.75
360.256	449.75
360.483	429.75
360.709	415.75
360.936	416.75
361.163	410.75
361.39	411.75
361.616	398.75
361.843	393.75
362.07	403.75
362.296	395.75
362.523	418.75
362.749	393.75
362.976	407.75
363.203	404.75
363.429	399.75
363.656	383.75
363.882	387.75
364.109	376.75
364.335	396.75
364.562	408.75
364.788	370.75
365.015	393.75
365.241	409.75
365.468	393.75
365.694	384.75
365.92	391.75
366.147	393.75
366.373	395.75
366.599	373.75
366.826	391.75
367.052	385.75
367.278	395.75
367.505	403.75
367.731	393.75
367.957	367.75
368.184	374.75
368.41	387.75
368.636	406.75
368.862	399.75
369.089	389.75
369.315	395.75
369.541	399.75
369.767	391.75
369.993	381.75
370.219	383.75
370.445	390.75
370.672	395.75
370.898	387.75
371.124	378.75
371.35	397.75
371.576	394.75
371.802	407.75
372.028	387.75
372.254	386.75
372.48	402.75
372.706	395.75
372.932	405.75
373.158	394.75
373.384	387.75
373.61	385.75
373.835	387.75
374.061	402.75
374.287	376.75
374.513	377.75
374.739	405.75
374.965	404.75
375.191	390.75
375.416	399.75
375.642	373.75
375.868	388.75
376.094	381.75
376.319	381.75
376.545	388.75
376.771	393.75
376.997	372.75
377.222	397.75
377.448	389.75
377.674	405.75
377.899	399.75
378.125	377.75
378.35	383.75
378.576	379.75
378.802	379.75
379.027	389.75
379.253	379.75
379.478	389.75
379.704	382.75
379.929	391.75
380.155	373.75
380.38	387.75
380.606	393.75
380.831	384.75
381.057	387.75
381.282	381.75
381.507	393.75
381.733	393.75
381.958	386.75
382.184	382.75
382.409	422.75
382.634	398.75
382.86	399.75
383.085	390.75
383.31	389.75
383.535	405.75
383.761	394.75
383.986	415.75
384.211	417.75
384.436	401.75
384.662	404.75
384.887	388.75
385.112	412.75
385.337	430.75
385.562	436.75
385.787	423.75
386.013	429.75
386.238	432.75
386.463	429.75
386.688	455.75
386.913	435.75
387.138	426.75
387.363	430.75
387.588	404.75
387.813	426.75
388.038	419.75
388.263	431.75
388.488	421.75
388.713	427.75
388.938	428.75
389.163	426.75
389.387	423.75
389.612	420.75
389.837	431.75
390.062	393.75
390.287	446.75
390.512	411.75
390.736	442.75
390.961	447.75
391.186	429.75
391.411	441.75
391.636	447.75
391.86	428.75
392.085	440.75
392.31	431.75
392.534	431.75
392.759	451.75
392.984	447.75
393.208	440.75
393.433	433.75
393.658	431.75
393.882	432.75
394.107	438.75
394.331	449.75
394.556	413.75
394.78	424.75
395.005	441.75
395.229	440.75
395.454	419.75
395.678	451.75
395.903	439.75
396.127	467.75
396.352	459.75
396.576	473.75
396.801	438.75
397.025	441.75
397.249	445.75
397.474	431.75
397.698	469.75
397.922	457.75
398.147	452.75
398.371	463.75
398.595	462.75
398.82	483.75
399.044	492.75
399.268	527.75
399.492	543.75
399.717	568.75
399.941	586.75
400.165	595.75
400.389	585.75
400.613	552.75
400.837	504.75
401.062	496.75
401.286	481.75
401.51	497.75
401.734	456.75
401.958	486.75
402.182	459.75
402.406	473.75
402.63	477.75
402.854	494.75
403.078	477.75
403.302	496.75
403.526	489.75
403.75	489.75
403.974	529.75
404.198	484.75
404.422	492.75
404.645	506.75
404.869	514.75
405.093	546.75
405.317	558.75
405.541	581.75
405.765	539.75
405.988	527.75
406.212	504.75
406.436	527.75
406.66	533.75
406.883	531.75
407.107	553.75
407.331	588.75
407.555	617.75
407.778	623.75
408.002	569.75
408.226	547.75
408.449	537.75
408.673	523.75
408.896	551.75
409.12	599.75
409.344	561.75
409.567	506.75
409.791	512.75
410.014	499.75
410.238	500.75
410.461	476.75
410.685	499.75
410.908	507.75
411.132	523.75
411.355	555.75
411.578	530.75
411.802	501.75
412.025	494.75
412.249	504.75
412.472	506.75
412.695	549.75
412.919	532.75
413.142	495.75
413.365	479.75
413.589	463.75
413.812	475.75
414.035	477.75
414.258	477.75
414.482	458.75
414.705	471.75
414.928	468.75
415.151	465.75
415.374	441.75
415.597	456.75
415.821	457.75
416.044	490.75
416.267	477.75
416.49	447.75
416.713	450.75
416.936	449.75
417.159	481.75
417.382	466.75
417.605	460.75
417.828	475.75
418.051	488.75
418.274	492.75
418.497	464.75
418.72	457.75
418.943	469.75
419.166	480.75
419.389	512.75
419.611	487.75
419.834	476.75
420.057	499.75
420.28	485.75
420.503	491.75
420.726	464.75
420.948	481.75
421.171	523.75
421.394	521.75
421.617	486.75
421.839	481.75
422.062	476.75
422.285	486.75
422.507	501.75
422.73	571.75
422.953	553.75
423.175	493.75
423.398	462.75
423.621	475.75
423.843	516.75
424.066	488.75
424.288	485.75
424.511	521.75
424.733	556.75
424.956	596.75
425.178	579.75
425.401	586.75
425.623	597.75
425.846	515.75
426.068	483.75
426.291	495.75
426.513	475.75
426.735	501.75
426.958	515.75
427.18	592.75
427.402	666.75
427.625	711.75
427.847	639.75
428.069	554.75
428.292	495.75
428.514	461.75
428.736	480.75
428.958	459.75
429.181	467.75
429.403	476.75
429.625	466.75
429.847	495.75
430.069	525.75
430.292	504.75
430.514	448.75
430.736	444.75
430.958	425.75
431.18	423.75
431.402	431.75
431.624	423.75
431.846	449.75
432.068	412.75
432.29	415.75
432.512	440.75
432.734	468.75
432.956	461.75
433.178	441.75
433.4	446.75
433.622	447.75
433.844	462.75
434.066	435.75
434.287	423.75
434.509	444.75
434.731	447.75
434.953	445.75
435.175	470.75
435.397	499.75
435.618	489.75
435.84	516.75
436.062	569.75
436.284	616.75
436.505	522.75
436.727	471.75
436.949	488.75
437.17	467.75
437.392	455.75
437.614	450.75
437.835	480.75
438.057	533.75
438.278	606.75
438.5	579.75
438.721	663.75
438.943	622.75
439.165	508.75
439.386	486.75
439.608	480.75
439.829	487.75
440.05	467.75
440.272	519.75
440.493	484.75
440.715	439.75
440.936	454.75
441.158	462.75
441.379	441.75
441.6	483.75
441.822	450.75
442.043	490.75
442.264	565.75
442.486	620.75
442.707	512.75
442.928	500.75
443.149	494.75
443.371	499.75
443.592	553.75
443.813	576.75
444.034	625.75
444.255	551.75
444.476	499.75
444.698	488.75
444.919	481.75
445.14	616.75
445.361	523.75
445.582	515.75
445.803	552.75
446.024	603.75
446.245	621.75
446.466	571.75
446.687	493.75
446.908	448.75
447.129	439.75
447.35	428.75
447.571	448.75
447.792	437.75
448.013	431.75
448.234	443.75
448.455	493.75
448.675	568.75
448.896	603.75
449.117	540.75
449.338	535.75
449.559	605.75
449.779	683.75
450	545.75
450.221	468.75
450.442	448.75
450.662	425.75
450.883	413.75
451.104	435.75
451.324	393.75
451.545	411.75
451.766	413.75
451.986	402.75
452.207	392.75
452.428	389.75
452.648	384.75
452.869	365.75
453.089	410.75
453.31	394.75
453.53	432.75
453.751	400.75
453.971	386.75
454.192	401.75
454.412	385.75
454.633	374.75
454.853	368.75
455.073	383.75
455.294	396.75
455.514	431.75
455.734	439.75
455.955	383.75
456.175	352.75
456.395	377.75
456.616	374.75
456.836	367.75
457.056	360.75
457.276	384.75
457.497	369.75
457.717	375.75
457.937	380.75
458.157	359.75
458.377	403.75
458.598	399.75
458.818	439.75
459.038	488.75
459.258	478.75
459.478	460.75
459.698	420.75
459.918	432.75
460.138	420.75
460.358	444.75
460.578	444.75
460.798	431.75
461.018	444.75
461.238	425.75
461.458	453.75
461.678	449.75
461.898	450.75
462.118	437.75
462.338	448.75
462.558	447.75
462.777	488.75
462.997	471.75
463.217	495.75
463.437	491.75
463.657	472.75
463.876	460.75
464.096	469.75
464.316	501.75
464.536	506.75
464.755	475.75
464.975	462.75
465.195	485.75
465.414	473.75
465.634	456.75
465.854	429.75
466.073	417.75
466.293	428.75
466.512	429.75
466.732	405.75
466.951	397.75
467.171	406.75
467.391	419.75
467.61	414.75
467.829	421.75
468.049	405.75
468.268	398.75
468.488	401.75
468.707	393.75
468.927	405.75
469.146	403.75
469.365	400.75
469.585	387.75
469.804	396.75
470.023	425.75
470.243	406.75
470.462	407.75
470.681	408.75
470.901	423.75
471.12	421.75
471.339	392.75
471.558	422.75
471.777	412.75
471.997	417.75
472.216	415.75
472.435	428.75
472.654	435.75
472.873	409.75
473.092	402.75
473.311	401.75
473.53	410.75
473.749	421.75
473.968	458.75
474.187	515.75
474.406	511.75
474.625	449.75
474.844	405.75
475.063	405.75
475.282	418.75
475.501	444.75
475.72	448.75
475.939	421.75
476.158	405.75
476.377	411.75
476.596	430.75
476.814	440.75
477.033	413.75
477.252	423.75
477.471	420.75
477.69	416.75
477.908	436.75
478.127	451.75
478.346	433.75
478.564	463.75
478.783	453.75
479.002	475.75
479.22	489.75
479.439	489.75
479.658	470.75
479.876	493.75
480.095	487.75
480.313	511.75
480.532	522.75
480.751	496.75
480.969	499.75
481.188	539.75
481.406	534.75
481.624	510.75
481.843	511.75
482.061	503.75
482.28	465.75
482.498	459.75
482.717	458.75
482.935	475.75
483.153	467.75
483.372	466.75
483.59	475.75
483.808	463.75
484.027	464.75
484.245	478.75
484.463	462.75
484.681	474.75
484.9	484.75
485.118	495.75
485.336	480.75
485.554	501.75
485.772	495.75
485.99	490.75
486.209	490.75
486.427	486.75
486.645	511.75
486.863	507.75
487.081	494.75
487.299	500.75
487.517	511.75
487.735	504.75
487.953	480.75
488.171	491.75
488.389	490.75
488.607	510.75
488.825	519.75
489.043	495.75
489.261	522.75
489.479	488.75
489.696	517.75
489.914	519.75
490.132	516.75
490.35	526.75
490.568	522.75
490.786	524.75
491.003	548.75
491.221	536.75
491.439	533.75
491.657	545.75
491.874	563.75
492.092	549.75
492.31	576.75
492.527	553.75
492.745	575.75
492.963	571.75
493.18	567.75
493.398	565.75
493.615	574.75
493.833	565.75
494.05	568.75
494.268	563.75
494.485	563.75
494.703	571.75
494.92	587.75
495.138	582.75
495.355	560.75
495.573	583.75
495.79	571.75
496.008	589.75
496.225	579.75
496.442	596.75
496.66	581.75
496.877	617.75
497.094	596.75
497.312	604.75
497.529	600.75
497.746	615.75
497.963	616.75
498.181	634.75
498.398	658.75
498.615	698.75
498.832	686.75
499.049	687.75
499.267	723.75
499.484	756.75
499.701	797.75
499.918	809.75
500.135	845.75
500.352	896.75
500.569	909.75
500.786	945.75
501.003	904.75
501.22	856.75
501.437	846.75
501.654	800.75
501.871	765.75
502.088	720.75
502.305	709.75
502.522	671.75
502.739	691.75
502.956	645.75
503.172	651.75
503.389	621.75
503.606	627.75
503.823	620.75
504.04	593.75
504.256	597.75
504.473	601.75
504.69	618.75
504.907	601.75
505.123	578.75
505.34	556.75
505.557	558.75
505.773	550.75
505.99	543.75
506.207	579.75
506.423	559.75
506.64	549.75
506.856	542.75
507.073	518.75
507.289	537.75
507.506	539.75
507.722	527.75
507.939	551.75
508.155	540.75
508.372	496.75
508.588	527.75
508.805	511.75
509.021	519.75
509.238	527.75
509.454	537.75
509.67	535.75
509.887	497.75
510.103	515.75
510.319	521.75
510.536	544.75
510.752	736.75
510.968	639.75
511.184	477.75
511.401	505.75
511.617	507.75
511.833	467.75
512.049	490.75
512.265	473.75
512.481	495.75
512.698	490.75
512.914	484.75
513.13	463.75
513.346	484.75
513.562	467.75
513.778	484.75
513.994	478.75
514.21	477.75
514.426	492.75
514.642	497.75
514.858	516.75
515.074	530.75
515.29	588.75
515.506	710.75
515.721	632.75
515.937	555.75
516.153	497.75
516.369	502.75
516.585	513.75
516.801	530.75
517.016	515.75
517.232	515.75
517.448	534.75
517.664	539.75
517.879	523.75
518.095	513.75
518.311	511.75
518.527	525.75
518.742	504.75
518.958	504.75
519.173	501.75
519.389	468.75
519.605	495.75
519.82	492.75
520.036	483.75
520.251	505.75
520.467	513.75
520.682	540.75
520.898	501.75
521.113	496.75
521.329	533.75
521.544	544.75
521.76	607.75
521.975	891.75
522.19	823.75
522.406	563.75
522.621	493.75
522.836	451.75
523.052	457.75
523.267	443.75
523.482	451.75
523.698	441.75
523.913	445.75
524.128	418.75
524.343	432.75
524.559	439.75
524.774	419.75
524.989	423.75
525.204	432.75
525.419	425.75
525.634	414.75
525.849	412.75
526.064	406.75
526.28	423.75
526.495	400.75
526.71	414.75
526.925	401.75
527.14	420.75
527.355	400.75
527.57	388.75
527.785	396.75
527.999	409.75
528.214	412.75
528.429	416.75
528.644	398.75
528.859	409.75
529.074	419.75
529.289	433.75
529.503	453.75
529.718	439.75
529.933	407.75
530.148	420.75
530.363	419.75
530.577	401.75
530.792	394.75
531.007	401.75
531.221	411.75
531.436	402.75
531.651	406.75
531.865	382.75
532.08	383.75
532.295	388.75
532.509	389.75
532.724	399.75
532.938	401.75
533.153	404.75
533.367	395.75
533.582	409.75
533.796	397.75
534.011	389.75
534.225	373.75
534.44	394.75
534.654	389.75
534.868	387.75
535.083	400.75
535.297	406.75
535.511	401.75
535.726	399.75
535.94	381.75
536.154	384.75
536.369	394.75
536.583	384.75
536.797	381.75
537.011	393.75
537.225	368.75
537.44	366.75
537.654	384.75
537.868	381.75
538.082	384.75
538.296	385.75
538.51	372.75
538.724	366.75
538.938	387.75
539.153	378.75
539.367	391.75
539.581	409.75
539.795	378.75
540.009	369.75
540.222	382.75
540.436	382.75
540.65	367.75
540.864	360.75
541.078	383.75
541.292	389.75
541.506	387.75
541.72	375.75
541.934	356.75
542.147	387.75
542.361	373.75
542.575	348.75
542.789	360.75
543.002	376.75
543.216	367.75
543.43	363.75
543.644	350.75
543.857	371.75
544.071	381.75
544.285	374.75
544.498	354.75
544.712	379.75
544.925	354.75
545.139	364.75
545.352	366.75
545.566	369.75
545.779	373.75
545.993	383.75
546.206	373.75
546.42	393.75
546.633	371.75
546.847	361.75
547.06	337.75
547.274	370.75
547.487	371.75
547.7	366.75
547.914	365.75
548.127	368.75
548.34	363.75
548.554	359.75
548.767	383.75
548.98	373.75
549.193	383.75
549.407	357.75
549.62	365.75
549.833	382.75
550.046	349.75
550.259	345.75
550.473	379.75
550.686	363.75
550.899	364.75
551.112	356.75
551.325	362.75
551.538	360.75
551.751	366.75
551.964	361.75
552.177	355.75
552.39	344.75
552.603	350.75
552.816	378.75
553.029	361.75
553.242	394.75
553.455	379.75
553.667	391.75
553.88	382.75
554.093	380.75
554.306	381.75
554.519	368.75
554.732	380.75
554.944	349.75
555.157	344.75
555.37	358.75
555.583	330.75
555.795	348.75
556.008	351.75
556.221	329.75
556.433	346.75
556.646	335.75
556.859	347.75
557.071	344.75
557.284	332.75
557.496	336.75
557.709	335.75
557.921	305.75
558.134	331.75
558.346	312.75
558.559	326.75
558.771	320.75
558.984	334.75
559.196	321.75
559.409	315.75
559.621	316.75
559.833	313.75
560.046	315.75
560.258	341.75
560.47	332.75
560.683	344.75
560.895	325.75
561.107	329.75
561.32	330.75
561.532	329.75
561.744	327.75
561.956	314.75
562.168	325.75
562.381	318.75
562.593	324.75
562.805	329.75
563.017	321.75
563.229	337.75
563.441	337.75
563.653	341.75
563.865	336.75
564.077	319.75
564.289	330.75
564.501	332.75
564.713	326.75
564.925	355.75
565.137	352.75
565.349	352.75
565.561	361.75
565.773	372.75
565.985	366.75
566.197	383.75
566.408	409.75
566.62	397.75
566.832	421.75
567.044	435.75
567.255	413.75
567.467	431.75
567.679	416.75
567.891	443.75
568.102	421.75
568.314	431.75
568.526	390.75
568.737	392.75
568.949	387.75
569.161	376.75
569.372	357.75
569.584	343.75
569.795	349.75
570.007	320.75
570.218	353.75
570.43	331.75
570.641	334.75
570.853	315.75
571.064	327.75
571.276	321.75
571.487	318.75
571.698	328.75
571.91	314.75
572.121	296.75
572.333	316.75
572.544	292.75
572.755	304.75
572.966	284.75
573.178	305.75
573.389	297.75
573.6	291.75
573.811	286.75
574.023	311.75
574.234	288.75
574.445	265.75
574.656	288.75
574.867	286.75
575.078	273.75
575.289	277.75
575.501	277.75
575.712	268.75
575.923	274.75
576.134	280.75
576.345	281.75
576.556	272.75
576.767	275.75
576.978	283.75
577.188	272.75
577.399	263.75
577.61	291.75
577.821	283.75
578.032	263.75
578.243	285.75
578.454	366.75
578.665	311.75
578.875	272.75
579.086	265.75
579.297	262.75
579.508	270.75
579.718	286.75
579.929	276.75
580.14	267.75
580.35	259.75
580.561	272.75
580.772	269.75
580.982	261.75
581.193	264.75
581.403	262.75
581.614	289.75
581.825	246.75
582.035	257.75
582.246	250.75
582.456	252.75
582.667	250.75
582.877	233.75
583.087	263.75
583.298	244.75
583.508	249.75
583.719	262.75
583.929	252.75
584.139	273.75
584.35	251.75
584.56	243.75
584.77	244.75
584.981	254.75
585.191	249.75
585.401	261.75
585.611	264.75
585.821	263.75
586.032	252.75
586.242	260.75
586.452	262.75
586.662	249.75
586.872	245.75
587.082	257.75
587.292	244.75
587.502	244.75
587.713	244.75
587.923	266.75
588.133	252.75
588.343	226.75
588.553	236.75
588.762	271.75
588.972	252.75
589.182	273.75
589.392	272.75
589.602	240.75
589.812	276.75
590.022	274.75
590.232	251.75
590.441	256.75
590.651	243.75
590.861	235.75
591.071	251.75
591.281	233.75
591.49	250.75
591.7	255.75
591.91	268.75
592.119	274.75
592.329	253.75
592.539	277.75
592.748	248.75
592.958	273.75
593.167	249.75
593.377	274.75
593.587	276.75
593.796	277.75
594.006	280.75
594.215	270.75
594.424	271.75
594.634	270.75
594.843	271.75
595.053	274.75
595.262	262.75
595.472	255.75
595.681	248.75
595.89	279.75
596.1	249.75
596.309	234.75
596.518	239.75
596.727	238.75
596.937	235.75
597.146	238.75
597.355	229.75
597.564	227.75
597.774	225.75
597.983	217.75
598.192	227.75
598.401	217.75
598.61	215.75
598.819	222.75
599.028	213.75
599.237	215.75
599.446	211.75
599.655	214.75
599.864	225.75
600.073	228.75
600.282	223.75
600.491	235.75
600.7	223.75
600.909	219.75
601.118	220.75
601.327	245.75
601.536	209.75
601.745	218.75
601.953	228.75
602.162	210.75
602.371	229.75
602.58	207.75
602.789	226.75
602.997	206.75
603.206	220.75
603.415	221.75
603.623	217.75
603.832	213.75
604.041	228.75
604.249	205.75
604.458	209.75
604.666	208.75
604.875	224.75
605.084	204.75
605.292	195.75
605.501	219.75
605.709	213.75
605.918	201.75
606.126	198.75
606.334	217.75
606.543	199.75
606.751	218.75
606.96	221.75
607.168	209.75
607.376	218.75
607.585	214.75
607.793	222.75
608.001	199.75
608.21	206.75
608.418	194.75
608.626	195.75
608.834	211.75
609.043	207.75
609.251	198.75
609.459	218.75
609.667	208.75
609.875	215.75
610.083	216.75
610.291	188.75
610.499	215.75
610.707	211.75
610.916	213.75
611.124	193.75
611.332	202.75
611.54	202.75
611.748	204.75
611.955	198.75
612.163	195.75
612.371	221.75
612.579	206.75
612.787	209.75
612.995	205.75
613.203	207.75
613.411	201.75
613.618	211.75
613.826	215.75
614.034	191.75
614.242	199.75
614.449	204.75
614.657	202.75
614.865	219.75
615.072	185.75
615.28	207.75
615.488	200.75
615.695	181.75
615.903	214.75
616.111	198.75
616.318	187.75
616.526	196.75
616.733	209.75
616.941	186.75
617.148	202.75
617.356	209.75
617.563	204.75
617.771	203.75
617.978	195.75
618.185	190.75
618.393	200.75
618.6	187.75
618.807	188.75
619.015	195.75
619.222	197.75
619.429	196.75
619.637	193.75
619.844	193.75
620.051	201.75
620.258	202.75
620.466	194.75
620.673	190.75
620.88	201.75
621.087	188.75
621.294	199.75
621.501	199.75
621.708	192.75
621.915	185.75
622.122	192.75
622.329	186.75
622.536	189.75
622.743	191.75
622.95	192.75
623.157	211.75
623.364	181.75
623.571	187.75
623.778	178.75
623.985	195.75
624.192	189.75
624.399	191.75
624.606	181.75
624.812	181.75
625.019	176.75
625.226	180.75
625.433	183.75
625.639	177.75
625.846	176.75
626.053	165.75
626.259	174.75
626.466	158.75
626.673	176.75
626.879	177.75
627.086	181.75
627.293	177.75
627.499	145.75
627.706	181.75
627.912	179.75
628.119	185.75
628.325	186.75
628.532	181.75
628.738	171.75
628.945	179.75
629.151	173.75
629.357	170.75
629.564	182.75
629.77	175.75
629.976	177.75
630.183	166.75
630.389	169.75
630.595	169.75
630.802	160.75
631.008	159.75
631.214	169.75
631.42	195.75
631.627	168.75
631.833	180.75
632.039	165.75
632.245	167.75
632.451	162.75
632.657	161.75
632.863	150.75
633.069	164.75
633.275	154.75
633.481	165.75
633.688	165.75
633.893	159.75
634.099	155.75
634.305	158.75
634.511	170.75
634.717	163.75
634.923	141.75
635.129	163.75
635.335	159.75
635.541	149.75
635.747	158.75
635.952	154.75
636.158	152.75
636.364	154.75
636.57	145.75
636.775	170.75
636.981	168.75
637.187	170.75
637.392	157.75
637.598	150.75
637.804	167.75
638.009	157.75
638.215	172.75
638.421	157.75
638.626	145.75
638.832	168.75
639.037	152.75
639.243	140.75
639.448	138.75
639.654	150.75
639.859	163.75
640.065	151.75
640.27	161.75
640.475	164.75
640.681	135.75
640.886	151.75
641.091	153.75
641.297	142.75
641.502	155.75
641.707	155.75
641.913	151.75
642.118	153.75
642.323	149.75
642.528	163.75
642.733	153.75
642.939	153.75
643.144	157.75
643.349	171.75
643.554	159.75
643.759	139.75
643.964	127.75
644.169	144.75
644.374	139.75
644.579	156.75
644.784	148.75
644.989	154.75
645.194	149.75
645.399	144.75
645.604	151.75
645.809	161.75
646.014	146.75
646.219	153.75
646.423	143.75
646.628	141.75
646.833	158.75
647.038	139.75
647.243	143.75
647.447	151.75
647.652	164.75
647.857	144.75
648.062	142.75
648.266	148.75
648.471	152.75
648.676	158.75
648.88	145.75
649.085	148.75
649.289	148.75
649.494	153.75
649.698	158.75
649.903	162.75
650.107	141.75
650.312	144.75
650.516	140.75
650.721	149.75
650.925	147.75
651.13	130.75
651.334	167.75
651.539	131.75
651.743	134.75
651.947	143.75
652.152	139.75
652.356	129.75
652.56	138.75
652.764	139.75
652.969	139.75
653.173	130.75
653.377	132.75
653.581	120.75
653.785	120.75
653.99	148.75
654.194	126.75
654.398	120.75
654.602	126.75
654.806	134.75
655.01	140.75
655.214	134.75
655.418	126.75
655.622	123.75
655.826	124.75
656.03	142.75
656.234	127.75
656.438	136.75
656.642	149.75
656.846	121.75
657.049	113.75
657.253	133.75
657.457	117.75
657.661	114.75
657.865	119.75
658.068	111.75
658.272	101.75
658.476	109.75
658.68	109.75
658.883	112.75
659.087	80.75
659.291	105.75
659.494	111.75
659.698	97.75
659.901	87.75
660.105	99.75
660.309	105.75
660.512	86.75
660.716	90.75
660.919	84.75
661.123	88.75
661.326	84.75
661.53	89.75
661.733	85.75
661.936	85.75
662.14	89.75
662.343	96.75
662.546	83.75
662.75	83.75
662.953	85.75
663.156	94.75
663.36	76.75
663.563	77.75
663.766	76.75
663.969	108.75
664.173	91.75
664.376	95.75
664.579	87.75
664.782	80.75
664.985	86.75
665.188	86.75
665.391	87.75
665.594	80.75
665.797	88.75
666	68.75
666.203	85.75
666.406	78.75
666.609	91.75
666.812	79.75
667.015	74.75
667.218	87.75
667.421	83.75
667.624	90.75
667.827	85.75
668.03	82.75
668.232	92.75
668.435	91.75
668.638	78.75
668.841	87.75
669.043	94.75
669.246	87.75
669.449	74.75
669.651	81.75
669.854	86.75
670.057	89.75
670.259	91.75
670.462	84.75
670.665	87.75
670.867	97.75
671.07	75.75
671.272	87.75
671.475	76.75
671.677	77.75
671.88	63.75
672.082	83.75
672.284	78.75
672.487	80.75
672.689	82.75
672.892	85.75
