Data from 1964.PennyLincolnUp.Lamp.En5.5.200Scan.071719.P1._HRD10591_14-03-35-908.txt Node
Date: Thu Jul 18 14:03:35 EDT 2019
User: cochatt
Spectrometer: HR+D1059
Trigger mode: 1
Integration Time (sec): 1.000000E-1
Scans to average: 1
Electric dark correction enabled: true
Nonlinearity correction enabled: false
Boxcar width: 0
XAxis mode: Wavelengths
Number of Pixels in Spectrum: 2048
>>>>>Begin Spectral Data<<<<<
223.165	-9.94
223.4	-9.94
223.635	-9.94
223.869	-15.94
224.104	-9.94
224.338	-15.94
224.573	-14.94
224.808	-2.94
225.042	5.06
225.277	-0.94
225.511	-10.94
225.746	3.06
225.98	8.06
226.215	4.06
226.449	13.06
226.683	16.06
226.918	19.06
227.152	13.06
227.387	29.06
227.621	25.06
227.856	38.06
228.09	54.06
228.324	45.06
228.559	45.06
228.793	53.06
229.027	90.06
229.262	79.06
229.496	96.06
229.73	104.06
229.964	132.06
230.199	86.06
230.433	103.06
230.667	102.06
230.901	99.06
231.136	91.06
231.37	110.06
231.604	102.06
231.838	108.06
232.072	105.06
232.306	114.06
232.541	105.06
232.775	113.06
233.009	109.06
233.243	88.06
233.477	101.06
233.711	105.06
233.945	116.06
234.179	112.06
234.413	105.06
234.647	109.06
234.881	102.06
235.115	99.06
235.349	101.06
235.583	94.06
235.817	119.06
236.051	114.06
236.285	100.06
236.519	95.06
236.753	124.06
236.987	132.06
237.221	144.06
237.455	193.06
237.689	143.06
237.922	119.06
238.156	121.06
238.39	108.06
238.624	98.06
238.858	106.06
239.091	113.06
239.325	128.06
239.559	107.06
239.793	106.06
240.027	112.06
240.26	130.06
240.494	147.06
240.728	150.06
240.961	134.06
241.195	120.06
241.429	123.06
241.662	134.06
241.896	132.06
242.13	131.06
242.363	120.06
242.597	117.06
242.83	127.06
243.064	115.06
243.298	126.06
243.531	134.06
243.765	132.06
243.998	120.06
244.232	109.06
244.465	150.06
244.699	124.06
244.932	130.06
245.166	140.06
245.399	142.06
245.633	137.06
245.866	137.06
246.099	136.06
246.333	153.06
246.566	141.06
246.8	157.06
247.033	140.06
247.266	152.06
247.5	156.06
247.733	164.06
247.966	149.06
248.2	140.06
248.433	170.06
248.666	168.06
248.899	171.06
249.133	178.06
249.366	172.06
249.599	165.06
249.832	146.06
250.066	171.06
250.299	164.06
250.532	163.06
250.765	167.06
250.998	185.06
251.231	168.06
251.465	188.06
251.698	177.06
251.931	181.06
252.164	186.06
252.397	183.06
252.63	192.06
252.863	191.06
253.096	199.06
253.329	216.06
253.562	191.06
253.795	190.06
254.028	199.06
254.261	194.06
254.494	204.06
254.727	219.06
254.96	225.06
255.193	229.06
255.426	208.06
255.659	196.06
255.892	213.06
256.124	216.06
256.357	204.06
256.59	217.06
256.823	195.06
257.056	189.06
257.289	191.06
257.521	189.06
257.754	186.06
257.987	193.06
258.22	207.06
258.452	200.06
258.685	191.06
258.918	202.06
259.151	206.06
259.383	216.06
259.616	187.06
259.849	201.06
260.081	208.06
260.314	216.06
260.547	219.06
260.779	219.06
261.012	226.06
261.244	213.06
261.477	209.06
261.71	199.06
261.942	203.06
262.175	213.06
262.407	198.06
262.64	207.06
262.872	203.06
263.105	204.06
263.337	192.06
263.57	193.06
263.802	206.06
264.035	195.06
264.267	196.06
264.499	204.06
264.732	209.06
264.964	224.06
265.197	220.06
265.429	214.06
265.661	195.06
265.894	216.06
266.126	212.06
266.358	218.06
266.591	244.06
266.823	219.06
267.055	200.06
267.287	211.06
267.52	207.06
267.752	208.06
267.984	212.06
268.216	213.06
268.448	206.06
268.681	240.06
268.913	238.06
269.145	256.06
269.377	250.06
269.609	282.06
269.841	249.06
270.073	259.06
270.306	262.06
270.538	278.06
270.77	265.06
271.002	267.06
271.234	257.06
271.466	270.06
271.698	261.06
271.93	289.06
272.162	260.06
272.394	291.06
272.626	262.06
272.858	240.06
273.09	256.06
273.322	258.06
273.553	247.06
273.785	257.06
274.017	251.06
274.249	241.06
274.481	259.06
274.713	246.06
274.945	254.06
275.176	257.06
275.408	262.06
275.64	258.06
275.872	256.06
276.104	267.06
276.335	267.06
276.567	256.06
276.799	266.06
277.031	277.06
277.262	282.06
277.494	287.06
277.726	282.06
277.957	274.06
278.189	258.06
278.421	258.06
278.652	254.06
278.884	256.06
279.115	268.06
279.347	270.06
279.579	261.06
279.81	270.06
280.042	267.06
280.273	273.06
280.505	257.06
280.736	267.06
280.968	275.06
281.199	268.06
281.431	252.06
281.662	260.06
281.894	267.06
282.125	262.06
282.356	270.06
282.588	294.06
282.819	285.06
283.051	270.06
283.282	283.06
283.513	265.06
283.745	272.06
283.976	289.06
284.207	292.06
284.439	279.06
284.67	283.06
284.901	268.06
285.132	291.06
285.364	280.06
285.595	266.06
285.826	276.06
286.057	288.06
286.288	278.06
286.52	297.06
286.751	283.06
286.982	295.06
287.213	294.06
287.444	281.06
287.675	297.06
287.906	298.06
288.138	304.06
288.369	285.06
288.6	305.06
288.831	295.06
289.062	284.06
289.293	289.06
289.524	308.06
289.755	299.06
289.986	296.06
290.217	296.06
290.448	298.06
290.679	298.06
290.91	300.06
291.141	276.06
291.371	291.06
291.602	289.06
291.833	296.06
292.064	292.06
292.295	284.06
292.526	294.06
292.757	290.06
292.987	291.06
293.218	293.06
293.449	308.06
293.68	280.06
293.91	306.06
294.141	295.06
294.372	308.06
294.603	293.06
294.833	283.06
295.064	313.06
295.295	311.06
295.525	299.06
295.756	294.06
295.987	308.06
296.217	332.06
296.448	311.06
296.679	328.06
296.909	299.06
297.14	307.06
297.37	299.06
297.601	298.06
297.831	311.06
298.062	322.06
298.292	308.06
298.523	307.06
298.753	286.06
298.984	313.06
299.214	318.06
299.445	327.06
299.675	319.06
299.905	308.06
300.136	324.06
300.366	314.06
300.597	320.06
300.827	324.06
301.057	324.06
301.288	321.06
301.518	309.06
301.748	321.06
301.979	320.06
302.209	324.06
302.439	334.06
302.669	343.06
302.9	312.06
303.13	315.06
303.36	340.06
303.59	336.06
303.82	343.06
304.051	320.06
304.281	343.06
304.511	329.06
304.741	314.06
304.971	317.06
305.201	313.06
305.431	321.06
305.661	309.06
305.891	350.06
306.121	335.06
306.352	329.06
306.582	341.06
306.812	332.06
307.042	336.06
307.272	347.06
307.502	321.06
307.731	340.06
307.961	341.06
308.191	344.06
308.421	328.06
308.651	327.06
308.881	333.06
309.111	336.06
309.341	334.06
309.571	341.06
309.8	352.06
310.03	342.06
310.26	351.06
310.49	349.06
310.72	343.06
310.949	346.06
311.179	367.06
311.409	358.06
311.639	372.06
311.868	361.06
312.098	354.06
312.328	371.06
312.557	389.06
312.787	365.06
313.017	377.06
313.246	364.06
313.476	379.06
313.706	374.06
313.935	376.06
314.165	376.06
314.394	357.06
314.624	376.06
314.853	400.06
315.083	373.06
315.312	363.06
315.542	370.06
315.771	353.06
316.001	366.06
316.23	379.06
316.46	384.06
316.689	364.06
316.919	362.06
317.148	376.06
317.377	376.06
317.607	367.06
317.836	354.06
318.065	356.06
318.295	365.06
318.524	359.06
318.753	372.06
318.983	374.06
319.212	355.06
319.441	372.06
319.67	359.06
319.9	380.06
320.129	368.06
320.358	366.06
320.587	375.06
320.816	396.06
321.046	368.06
321.275	381.06
321.504	378.06
321.733	387.06
321.962	380.06
322.191	391.06
322.42	402.06
322.649	393.06
322.878	396.06
323.108	390.06
323.337	418.06
323.566	403.06
323.795	434.06
324.024	450.06
324.253	523.06
324.482	674.06
324.71	938.06
324.939	1274.06
325.168	1109.06
325.397	611.06
325.626	468.06
325.855	426.06
326.084	421.06
326.313	429.06
326.542	423.06
326.77	452.06
326.999	501.06
327.228	602.06
327.457	887.06
327.686	1004.06
327.914	660.06
328.143	523.06
328.372	470.06
328.6	467.06
328.829	447.06
329.058	441.06
329.287	433.06
329.515	458.06
329.744	446.06
329.972	412.06
330.201	439.06
330.43	434.06
330.658	472.06
330.887	471.06
331.115	476.06
331.344	427.06
331.572	439.06
331.801	436.06
332.03	458.06
332.258	436.06
332.486	426.06
332.715	428.06
332.943	439.06
333.172	434.06
333.4	446.06
333.629	463.06
333.857	470.06
334.085	459.06
334.314	464.06
334.542	466.06
334.771	482.06
334.999	445.06
335.227	438.06
335.455	450.06
335.684	442.06
335.912	449.06
336.14	426.06
336.369	434.06
336.597	440.06
336.825	442.06
337.053	440.06
337.281	414.06
337.51	423.06
337.738	406.06
337.966	413.06
338.194	420.06
338.422	423.06
338.65	431.06
338.878	409.06
339.106	427.06
339.334	424.06
339.562	406.06
339.79	424.06
340.018	417.06
340.246	387.06
340.474	420.06
340.702	423.06
340.93	397.06
341.158	402.06
341.386	424.06
341.614	387.06
341.842	394.06
342.07	416.06
342.298	407.06
342.526	408.06
342.754	399.06
342.981	404.06
343.209	421.06
343.437	414.06
343.665	428.06
343.893	432.06
344.12	417.06
344.348	416.06
344.576	414.06
344.804	424.06
345.031	402.06
345.259	404.06
345.487	393.06
345.714	398.06
345.942	391.06
346.17	394.06
346.397	408.06
346.625	385.06
346.853	384.06
347.08	374.06
347.308	388.06
347.535	378.06
347.763	375.06
347.99	404.06
348.218	389.06
348.445	387.06
348.673	382.06
348.9	378.06
349.128	355.06
349.355	370.06
349.583	388.06
349.81	388.06
350.037	360.06
350.265	348.06
350.492	376.06
350.72	373.06
350.947	367.06
351.174	382.06
351.402	378.06
351.629	358.06
351.856	383.06
352.083	376.06
352.311	388.06
352.538	391.06
352.765	388.06
352.992	371.06
353.22	383.06
353.447	380.06
353.674	375.06
353.901	381.06
354.128	363.06
354.355	361.06
354.583	387.06
354.81	363.06
355.037	379.06
355.264	366.06
355.491	344.06
355.718	371.06
355.945	349.06
356.172	372.06
356.399	376.06
356.626	363.06
356.853	360.06
357.08	381.06
357.307	361.06
357.534	349.06
357.761	370.06
357.988	384.06
358.215	371.06
358.441	393.06
358.668	371.06
358.895	382.06
359.122	367.06
359.349	385.06
359.576	377.06
359.802	369.06
360.029	374.06
360.256	390.06
360.483	376.06
360.709	363.06
360.936	372.06
361.163	378.06
361.39	383.06
361.616	376.06
361.843	386.06
362.07	374.06
362.296	368.06
362.523	370.06
362.749	365.06
362.976	370.06
363.203	362.06
363.429	357.06
363.656	377.06
363.882	369.06
364.109	358.06
364.335	357.06
364.562	354.06
364.788	362.06
365.015	376.06
365.241	357.06
365.468	352.06
365.694	361.06
365.92	363.06
366.147	339.06
366.373	371.06
366.599	357.06
366.826	374.06
367.052	369.06
367.278	368.06
367.505	342.06
367.731	352.06
367.957	360.06
368.184	351.06
368.41	354.06
368.636	378.06
368.862	378.06
369.089	358.06
369.315	347.06
369.541	378.06
369.767	369.06
369.993	363.06
370.219	371.06
370.445	363.06
370.672	366.06
370.898	365.06
371.124	357.06
371.35	373.06
371.576	382.06
371.802	373.06
372.028	357.06
372.254	373.06
372.48	403.06
372.706	363.06
372.932	394.06
373.158	374.06
373.384	376.06
373.61	374.06
373.835	396.06
374.061	377.06
374.287	377.06
374.513	379.06
374.739	375.06
374.965	379.06
375.191	389.06
375.416	382.06
375.642	375.06
375.868	393.06
376.094	375.06
376.319	363.06
376.545	359.06
376.771	346.06
376.997	367.06
377.222	354.06
377.448	360.06
377.674	342.06
377.899	366.06
378.125	361.06
378.35	339.06
378.576	363.06
378.802	348.06
379.027	371.06
379.253	360.06
379.478	359.06
379.704	348.06
379.929	361.06
380.155	369.06
380.38	348.06
380.606	350.06
380.831	357.06
381.057	357.06
381.282	353.06
381.507	357.06
381.733	356.06
381.958	355.06
382.184	383.06
382.409	364.06
382.634	374.06
382.86	371.06
383.085	384.06
383.31	378.06
383.535	354.06
383.761	362.06
383.986	382.06
384.211	377.06
384.436	376.06
384.662	394.06
384.887	405.06
385.112	394.06
385.337	397.06
385.562	381.06
385.787	384.06
386.013	399.06
386.238	413.06
386.463	404.06
386.688	417.06
386.913	397.06
387.138	418.06
387.363	388.06
387.588	384.06
387.813	386.06
388.038	407.06
388.263	382.06
388.488	394.06
388.713	402.06
388.938	382.06
389.163	378.06
389.387	401.06
389.612	389.06
389.837	398.06
390.062	390.06
390.287	402.06
390.512	398.06
390.736	395.06
390.961	410.06
391.186	424.06
391.411	412.06
391.636	414.06
391.86	409.06
392.085	387.06
392.31	408.06
392.534	417.06
392.759	404.06
392.984	412.06
393.208	407.06
393.433	425.06
393.658	419.06
393.882	416.06
394.107	399.06
394.331	383.06
394.556	404.06
394.78	380.06
395.005	394.06
395.229	389.06
395.454	420.06
395.678	423.06
395.903	419.06
396.127	446.06
396.352	416.06
396.576	402.06
396.801	422.06
397.025	414.06
397.249	429.06
397.474	439.06
397.698	428.06
397.922	436.06
398.147	438.06
398.371	451.06
398.595	445.06
398.82	441.06
399.044	471.06
399.268	496.06
399.492	520.06
399.717	543.06
399.941	560.06
400.165	553.06
400.389	518.06
400.613	497.06
400.837	487.06
401.062	451.06
401.286	443.06
401.51	464.06
401.734	440.06
401.958	483.06
402.182	445.06
402.406	442.06
402.63	447.06
402.854	456.06
403.078	455.06
403.302	455.06
403.526	451.06
403.75	458.06
403.974	451.06
404.198	457.06
404.422	465.06
404.645	503.06
404.869	469.06
405.093	477.06
405.317	522.06
405.541	514.06
405.765	493.06
405.988	475.06
406.212	482.06
406.436	498.06
406.66	485.06
406.883	459.06
407.107	512.06
407.331	553.06
407.555	590.06
407.778	584.06
408.002	530.06
408.226	514.06
408.449	497.06
408.673	504.06
408.896	500.06
409.12	530.06
409.344	508.06
409.567	468.06
409.791	461.06
410.014	456.06
410.238	455.06
410.461	443.06
410.685	464.06
410.908	468.06
411.132	497.06
411.355	492.06
411.578	490.06
411.802	439.06
412.025	463.06
412.249	458.06
412.472	460.06
412.695	505.06
412.919	480.06
413.142	425.06
413.365	462.06
413.589	443.06
413.812	432.06
414.035	449.06
414.258	428.06
414.482	440.06
414.705	415.06
414.928	434.06
415.151	434.06
415.374	437.06
415.597	438.06
415.821	415.06
416.044	416.06
416.267	419.06
416.49	422.06
416.713	421.06
416.936	409.06
417.159	423.06
417.382	458.06
417.605	441.06
417.828	438.06
418.051	458.06
418.274	423.06
418.497	396.06
418.72	401.06
418.943	427.06
419.166	430.06
419.389	467.06
419.611	458.06
419.834	429.06
420.057	427.06
420.28	452.06
420.503	446.06
420.726	425.06
420.948	440.06
421.171	463.06
421.394	482.06
421.617	442.06
421.839	438.06
422.062	440.06
422.285	428.06
422.507	494.06
422.73	519.06
422.953	500.06
423.175	465.06
423.398	459.06
423.621	444.06
423.843	458.06
424.066	452.06
424.288	443.06
424.511	474.06
424.733	486.06
424.956	539.06
425.178	526.06
425.401	525.06
425.623	525.06
425.846	451.06
426.068	445.06
426.291	446.06
426.513	448.06
426.735	473.06
426.958	471.06
427.18	538.06
427.402	621.06
427.625	630.06
427.847	571.06
428.069	501.06
428.292	469.06
428.514	447.06
428.736	429.06
428.958	406.06
429.181	411.06
429.403	395.06
429.625	434.06
429.847	444.06
430.069	462.06
430.292	467.06
430.514	416.06
430.736	408.06
430.958	371.06
431.18	391.06
431.402	402.06
431.624	418.06
431.846	395.06
432.068	406.06
432.29	414.06
432.512	394.06
432.734	409.06
432.956	407.06
433.178	423.06
433.4	394.06
433.622	392.06
433.844	393.06
434.066	398.06
434.287	401.06
434.509	413.06
434.731	406.06
434.953	406.06
435.175	424.06
435.397	445.06
435.618	441.06
435.84	476.06
436.062	509.06
436.284	550.06
436.505	466.06
436.727	429.06
436.949	406.06
437.17	415.06
437.392	422.06
437.614	415.06
437.835	428.06
438.057	477.06
438.278	540.06
438.5	551.06
438.721	606.06
438.943	573.06
439.165	464.06
439.386	430.06
439.608	430.06
439.829	435.06
440.05	436.06
440.272	477.06
440.493	447.06
440.715	416.06
440.936	419.06
441.158	417.06
441.379	404.06
441.6	426.06
441.822	450.06
442.043	479.06
442.264	531.06
442.486	557.06
442.707	481.06
442.928	454.06
443.149	454.06
443.371	450.06
443.592	473.06
443.813	544.06
444.034	556.06
444.255	516.06
444.476	441.06
444.698	445.06
444.919	460.06
445.14	566.06
445.361	504.06
445.582	481.06
445.803	506.06
446.024	533.06
446.245	547.06
446.466	504.06
446.687	454.06
446.908	420.06
447.129	413.06
447.35	410.06
447.571	416.06
447.792	373.06
448.013	388.06
448.234	403.06
448.455	461.06
448.675	517.06
448.896	564.06
449.117	517.06
449.338	488.06
449.559	562.06
449.779	618.06
450	488.06
450.221	424.06
450.442	408.06
450.662	383.06
450.883	386.06
451.104	384.06
451.324	389.06
451.545	361.06
451.766	363.06
451.986	341.06
452.207	353.06
452.428	357.06
452.648	352.06
452.869	357.06
453.089	358.06
453.31	380.06
453.53	370.06
453.751	355.06
453.971	372.06
454.192	367.06
454.412	350.06
454.633	376.06
454.853	338.06
455.073	370.06
455.294	364.06
455.514	396.06
455.734	406.06
455.955	368.06
456.175	358.06
456.395	354.06
456.616	359.06
456.836	363.06
457.056	345.06
457.276	354.06
457.497	345.06
457.717	351.06
457.937	361.06
458.157	368.06
458.377	371.06
458.598	361.06
458.818	386.06
459.038	435.06
459.258	437.06
459.478	401.06
459.698	393.06
459.918	379.06
460.138	408.06
460.358	392.06
460.578	414.06
460.798	408.06
461.018	411.06
461.238	420.06
461.458	404.06
461.678	383.06
461.898	411.06
462.118	399.06
462.338	426.06
462.558	429.06
462.777	416.06
462.997	459.06
463.217	455.06
463.437	480.06
463.657	451.06
463.876	419.06
464.096	426.06
464.316	451.06
464.536	436.06
464.755	427.06
464.975	444.06
465.195	442.06
465.414	465.06
465.634	440.06
465.854	402.06
466.073	385.06
466.293	382.06
466.512	377.06
466.732	376.06
466.951	376.06
467.171	381.06
467.391	367.06
467.61	374.06
467.829	379.06
468.049	368.06
468.268	370.06
468.488	363.06
468.707	366.06
468.927	358.06
469.146	371.06
469.365	374.06
469.585	359.06
469.804	364.06
470.023	364.06
470.243	360.06
470.462	380.06
470.681	401.06
470.901	385.06
471.12	380.06
471.339	385.06
471.558	380.06
471.777	390.06
471.997	377.06
472.216	363.06
472.435	390.06
472.654	390.06
472.873	377.06
473.092	377.06
473.311	387.06
473.53	362.06
473.749	390.06
473.968	418.06
474.187	470.06
474.406	469.06
474.625	422.06
474.844	389.06
475.063	369.06
475.282	373.06
475.501	380.06
475.72	375.06
475.939	376.06
476.158	403.06
476.377	412.06
476.596	387.06
476.814	387.06
477.033	393.06
477.252	418.06
477.471	396.06
477.69	396.06
477.908	411.06
478.127	407.06
478.346	425.06
478.564	424.06
478.783	438.06
479.002	438.06
479.22	437.06
479.439	445.06
479.658	438.06
479.876	440.06
480.095	457.06
480.313	476.06
480.532	449.06
480.751	470.06
480.969	474.06
481.188	501.06
481.406	486.06
481.624	452.06
481.843	457.06
482.061	451.06
482.28	453.06
482.498	409.06
482.717	427.06
482.935	426.06
483.153	420.06
483.372	432.06
483.59	432.06
483.808	456.06
484.027	439.06
484.245	421.06
484.463	447.06
484.681	464.06
484.9	460.06
485.118	454.06
485.336	449.06
485.554	455.06
485.772	453.06
485.99	451.06
486.209	439.06
486.427	457.06
486.645	467.06
486.863	464.06
487.081	486.06
487.299	465.06
487.517	478.06
487.735	455.06
487.953	470.06
488.171	461.06
488.389	468.06
488.607	472.06
488.825	470.06
489.043	482.06
489.261	457.06
489.479	468.06
489.696	475.06
489.914	456.06
490.132	484.06
490.35	468.06
490.568	475.06
490.786	486.06
491.003	491.06
491.221	487.06
491.439	510.06
491.657	514.06
491.874	495.06
492.092	520.06
492.31	501.06
492.527	494.06
492.745	525.06
492.963	515.06
493.18	516.06
493.398	514.06
493.615	529.06
493.833	520.06
494.05	515.06
494.268	528.06
494.485	541.06
494.703	530.06
494.92	526.06
495.138	536.06
495.355	543.06
495.573	542.06
495.79	545.06
496.008	540.06
496.225	514.06
496.442	545.06
496.66	547.06
496.877	522.06
497.094	526.06
497.312	558.06
497.529	548.06
497.746	564.06
497.963	568.06
498.181	591.06
498.398	607.06
498.615	600.06
498.832	637.06
499.049	648.06
499.267	651.06
499.484	668.06
499.701	720.06
499.918	772.06
500.135	797.06
500.352	824.06
500.569	850.06
500.786	828.06
501.003	830.06
501.22	792.06
501.437	763.06
501.654	726.06
501.871	701.06
502.088	678.06
502.305	652.06
502.522	628.06
502.739	620.06
502.956	597.06
503.172	555.06
503.389	576.06
503.606	546.06
503.823	528.06
504.04	545.06
504.256	554.06
504.473	556.06
504.69	559.06
504.907	556.06
505.123	534.06
505.34	513.06
505.557	509.06
505.773	540.06
505.99	538.06
506.207	487.06
506.423	490.06
506.64	506.06
506.856	484.06
507.073	500.06
507.289	507.06
507.506	488.06
507.722	460.06
507.939	496.06
508.155	477.06
508.372	472.06
508.588	466.06
508.805	471.06
509.021	456.06
509.238	474.06
509.454	484.06
509.67	461.06
509.887	453.06
510.103	446.06
510.319	468.06
510.536	516.06
510.752	624.06
510.968	560.06
511.184	462.06
511.401	445.06
511.617	435.06
511.833	434.06
512.049	432.06
512.265	436.06
512.481	441.06
512.698	458.06
512.914	445.06
513.13	453.06
513.346	437.06
513.562	442.06
513.778	446.06
513.994	431.06
514.21	439.06
514.426	475.06
514.642	456.06
514.858	484.06
515.074	488.06
515.29	526.06
515.506	646.06
515.721	580.06
515.937	485.06
516.153	472.06
516.369	465.06
516.585	458.06
516.801	463.06
517.016	480.06
517.232	462.06
517.448	490.06
517.664	477.06
517.879	477.06
518.095	484.06
518.311	491.06
518.527	502.06
518.742	479.06
518.958	460.06
519.173	470.06
519.389	477.06
519.605	450.06
519.82	454.06
520.036	452.06
520.251	444.06
520.467	467.06
520.682	459.06
520.898	454.06
521.113	453.06
521.329	456.06
521.544	481.06
521.76	562.06
521.975	738.06
522.19	719.06
522.406	509.06
522.621	446.06
522.836	424.06
523.052	420.06
523.267	413.06
523.482	407.06
523.698	394.06
523.913	411.06
524.128	393.06
524.343	388.06
524.559	380.06
524.774	389.06
524.989	378.06
525.204	382.06
525.419	394.06
525.634	366.06
525.849	375.06
526.064	392.06
526.28	380.06
526.495	395.06
526.71	358.06
526.925	364.06
527.14	394.06
527.355	376.06
527.57	384.06
527.785	380.06
527.999	369.06
528.214	371.06
528.429	388.06
528.644	371.06
528.859	373.06
529.074	378.06
529.289	388.06
529.503	412.06
529.718	407.06
529.933	389.06
530.148	382.06
530.363	399.06
530.577	380.06
530.792	378.06
531.007	384.06
531.221	364.06
531.436	370.06
531.651	374.06
531.865	372.06
532.08	356.06
532.295	402.06
532.509	352.06
532.724	368.06
532.938	372.06
533.153	359.06
533.367	361.06
533.582	366.06
533.796	362.06
534.011	378.06
534.225	382.06
534.44	357.06
534.654	354.06
534.868	360.06
535.083	354.06
535.297	345.06
535.511	347.06
535.726	363.06
535.94	364.06
536.154	361.06
536.369	349.06
536.583	356.06
536.797	356.06
537.011	343.06
537.225	340.06
537.44	354.06
537.654	340.06
537.868	361.06
538.082	346.06
538.296	349.06
538.51	361.06
538.724	345.06
538.938	346.06
539.153	349.06
539.367	327.06
539.581	331.06
539.795	364.06
540.009	357.06
540.222	336.06
540.436	355.06
540.65	361.06
540.864	353.06
541.078	357.06
541.292	325.06
541.506	355.06
541.72	348.06
541.934	356.06
542.147	350.06
542.361	338.06
542.575	351.06
542.789	364.06
543.002	344.06
543.216	356.06
543.43	350.06
543.644	352.06
543.857	340.06
544.071	352.06
544.285	363.06
544.498	353.06
544.712	349.06
544.925	348.06
545.139	352.06
545.352	334.06
545.566	333.06
545.779	337.06
545.993	354.06
546.206	333.06
546.42	357.06
546.633	339.06
546.847	339.06
547.06	346.06
547.274	340.06
547.487	363.06
547.7	360.06
547.914	340.06
548.127	365.06
548.34	348.06
548.554	324.06
548.767	328.06
548.98	343.06
549.193	351.06
549.407	328.06
549.62	359.06
549.833	355.06
550.046	346.06
550.259	327.06
550.473	344.06
550.686	344.06
550.899	317.06
551.112	323.06
551.325	314.06
551.538	321.06
551.751	320.06
551.964	344.06
552.177	353.06
552.39	334.06
552.603	345.06
552.816	348.06
553.029	355.06
553.242	358.06
553.455	361.06
553.667	345.06
553.88	369.06
554.093	352.06
554.306	350.06
554.519	352.06
554.732	347.06
554.944	333.06
555.157	338.06
555.37	344.06
555.583	334.06
555.795	326.06
556.008	315.06
556.221	314.06
556.433	315.06
556.646	318.06
556.859	315.06
557.071	313.06
557.284	322.06
557.496	311.06
557.709	302.06
557.921	316.06
558.134	301.06
558.346	291.06
558.559	309.06
558.771	308.06
558.984	313.06
559.196	294.06
559.409	301.06
559.621	321.06
559.833	315.06
560.046	310.06
560.258	294.06
560.47	293.06
560.683	296.06
560.895	293.06
561.107	317.06
561.32	293.06
561.532	308.06
561.744	310.06
561.956	297.06
562.168	312.06
562.381	304.06
562.593	289.06
562.805	290.06
563.017	298.06
563.229	316.06
563.441	301.06
563.653	308.06
563.865	322.06
564.077	322.06
564.289	308.06
564.501	308.06
564.713	329.06
564.925	342.06
565.137	332.06
565.349	329.06
565.561	323.06
565.773	349.06
565.985	350.06
566.197	362.06
566.408	350.06
566.62	385.06
566.832	371.06
567.044	388.06
567.255	368.06
567.467	410.06
567.679	405.06
567.891	418.06
568.102	423.06
568.314	405.06
568.526	391.06
568.737	391.06
568.949	373.06
569.161	344.06
569.372	333.06
569.584	342.06
569.795	336.06
570.007	335.06
570.218	335.06
570.43	325.06
570.641	312.06
570.853	313.06
571.064	305.06
571.276	299.06
571.487	290.06
571.698	292.06
571.91	289.06
572.121	260.06
572.333	288.06
572.544	290.06
572.755	302.06
572.966	266.06
573.178	275.06
573.389	284.06
573.6	248.06
573.811	279.06
574.023	292.06
574.234	264.06
574.445	276.06
574.656	272.06
574.867	273.06
575.078	258.06
575.289	258.06
575.501	276.06
575.712	276.06
575.923	267.06
576.134	265.06
576.345	246.06
576.556	264.06
576.767	261.06
576.978	251.06
577.188	262.06
577.399	262.06
577.61	263.06
577.821	252.06
578.032	230.06
578.243	284.06
578.454	335.06
578.665	301.06
578.875	262.06
579.086	258.06
579.297	247.06
579.508	237.06
579.718	249.06
579.929	241.06
580.14	243.06
580.35	256.06
580.561	236.06
580.772	240.06
580.982	260.06
581.193	232.06
581.403	241.06
581.614	238.06
581.825	226.06
582.035	241.06
582.246	247.06
582.456	230.06
582.667	242.06
582.877	236.06
583.087	243.06
583.298	225.06
583.508	207.06
583.719	216.06
583.929	258.06
584.139	241.06
584.35	232.06
584.56	248.06
584.77	252.06
584.981	236.06
585.191	241.06
585.401	242.06
585.611	230.06
585.821	244.06
586.032	230.06
586.242	224.06
586.452	249.06
586.662	231.06
586.872	220.06
587.082	222.06
587.292	217.06
587.502	256.06
587.713	245.06
587.923	240.06
588.133	249.06
588.343	237.06
588.553	249.06
588.762	220.06
588.972	244.06
589.182	272.06
589.392	260.06
589.602	251.06
589.812	282.06
590.022	258.06
590.232	233.06
590.441	234.06
590.651	243.06
590.861	235.06
591.071	243.06
591.281	230.06
591.49	241.06
591.7	230.06
591.91	244.06
592.119	230.06
592.329	235.06
592.539	268.06
592.748	258.06
592.958	253.06
593.167	275.06
593.377	260.06
593.587	260.06
593.796	266.06
594.006	263.06
594.215	259.06
594.424	266.06
594.634	254.06
594.843	261.06
595.053	272.06
595.262	232.06
595.472	247.06
595.681	238.06
595.89	244.06
596.1	242.06
596.309	243.06
596.518	229.06
596.727	220.06
596.937	232.06
597.146	219.06
597.355	209.06
597.564	223.06
597.774	213.06
597.983	227.06
598.192	223.06
598.401	215.06
598.61	210.06
598.819	221.06
599.028	208.06
599.237	210.06
599.446	204.06
599.655	200.06
599.864	209.06
600.073	205.06
600.282	217.06
600.491	212.06
600.7	209.06
600.909	196.06
601.118	228.06
601.327	211.06
601.536	214.06
601.745	207.06
601.953	207.06
602.162	212.06
602.371	200.06
602.58	204.06
602.789	191.06
602.997	221.06
603.206	178.06
603.415	198.06
603.623	214.06
603.832	185.06
604.041	196.06
604.249	210.06
604.458	190.06
604.666	205.06
604.875	203.06
605.084	196.06
605.292	206.06
605.501	196.06
605.709	189.06
605.918	193.06
606.126	204.06
606.334	188.06
606.543	189.06
606.751	197.06
606.96	200.06
607.168	202.06
607.376	202.06
607.585	208.06
607.793	193.06
608.001	190.06
608.21	197.06
608.418	184.06
608.626	194.06
608.834	190.06
609.043	188.06
609.251	205.06
609.459	192.06
609.667	205.06
609.875	202.06
610.083	195.06
610.291	220.06
610.499	200.06
610.707	198.06
610.916	183.06
611.124	206.06
611.332	198.06
611.54	208.06
611.748	186.06
611.955	192.06
612.163	180.06
612.371	189.06
612.579	202.06
612.787	189.06
612.995	202.06
613.203	202.06
613.411	196.06
613.618	174.06
613.826	192.06
614.034	198.06
614.242	202.06
614.449	179.06
614.657	189.06
614.865	204.06
615.072	193.06
615.28	184.06
615.488	195.06
615.695	191.06
615.903	190.06
616.111	196.06
616.318	191.06
616.526	193.06
616.733	188.06
616.941	183.06
617.148	191.06
617.356	192.06
617.563	173.06
617.771	198.06
617.978	184.06
618.185	188.06
618.393	198.06
618.6	198.06
618.807	183.06
619.015	189.06
619.222	182.06
619.429	195.06
619.637	192.06
619.844	192.06
620.051	185.06
620.258	187.06
620.466	193.06
620.673	174.06
620.88	173.06
621.087	182.06
621.294	175.06
621.501	190.06
621.708	199.06
621.915	195.06
622.122	195.06
622.329	185.06
622.536	188.06
622.743	174.06
622.95	166.06
623.157	184.06
623.364	192.06
623.571	186.06
623.778	170.06
623.985	164.06
624.192	178.06
624.399	169.06
624.606	163.06
624.812	184.06
625.019	186.06
625.226	173.06
625.433	184.06
625.639	166.06
625.846	183.06
626.053	155.06
626.259	185.06
626.466	174.06
626.673	164.06
626.879	168.06
627.086	161.06
627.293	164.06
627.499	183.06
627.706	180.06
627.912	177.06
628.119	172.06
628.325	162.06
628.532	166.06
628.738	174.06
628.945	153.06
629.151	163.06
629.357	160.06
629.564	157.06
629.77	175.06
629.976	170.06
630.183	170.06
630.389	173.06
630.595	157.06
630.802	167.06
631.008	153.06
631.214	166.06
631.42	150.06
631.627	156.06
631.833	159.06
632.039	159.06
632.245	154.06
632.451	147.06
632.657	145.06
632.863	139.06
633.069	148.06
633.275	168.06
633.481	149.06
633.688	173.06
633.893	153.06
634.099	158.06
634.305	157.06
634.511	156.06
634.717	156.06
634.923	149.06
635.129	150.06
635.335	146.06
635.541	159.06
635.747	160.06
635.952	160.06
636.158	156.06
636.364	155.06
636.57	151.06
636.775	164.06
636.981	146.06
637.187	144.06
637.392	138.06
637.598	162.06
637.804	149.06
638.009	156.06
638.215	155.06
638.421	142.06
638.626	143.06
638.832	165.06
639.037	150.06
639.243	153.06
639.448	142.06
639.654	145.06
639.859	147.06
640.065	155.06
640.27	157.06
640.475	155.06
640.681	149.06
640.886	149.06
641.091	154.06
641.297	134.06
641.502	138.06
641.707	153.06
641.913	146.06
642.118	146.06
642.323	153.06
642.528	127.06
642.733	146.06
642.939	146.06
643.144	149.06
643.349	138.06
643.554	141.06
643.759	151.06
643.964	139.06
644.169	158.06
644.374	128.06
644.579	132.06
644.784	152.06
644.989	146.06
645.194	165.06
645.399	141.06
645.604	152.06
645.809	144.06
646.014	144.06
646.219	134.06
646.423	139.06
646.628	168.06
646.833	137.06
647.038	152.06
647.243	148.06
647.447	140.06
647.652	133.06
647.857	148.06
648.062	149.06
648.266	150.06
648.471	163.06
648.676	151.06
648.88	156.06
649.085	149.06
649.289	157.06
649.494	146.06
649.698	157.06
649.903	157.06
650.107	143.06
650.312	130.06
650.516	139.06
650.721	133.06
650.925	143.06
651.13	136.06
651.334	116.06
651.539	130.06
651.743	140.06
651.947	140.06
652.152	143.06
652.356	120.06
652.56	136.06
652.764	137.06
652.969	123.06
653.173	127.06
653.377	133.06
653.581	126.06
653.785	124.06
653.99	122.06
654.194	118.06
654.398	129.06
654.602	119.06
654.806	132.06
655.01	136.06
655.214	132.06
655.418	104.06
655.622	131.06
655.826	142.06
656.03	128.06
656.234	115.06
656.438	144.06
656.642	128.06
656.846	132.06
657.049	122.06
657.253	132.06
657.457	130.06
657.661	109.06
657.865	117.06
658.068	108.06
658.272	114.06
658.476	112.06
658.68	108.06
658.883	88.06
659.087	96.06
659.291	91.06
659.494	90.06
659.698	106.06
659.901	92.06
660.105	95.06
660.309	87.06
660.512	78.06
660.716	92.06
660.919	90.06
661.123	93.06
661.326	73.06
661.53	85.06
661.733	88.06
661.936	94.06
662.14	73.06
662.343	82.06
662.546	64.06
662.75	80.06
662.953	98.06
663.156	93.06
663.36	80.06
663.563	80.06
663.766	75.06
663.969	80.06
664.173	79.06
664.376	90.06
664.579	88.06
664.782	70.06
664.985	79.06
665.188	92.06
665.391	89.06
665.594	72.06
665.797	67.06
666	68.06
666.203	83.06
666.406	77.06
666.609	82.06
666.812	83.06
667.015	91.06
667.218	78.06
667.421	90.06
667.624	78.06
667.827	74.06
668.03	75.06
668.232	78.06
668.435	76.06
668.638	71.06
668.841	70.06
669.043	76.06
669.246	75.06
669.449	67.06
669.651	92.06
669.854	87.06
670.057	83.06
670.259	79.06
670.462	67.06
670.665	90.06
670.867	72.06
671.07	86.06
671.272	78.06
671.475	71.06
671.677	82.06
671.88	78.06
672.082	69.06
672.284	76.06
672.487	80.06
672.689	75.06
672.892	75.06
