Data from 1964.PennyLincolnUp.Lamp.En5.5.200Scan.071719.P1._HRD10591_14-05-21-909.txt Node
Date: Thu Jul 18 14:05:21 EDT 2019
User: cochatt
Spectrometer: HR+D1059
Trigger mode: 1
Integration Time (sec): 1.000000E-1
Scans to average: 1
Electric dark correction enabled: true
Nonlinearity correction enabled: false
Boxcar width: 0
XAxis mode: Wavelengths
Number of Pixels in Spectrum: 2048
>>>>>Begin Spectral Data<<<<<
223.165	-2.94
223.4	-2.94
223.635	-2.94
223.869	-14.94
224.104	-3.94
224.338	-21.94
224.573	-15.94
224.808	-15.94
225.042	-14.94
225.277	-12.94
225.511	-1.94
225.746	2.06
225.98	15.06
226.215	12.06
226.449	6.06
226.683	25.06
226.918	23.06
227.152	22.06
227.387	36.06
227.621	38.06
227.856	35.06
228.09	39.06
228.324	50.06
228.559	45.06
228.793	64.06
229.027	95.06
229.262	101.06
229.496	112.06
229.73	118.06
229.964	126.06
230.199	113.06
230.433	95.06
230.667	92.06
230.901	109.06
231.136	111.06
231.37	108.06
231.604	114.06
231.838	103.06
232.072	114.06
232.306	94.06
232.541	102.06
232.775	112.06
233.009	111.06
233.243	104.06
233.477	108.06
233.711	114.06
233.945	111.06
234.179	102.06
234.413	110.06
234.647	124.06
234.881	118.06
235.115	117.06
235.349	125.06
235.583	115.06
235.817	116.06
236.051	117.06
236.285	118.06
236.519	116.06
236.753	120.06
236.987	147.06
237.221	168.06
237.455	196.06
237.689	160.06
237.922	128.06
238.156	130.06
238.39	128.06
238.624	109.06
238.858	115.06
239.091	112.06
239.325	106.06
239.559	124.06
239.793	138.06
240.027	140.06
240.26	152.06
240.494	136.06
240.728	147.06
240.961	156.06
241.195	142.06
241.429	125.06
241.662	133.06
241.896	132.06
242.13	128.06
242.363	139.06
242.597	137.06
242.83	145.06
243.064	130.06
243.298	144.06
243.531	149.06
243.765	146.06
243.998	154.06
244.232	145.06
244.465	157.06
244.699	134.06
244.932	151.06
245.166	150.06
245.399	146.06
245.633	133.06
245.866	145.06
246.099	137.06
246.333	140.06
246.566	158.06
246.8	137.06
247.033	161.06
247.266	151.06
247.5	160.06
247.733	174.06
247.966	169.06
248.2	170.06
248.433	179.06
248.666	173.06
248.899	187.06
249.133	203.06
249.366	195.06
249.599	189.06
249.832	172.06
250.066	187.06
250.299	184.06
250.532	192.06
250.765	187.06
250.998	212.06
251.231	205.06
251.465	206.06
251.698	190.06
251.931	200.06
252.164	202.06
252.397	192.06
252.63	197.06
252.863	190.06
253.096	205.06
253.329	229.06
253.562	221.06
253.795	200.06
254.028	210.06
254.261	196.06
254.494	204.06
254.727	234.06
254.96	253.06
255.193	247.06
255.426	240.06
255.659	242.06
255.892	249.06
256.124	240.06
256.357	235.06
256.59	222.06
256.823	220.06
257.056	207.06
257.289	227.06
257.521	208.06
257.754	224.06
257.987	207.06
258.22	208.06
258.452	209.06
258.685	203.06
258.918	213.06
259.151	198.06
259.383	218.06
259.616	228.06
259.849	236.06
260.081	233.06
260.314	254.06
260.547	245.06
260.779	251.06
261.012	245.06
261.244	224.06
261.477	230.06
261.71	234.06
261.942	225.06
262.175	230.06
262.407	242.06
262.64	211.06
262.872	224.06
263.105	219.06
263.337	216.06
263.57	217.06
263.802	228.06
264.035	217.06
264.267	223.06
264.499	211.06
264.732	219.06
264.964	229.06
265.197	212.06
265.429	237.06
265.661	224.06
265.894	226.06
266.126	243.06
266.358	233.06
266.591	236.06
266.823	223.06
267.055	229.06
267.287	248.06
267.52	229.06
267.752	253.06
267.984	242.06
268.216	250.06
268.448	244.06
268.681	251.06
268.913	264.06
269.145	269.06
269.377	287.06
269.609	290.06
269.841	274.06
270.073	261.06
270.306	293.06
270.538	305.06
270.77	304.06
271.002	307.06
271.234	291.06
271.466	293.06
271.698	318.06
271.93	305.06
272.162	320.06
272.394	314.06
272.626	309.06
272.858	291.06
273.09	290.06
273.322	295.06
273.553	288.06
273.785	270.06
274.017	274.06
274.249	284.06
274.481	280.06
274.713	281.06
274.945	282.06
275.176	261.06
275.408	289.06
275.64	290.06
275.872	276.06
276.104	294.06
276.335	295.06
276.567	301.06
276.799	299.06
277.031	317.06
277.262	317.06
277.494	327.06
277.726	314.06
277.957	298.06
278.189	307.06
278.421	294.06
278.652	280.06
278.884	299.06
279.115	298.06
279.347	300.06
279.579	296.06
279.81	297.06
280.042	282.06
280.273	287.06
280.505	276.06
280.736	283.06
280.968	300.06
281.199	301.06
281.431	286.06
281.662	298.06
281.894	293.06
282.125	304.06
282.356	293.06
282.588	333.06
282.819	311.06
283.051	298.06
283.282	320.06
283.513	314.06
283.745	315.06
283.976	310.06
284.207	340.06
284.439	333.06
284.67	310.06
284.901	287.06
285.132	292.06
285.364	312.06
285.595	311.06
285.826	301.06
286.057	291.06
286.288	312.06
286.52	313.06
286.751	301.06
286.982	312.06
287.213	315.06
287.444	317.06
287.675	329.06
287.906	329.06
288.138	328.06
288.369	325.06
288.6	317.06
288.831	328.06
289.062	317.06
289.293	327.06
289.524	313.06
289.755	338.06
289.986	329.06
290.217	313.06
290.448	317.06
290.679	324.06
290.91	330.06
291.141	323.06
291.371	315.06
291.602	317.06
291.833	312.06
292.064	321.06
292.295	321.06
292.526	337.06
292.757	312.06
292.987	323.06
293.218	321.06
293.449	324.06
293.68	321.06
293.91	341.06
294.141	350.06
294.372	325.06
294.603	335.06
294.833	326.06
295.064	326.06
295.295	316.06
295.525	315.06
295.756	332.06
295.987	332.06
296.217	342.06
296.448	347.06
296.679	333.06
296.909	324.06
297.14	329.06
297.37	330.06
297.601	328.06
297.831	337.06
298.062	329.06
298.292	323.06
298.523	345.06
298.753	325.06
298.984	357.06
299.214	348.06
299.445	355.06
299.675	345.06
299.905	339.06
300.136	333.06
300.366	362.06
300.597	368.06
300.827	346.06
301.057	368.06
301.288	352.06
301.518	352.06
301.748	365.06
301.979	354.06
302.209	370.06
302.439	361.06
302.669	364.06
302.9	367.06
303.13	376.06
303.36	356.06
303.59	364.06
303.82	379.06
304.051	380.06
304.281	363.06
304.511	354.06
304.741	357.06
304.971	374.06
305.201	354.06
305.431	384.06
305.661	350.06
305.891	351.06
306.121	372.06
306.352	380.06
306.582	365.06
306.812	359.06
307.042	352.06
307.272	373.06
307.502	366.06
307.731	373.06
307.961	383.06
308.191	373.06
308.421	369.06
308.651	353.06
308.881	376.06
309.111	376.06
309.341	380.06
309.571	380.06
309.8	368.06
310.03	380.06
310.26	407.06
310.49	388.06
310.72	411.06
310.949	408.06
311.179	411.06
311.409	382.06
311.639	388.06
311.868	391.06
312.098	392.06
312.328	402.06
312.557	405.06
312.787	405.06
313.017	434.06
313.246	417.06
313.476	401.06
313.706	424.06
313.935	416.06
314.165	418.06
314.394	405.06
314.624	401.06
314.853	406.06
315.083	390.06
315.312	392.06
315.542	409.06
315.771	423.06
316.001	408.06
316.23	371.06
316.46	382.06
316.689	387.06
316.919	406.06
317.148	409.06
317.377	410.06
317.607	415.06
317.836	437.06
318.065	398.06
318.295	410.06
318.524	410.06
318.753	412.06
318.983	416.06
319.212	411.06
319.441	395.06
319.67	405.06
319.9	401.06
320.129	416.06
320.358	411.06
320.587	427.06
320.816	415.06
321.046	434.06
321.275	409.06
321.504	419.06
321.733	429.06
321.962	421.06
322.191	413.06
322.42	437.06
322.649	426.06
322.878	456.06
323.108	463.06
323.337	477.06
323.566	475.06
323.795	494.06
324.024	519.06
324.253	610.06
324.482	802.06
324.71	1186.06
324.939	1624.06
325.168	1350.06
325.397	731.06
325.626	552.06
325.855	515.06
326.084	491.06
326.313	482.06
326.542	489.06
326.77	526.06
326.999	596.06
327.228	779.06
327.457	1068.06
327.686	1220.06
327.914	835.06
328.143	600.06
328.372	560.06
328.6	541.06
328.829	530.06
329.058	512.06
329.287	530.06
329.515	516.06
329.744	495.06
329.972	489.06
330.201	505.06
330.43	547.06
330.658	542.06
330.887	564.06
331.115	551.06
331.344	518.06
331.572	482.06
331.801	483.06
332.03	470.06
332.258	490.06
332.486	486.06
332.715	461.06
332.943	502.06
333.172	516.06
333.4	495.06
333.629	517.06
333.857	520.06
334.085	523.06
334.314	550.06
334.542	536.06
334.771	560.06
334.999	532.06
335.227	522.06
335.455	492.06
335.684	479.06
335.912	490.06
336.14	473.06
336.369	470.06
336.597	489.06
336.825	480.06
337.053	467.06
337.281	454.06
337.51	475.06
337.738	474.06
337.966	468.06
338.194	472.06
338.422	476.06
338.65	445.06
338.878	462.06
339.106	441.06
339.334	452.06
339.562	438.06
339.79	456.06
340.018	429.06
340.246	448.06
340.474	450.06
340.702	436.06
340.93	452.06
341.158	449.06
341.386	448.06
341.614	436.06
341.842	426.06
342.07	449.06
342.298	446.06
342.526	442.06
342.754	426.06
342.981	444.06
343.209	439.06
343.437	436.06
343.665	444.06
343.893	480.06
344.12	481.06
344.348	476.06
344.576	462.06
344.804	461.06
345.031	465.06
345.259	457.06
345.487	452.06
345.714	457.06
345.942	448.06
346.17	436.06
346.397	420.06
346.625	433.06
346.853	426.06
347.08	446.06
347.308	409.06
347.535	423.06
347.763	422.06
347.99	443.06
348.218	422.06
348.445	426.06
348.673	424.06
348.9	412.06
349.128	415.06
349.355	416.06
349.583	431.06
349.81	415.06
350.037	417.06
350.265	409.06
350.492	409.06
350.72	396.06
350.947	416.06
351.174	434.06
351.402	418.06
351.629	422.06
351.856	409.06
352.083	434.06
352.311	422.06
352.538	422.06
352.765	437.06
352.992	407.06
353.22	420.06
353.447	422.06
353.674	414.06
353.901	405.06
354.128	395.06
354.355	388.06
354.583	402.06
354.81	408.06
355.037	408.06
355.264	385.06
355.491	399.06
355.718	432.06
355.945	408.06
356.172	391.06
356.399	398.06
356.626	392.06
356.853	389.06
357.08	401.06
357.307	404.06
357.534	397.06
357.761	398.06
357.988	387.06
358.215	382.06
358.441	389.06
358.668	394.06
358.895	401.06
359.122	399.06
359.349	421.06
359.576	407.06
359.802	418.06
360.029	435.06
360.256	426.06
360.483	416.06
360.709	402.06
360.936	388.06
361.163	414.06
361.39	414.06
361.616	391.06
361.843	405.06
362.07	421.06
362.296	398.06
362.523	407.06
362.749	397.06
362.976	419.06
363.203	397.06
363.429	402.06
363.656	404.06
363.882	377.06
364.109	393.06
364.335	397.06
364.562	399.06
364.788	421.06
365.015	393.06
365.241	397.06
365.468	388.06
365.694	405.06
365.92	411.06
366.147	411.06
366.373	413.06
366.599	407.06
366.826	411.06
367.052	397.06
367.278	386.06
367.505	394.06
367.731	393.06
367.957	394.06
368.184	399.06
368.41	416.06
368.636	410.06
368.862	409.06
369.089	402.06
369.315	388.06
369.541	387.06
369.767	402.06
369.993	399.06
370.219	407.06
370.445	394.06
370.672	406.06
370.898	413.06
371.124	396.06
371.35	403.06
371.576	403.06
371.802	406.06
372.028	393.06
372.254	400.06
372.48	420.06
372.706	384.06
372.932	410.06
373.158	420.06
373.384	396.06
373.61	391.06
373.835	421.06
374.061	406.06
374.287	406.06
374.513	413.06
374.739	407.06
374.965	404.06
375.191	411.06
375.416	403.06
375.642	412.06
375.868	420.06
376.094	393.06
376.319	415.06
376.545	388.06
376.771	393.06
376.997	388.06
377.222	408.06
377.448	385.06
377.674	384.06
377.899	378.06
378.125	388.06
378.35	407.06
378.576	382.06
378.802	406.06
379.027	376.06
379.253	376.06
379.478	402.06
379.704	412.06
379.929	378.06
380.155	376.06
380.38	373.06
380.606	391.06
380.831	378.06
381.057	414.06
381.282	394.06
381.507	401.06
381.733	411.06
381.958	385.06
382.184	394.06
382.409	419.06
382.634	399.06
382.86	397.06
383.085	406.06
383.31	413.06
383.535	418.06
383.761	413.06
383.986	416.06
384.211	418.06
384.436	380.06
384.662	416.06
384.887	426.06
385.112	421.06
385.337	421.06
385.562	442.06
385.787	424.06
386.013	443.06
386.238	437.06
386.463	434.06
386.688	435.06
386.913	412.06
387.138	447.06
387.363	436.06
387.588	427.06
387.813	440.06
388.038	446.06
388.263	420.06
388.488	432.06
388.713	431.06
388.938	435.06
389.163	462.06
389.387	423.06
389.612	425.06
389.837	438.06
390.062	435.06
390.287	444.06
390.512	434.06
390.736	432.06
390.961	427.06
391.186	439.06
391.411	434.06
391.636	429.06
391.86	460.06
392.085	431.06
392.31	441.06
392.534	444.06
392.759	441.06
392.984	432.06
393.208	431.06
393.433	425.06
393.658	423.06
393.882	425.06
394.107	450.06
394.331	450.06
394.556	438.06
394.78	443.06
395.005	439.06
395.229	428.06
395.454	446.06
395.678	445.06
395.903	442.06
396.127	451.06
396.352	482.06
396.576	445.06
396.801	434.06
397.025	453.06
397.249	450.06
397.474	462.06
397.698	454.06
397.922	447.06
398.147	468.06
398.371	488.06
398.595	480.06
398.82	492.06
399.044	506.06
399.268	516.06
399.492	572.06
399.717	573.06
399.941	600.06
400.165	604.06
400.389	612.06
400.613	568.06
400.837	513.06
401.062	493.06
401.286	491.06
401.51	491.06
401.734	483.06
401.958	514.06
402.182	493.06
402.406	500.06
402.63	506.06
402.854	487.06
403.078	505.06
403.302	500.06
403.526	503.06
403.75	500.06
403.974	513.06
404.198	512.06
404.422	512.06
404.645	524.06
404.869	507.06
405.093	521.06
405.317	560.06
405.541	590.06
405.765	541.06
405.988	532.06
406.212	525.06
406.436	531.06
406.66	570.06
406.883	523.06
407.107	561.06
407.331	572.06
407.555	639.06
407.778	628.06
408.002	597.06
408.226	549.06
408.449	558.06
408.673	548.06
408.896	540.06
409.12	575.06
409.344	570.06
409.567	498.06
409.791	507.06
410.014	512.06
410.238	510.06
410.461	480.06
410.685	502.06
410.908	508.06
411.132	512.06
411.355	541.06
411.578	534.06
411.802	495.06
412.025	482.06
412.249	502.06
412.472	517.06
412.695	550.06
412.919	534.06
413.142	491.06
413.365	501.06
413.589	506.06
413.812	496.06
414.035	461.06
414.258	470.06
414.482	474.06
414.705	472.06
414.928	490.06
415.151	457.06
415.374	474.06
415.597	472.06
415.821	462.06
416.044	446.06
416.267	445.06
416.49	454.06
416.713	443.06
416.936	469.06
417.159	460.06
417.382	463.06
417.605	471.06
417.828	452.06
418.051	499.06
418.274	485.06
418.497	453.06
418.72	484.06
418.943	461.06
419.166	469.06
419.389	507.06
419.611	517.06
419.834	488.06
420.057	518.06
420.28	486.06
420.503	480.06
420.726	494.06
420.948	480.06
421.171	527.06
421.394	520.06
421.617	499.06
421.839	454.06
422.062	469.06
422.285	487.06
422.507	520.06
422.73	574.06
422.953	579.06
423.175	512.06
423.398	489.06
423.621	477.06
423.843	477.06
424.066	497.06
424.288	517.06
424.511	508.06
424.733	571.06
424.956	612.06
425.178	572.06
425.401	597.06
425.623	583.06
425.846	551.06
426.068	504.06
426.291	516.06
426.513	489.06
426.735	508.06
426.958	537.06
427.18	580.06
427.402	681.06
427.625	738.06
427.847	633.06
428.069	556.06
428.292	512.06
428.514	475.06
428.736	452.06
428.958	466.06
429.181	455.06
429.403	436.06
429.625	470.06
429.847	480.06
430.069	539.06
430.292	514.06
430.514	465.06
430.736	439.06
430.958	452.06
431.18	460.06
431.402	452.06
431.624	450.06
431.846	423.06
432.068	426.06
432.29	439.06
432.512	451.06
432.734	449.06
432.956	425.06
433.178	462.06
433.4	455.06
433.622	422.06
433.844	439.06
434.066	434.06
434.287	428.06
434.509	442.06
434.731	448.06
434.953	449.06
435.175	459.06
435.397	492.06
435.618	494.06
435.84	527.06
436.062	578.06
436.284	627.06
436.505	512.06
436.727	492.06
436.949	486.06
437.17	438.06
437.392	456.06
437.614	477.06
437.835	462.06
438.057	537.06
438.278	602.06
438.5	612.06
438.721	682.06
438.943	650.06
439.165	530.06
439.386	500.06
439.608	509.06
439.829	498.06
440.05	522.06
440.272	547.06
440.493	520.06
440.715	473.06
440.936	464.06
441.158	453.06
441.379	458.06
441.6	466.06
441.822	511.06
442.043	514.06
442.264	588.06
442.486	596.06
442.707	532.06
442.928	489.06
443.149	496.06
443.371	513.06
443.592	547.06
443.813	619.06
444.034	648.06
444.255	554.06
444.476	505.06
444.698	512.06
444.919	496.06
445.14	625.06
445.361	552.06
445.582	534.06
445.803	554.06
446.024	629.06
446.245	644.06
446.466	602.06
446.687	510.06
446.908	478.06
447.129	445.06
447.35	429.06
447.571	450.06
447.792	420.06
448.013	449.06
448.234	462.06
448.455	501.06
448.675	594.06
448.896	681.06
449.117	566.06
449.338	512.06
449.559	633.06
449.779	662.06
450	566.06
450.221	478.06
450.442	453.06
450.662	450.06
450.883	436.06
451.104	452.06
451.324	429.06
451.545	393.06
451.766	412.06
451.986	417.06
452.207	401.06
452.428	393.06
452.648	407.06
452.869	405.06
453.089	403.06
453.31	389.06
453.53	398.06
453.751	386.06
453.971	402.06
454.192	407.06
454.412	390.06
454.633	386.06
454.853	389.06
455.073	389.06
455.294	416.06
455.514	455.06
455.734	454.06
455.955	394.06
456.175	373.06
456.395	362.06
456.616	395.06
456.836	388.06
457.056	378.06
457.276	352.06
457.497	376.06
457.717	374.06
457.937	380.06
458.157	410.06
458.377	388.06
458.598	413.06
458.818	456.06
459.038	496.06
459.258	488.06
459.478	455.06
459.698	441.06
459.918	426.06
460.138	426.06
460.358	443.06
460.578	454.06
460.798	441.06
461.018	470.06
461.238	457.06
461.458	470.06
461.678	430.06
461.898	459.06
462.118	443.06
462.338	460.06
462.558	474.06
462.777	471.06
462.997	482.06
463.217	508.06
463.437	501.06
463.657	469.06
463.876	487.06
464.096	468.06
464.316	475.06
464.536	492.06
464.755	457.06
464.975	458.06
465.195	496.06
465.414	498.06
465.634	443.06
465.854	459.06
466.073	434.06
466.293	421.06
466.512	432.06
466.732	437.06
466.951	436.06
467.171	402.06
467.391	425.06
467.61	420.06
467.829	422.06
468.049	451.06
468.268	432.06
468.488	409.06
468.707	394.06
468.927	405.06
469.146	384.06
469.365	396.06
469.585	390.06
469.804	392.06
470.023	412.06
470.243	427.06
470.462	432.06
470.681	428.06
470.901	425.06
471.12	423.06
471.339	432.06
471.558	421.06
471.777	442.06
471.997	398.06
472.216	419.06
472.435	421.06
472.654	420.06
472.873	426.06
473.092	416.06
473.311	426.06
473.53	406.06
473.749	416.06
473.968	441.06
474.187	515.06
474.406	522.06
474.625	452.06
474.844	426.06
475.063	415.06
475.282	427.06
475.501	417.06
475.72	417.06
475.939	429.06
476.158	434.06
476.377	433.06
476.596	433.06
476.814	451.06
477.033	436.06
477.252	429.06
477.471	432.06
477.69	446.06
477.908	437.06
478.127	453.06
478.346	459.06
478.564	473.06
478.783	465.06
479.002	490.06
479.22	464.06
479.439	480.06
479.658	520.06
479.876	464.06
480.095	508.06
480.313	513.06
480.532	497.06
480.751	492.06
480.969	531.06
481.188	550.06
481.406	569.06
481.624	522.06
481.843	496.06
482.061	463.06
482.28	493.06
482.498	489.06
482.717	468.06
482.935	460.06
483.153	480.06
483.372	470.06
483.59	477.06
483.808	457.06
484.027	477.06
484.245	486.06
484.463	480.06
484.681	468.06
484.9	491.06
485.118	515.06
485.336	496.06
485.554	502.06
485.772	507.06
485.99	480.06
486.209	483.06
486.427	508.06
486.645	506.06
486.863	520.06
487.081	521.06
487.299	510.06
487.517	523.06
487.735	490.06
487.953	522.06
488.171	525.06
488.389	516.06
488.607	507.06
488.825	503.06
489.043	521.06
489.261	516.06
489.479	521.06
489.696	509.06
489.914	516.06
490.132	540.06
490.35	531.06
490.568	525.06
490.786	565.06
491.003	560.06
491.221	555.06
491.439	560.06
491.657	582.06
491.874	548.06
492.092	549.06
492.31	552.06
492.527	581.06
492.745	561.06
492.963	542.06
493.18	580.06
493.398	609.06
493.615	594.06
493.833	576.06
494.05	594.06
494.268	579.06
494.485	572.06
494.703	579.06
494.92	580.06
495.138	568.06
495.355	609.06
495.573	601.06
495.79	574.06
496.008	578.06
496.225	593.06
496.442	610.06
496.66	601.06
496.877	603.06
497.094	609.06
497.312	600.06
497.529	602.06
497.746	637.06
497.963	633.06
498.181	672.06
498.398	664.06
498.615	686.06
498.832	658.06
499.049	688.06
499.267	728.06
499.484	729.06
499.701	792.06
499.918	845.06
500.135	873.06
500.352	913.06
500.569	936.06
500.786	931.06
501.003	910.06
501.22	881.06
501.437	847.06
501.654	824.06
501.871	789.06
502.088	749.06
502.305	750.06
502.522	684.06
502.739	672.06
502.956	670.06
503.172	621.06
503.389	610.06
503.606	622.06
503.823	613.06
504.04	614.06
504.256	621.06
504.473	625.06
504.69	604.06
504.907	608.06
505.123	593.06
505.34	566.06
505.557	597.06
505.773	564.06
505.99	570.06
506.207	583.06
506.423	556.06
506.64	560.06
506.856	552.06
507.073	543.06
507.289	528.06
507.506	544.06
507.722	542.06
507.939	547.06
508.155	532.06
508.372	540.06
508.588	512.06
508.805	500.06
509.021	534.06
509.238	520.06
509.454	510.06
509.67	527.06
509.887	528.06
510.103	526.06
510.319	510.06
510.536	581.06
510.752	796.06
510.968	642.06
511.184	514.06
511.401	518.06
511.617	505.06
511.833	511.06
512.049	488.06
512.265	481.06
512.481	483.06
512.698	502.06
512.914	498.06
513.13	490.06
513.346	486.06
513.562	502.06
513.778	512.06
513.994	498.06
514.21	480.06
514.426	527.06
514.642	517.06
514.858	543.06
515.074	568.06
515.29	613.06
515.506	780.06
515.721	638.06
515.937	545.06
516.153	538.06
516.369	540.06
516.585	527.06
516.801	518.06
517.016	493.06
517.232	514.06
517.448	525.06
517.664	524.06
517.879	541.06
518.095	543.06
518.311	553.06
518.527	548.06
518.742	512.06
518.958	535.06
519.173	500.06
519.389	504.06
519.605	518.06
519.82	491.06
520.036	491.06
520.251	512.06
520.467	518.06
520.682	541.06
520.898	496.06
521.113	504.06
521.329	540.06
521.544	577.06
521.76	645.06
521.975	922.06
522.19	878.06
522.406	579.06
522.621	498.06
522.836	481.06
523.052	472.06
523.267	458.06
523.482	435.06
523.698	447.06
523.913	448.06
524.128	440.06
524.343	432.06
524.559	436.06
524.774	405.06
524.989	438.06
525.204	430.06
525.419	435.06
525.634	427.06
525.849	410.06
526.064	411.06
526.28	416.06
526.495	404.06
526.71	421.06
526.925	424.06
527.14	409.06
527.355	425.06
527.57	424.06
527.785	410.06
527.999	426.06
528.214	429.06
528.429	386.06
528.644	402.06
528.859	437.06
529.074	408.06
529.289	424.06
529.503	457.06
529.718	441.06
529.933	416.06
530.148	414.06
530.363	419.06
530.577	427.06
530.792	413.06
531.007	397.06
531.221	399.06
531.436	398.06
531.651	395.06
531.865	390.06
532.08	407.06
532.295	409.06
532.509	404.06
532.724	400.06
532.938	393.06
533.153	416.06
533.367	428.06
533.582	418.06
533.796	393.06
534.011	387.06
534.225	397.06
534.44	380.06
534.654	393.06
534.868	387.06
535.083	408.06
535.297	382.06
535.511	397.06
535.726	397.06
535.94	402.06
536.154	384.06
536.369	393.06
536.583	375.06
536.797	395.06
537.011	380.06
537.225	373.06
537.44	389.06
537.654	388.06
537.868	391.06
538.082	386.06
538.296	384.06
538.51	397.06
538.724	389.06
538.938	376.06
539.153	392.06
539.367	399.06
539.581	376.06
539.795	379.06
540.009	384.06
540.222	378.06
540.436	392.06
540.65	395.06
540.864	386.06
541.078	387.06
541.292	396.06
541.506	393.06
541.72	384.06
541.934	375.06
542.147	384.06
542.361	384.06
542.575	381.06
542.789	384.06
543.002	393.06
543.216	369.06
543.43	396.06
543.644	385.06
543.857	372.06
544.071	382.06
544.285	368.06
544.498	394.06
544.712	382.06
544.925	394.06
545.139	389.06
545.352	376.06
545.566	372.06
545.779	382.06
545.993	377.06
546.206	392.06
546.42	384.06
546.633	399.06
546.847	370.06
547.06	372.06
547.274	358.06
547.487	370.06
547.7	370.06
547.914	377.06
548.127	359.06
548.34	386.06
548.554	353.06
548.767	364.06
548.98	388.06
549.193	368.06
549.407	357.06
549.62	382.06
549.833	378.06
550.046	391.06
550.259	363.06
550.473	347.06
550.686	376.06
550.899	372.06
551.112	381.06
551.325	368.06
551.538	360.06
551.751	374.06
551.964	363.06
552.177	384.06
552.39	359.06
552.603	368.06
552.816	359.06
553.029	388.06
553.242	360.06
553.455	384.06
553.667	378.06
553.88	380.06
554.093	364.06
554.306	379.06
554.519	358.06
554.732	356.06
554.944	376.06
555.157	352.06
555.37	355.06
555.583	340.06
555.795	354.06
556.008	343.06
556.221	338.06
556.433	357.06
556.646	341.06
556.859	365.06
557.071	338.06
557.284	331.06
557.496	330.06
557.709	340.06
557.921	315.06
558.134	332.06
558.346	333.06
558.559	325.06
558.771	345.06
558.984	324.06
559.196	314.06
559.409	328.06
559.621	330.06
559.833	331.06
560.046	314.06
560.258	324.06
560.47	336.06
560.683	331.06
560.895	329.06
561.107	351.06
561.32	331.06
561.532	317.06
561.744	323.06
561.956	330.06
562.168	326.06
562.381	354.06
562.593	350.06
562.805	315.06
563.017	332.06
563.229	334.06
563.441	339.06
563.653	324.06
563.865	335.06
564.077	340.06
564.289	331.06
564.501	333.06
564.713	340.06
564.925	357.06
565.137	370.06
565.349	360.06
565.561	361.06
565.773	348.06
565.985	370.06
566.197	402.06
566.408	387.06
566.62	396.06
566.832	405.06
567.044	412.06
567.255	445.06
567.467	427.06
567.679	424.06
567.891	448.06
568.102	446.06
568.314	444.06
568.526	424.06
568.737	404.06
568.949	375.06
569.161	364.06
569.372	356.06
569.584	345.06
569.795	339.06
570.007	333.06
570.218	357.06
570.43	337.06
570.641	334.06
570.853	337.06
571.064	327.06
571.276	315.06
571.487	296.06
571.698	320.06
571.91	322.06
572.121	322.06
572.333	302.06
572.544	299.06
572.755	297.06
572.966	290.06
573.178	307.06
573.389	309.06
573.6	300.06
573.811	285.06
574.023	294.06
574.234	283.06
574.445	283.06
574.656	298.06
574.867	275.06
575.078	280.06
575.289	287.06
575.501	288.06
575.712	274.06
575.923	278.06
576.134	284.06
576.345	283.06
576.556	285.06
576.767	284.06
576.978	275.06
577.188	280.06
577.399	279.06
577.61	278.06
577.821	277.06
578.032	261.06
578.243	296.06
578.454	388.06
578.665	309.06
578.875	268.06
579.086	278.06
579.297	290.06
579.508	265.06
579.718	267.06
579.929	261.06
580.14	243.06
580.35	271.06
580.561	262.06
580.772	264.06
580.982	240.06
581.193	248.06
581.403	271.06
581.614	258.06
581.825	263.06
582.035	251.06
582.246	251.06
582.456	262.06
582.667	258.06
582.877	265.06
583.087	258.06
583.298	266.06
583.508	257.06
583.719	280.06
583.929	274.06
584.139	256.06
584.35	265.06
584.56	256.06
584.77	262.06
584.981	262.06
585.191	252.06
585.401	252.06
585.611	250.06
585.821	254.06
586.032	254.06
586.242	264.06
586.452	242.06
586.662	245.06
586.872	258.06
587.082	244.06
587.292	235.06
587.502	256.06
587.713	225.06
587.923	238.06
588.133	233.06
588.343	240.06
588.553	248.06
588.762	252.06
588.972	265.06
589.182	254.06
589.392	257.06
589.602	236.06
589.812	244.06
590.022	258.06
590.232	261.06
590.441	276.06
590.651	265.06
590.861	260.06
591.071	250.06
591.281	248.06
591.49	241.06
591.7	258.06
591.91	250.06
592.119	253.06
592.329	250.06
592.539	273.06
592.748	289.06
592.958	280.06
593.167	263.06
593.377	288.06
593.587	282.06
593.796	278.06
594.006	282.06
594.215	269.06
594.424	258.06
594.634	269.06
594.843	271.06
595.053	256.06
595.262	253.06
595.472	221.06
595.681	265.06
595.89	252.06
596.1	265.06
596.309	233.06
596.518	230.06
596.727	239.06
596.937	240.06
597.146	233.06
597.355	243.06
597.564	235.06
597.774	226.06
597.983	230.06
598.192	230.06
598.401	220.06
598.61	241.06
598.819	221.06
599.028	217.06
599.237	236.06
599.446	234.06
599.655	235.06
599.864	235.06
600.073	232.06
600.282	197.06
600.491	222.06
600.7	222.06
600.909	227.06
601.118	220.06
601.327	200.06
601.536	223.06
601.745	231.06
601.953	218.06
602.162	209.06
602.371	221.06
602.58	221.06
602.789	209.06
602.997	215.06
603.206	205.06
603.415	224.06
603.623	214.06
603.832	217.06
604.041	217.06
604.249	223.06
604.458	230.06
604.666	208.06
604.875	205.06
605.084	196.06
605.292	201.06
605.501	207.06
605.709	221.06
605.918	218.06
606.126	203.06
606.334	183.06
606.543	217.06
606.751	203.06
606.96	202.06
607.168	201.06
607.376	211.06
607.585	213.06
607.793	215.06
608.001	205.06
608.21	202.06
608.418	208.06
608.626	185.06
608.834	214.06
609.043	203.06
609.251	194.06
609.459	204.06
609.667	218.06
609.875	191.06
610.083	199.06
610.291	198.06
610.499	203.06
610.707	193.06
610.916	204.06
611.124	204.06
611.332	206.06
611.54	207.06
611.748	188.06
611.955	219.06
612.163	196.06
612.371	201.06
612.579	190.06
612.787	198.06
612.995	203.06
613.203	213.06
613.411	182.06
613.618	203.06
613.826	202.06
614.034	206.06
614.242	202.06
614.449	199.06
614.657	196.06
614.865	201.06
615.072	200.06
615.28	198.06
615.488	186.06
615.695	197.06
615.903	190.06
616.111	213.06
616.318	210.06
616.526	204.06
616.733	205.06
616.941	204.06
617.148	193.06
617.356	208.06
617.563	186.06
617.771	213.06
617.978	193.06
618.185	208.06
618.393	204.06
618.6	207.06
618.807	187.06
619.015	203.06
619.222	182.06
619.429	203.06
619.637	228.06
619.844	207.06
620.051	199.06
620.258	193.06
620.466	205.06
620.673	187.06
620.88	200.06
621.087	198.06
621.294	205.06
621.501	194.06
621.708	198.06
621.915	194.06
622.122	186.06
622.329	187.06
622.536	180.06
622.743	194.06
622.95	162.06
623.157	181.06
623.364	196.06
623.571	182.06
623.778	182.06
623.985	204.06
624.192	176.06
624.399	181.06
624.606	193.06
624.812	180.06
625.019	187.06
625.226	184.06
625.433	188.06
625.639	190.06
625.846	188.06
626.053	172.06
626.259	187.06
626.466	171.06
626.673	177.06
626.879	174.06
627.086	158.06
627.293	177.06
627.499	180.06
627.706	169.06
627.912	169.06
628.119	188.06
628.325	195.06
628.532	177.06
628.738	172.06
628.945	171.06
629.151	162.06
629.357	174.06
629.564	179.06
629.77	172.06
629.976	178.06
630.183	171.06
630.389	182.06
630.595	163.06
630.802	160.06
631.008	170.06
631.214	163.06
631.42	181.06
631.627	181.06
631.833	170.06
632.039	163.06
632.245	160.06
632.451	168.06
632.657	160.06
632.863	175.06
633.069	163.06
633.275	163.06
633.481	161.06
633.688	163.06
633.893	173.06
634.099	186.06
634.305	171.06
634.511	164.06
634.717	146.06
634.923	152.06
635.129	157.06
635.335	156.06
635.541	150.06
635.747	163.06
635.952	165.06
636.158	155.06
636.364	167.06
636.57	169.06
636.775	166.06
636.981	167.06
637.187	140.06
637.392	139.06
637.598	150.06
637.804	161.06
638.009	159.06
638.215	141.06
638.421	156.06
638.626	148.06
638.832	168.06
639.037	158.06
639.243	160.06
639.448	156.06
639.654	161.06
639.859	158.06
640.065	154.06
640.27	169.06
640.475	154.06
640.681	144.06
640.886	148.06
641.091	146.06
641.297	154.06
641.502	151.06
641.707	143.06
641.913	156.06
642.118	156.06
642.323	154.06
642.528	156.06
642.733	150.06
642.939	152.06
643.144	132.06
643.349	149.06
643.554	138.06
643.759	153.06
643.964	129.06
644.169	146.06
644.374	148.06
644.579	146.06
644.784	146.06
644.989	146.06
645.194	140.06
645.399	136.06
645.604	141.06
645.809	154.06
646.014	165.06
646.219	150.06
646.423	145.06
646.628	150.06
646.833	142.06
647.038	141.06
647.243	136.06
647.447	152.06
647.652	149.06
647.857	148.06
648.062	161.06
648.266	160.06
648.471	157.06
648.676	154.06
648.88	138.06
649.085	155.06
649.289	147.06
649.494	130.06
649.698	171.06
649.903	167.06
650.107	150.06
650.312	149.06
650.516	144.06
650.721	156.06
650.925	139.06
651.13	133.06
651.334	133.06
651.539	139.06
651.743	136.06
651.947	135.06
652.152	129.06
652.356	139.06
652.56	132.06
652.764	141.06
652.969	133.06
653.173	119.06
653.377	124.06
653.581	124.06
653.785	123.06
653.99	112.06
654.194	137.06
654.398	125.06
654.602	122.06
654.806	110.06
655.01	124.06
655.214	126.06
655.418	117.06
655.622	121.06
655.826	129.06
656.03	133.06
656.234	140.06
656.438	137.06
656.642	128.06
656.846	119.06
657.049	123.06
657.253	122.06
657.457	124.06
657.661	105.06
657.865	115.06
658.068	100.06
658.272	118.06
658.476	103.06
658.68	114.06
658.883	108.06
659.087	120.06
659.291	101.06
659.494	98.06
659.698	107.06
659.901	82.06
660.105	84.06
660.309	86.06
660.512	86.06
660.716	105.06
660.919	81.06
661.123	98.06
661.326	86.06
661.53	89.06
661.733	91.06
661.936	88.06
662.14	77.06
662.343	81.06
662.546	88.06
662.75	96.06
662.953	77.06
663.156	84.06
663.36	85.06
663.563	79.06
663.766	82.06
663.969	92.06
664.173	77.06
664.376	90.06
664.579	89.06
664.782	78.06
664.985	93.06
665.188	87.06
665.391	81.06
665.594	84.06
665.797	78.06
666	82.06
666.203	88.06
666.406	80.06
666.609	91.06
666.812	94.06
667.015	79.06
667.218	85.06
667.421	84.06
667.624	69.06
667.827	75.06
668.03	70.06
668.232	90.06
668.435	86.06
668.638	76.06
668.841	73.06
669.043	102.06
669.246	73.06
669.449	82.06
669.651	78.06
669.854	89.06
670.057	80.06
670.259	78.06
670.462	84.06
670.665	80.06
670.867	90.06
671.07	84.06
671.272	78.06
671.475	78.06
671.677	102.06
671.88	83.06
672.082	75.06
672.284	68.06
672.487	99.06
672.689	94.06
672.892	86.06
