Data from 1964.PennyLincolnUp.Lamp.En5.5.200Scan.071719.P1._HRD10591_14-04-57-909.txt Node
Date: Thu Jul 18 14:04:57 EDT 2019
User: cochatt
Spectrometer: HR+D1059
Trigger mode: 1
Integration Time (sec): 1.000000E-1
Scans to average: 1
Electric dark correction enabled: true
Nonlinearity correction enabled: false
Boxcar width: 0
XAxis mode: Wavelengths
Number of Pixels in Spectrum: 2048
>>>>>Begin Spectral Data<<<<<
223.165	-24.62
223.4	-24.62
223.635	-24.62
223.869	-16.62
224.104	-31.62
224.338	-21.62
224.573	-16.62
224.808	-1.62
225.042	2.38
225.277	-8.62
225.511	1.38
225.746	5.38
225.98	6.38
226.215	25.38
226.449	9.38
226.683	23.38
226.918	6.38
227.152	41.38
227.387	28.38
227.621	39.38
227.856	47.38
228.09	56.38
228.324	54.38
228.559	49.38
228.793	72.38
229.027	101.38
229.262	123.38
229.496	113.38
229.73	116.38
229.964	146.38
230.199	118.38
230.433	108.38
230.667	123.38
230.901	106.38
231.136	107.38
231.37	109.38
231.604	114.38
231.838	116.38
232.072	117.38
232.306	119.38
232.541	111.38
232.775	110.38
233.009	121.38
233.243	109.38
233.477	112.38
233.711	99.38
233.945	109.38
234.179	121.38
234.413	108.38
234.647	106.38
234.881	119.38
235.115	110.38
235.349	120.38
235.583	120.38
235.817	116.38
236.051	117.38
236.285	124.38
236.519	120.38
236.753	130.38
236.987	134.38
237.221	163.38
237.455	199.38
237.689	159.38
237.922	132.38
238.156	140.38
238.39	128.38
238.624	134.38
238.858	126.38
239.091	118.38
239.325	113.38
239.559	128.38
239.793	128.38
240.027	127.38
240.26	147.38
240.494	132.38
240.728	169.38
240.961	148.38
241.195	147.38
241.429	140.38
241.662	132.38
241.896	130.38
242.13	144.38
242.363	137.38
242.597	153.38
242.83	144.38
243.064	144.38
243.298	144.38
243.531	139.38
243.765	149.38
243.998	163.38
244.232	144.38
244.465	141.38
244.699	136.38
244.932	144.38
245.166	156.38
245.399	161.38
245.633	161.38
245.866	128.38
246.099	146.38
246.333	142.38
246.566	148.38
246.8	158.38
247.033	146.38
247.266	150.38
247.5	159.38
247.733	181.38
247.966	182.38
248.2	172.38
248.433	163.38
248.666	192.38
248.899	189.38
249.133	191.38
249.366	200.38
249.599	200.38
249.832	169.38
250.066	192.38
250.299	183.38
250.532	196.38
250.765	176.38
250.998	193.38
251.231	219.38
251.465	215.38
251.698	219.38
251.931	184.38
252.164	195.38
252.397	187.38
252.63	200.38
252.863	209.38
253.096	232.38
253.329	219.38
253.562	227.38
253.795	224.38
254.028	193.38
254.261	217.38
254.494	237.38
254.727	242.38
254.96	262.38
255.193	260.38
255.426	225.38
255.659	221.38
255.892	223.38
256.124	232.38
256.357	236.38
256.59	233.38
256.823	224.38
257.056	231.38
257.289	215.38
257.521	225.38
257.754	196.38
257.987	216.38
258.22	215.38
258.452	220.38
258.685	225.38
258.918	225.38
259.151	218.38
259.383	221.38
259.616	229.38
259.849	221.38
260.081	240.38
260.314	235.38
260.547	258.38
260.779	237.38
261.012	234.38
261.244	235.38
261.477	234.38
261.71	220.38
261.942	233.38
262.175	227.38
262.407	251.38
262.64	217.38
262.872	218.38
263.105	218.38
263.337	241.38
263.57	236.38
263.802	225.38
264.035	217.38
264.267	197.38
264.499	213.38
264.732	232.38
264.964	236.38
265.197	229.38
265.429	220.38
265.661	229.38
265.894	253.38
266.126	248.38
266.358	246.38
266.591	235.38
266.823	241.38
267.055	244.38
267.287	238.38
267.52	236.38
267.752	238.38
267.984	250.38
268.216	234.38
268.448	242.38
268.681	250.38
268.913	259.38
269.145	252.38
269.377	276.38
269.609	278.38
269.841	279.38
270.073	283.38
270.306	300.38
270.538	301.38
270.77	328.38
271.002	324.38
271.234	297.38
271.466	286.38
271.698	303.38
271.93	334.38
272.162	329.38
272.394	316.38
272.626	326.38
272.858	290.38
273.09	294.38
273.322	293.38
273.553	270.38
273.785	270.38
274.017	286.38
274.249	305.38
274.481	283.38
274.713	292.38
274.945	303.38
275.176	279.38
275.408	292.38
275.64	292.38
275.872	282.38
276.104	278.38
276.335	261.38
276.567	278.38
276.799	292.38
277.031	313.38
277.262	323.38
277.494	330.38
277.726	302.38
277.957	300.38
278.189	304.38
278.421	289.38
278.652	304.38
278.884	291.38
279.115	284.38
279.347	294.38
279.579	289.38
279.81	282.38
280.042	288.38
280.273	286.38
280.505	309.38
280.736	295.38
280.968	298.38
281.199	303.38
281.431	288.38
281.662	297.38
281.894	304.38
282.125	287.38
282.356	292.38
282.588	304.38
282.819	330.38
283.051	302.38
283.282	303.38
283.513	304.38
283.745	308.38
283.976	299.38
284.207	306.38
284.439	321.38
284.67	324.38
284.901	312.38
285.132	325.38
285.364	294.38
285.595	324.38
285.826	306.38
286.057	318.38
286.288	314.38
286.52	324.38
286.751	315.38
286.982	316.38
287.213	296.38
287.444	316.38
287.675	322.38
287.906	323.38
288.138	346.38
288.369	340.38
288.6	342.38
288.831	324.38
289.062	325.38
289.293	329.38
289.524	321.38
289.755	317.38
289.986	332.38
290.217	330.38
290.448	316.38
290.679	340.38
290.91	325.38
291.141	319.38
291.371	318.38
291.602	305.38
291.833	333.38
292.064	320.38
292.295	326.38
292.526	324.38
292.757	327.38
292.987	305.38
293.218	326.38
293.449	335.38
293.68	338.38
293.91	312.38
294.141	352.38
294.372	314.38
294.603	320.38
294.833	344.38
295.064	324.38
295.295	340.38
295.525	337.38
295.756	322.38
295.987	332.38
296.217	355.38
296.448	354.38
296.679	359.38
296.909	335.38
297.14	340.38
297.37	338.38
297.601	334.38
297.831	352.38
298.062	342.38
298.292	340.38
298.523	362.38
298.753	347.38
298.984	357.38
299.214	351.38
299.445	358.38
299.675	365.38
299.905	364.38
300.136	360.38
300.366	362.38
300.597	380.38
300.827	350.38
301.057	357.38
301.288	372.38
301.518	354.38
301.748	364.38
301.979	358.38
302.209	379.38
302.439	367.38
302.669	382.38
302.9	380.38
303.13	378.38
303.36	380.38
303.59	366.38
303.82	386.38
304.051	349.38
304.281	365.38
304.511	379.38
304.741	360.38
304.971	358.38
305.201	365.38
305.431	380.38
305.661	369.38
305.891	360.38
306.121	356.38
306.352	377.38
306.582	365.38
306.812	364.38
307.042	370.38
307.272	377.38
307.502	376.38
307.731	369.38
307.961	356.38
308.191	353.38
308.421	374.38
308.651	386.38
308.881	375.38
309.111	374.38
309.341	376.38
309.571	378.38
309.8	393.38
310.03	392.38
310.26	398.38
310.49	393.38
310.72	395.38
310.949	398.38
311.179	413.38
311.409	383.38
311.639	412.38
311.868	391.38
312.098	406.38
312.328	414.38
312.557	406.38
312.787	422.38
313.017	432.38
313.246	420.38
313.476	401.38
313.706	406.38
313.935	404.38
314.165	418.38
314.394	422.38
314.624	431.38
314.853	418.38
315.083	396.38
315.312	423.38
315.542	401.38
315.771	397.38
316.001	395.38
316.23	399.38
316.46	407.38
316.689	398.38
316.919	401.38
317.148	426.38
317.377	406.38
317.607	410.38
317.836	417.38
318.065	422.38
318.295	398.38
318.524	417.38
318.753	423.38
318.983	402.38
319.212	404.38
319.441	414.38
319.67	424.38
319.9	408.38
320.129	394.38
320.358	437.38
320.587	406.38
320.816	417.38
321.046	432.38
321.275	420.38
321.504	405.38
321.733	435.38
321.962	448.38
322.191	406.38
322.42	452.38
322.649	439.38
322.878	448.38
323.108	438.38
323.337	481.38
323.566	494.38
323.795	516.38
324.024	517.38
324.253	609.38
324.482	795.38
324.71	1144.38
324.939	1602.38
325.168	1313.38
325.397	732.38
325.626	546.38
325.855	504.38
326.084	491.38
326.313	485.38
326.542	492.38
326.77	526.38
326.999	574.38
327.228	735.38
327.457	1040.38
327.686	1201.38
327.914	809.38
328.143	606.38
328.372	552.38
328.6	534.38
328.829	508.38
329.058	528.38
329.287	524.38
329.515	521.38
329.744	505.38
329.972	487.38
330.201	503.38
330.43	532.38
330.658	537.38
330.887	549.38
331.115	538.38
331.344	519.38
331.572	501.38
331.801	485.38
332.03	487.38
332.258	484.38
332.486	481.38
332.715	505.38
332.943	480.38
333.172	492.38
333.4	500.38
333.629	496.38
333.857	523.38
334.085	507.38
334.314	540.38
334.542	551.38
334.771	542.38
334.999	520.38
335.227	505.38
335.455	518.38
335.684	495.38
335.912	489.38
336.14	485.38
336.369	494.38
336.597	481.38
336.825	465.38
337.053	464.38
337.281	463.38
337.51	473.38
337.738	484.38
337.966	457.38
338.194	482.38
338.422	457.38
338.65	454.38
338.878	457.38
339.106	438.38
339.334	469.38
339.562	465.38
339.79	439.38
340.018	467.38
340.246	453.38
340.474	454.38
340.702	466.38
340.93	442.38
341.158	448.38
341.386	439.38
341.614	473.38
341.842	450.38
342.07	426.38
342.298	448.38
342.526	436.38
342.754	444.38
342.981	430.38
343.209	440.38
343.437	460.38
343.665	478.38
343.893	482.38
344.12	488.38
344.348	481.38
344.576	464.38
344.804	461.38
345.031	454.38
345.259	439.38
345.487	446.38
345.714	448.38
345.942	438.38
346.17	424.38
346.397	435.38
346.625	426.38
346.853	420.38
347.08	450.38
347.308	449.38
347.535	429.38
347.763	409.38
347.99	423.38
348.218	423.38
348.445	431.38
348.673	439.38
348.9	433.38
349.128	427.38
349.355	420.38
349.583	421.38
349.81	424.38
350.037	404.38
350.265	401.38
350.492	436.38
350.72	402.38
350.947	410.38
351.174	433.38
351.402	424.38
351.629	431.38
351.856	416.38
352.083	433.38
352.311	445.38
352.538	406.38
352.765	411.38
352.992	420.38
353.22	414.38
353.447	399.38
353.674	439.38
353.901	393.38
354.128	417.38
354.355	424.38
354.583	410.38
354.81	409.38
355.037	409.38
355.264	409.38
355.491	410.38
355.718	401.38
355.945	423.38
356.172	386.38
356.399	388.38
356.626	393.38
356.853	408.38
357.08	412.38
357.307	416.38
357.534	403.38
357.761	384.38
357.988	400.38
358.215	395.38
358.441	394.38
358.668	407.38
358.895	406.38
359.122	390.38
359.349	412.38
359.576	401.38
359.802	440.38
360.029	443.38
360.256	440.38
360.483	431.38
360.709	430.38
360.936	426.38
361.163	411.38
361.39	409.38
361.616	420.38
361.843	388.38
362.07	410.38
362.296	401.38
362.523	390.38
362.749	427.38
362.976	418.38
363.203	408.38
363.429	426.38
363.656	403.38
363.882	397.38
364.109	401.38
364.335	394.38
364.562	399.38
364.788	401.38
365.015	397.38
365.241	395.38
365.468	393.38
365.694	408.38
365.92	402.38
366.147	404.38
366.373	394.38
366.599	396.38
366.826	413.38
367.052	384.38
367.278	413.38
367.505	397.38
367.731	392.38
367.957	420.38
368.184	398.38
368.41	415.38
368.636	413.38
368.862	420.38
369.089	409.38
369.315	400.38
369.541	422.38
369.767	412.38
369.993	408.38
370.219	408.38
370.445	386.38
370.672	397.38
370.898	391.38
371.124	401.38
371.35	399.38
371.576	407.38
371.802	392.38
372.028	407.38
372.254	420.38
372.48	428.38
372.706	411.38
372.932	426.38
373.158	414.38
373.384	420.38
373.61	404.38
373.835	400.38
374.061	407.38
374.287	412.38
374.513	406.38
374.739	384.38
374.965	413.38
375.191	436.38
375.416	404.38
375.642	415.38
375.868	401.38
376.094	397.38
376.319	406.38
376.545	398.38
376.771	390.38
376.997	380.38
377.222	395.38
377.448	390.38
377.674	411.38
377.899	389.38
378.125	420.38
378.35	388.38
378.576	400.38
378.802	403.38
379.027	403.38
379.253	381.38
379.478	407.38
379.704	405.38
379.929	390.38
380.155	398.38
380.38	392.38
380.606	398.38
380.831	407.38
381.057	408.38
381.282	382.38
381.507	401.38
381.733	414.38
381.958	386.38
382.184	400.38
382.409	394.38
382.634	392.38
382.86	395.38
383.085	418.38
383.31	413.38
383.535	415.38
383.761	422.38
383.986	408.38
384.211	430.38
384.436	430.38
384.662	415.38
384.887	438.38
385.112	421.38
385.337	446.38
385.562	427.38
385.787	445.38
386.013	449.38
386.238	448.38
386.463	451.38
386.688	447.38
386.913	421.38
387.138	437.38
387.363	450.38
387.588	478.38
387.813	430.38
388.038	432.38
388.263	438.38
388.488	416.38
388.713	450.38
388.938	430.38
389.163	425.38
389.387	432.38
389.612	442.38
389.837	451.38
390.062	449.38
390.287	432.38
390.512	438.38
390.736	418.38
390.961	447.38
391.186	439.38
391.411	441.38
391.636	444.38
391.86	452.38
392.085	453.38
392.31	437.38
392.534	445.38
392.759	444.38
392.984	452.38
393.208	433.38
393.433	436.38
393.658	439.38
393.882	433.38
394.107	452.38
394.331	441.38
394.556	424.38
394.78	455.38
395.005	430.38
395.229	440.38
395.454	429.38
395.678	473.38
395.903	464.38
396.127	481.38
396.352	489.38
396.576	452.38
396.801	446.38
397.025	430.38
397.249	454.38
397.474	481.38
397.698	469.38
397.922	470.38
398.147	474.38
398.371	469.38
398.595	479.38
398.82	497.38
399.044	514.38
399.268	528.38
399.492	558.38
399.717	585.38
399.941	597.38
400.165	606.38
400.389	591.38
400.613	544.38
400.837	500.38
401.062	500.38
401.286	516.38
401.51	498.38
401.734	479.38
401.958	487.38
402.182	495.38
402.406	498.38
402.63	497.38
402.854	501.38
403.078	520.38
403.302	488.38
403.526	494.38
403.75	498.38
403.974	502.38
404.198	497.38
404.422	532.38
404.645	501.38
404.869	519.38
405.093	527.38
405.317	566.38
405.541	589.38
405.765	538.38
405.988	537.38
406.212	538.38
406.436	520.38
406.66	555.38
406.883	514.38
407.107	579.38
407.331	576.38
407.555	620.38
407.778	629.38
408.002	576.38
408.226	538.38
408.449	540.38
408.673	541.38
408.896	558.38
409.12	560.38
409.344	545.38
409.567	505.38
409.791	509.38
410.014	503.38
410.238	473.38
410.461	487.38
410.685	482.38
410.908	526.38
411.132	517.38
411.355	540.38
411.578	536.38
411.802	495.38
412.025	496.38
412.249	519.38
412.472	510.38
412.695	546.38
412.919	536.38
413.142	517.38
413.365	493.38
413.589	502.38
413.812	496.38
414.035	472.38
414.258	475.38
414.482	455.38
414.705	461.38
414.928	483.38
415.151	463.38
415.374	477.38
415.597	452.38
415.821	482.38
416.044	445.38
416.267	478.38
416.49	469.38
416.713	455.38
416.936	484.38
417.159	463.38
417.382	471.38
417.605	471.38
417.828	493.38
418.051	470.38
418.274	487.38
418.497	453.38
418.72	467.38
418.943	460.38
419.166	479.38
419.389	524.38
419.611	483.38
419.834	500.38
420.057	494.38
420.28	495.38
420.503	463.38
420.726	486.38
420.948	511.38
421.171	531.38
421.394	537.38
421.617	470.38
421.839	475.38
422.062	492.38
422.285	477.38
422.507	530.38
422.73	593.38
422.953	589.38
423.175	512.38
423.398	494.38
423.621	516.38
423.843	523.38
424.066	536.38
424.288	507.38
424.511	514.38
424.733	581.38
424.956	589.38
425.178	595.38
425.401	574.38
425.623	578.38
425.846	530.38
426.068	505.38
426.291	485.38
426.513	494.38
426.735	503.38
426.958	518.38
427.18	605.38
427.402	689.38
427.625	726.38
427.847	638.38
428.069	561.38
428.292	519.38
428.514	471.38
428.736	467.38
428.958	457.38
429.181	470.38
429.403	447.38
429.625	502.38
429.847	467.38
430.069	520.38
430.292	528.38
430.514	487.38
430.736	464.38
430.958	456.38
431.18	444.38
431.402	428.38
431.624	431.38
431.846	428.38
432.068	431.38
432.29	470.38
432.512	444.38
432.734	450.38
432.956	434.38
433.178	448.38
433.4	449.38
433.622	449.38
433.844	426.38
434.066	420.38
434.287	458.38
434.509	457.38
434.731	476.38
434.953	465.38
435.175	480.38
435.397	485.38
435.618	490.38
435.84	509.38
436.062	598.38
436.284	634.38
436.505	528.38
436.727	512.38
436.949	477.38
437.17	466.38
437.392	448.38
437.614	478.38
437.835	453.38
438.057	561.38
438.278	626.38
438.5	621.38
438.721	683.38
438.943	640.38
439.165	518.38
439.386	520.38
439.608	505.38
439.829	454.38
440.05	514.38
440.272	530.38
440.493	514.38
440.715	465.38
440.936	469.38
441.158	464.38
441.379	477.38
441.6	484.38
441.822	489.38
442.043	535.38
442.264	589.38
442.486	607.38
442.707	529.38
442.928	500.38
443.149	506.38
443.371	520.38
443.592	557.38
443.813	628.38
444.034	640.38
444.255	563.38
444.476	520.38
444.698	510.38
444.919	492.38
445.14	636.38
445.361	571.38
445.582	529.38
445.803	546.38
446.024	639.38
446.245	622.38
446.466	580.38
446.687	515.38
446.908	472.38
447.129	452.38
447.35	441.38
447.571	445.38
447.792	426.38
448.013	438.38
448.234	460.38
448.455	493.38
448.675	584.38
448.896	653.38
449.117	575.38
449.338	541.38
449.559	592.38
449.779	678.38
450	561.38
450.221	457.38
450.442	441.38
450.662	436.38
450.883	423.38
451.104	448.38
451.324	428.38
451.545	408.38
451.766	411.38
451.986	425.38
452.207	401.38
452.428	415.38
452.648	406.38
452.869	393.38
453.089	409.38
453.31	405.38
453.53	403.38
453.751	413.38
453.971	402.38
454.192	408.38
454.412	401.38
454.633	402.38
454.853	409.38
455.073	404.38
455.294	417.38
455.514	459.38
455.734	462.38
455.955	395.38
456.175	366.38
456.395	369.38
456.616	366.38
456.836	384.38
457.056	382.38
457.276	359.38
457.497	376.38
457.717	380.38
457.937	368.38
458.157	397.38
458.377	406.38
458.598	388.38
458.818	450.38
459.038	516.38
459.258	502.38
459.478	464.38
459.698	432.38
459.918	420.38
460.138	454.38
460.358	438.38
460.578	441.38
460.798	470.38
461.018	472.38
461.238	438.38
461.458	454.38
461.678	428.38
461.898	455.38
462.118	465.38
462.338	489.38
462.558	466.38
462.777	487.38
462.997	511.38
463.217	503.38
463.437	501.38
463.657	477.38
463.876	484.38
464.096	491.38
464.316	455.38
464.536	476.38
464.755	504.38
464.975	482.38
465.195	487.38
465.414	516.38
465.634	449.38
465.854	440.38
466.073	428.38
466.293	421.38
466.512	422.38
466.732	416.38
466.951	392.38
467.171	429.38
467.391	432.38
467.61	406.38
467.829	425.38
468.049	418.38
468.268	413.38
468.488	417.38
468.707	411.38
468.927	409.38
469.146	406.38
469.365	403.38
469.585	423.38
469.804	427.38
470.023	398.38
470.243	422.38
470.462	397.38
470.681	437.38
470.901	428.38
471.12	425.38
471.339	424.38
471.558	399.38
471.777	431.38
471.997	409.38
472.216	405.38
472.435	421.38
472.654	420.38
472.873	411.38
473.092	422.38
473.311	402.38
473.53	406.38
473.749	427.38
473.968	456.38
474.187	539.38
474.406	522.38
474.625	445.38
474.844	444.38
475.063	411.38
475.282	414.38
475.501	424.38
475.72	413.38
475.939	404.38
476.158	427.38
476.377	454.38
476.596	434.38
476.814	420.38
477.033	419.38
477.252	452.38
477.471	442.38
477.69	458.38
477.908	445.38
478.127	453.38
478.346	472.38
478.564	480.38
478.783	459.38
479.002	485.38
479.22	473.38
479.439	503.38
479.658	488.38
479.876	502.38
480.095	484.38
480.313	533.38
480.532	495.38
480.751	512.38
480.969	528.38
481.188	538.38
481.406	580.38
481.624	529.38
481.843	512.38
482.061	484.38
482.28	499.38
482.498	479.38
482.717	494.38
482.935	477.38
483.153	481.38
483.372	464.38
483.59	500.38
483.808	489.38
484.027	489.38
484.245	473.38
484.463	475.38
484.681	510.38
484.9	485.38
485.118	482.38
485.336	493.38
485.554	500.38
485.772	482.38
485.99	486.38
486.209	490.38
486.427	519.38
486.645	520.38
486.863	497.38
487.081	508.38
487.299	516.38
487.517	525.38
487.735	505.38
487.953	506.38
488.171	493.38
488.389	509.38
488.607	518.38
488.825	514.38
489.043	505.38
489.261	501.38
489.479	541.38
489.696	534.38
489.914	522.38
490.132	517.38
490.35	533.38
490.568	545.38
490.786	570.38
491.003	550.38
491.221	546.38
491.439	559.38
491.657	561.38
491.874	574.38
492.092	581.38
492.31	558.38
492.527	581.38
492.745	591.38
492.963	590.38
493.18	573.38
493.398	582.38
493.615	586.38
493.833	583.38
494.05	590.38
494.268	595.38
494.485	562.38
494.703	588.38
494.92	583.38
495.138	617.38
495.355	587.38
495.573	599.38
495.79	588.38
496.008	592.38
496.225	597.38
496.442	596.38
496.66	612.38
496.877	608.38
497.094	609.38
497.312	605.38
497.529	601.38
497.746	628.38
497.963	642.38
498.181	672.38
498.398	654.38
498.615	682.38
498.832	698.38
499.049	713.38
499.267	749.38
499.484	769.38
499.701	793.38
499.918	831.38
500.135	884.38
500.352	920.38
500.569	938.38
500.786	935.38
501.003	913.38
501.22	877.38
501.437	815.38
501.654	813.38
501.871	781.38
502.088	751.38
502.305	732.38
502.522	713.38
502.739	696.38
502.956	660.38
503.172	635.38
503.389	630.38
503.606	619.38
503.823	610.38
504.04	587.38
504.256	610.38
504.473	626.38
504.69	603.38
504.907	616.38
505.123	592.38
505.34	582.38
505.557	557.38
505.773	588.38
505.99	591.38
506.207	566.38
506.423	562.38
506.64	574.38
506.856	550.38
507.073	544.38
507.289	516.38
507.506	526.38
507.722	550.38
507.939	557.38
508.155	521.38
508.372	528.38
508.588	537.38
508.805	520.38
509.021	527.38
509.238	518.38
509.454	544.38
509.67	536.38
509.887	504.38
510.103	525.38
510.319	522.38
510.536	561.38
510.752	772.38
510.968	662.38
511.184	513.38
511.401	494.38
511.617	497.38
511.833	507.38
512.049	496.38
512.265	496.38
512.481	501.38
512.698	482.38
512.914	504.38
513.13	464.38
513.346	493.38
513.562	476.38
513.778	487.38
513.994	503.38
514.21	505.38
514.426	505.38
514.642	550.38
514.858	533.38
515.074	546.38
515.29	604.38
515.506	765.38
515.721	680.38
515.937	559.38
516.153	529.38
516.369	521.38
516.585	519.38
516.801	534.38
517.016	532.38
517.232	542.38
517.448	540.38
517.664	536.38
517.879	542.38
518.095	532.38
518.311	525.38
518.527	537.38
518.742	537.38
518.958	507.38
519.173	515.38
519.389	499.38
519.605	507.38
519.82	506.38
520.036	492.38
520.251	490.38
520.467	518.38
520.682	514.38
520.898	528.38
521.113	511.38
521.329	532.38
521.544	536.38
521.76	647.38
521.975	932.38
522.19	847.38
522.406	602.38
522.621	510.38
522.836	480.38
523.052	470.38
523.267	472.38
523.482	433.38
523.698	453.38
523.913	431.38
524.128	432.38
524.343	426.38
524.559	423.38
524.774	426.38
524.989	421.38
525.204	438.38
525.419	421.38
525.634	442.38
525.849	431.38
526.064	426.38
526.28	424.38
526.495	423.38
526.71	409.38
526.925	439.38
527.14	420.38
527.355	423.38
527.57	416.38
527.785	416.38
527.999	402.38
528.214	415.38
528.429	417.38
528.644	411.38
528.859	426.38
529.074	431.38
529.289	420.38
529.503	456.38
529.718	441.38
529.933	428.38
530.148	416.38
530.363	419.38
530.577	427.38
530.792	412.38
531.007	390.38
531.221	388.38
531.436	427.38
531.651	392.38
531.865	392.38
532.08	409.38
532.295	405.38
532.509	419.38
532.724	392.38
532.938	398.38
533.153	417.38
533.367	414.38
533.582	417.38
533.796	391.38
534.011	403.38
534.225	406.38
534.44	403.38
534.654	416.38
534.868	384.38
535.083	393.38
535.297	403.38
535.511	379.38
535.726	392.38
535.94	406.38
536.154	392.38
536.369	396.38
536.583	401.38
536.797	418.38
537.011	408.38
537.225	379.38
537.44	369.38
537.654	391.38
537.868	378.38
538.082	376.38
538.296	390.38
538.51	386.38
538.724	408.38
538.938	385.38
539.153	396.38
539.367	406.38
539.581	411.38
539.795	386.38
540.009	389.38
540.222	381.38
540.436	384.38
540.65	384.38
540.864	380.38
541.078	388.38
541.292	385.38
541.506	394.38
541.72	378.38
541.934	387.38
542.147	388.38
542.361	377.38
542.575	396.38
542.789	384.38
543.002	374.38
543.216	376.38
543.43	404.38
543.644	375.38
543.857	380.38
544.071	388.38
544.285	377.38
544.498	377.38
544.712	401.38
544.925	384.38
545.139	385.38
545.352	361.38
545.566	374.38
545.779	378.38
545.993	385.38
546.206	381.38
546.42	384.38
546.633	380.38
546.847	384.38
547.06	374.38
547.274	398.38
547.487	372.38
547.7	375.38
547.914	378.38
548.127	380.38
548.34	374.38
548.554	382.38
548.767	393.38
548.98	397.38
549.193	374.38
549.407	382.38
549.62	389.38
549.833	397.38
550.046	374.38
550.259	378.38
550.473	379.38
550.686	359.38
550.899	365.38
551.112	371.38
551.325	359.38
551.538	382.38
551.751	354.38
551.964	384.38
552.177	376.38
552.39	372.38
552.603	372.38
552.816	378.38
553.029	359.38
553.242	378.38
553.455	379.38
553.667	388.38
553.88	413.38
554.093	387.38
554.306	374.38
554.519	367.38
554.732	358.38
554.944	366.38
555.157	348.38
555.37	373.38
555.583	373.38
555.795	350.38
556.008	347.38
556.221	333.38
556.433	348.38
556.646	350.38
556.859	354.38
557.071	345.38
557.284	342.38
557.496	351.38
557.709	348.38
557.921	351.38
558.134	342.38
558.346	338.38
558.559	332.38
558.771	329.38
558.984	333.38
559.196	336.38
559.409	328.38
559.621	325.38
559.833	310.38
560.046	327.38
560.258	332.38
560.47	331.38
560.683	339.38
560.895	325.38
561.107	330.38
561.32	328.38
561.532	333.38
561.744	353.38
561.956	319.38
562.168	352.38
562.381	340.38
562.593	331.38
562.805	336.38
563.017	337.38
563.229	341.38
563.441	345.38
563.653	337.38
563.865	333.38
564.077	348.38
564.289	343.38
564.501	347.38
564.713	342.38
564.925	354.38
565.137	368.38
565.349	366.38
565.561	383.38
565.773	369.38
565.985	356.38
566.197	383.38
566.408	395.38
566.62	415.38
566.832	413.38
567.044	421.38
567.255	428.38
567.467	444.38
567.679	428.38
567.891	472.38
568.102	452.38
568.314	437.38
568.526	421.38
568.737	395.38
568.949	384.38
569.161	379.38
569.372	354.38
569.584	334.38
569.795	350.38
570.007	357.38
570.218	348.38
570.43	346.38
570.641	325.38
570.853	331.38
571.064	330.38
571.276	335.38
571.487	333.38
571.698	322.38
571.91	319.38
572.121	329.38
572.333	319.38
572.544	314.38
572.755	289.38
572.966	303.38
573.178	296.38
573.389	293.38
573.6	309.38
573.811	295.38
574.023	289.38
574.234	284.38
574.445	304.38
574.656	289.38
574.867	289.38
575.078	292.38
575.289	294.38
575.501	286.38
575.712	292.38
575.923	283.38
576.134	282.38
576.345	286.38
576.556	275.38
576.767	282.38
576.978	284.38
577.188	286.38
577.399	289.38
577.61	270.38
577.821	265.38
578.032	284.38
578.243	282.38
578.454	362.38
578.665	338.38
578.875	281.38
579.086	270.38
579.297	280.38
579.508	249.38
579.718	263.38
579.929	270.38
580.14	259.38
580.35	269.38
580.561	268.38
580.772	271.38
580.982	268.38
581.193	249.38
581.403	264.38
581.614	250.38
581.825	258.38
582.035	249.38
582.246	255.38
582.456	260.38
582.667	260.38
582.877	270.38
583.087	249.38
583.298	272.38
583.508	264.38
583.719	262.38
583.929	272.38
584.139	275.38
584.35	282.38
584.56	256.38
584.77	241.38
584.981	258.38
585.191	269.38
585.401	244.38
585.611	238.38
585.821	245.38
586.032	242.38
586.242	245.38
586.452	263.38
586.662	249.38
586.872	265.38
587.082	262.38
587.292	266.38
587.502	255.38
587.713	250.38
587.923	252.38
588.133	261.38
588.343	256.38
588.553	260.38
588.762	259.38
588.972	272.38
589.182	271.38
589.392	255.38
589.602	261.38
589.812	279.38
590.022	267.38
590.232	260.38
590.441	255.38
590.651	235.38
590.861	255.38
591.071	254.38
591.281	264.38
591.49	262.38
591.7	266.38
591.91	265.38
592.119	265.38
592.329	264.38
592.539	263.38
592.748	287.38
592.958	277.38
593.167	275.38
593.377	270.38
593.587	274.38
593.796	273.38
594.006	270.38
594.215	277.38
594.424	267.38
594.634	279.38
594.843	274.38
595.053	282.38
595.262	254.38
595.472	246.38
595.681	259.38
595.89	255.38
596.1	249.38
596.309	248.38
596.518	245.38
596.727	233.38
596.937	266.38
597.146	251.38
597.355	260.38
597.564	232.38
597.774	234.38
597.983	235.38
598.192	235.38
598.401	239.38
598.61	228.38
598.819	255.38
599.028	229.38
599.237	224.38
599.446	240.38
599.655	228.38
599.864	240.38
600.073	231.38
600.282	222.38
600.491	218.38
600.7	213.38
600.909	225.38
601.118	214.38
601.327	224.38
601.536	220.38
601.745	219.38
601.953	223.38
602.162	210.38
602.371	236.38
602.58	216.38
602.789	215.38
602.997	222.38
603.206	200.38
603.415	209.38
603.623	224.38
603.832	220.38
604.041	229.38
604.249	219.38
604.458	209.38
604.666	202.38
604.875	209.38
605.084	210.38
605.292	220.38
605.501	234.38
605.709	203.38
605.918	206.38
606.126	224.38
606.334	229.38
606.543	246.38
606.751	204.38
606.96	209.38
607.168	207.38
607.376	209.38
607.585	204.38
607.793	193.38
608.001	219.38
608.21	214.38
608.418	215.38
608.626	193.38
608.834	216.38
609.043	195.38
609.251	216.38
609.459	197.38
609.667	216.38
609.875	214.38
610.083	207.38
610.291	212.38
610.499	194.38
610.707	225.38
610.916	210.38
611.124	206.38
611.332	225.38
611.54	235.38
611.748	208.38
611.955	215.38
612.163	200.38
612.371	208.38
612.579	213.38
612.787	209.38
612.995	202.38
613.203	210.38
613.411	217.38
613.618	201.38
613.826	213.38
614.034	196.38
614.242	196.38
614.449	207.38
614.657	197.38
614.865	207.38
615.072	210.38
615.28	202.38
615.488	209.38
615.695	212.38
615.903	202.38
616.111	202.38
616.318	219.38
616.526	204.38
616.733	215.38
616.941	205.38
617.148	205.38
617.356	200.38
617.563	208.38
617.771	205.38
617.978	195.38
618.185	191.38
618.393	203.38
618.6	210.38
618.807	231.38
619.015	227.38
619.222	210.38
619.429	198.38
619.637	195.38
619.844	204.38
620.051	207.38
620.258	203.38
620.466	207.38
620.673	208.38
620.88	194.38
621.087	206.38
621.294	196.38
621.501	197.38
621.708	199.38
621.915	207.38
622.122	205.38
622.329	205.38
622.536	195.38
622.743	200.38
622.95	182.38
623.157	196.38
623.364	181.38
623.571	188.38
623.778	196.38
623.985	208.38
624.192	190.38
624.399	189.38
624.606	190.38
624.812	163.38
625.019	191.38
625.226	197.38
625.433	194.38
625.639	188.38
625.846	169.38
626.053	177.38
626.259	181.38
626.466	188.38
626.673	190.38
626.879	181.38
627.086	171.38
627.293	178.38
627.499	188.38
627.706	178.38
627.912	175.38
628.119	186.38
628.325	170.38
628.532	173.38
628.738	179.38
628.945	168.38
629.151	180.38
629.357	176.38
629.564	175.38
629.77	175.38
629.976	170.38
630.183	181.38
630.389	177.38
630.595	186.38
630.802	165.38
631.008	182.38
631.214	188.38
631.42	166.38
631.627	175.38
631.833	181.38
632.039	171.38
632.245	180.38
632.451	163.38
632.657	182.38
632.863	164.38
633.069	165.38
633.275	157.38
633.481	168.38
633.688	165.38
633.893	176.38
634.099	174.38
634.305	181.38
634.511	154.38
634.717	169.38
634.923	161.38
635.129	173.38
635.335	159.38
635.541	173.38
635.747	176.38
635.952	164.38
636.158	157.38
636.364	174.38
636.57	153.38
636.775	159.38
636.981	175.38
637.187	157.38
637.392	160.38
637.598	172.38
637.804	153.38
638.009	160.38
638.215	167.38
638.421	166.38
638.626	153.38
638.832	139.38
639.037	165.38
639.243	157.38
639.448	167.38
639.654	175.38
639.859	171.38
640.065	155.38
640.27	174.38
640.475	166.38
640.681	154.38
640.886	157.38
641.091	156.38
641.297	154.38
641.502	159.38
641.707	154.38
641.913	162.38
642.118	160.38
642.323	166.38
642.528	145.38
642.733	162.38
642.939	158.38
643.144	167.38
643.349	144.38
643.554	164.38
643.759	154.38
643.964	168.38
644.169	155.38
644.374	152.38
644.579	166.38
644.784	153.38
644.989	141.38
645.194	145.38
645.399	141.38
645.604	144.38
645.809	146.38
646.014	139.38
646.219	149.38
646.423	127.38
646.628	143.38
646.833	149.38
647.038	155.38
647.243	133.38
647.447	158.38
647.652	148.38
647.857	156.38
648.062	147.38
648.266	152.38
648.471	155.38
648.676	146.38
648.88	153.38
649.085	162.38
649.289	148.38
649.494	165.38
649.698	169.38
649.903	159.38
650.107	169.38
650.312	147.38
650.516	157.38
650.721	141.38
650.925	151.38
651.13	142.38
651.334	147.38
651.539	136.38
651.743	154.38
651.947	134.38
652.152	156.38
652.356	144.38
652.56	140.38
652.764	138.38
652.969	139.38
653.173	138.38
653.377	127.38
653.581	134.38
653.785	125.38
653.99	135.38
654.194	129.38
654.398	134.38
654.602	135.38
654.806	144.38
655.01	130.38
655.214	145.38
655.418	126.38
655.622	131.38
655.826	145.38
656.03	139.38
656.234	135.38
656.438	138.38
656.642	130.38
656.846	142.38
657.049	128.38
657.253	128.38
657.457	129.38
657.661	113.38
657.865	124.38
658.068	109.38
658.272	107.38
658.476	127.38
658.68	126.38
658.883	111.38
659.087	111.38
659.291	108.38
659.494	105.38
659.698	103.38
659.901	107.38
660.105	102.38
660.309	104.38
660.512	83.38
660.716	105.38
660.919	121.38
661.123	92.38
661.326	90.38
661.53	93.38
661.733	98.38
661.936	99.38
662.14	86.38
662.343	88.38
662.546	90.38
662.75	85.38
662.953	95.38
663.156	91.38
663.36	78.38
663.563	82.38
663.766	94.38
663.969	88.38
664.173	104.38
664.376	82.38
664.579	83.38
664.782	81.38
664.985	88.38
665.188	80.38
665.391	82.38
665.594	85.38
665.797	82.38
666	100.38
666.203	95.38
666.406	83.38
666.609	89.38
666.812	86.38
667.015	83.38
667.218	74.38
667.421	90.38
667.624	96.38
667.827	88.38
668.03	84.38
668.232	72.38
668.435	78.38
668.638	93.38
668.841	93.38
669.043	78.38
669.246	93.38
669.449	88.38
669.651	78.38
669.854	80.38
670.057	92.38
670.259	92.38
670.462	92.38
670.665	77.38
670.867	89.38
671.07	87.38
671.272	74.38
671.475	97.38
671.677	76.38
671.88	86.38
672.082	84.38
672.284	95.38
672.487	79.38
672.689	77.38
672.892	84.38
