Data from 1964.PennyLincolnUp.Lamp.En5.5.200Scan.071719.P1._HRD10591_14-04-46-908.txt Node
Date: Thu Jul 18 14:04:46 EDT 2019
User: cochatt
Spectrometer: HR+D1059
Trigger mode: 1
Integration Time (sec): 1.000000E-1
Scans to average: 1
Electric dark correction enabled: true
Nonlinearity correction enabled: false
Boxcar width: 0
XAxis mode: Wavelengths
Number of Pixels in Spectrum: 2048
>>>>>Begin Spectral Data<<<<<
223.165	-10.19
223.4	-10.19
223.635	-10.19
223.869	-22.19
224.104	-18.19
224.338	-19.19
224.573	-15.19
224.808	-4.19
225.042	2.81
225.277	-9.19
225.511	-19.19
225.746	16.81
225.98	11.81
226.215	19.81
226.449	14.81
226.683	12.81
226.918	22.81
227.152	15.81
227.387	34.81
227.621	38.81
227.856	48.81
228.09	56.81
228.324	42.81
228.559	44.81
228.793	77.81
229.027	95.81
229.262	91.81
229.496	106.81
229.73	132.81
229.964	146.81
230.199	122.81
230.433	104.81
230.667	108.81
230.901	101.81
231.136	98.81
231.37	114.81
231.604	120.81
231.838	107.81
232.072	103.81
232.306	115.81
232.541	117.81
232.775	111.81
233.009	110.81
233.243	124.81
233.477	112.81
233.711	113.81
233.945	108.81
234.179	118.81
234.413	114.81
234.647	120.81
234.881	119.81
235.115	121.81
235.349	124.81
235.583	111.81
235.817	126.81
236.051	122.81
236.285	126.81
236.519	119.81
236.753	133.81
236.987	151.81
237.221	170.81
237.455	174.81
237.689	169.81
237.922	126.81
238.156	128.81
238.39	135.81
238.624	125.81
238.858	119.81
239.091	115.81
239.325	126.81
239.559	135.81
239.793	136.81
240.027	125.81
240.26	139.81
240.494	142.81
240.728	157.81
240.961	140.81
241.195	131.81
241.429	141.81
241.662	150.81
241.896	132.81
242.13	132.81
242.363	127.81
242.597	136.81
242.83	150.81
243.064	139.81
243.298	125.81
243.531	126.81
243.765	157.81
243.998	140.81
244.232	141.81
244.465	154.81
244.699	128.81
244.932	130.81
245.166	140.81
245.399	150.81
245.633	147.81
245.866	155.81
246.099	165.81
246.333	160.81
246.566	150.81
246.8	141.81
247.033	158.81
247.266	160.81
247.5	139.81
247.733	166.81
247.966	172.81
248.2	179.81
248.433	176.81
248.666	161.81
248.899	172.81
249.133	192.81
249.366	188.81
249.599	173.81
249.832	180.81
250.066	163.81
250.299	186.81
250.532	196.81
250.765	202.81
250.998	206.81
251.231	210.81
251.465	203.81
251.698	200.81
251.931	183.81
252.164	195.81
252.397	201.81
252.63	200.81
252.863	189.81
253.096	201.81
253.329	220.81
253.562	215.81
253.795	216.81
254.028	194.81
254.261	220.81
254.494	224.81
254.727	251.81
254.96	252.81
255.193	279.81
255.426	233.81
255.659	216.81
255.892	235.81
256.124	226.81
256.357	231.81
256.59	246.81
256.823	229.81
257.056	206.81
257.289	223.81
257.521	215.81
257.754	219.81
257.987	212.81
258.22	226.81
258.452	224.81
258.685	208.81
258.918	208.81
259.151	226.81
259.383	211.81
259.616	212.81
259.849	221.81
260.081	230.81
260.314	238.81
260.547	248.81
260.779	240.81
261.012	239.81
261.244	244.81
261.477	231.81
261.71	204.81
261.942	226.81
262.175	223.81
262.407	230.81
262.64	222.81
262.872	220.81
263.105	208.81
263.337	223.81
263.57	202.81
263.802	214.81
264.035	209.81
264.267	211.81
264.499	223.81
264.732	227.81
264.964	227.81
265.197	214.81
265.429	219.81
265.661	216.81
265.894	215.81
266.126	227.81
266.358	237.81
266.591	223.81
266.823	233.81
267.055	243.81
267.287	242.81
267.52	229.81
267.752	250.81
267.984	265.81
268.216	246.81
268.448	262.81
268.681	247.81
268.913	267.81
269.145	258.81
269.377	282.81
269.609	272.81
269.841	261.81
270.073	256.81
270.306	285.81
270.538	300.81
270.77	308.81
271.002	286.81
271.234	296.81
271.466	315.81
271.698	314.81
271.93	306.81
272.162	320.81
272.394	299.81
272.626	304.81
272.858	289.81
273.09	278.81
273.322	277.81
273.553	269.81
273.785	270.81
274.017	292.81
274.249	264.81
274.481	278.81
274.713	286.81
274.945	253.81
275.176	275.81
275.408	290.81
275.64	270.81
275.872	266.81
276.104	279.81
276.335	281.81
276.567	266.81
276.799	291.81
277.031	311.81
277.262	324.81
277.494	330.81
277.726	311.81
277.957	278.81
278.189	287.81
278.421	284.81
278.652	303.81
278.884	279.81
279.115	295.81
279.347	299.81
279.579	284.81
279.81	309.81
280.042	268.81
280.273	280.81
280.505	287.81
280.736	286.81
280.968	295.81
281.199	295.81
281.431	284.81
281.662	292.81
281.894	293.81
282.125	299.81
282.356	318.81
282.588	313.81
282.819	312.81
283.051	293.81
283.282	286.81
283.513	309.81
283.745	310.81
283.976	299.81
284.207	293.81
284.439	301.81
284.67	280.81
284.901	300.81
285.132	306.81
285.364	302.81
285.595	307.81
285.826	301.81
286.057	307.81
286.288	320.81
286.52	328.81
286.751	312.81
286.982	309.81
287.213	327.81
287.444	317.81
287.675	315.81
287.906	324.81
288.138	322.81
288.369	327.81
288.6	331.81
288.831	339.81
289.062	336.81
289.293	322.81
289.524	318.81
289.755	311.81
289.986	321.81
290.217	321.81
290.448	312.81
290.679	313.81
290.91	332.81
291.141	333.81
291.371	320.81
291.602	331.81
291.833	314.81
292.064	324.81
292.295	323.81
292.526	321.81
292.757	335.81
292.987	324.81
293.218	327.81
293.449	313.81
293.68	327.81
293.91	315.81
294.141	307.81
294.372	331.81
294.603	324.81
294.833	302.81
295.064	321.81
295.295	312.81
295.525	336.81
295.756	327.81
295.987	337.81
296.217	349.81
296.448	343.81
296.679	328.81
296.909	328.81
297.14	339.81
297.37	317.81
297.601	329.81
297.831	324.81
298.062	328.81
298.292	334.81
298.523	343.81
298.753	341.81
298.984	339.81
299.214	349.81
299.445	325.81
299.675	328.81
299.905	343.81
300.136	350.81
300.366	337.81
300.597	346.81
300.827	359.81
301.057	365.81
301.288	364.81
301.518	366.81
301.748	342.81
301.979	354.81
302.209	364.81
302.439	367.81
302.669	365.81
302.9	350.81
303.13	356.81
303.36	353.81
303.59	361.81
303.82	358.81
304.051	363.81
304.281	344.81
304.511	351.81
304.741	346.81
304.971	356.81
305.201	344.81
305.431	352.81
305.661	361.81
305.891	362.81
306.121	366.81
306.352	356.81
306.582	334.81
306.812	341.81
307.042	382.81
307.272	356.81
307.502	370.81
307.731	370.81
307.961	364.81
308.191	367.81
308.421	383.81
308.651	382.81
308.881	375.81
309.111	372.81
309.341	357.81
309.571	372.81
309.8	388.81
310.03	375.81
310.26	384.81
310.49	379.81
310.72	384.81
310.949	403.81
311.179	413.81
311.409	370.81
311.639	375.81
311.868	394.81
312.098	390.81
312.328	406.81
312.557	397.81
312.787	421.81
313.017	411.81
313.246	398.81
313.476	373.81
313.706	397.81
313.935	412.81
314.165	416.81
314.394	415.81
314.624	399.81
314.853	415.81
315.083	403.81
315.312	406.81
315.542	387.81
315.771	391.81
316.001	414.81
316.23	396.81
316.46	388.81
316.689	408.81
316.919	393.81
317.148	418.81
317.377	404.81
317.607	419.81
317.836	399.81
318.065	402.81
318.295	408.81
318.524	415.81
318.753	409.81
318.983	406.81
319.212	379.81
319.441	416.81
319.67	405.81
319.9	418.81
320.129	400.81
320.358	396.81
320.587	407.81
320.816	399.81
321.046	414.81
321.275	408.81
321.504	398.81
321.733	430.81
321.962	425.81
322.191	419.81
322.42	424.81
322.649	410.81
322.878	438.81
323.108	452.81
323.337	466.81
323.566	458.81
323.795	458.81
324.024	516.81
324.253	572.81
324.482	777.81
324.71	1083.81
324.939	1461.81
325.168	1282.81
325.397	716.81
325.626	553.81
325.855	482.81
326.084	470.81
326.313	480.81
326.542	483.81
326.77	511.81
326.999	558.81
327.228	728.81
327.457	980.81
327.686	1146.81
327.914	788.81
328.143	600.81
328.372	529.81
328.6	516.81
328.829	498.81
329.058	508.81
329.287	524.81
329.515	505.81
329.744	503.81
329.972	492.81
330.201	484.81
330.43	522.81
330.658	548.81
330.887	547.81
331.115	528.81
331.344	502.81
331.572	489.81
331.801	475.81
332.03	487.81
332.258	468.81
332.486	472.81
332.715	467.81
332.943	468.81
333.172	473.81
333.4	478.81
333.629	490.81
333.857	512.81
334.085	526.81
334.314	524.81
334.542	542.81
334.771	564.81
334.999	517.81
335.227	497.81
335.455	500.81
335.684	486.81
335.912	504.81
336.14	481.81
336.369	474.81
336.597	461.81
336.825	474.81
337.053	465.81
337.281	459.81
337.51	485.81
337.738	452.81
337.966	452.81
338.194	458.81
338.422	445.81
338.65	449.81
338.878	446.81
339.106	454.81
339.334	464.81
339.562	446.81
339.79	432.81
340.018	470.81
340.246	464.81
340.474	464.81
340.702	478.81
340.93	453.81
341.158	435.81
341.386	425.81
341.614	420.81
341.842	440.81
342.07	449.81
342.298	455.81
342.526	453.81
342.754	456.81
342.981	421.81
343.209	431.81
343.437	432.81
343.665	455.81
343.893	468.81
344.12	474.81
344.348	497.81
344.576	485.81
344.804	481.81
345.031	438.81
345.259	459.81
345.487	456.81
345.714	443.81
345.942	422.81
346.17	434.81
346.397	432.81
346.625	450.81
346.853	435.81
347.08	422.81
347.308	417.81
347.535	426.81
347.763	438.81
347.99	438.81
348.218	425.81
348.445	442.81
348.673	420.81
348.9	416.81
349.128	419.81
349.355	436.81
349.583	425.81
349.81	428.81
350.037	406.81
350.265	414.81
350.492	400.81
350.72	410.81
350.947	418.81
351.174	438.81
351.402	423.81
351.629	415.81
351.856	426.81
352.083	404.81
352.311	412.81
352.538	425.81
352.765	411.81
352.992	404.81
353.22	408.81
353.447	397.81
353.674	416.81
353.901	399.81
354.128	402.81
354.355	413.81
354.583	395.81
354.81	378.81
355.037	372.81
355.264	393.81
355.491	404.81
355.718	386.81
355.945	401.81
356.172	393.81
356.399	377.81
356.626	400.81
356.853	413.81
357.08	388.81
357.307	396.81
357.534	410.81
357.761	377.81
357.988	400.81
358.215	404.81
358.441	415.81
358.668	396.81
358.895	399.81
359.122	411.81
359.349	408.81
359.576	416.81
359.802	424.81
360.029	418.81
360.256	438.81
360.483	414.81
360.709	418.81
360.936	404.81
361.163	409.81
361.39	393.81
361.616	415.81
361.843	420.81
362.07	422.81
362.296	412.81
362.523	397.81
362.749	397.81
362.976	390.81
363.203	399.81
363.429	379.81
363.656	407.81
363.882	393.81
364.109	389.81
364.335	390.81
364.562	392.81
364.788	388.81
365.015	389.81
365.241	391.81
365.468	402.81
365.694	407.81
365.92	394.81
366.147	383.81
366.373	377.81
366.599	399.81
366.826	374.81
367.052	380.81
367.278	407.81
367.505	384.81
367.731	416.81
367.957	401.81
368.184	384.81
368.41	392.81
368.636	395.81
368.862	402.81
369.089	409.81
369.315	400.81
369.541	379.81
369.767	384.81
369.993	392.81
370.219	390.81
370.445	403.81
370.672	382.81
370.898	390.81
371.124	389.81
371.35	408.81
371.576	402.81
371.802	387.81
372.028	393.81
372.254	384.81
372.48	386.81
372.706	413.81
372.932	426.81
373.158	403.81
373.384	409.81
373.61	404.81
373.835	404.81
374.061	394.81
374.287	397.81
374.513	399.81
374.739	398.81
374.965	415.81
375.191	414.81
375.416	412.81
375.642	406.81
375.868	410.81
376.094	405.81
376.319	397.81
376.545	395.81
376.771	391.81
376.997	405.81
377.222	409.81
377.448	388.81
377.674	396.81
377.899	384.81
378.125	371.81
378.35	374.81
378.576	384.81
378.802	377.81
379.027	391.81
379.253	394.81
379.478	394.81
379.704	391.81
379.929	382.81
380.155	377.81
380.38	397.81
380.606	382.81
380.831	390.81
381.057	418.81
381.282	394.81
381.507	392.81
381.733	399.81
381.958	384.81
382.184	386.81
382.409	394.81
382.634	415.81
382.86	385.81
383.085	392.81
383.31	409.81
383.535	408.81
383.761	406.81
383.986	418.81
384.211	420.81
384.436	420.81
384.662	410.81
384.887	428.81
385.112	410.81
385.337	439.81
385.562	427.81
385.787	447.81
386.013	419.81
386.238	425.81
386.463	417.81
386.688	434.81
386.913	431.81
387.138	413.81
387.363	411.81
387.588	430.81
387.813	431.81
388.038	411.81
388.263	406.81
388.488	431.81
388.713	415.81
388.938	421.81
389.163	437.81
389.387	437.81
389.612	438.81
389.837	415.81
390.062	413.81
390.287	420.81
390.512	410.81
390.736	402.81
390.961	424.81
391.186	444.81
391.411	427.81
391.636	429.81
391.86	457.81
392.085	428.81
392.31	453.81
392.534	438.81
392.759	452.81
392.984	410.81
393.208	437.81
393.433	426.81
393.658	434.81
393.882	441.81
394.107	450.81
394.331	427.81
394.556	430.81
394.78	430.81
395.005	422.81
395.229	447.81
395.454	442.81
395.678	454.81
395.903	460.81
396.127	464.81
396.352	462.81
396.576	431.81
396.801	429.81
397.025	442.81
397.249	430.81
397.474	458.81
397.698	449.81
397.922	448.81
398.147	464.81
398.371	504.81
398.595	484.81
398.82	472.81
399.044	478.81
399.268	507.81
399.492	540.81
399.717	576.81
399.941	602.81
400.165	621.81
400.389	586.81
400.613	540.81
400.837	507.81
401.062	495.81
401.286	481.81
401.51	497.81
401.734	472.81
401.958	472.81
402.182	476.81
402.406	490.81
402.63	476.81
402.854	516.81
403.078	494.81
403.302	486.81
403.526	524.81
403.75	490.81
403.974	500.81
404.198	520.81
404.422	512.81
404.645	522.81
404.869	517.81
405.093	521.81
405.317	557.81
405.541	574.81
405.765	533.81
405.988	523.81
406.212	520.81
406.436	541.81
406.66	546.81
406.883	520.81
407.107	552.81
407.331	572.81
407.555	621.81
407.778	614.81
408.002	592.81
408.226	537.81
408.449	549.81
408.673	521.81
408.896	555.81
409.12	545.81
409.344	554.81
409.567	512.81
409.791	515.81
410.014	490.81
410.238	473.81
410.461	499.81
410.685	503.81
410.908	514.81
411.132	540.81
411.355	530.81
411.578	527.81
411.802	504.81
412.025	510.81
412.249	484.81
412.472	514.81
412.695	517.81
412.919	551.81
413.142	475.81
413.365	498.81
413.589	466.81
413.812	491.81
414.035	472.81
414.258	467.81
414.482	460.81
414.705	461.81
414.928	436.81
415.151	464.81
415.374	449.81
415.597	441.81
415.821	455.81
416.044	443.81
416.267	459.81
416.49	458.81
416.713	450.81
416.936	460.81
417.159	436.81
417.382	458.81
417.605	460.81
417.828	471.81
418.051	456.81
418.274	461.81
418.497	452.81
418.72	462.81
418.943	456.81
419.166	471.81
419.389	491.81
419.611	485.81
419.834	473.81
420.057	483.81
420.28	500.81
420.503	471.81
420.726	470.81
420.948	495.81
421.171	493.81
421.394	517.81
421.617	470.81
421.839	468.81
422.062	462.81
422.285	462.81
422.507	521.81
422.73	577.81
422.953	544.81
423.175	506.81
423.398	482.81
423.621	480.81
423.843	476.81
424.066	495.81
424.288	486.81
424.511	502.81
424.733	543.81
424.956	598.81
425.178	598.81
425.401	570.81
425.623	592.81
425.846	533.81
426.068	498.81
426.291	478.81
426.513	482.81
426.735	492.81
426.958	518.81
427.18	572.81
427.402	678.81
427.625	722.81
427.847	620.81
428.069	568.81
428.292	519.81
428.514	500.81
428.736	482.81
428.958	454.81
429.181	459.81
429.403	450.81
429.625	435.81
429.847	473.81
430.069	514.81
430.292	507.81
430.514	436.81
430.736	452.81
430.958	443.81
431.18	442.81
431.402	415.81
431.624	435.81
431.846	421.81
432.068	445.81
432.29	427.81
432.512	429.81
432.734	441.81
432.956	431.81
433.178	445.81
433.4	435.81
433.622	445.81
433.844	442.81
434.066	429.81
434.287	446.81
434.509	449.81
434.731	450.81
434.953	475.81
435.175	452.81
435.397	478.81
435.618	470.81
435.84	514.81
436.062	603.81
436.284	632.81
436.505	518.81
436.727	487.81
436.949	457.81
437.17	448.81
437.392	442.81
437.614	459.81
437.835	478.81
438.057	528.81
438.278	627.81
438.5	592.81
438.721	662.81
438.943	636.81
439.165	501.81
439.386	479.81
439.608	469.81
439.829	491.81
440.05	487.81
440.272	539.81
440.493	500.81
440.715	472.81
440.936	453.81
441.158	444.81
441.379	441.81
441.6	458.81
441.822	475.81
442.043	501.81
442.264	572.81
442.486	578.81
442.707	515.81
442.928	473.81
443.149	494.81
443.371	499.81
443.592	534.81
443.813	627.81
444.034	646.81
444.255	573.81
444.476	534.81
444.698	512.81
444.919	511.81
445.14	614.81
445.361	546.81
445.582	513.81
445.803	536.81
446.024	610.81
446.245	611.81
446.466	559.81
446.687	504.81
446.908	461.81
447.129	446.81
447.35	420.81
447.571	446.81
447.792	437.81
448.013	446.81
448.234	448.81
448.455	470.81
448.675	558.81
448.896	644.81
449.117	551.81
449.338	536.81
449.559	616.81
449.779	672.81
450	564.81
450.221	464.81
450.442	426.81
450.662	424.81
450.883	432.81
451.104	415.81
451.324	404.81
451.545	389.81
451.766	381.81
451.986	383.81
452.207	397.81
452.428	394.81
452.648	400.81
452.869	401.81
453.089	394.81
453.31	404.81
453.53	409.81
453.751	382.81
453.971	392.81
454.192	401.81
454.412	406.81
454.633	394.81
454.853	388.81
455.073	397.81
455.294	404.81
455.514	444.81
455.734	450.81
455.955	404.81
456.175	394.81
456.395	378.81
456.616	385.81
456.836	377.81
457.056	377.81
457.276	382.81
457.497	378.81
457.717	375.81
457.937	389.81
458.157	370.81
458.377	386.81
458.598	411.81
458.818	440.81
459.038	485.81
459.258	483.81
459.478	455.81
459.698	455.81
459.918	435.81
460.138	443.81
460.358	441.81
460.578	449.81
460.798	439.81
461.018	441.81
461.238	443.81
461.458	452.81
461.678	448.81
461.898	452.81
462.118	450.81
462.338	440.81
462.558	459.81
462.777	466.81
462.997	489.81
463.217	491.81
463.437	510.81
463.657	471.81
463.876	494.81
464.096	484.81
464.316	487.81
464.536	472.81
464.755	460.81
464.975	475.81
465.195	489.81
465.414	512.81
465.634	461.81
465.854	438.81
466.073	422.81
466.293	428.81
466.512	404.81
466.732	417.81
466.951	425.81
467.171	401.81
467.391	406.81
467.61	424.81
467.829	404.81
468.049	428.81
468.268	421.81
468.488	391.81
468.707	405.81
468.927	385.81
469.146	407.81
469.365	384.81
469.585	385.81
469.804	404.81
470.023	392.81
470.243	408.81
470.462	424.81
470.681	426.81
470.901	408.81
471.12	408.81
471.339	404.81
471.558	413.81
471.777	406.81
471.997	393.81
472.216	407.81
472.435	434.81
472.654	412.81
472.873	406.81
473.092	415.81
473.311	410.81
473.53	401.81
473.749	416.81
473.968	463.81
474.187	507.81
474.406	519.81
474.625	451.81
474.844	426.81
475.063	411.81
475.282	406.81
475.501	418.81
475.72	404.81
475.939	439.81
476.158	428.81
476.377	433.81
476.596	406.81
476.814	423.81
477.033	408.81
477.252	453.81
477.471	438.81
477.69	447.81
477.908	422.81
478.127	448.81
478.346	435.81
478.564	459.81
478.783	457.81
479.002	467.81
479.22	485.81
479.439	495.81
479.658	499.81
479.876	486.81
480.095	478.81
480.313	523.81
480.532	486.81
480.751	512.81
480.969	504.81
481.188	547.81
481.406	544.81
481.624	519.81
481.843	493.81
482.061	472.81
482.28	491.81
482.498	480.81
482.717	457.81
482.935	460.81
483.153	446.81
483.372	479.81
483.59	479.81
483.808	493.81
484.027	467.81
484.245	460.81
484.463	462.81
484.681	478.81
484.9	487.81
485.118	500.81
485.336	499.81
485.554	487.81
485.772	479.81
485.99	472.81
486.209	474.81
486.427	475.81
486.645	501.81
486.863	491.81
487.081	511.81
487.299	522.81
487.517	482.81
487.735	526.81
487.953	491.81
488.171	518.81
488.389	523.81
488.607	502.81
488.825	496.81
489.043	509.81
489.261	488.81
489.479	487.81
489.696	512.81
489.914	515.81
490.132	509.81
490.35	515.81
490.568	524.81
490.786	541.81
491.003	528.81
491.221	543.81
491.439	546.81
491.657	552.81
491.874	564.81
492.092	558.81
492.31	572.81
492.527	545.81
492.745	551.81
492.963	553.81
493.18	564.81
493.398	584.81
493.615	561.81
493.833	583.81
494.05	552.81
494.268	557.81
494.485	570.81
494.703	581.81
494.92	614.81
495.138	576.81
495.355	582.81
495.573	595.81
495.79	580.81
496.008	598.81
496.225	582.81
496.442	578.81
496.66	591.81
496.877	567.81
497.094	574.81
497.312	598.81
497.529	597.81
497.746	598.81
497.963	600.81
498.181	657.81
498.398	652.81
498.615	668.81
498.832	704.81
499.049	720.81
499.267	714.81
499.484	757.81
499.701	774.81
499.918	815.81
500.135	843.81
500.352	893.81
500.569	910.81
500.786	933.81
501.003	911.81
501.22	878.81
501.437	826.81
501.654	797.81
501.871	784.81
502.088	768.81
502.305	691.81
502.522	658.81
502.739	675.81
502.956	656.81
503.172	618.81
503.389	614.81
503.606	631.81
503.823	617.81
504.04	597.81
504.256	611.81
504.473	587.81
504.69	609.81
504.907	605.81
505.123	583.81
505.34	573.81
505.557	567.81
505.773	555.81
505.99	552.81
506.207	558.81
506.423	564.81
506.64	560.81
506.856	531.81
507.073	544.81
507.289	554.81
507.506	524.81
507.722	559.81
507.939	545.81
508.155	510.81
508.372	528.81
508.588	522.81
508.805	508.81
509.021	507.81
509.238	495.81
509.454	518.81
509.67	522.81
509.887	523.81
510.103	518.81
510.319	532.81
510.536	544.81
510.752	742.81
510.968	649.81
511.184	509.81
511.401	484.81
511.617	491.81
511.833	506.81
512.049	516.81
512.265	486.81
512.481	504.81
512.698	482.81
512.914	486.81
513.13	468.81
513.346	481.81
513.562	487.81
513.778	470.81
513.994	483.81
514.21	485.81
514.426	515.81
514.642	524.81
514.858	524.81
515.074	554.81
515.29	601.81
515.506	775.81
515.721	648.81
515.937	538.81
516.153	518.81
516.369	514.81
516.585	515.81
516.801	522.81
517.016	495.81
517.232	503.81
517.448	529.81
517.664	544.81
517.879	531.81
518.095	496.81
518.311	532.81
518.527	536.81
518.742	526.81
518.958	494.81
519.173	484.81
519.389	479.81
519.605	486.81
519.82	484.81
520.036	498.81
520.251	499.81
520.467	491.81
520.682	487.81
520.898	492.81
521.113	506.81
521.329	490.81
521.544	550.81
521.76	630.81
521.975	889.81
522.19	828.81
522.406	562.81
522.621	504.81
522.836	477.81
523.052	438.81
523.267	434.81
523.482	447.81
523.698	443.81
523.913	445.81
524.128	438.81
524.343	431.81
524.559	420.81
524.774	419.81
524.989	420.81
525.204	434.81
525.419	407.81
525.634	426.81
525.849	430.81
526.064	410.81
526.28	427.81
526.495	380.81
526.71	397.81
526.925	409.81
527.14	435.81
527.355	400.81
527.57	430.81
527.785	408.81
527.999	404.81
528.214	420.81
528.429	382.81
528.644	418.81
528.859	423.81
529.074	418.81
529.289	423.81
529.503	436.81
529.718	433.81
529.933	411.81
530.148	416.81
530.363	412.81
530.577	403.81
530.792	396.81
531.007	392.81
531.221	398.81
531.436	397.81
531.651	398.81
531.865	402.81
532.08	402.81
532.295	413.81
532.509	389.81
532.724	375.81
532.938	382.81
533.153	391.81
533.367	410.81
533.582	411.81
533.796	400.81
534.011	387.81
534.225	381.81
534.44	382.81
534.654	380.81
534.868	378.81
535.083	386.81
535.297	382.81
535.511	388.81
535.726	384.81
535.94	389.81
536.154	407.81
536.369	382.81
536.583	383.81
536.797	383.81
537.011	388.81
537.225	384.81
537.44	374.81
537.654	369.81
537.868	354.81
538.082	388.81
538.296	364.81
538.51	382.81
538.724	381.81
538.938	391.81
539.153	381.81
539.367	388.81
539.581	384.81
539.795	388.81
540.009	386.81
540.222	372.81
540.436	390.81
540.65	373.81
540.864	372.81
541.078	400.81
541.292	398.81
541.506	365.81
541.72	365.81
541.934	371.81
542.147	382.81
542.361	373.81
542.575	344.81
542.789	366.81
543.002	374.81
543.216	384.81
543.43	386.81
543.644	384.81
543.857	373.81
544.071	378.81
544.285	365.81
544.498	378.81
544.712	375.81
544.925	368.81
545.139	363.81
545.352	378.81
545.566	375.81
545.779	363.81
545.993	371.81
546.206	378.81
546.42	371.81
546.633	344.81
546.847	366.81
547.06	370.81
547.274	350.81
547.487	363.81
547.7	368.81
547.914	372.81
548.127	341.81
548.34	365.81
548.554	371.81
548.767	382.81
548.98	365.81
549.193	376.81
549.407	354.81
549.62	364.81
549.833	378.81
550.046	348.81
550.259	368.81
550.473	395.81
550.686	354.81
550.899	372.81
551.112	353.81
551.325	346.81
551.538	349.81
551.751	372.81
551.964	366.81
552.177	366.81
552.39	355.81
552.603	360.81
552.816	373.81
553.029	375.81
553.242	375.81
553.455	376.81
553.667	371.81
553.88	357.81
554.093	375.81
554.306	394.81
554.519	364.81
554.732	377.81
554.944	346.81
555.157	355.81
555.37	366.81
555.583	362.81
555.795	355.81
556.008	343.81
556.221	335.81
556.433	333.81
556.646	356.81
556.859	332.81
557.071	324.81
557.284	330.81
557.496	335.81
557.709	335.81
557.921	343.81
558.134	332.81
558.346	312.81
558.559	323.81
558.771	316.81
558.984	333.81
559.196	323.81
559.409	324.81
559.621	326.81
559.833	317.81
560.046	313.81
560.258	327.81
560.47	346.81
560.683	327.81
560.895	328.81
561.107	331.81
561.32	339.81
561.532	332.81
561.744	338.81
561.956	299.81
562.168	325.81
562.381	334.81
562.593	314.81
562.805	317.81
563.017	331.81
563.229	312.81
563.441	311.81
563.653	350.81
563.865	331.81
564.077	343.81
564.289	358.81
564.501	347.81
564.713	350.81
564.925	356.81
565.137	334.81
565.349	349.81
565.561	360.81
565.773	377.81
565.985	388.81
566.197	350.81
566.408	364.81
566.62	400.81
566.832	395.81
567.044	410.81
567.255	416.81
567.467	431.81
567.679	427.81
567.891	448.81
568.102	434.81
568.314	445.81
568.526	412.81
568.737	402.81
568.949	385.81
569.161	399.81
569.372	355.81
569.584	344.81
569.795	337.81
570.007	348.81
570.218	370.81
570.43	332.81
570.641	329.81
570.853	314.81
571.064	322.81
571.276	332.81
571.487	338.81
571.698	311.81
571.91	290.81
572.121	306.81
572.333	303.81
572.544	322.81
572.755	314.81
572.966	295.81
573.178	320.81
573.389	305.81
573.6	282.81
573.811	283.81
574.023	279.81
574.234	308.81
574.445	281.81
574.656	292.81
574.867	277.81
575.078	288.81
575.289	278.81
575.501	283.81
575.712	270.81
575.923	292.81
576.134	275.81
576.345	294.81
576.556	266.81
576.767	291.81
576.978	285.81
577.188	263.81
577.399	277.81
577.61	265.81
577.821	265.81
578.032	268.81
578.243	274.81
578.454	361.81
578.665	301.81
578.875	277.81
579.086	263.81
579.297	270.81
579.508	257.81
579.718	263.81
579.929	267.81
580.14	256.81
580.35	253.81
580.561	247.81
580.772	278.81
580.982	269.81
581.193	274.81
581.403	272.81
581.614	246.81
581.825	281.81
582.035	251.81
582.246	263.81
582.456	255.81
582.667	245.81
582.877	257.81
583.087	247.81
583.298	256.81
583.508	254.81
583.719	257.81
583.929	267.81
584.139	267.81
584.35	246.81
584.56	244.81
584.77	251.81
584.981	249.81
585.191	251.81
585.401	262.81
585.611	260.81
585.821	251.81
586.032	266.81
586.242	235.81
586.452	256.81
586.662	237.81
586.872	248.81
587.082	238.81
587.292	254.81
587.502	250.81
587.713	239.81
587.923	248.81
588.133	242.81
588.343	225.81
588.553	242.81
588.762	259.81
588.972	246.81
589.182	263.81
589.392	261.81
589.602	238.81
589.812	256.81
590.022	254.81
590.232	254.81
590.441	265.81
590.651	269.81
590.861	242.81
591.071	246.81
591.281	243.81
591.49	251.81
591.7	260.81
591.91	248.81
592.119	243.81
592.329	257.81
592.539	270.81
592.748	280.81
592.958	263.81
593.167	280.81
593.377	269.81
593.587	292.81
593.796	266.81
594.006	281.81
594.215	268.81
594.424	263.81
594.634	276.81
594.843	270.81
595.053	266.81
595.262	258.81
595.472	237.81
595.681	246.81
595.89	246.81
596.1	251.81
596.309	248.81
596.518	226.81
596.727	235.81
596.937	218.81
597.146	245.81
597.355	236.81
597.564	224.81
597.774	231.81
597.983	234.81
598.192	230.81
598.401	223.81
598.61	219.81
598.819	238.81
599.028	211.81
599.237	216.81
599.446	207.81
599.655	230.81
599.864	236.81
600.073	230.81
600.282	205.81
600.491	210.81
600.7	220.81
600.909	206.81
601.118	220.81
601.327	221.81
601.536	227.81
601.745	231.81
601.953	218.81
602.162	230.81
602.371	214.81
602.58	217.81
602.789	216.81
602.997	206.81
603.206	204.81
603.415	223.81
603.623	199.81
603.832	200.81
604.041	211.81
604.249	216.81
604.458	210.81
604.666	197.81
604.875	205.81
605.084	229.81
605.292	200.81
605.501	216.81
605.709	222.81
605.918	203.81
606.126	202.81
606.334	210.81
606.543	208.81
606.751	222.81
606.96	206.81
607.168	214.81
607.376	208.81
607.585	210.81
607.793	189.81
608.001	212.81
608.21	203.81
608.418	205.81
608.626	208.81
608.834	207.81
609.043	191.81
609.251	198.81
609.459	195.81
609.667	195.81
609.875	204.81
610.083	201.81
610.291	203.81
610.499	218.81
610.707	194.81
610.916	195.81
611.124	201.81
611.332	210.81
611.54	205.81
611.748	203.81
611.955	199.81
612.163	204.81
612.371	199.81
612.579	202.81
612.787	201.81
612.995	219.81
613.203	195.81
613.411	191.81
613.618	196.81
613.826	207.81
614.034	199.81
614.242	210.81
614.449	188.81
614.657	198.81
614.865	200.81
615.072	204.81
615.28	191.81
615.488	207.81
615.695	203.81
615.903	204.81
616.111	203.81
616.318	196.81
616.526	208.81
616.733	212.81
616.941	198.81
617.148	193.81
617.356	218.81
617.563	190.81
617.771	201.81
617.978	195.81
618.185	198.81
618.393	191.81
618.6	212.81
618.807	192.81
619.015	205.81
619.222	189.81
619.429	191.81
619.637	189.81
619.844	203.81
620.051	197.81
620.258	194.81
620.466	194.81
620.673	191.81
620.88	202.81
621.087	190.81
621.294	192.81
621.501	190.81
621.708	183.81
621.915	186.81
622.122	188.81
622.329	181.81
622.536	191.81
622.743	170.81
622.95	198.81
623.157	185.81
623.364	191.81
623.571	188.81
623.778	187.81
623.985	176.81
624.192	193.81
624.399	176.81
624.606	180.81
624.812	202.81
625.019	182.81
625.226	180.81
625.433	184.81
625.639	196.81
625.846	164.81
626.053	158.81
626.259	180.81
626.466	180.81
626.673	175.81
626.879	182.81
627.086	164.81
627.293	179.81
627.499	190.81
627.706	180.81
627.912	170.81
628.119	168.81
628.325	185.81
628.532	189.81
628.738	182.81
628.945	171.81
629.151	175.81
629.357	162.81
629.564	178.81
629.77	182.81
629.976	161.81
630.183	173.81
630.389	174.81
630.595	168.81
630.802	164.81
631.008	184.81
631.214	180.81
631.42	181.81
631.627	175.81
631.833	172.81
632.039	166.81
632.245	171.81
632.451	174.81
632.657	175.81
632.863	184.81
633.069	171.81
633.275	168.81
633.481	162.81
633.688	154.81
633.893	163.81
634.099	162.81
634.305	159.81
634.511	164.81
634.717	163.81
634.923	165.81
635.129	161.81
635.335	154.81
635.541	158.81
635.747	152.81
635.952	154.81
636.158	164.81
636.364	164.81
636.57	174.81
636.775	164.81
636.981	155.81
637.187	169.81
637.392	161.81
637.598	155.81
637.804	156.81
638.009	141.81
638.215	173.81
638.421	160.81
638.626	162.81
638.832	159.81
639.037	145.81
639.243	158.81
639.448	151.81
639.654	156.81
639.859	148.81
640.065	151.81
640.27	167.81
640.475	158.81
640.681	167.81
640.886	173.81
641.091	167.81
641.297	157.81
641.502	144.81
641.707	154.81
641.913	152.81
642.118	147.81
642.323	158.81
642.528	156.81
642.733	150.81
642.939	155.81
643.144	150.81
643.349	150.81
643.554	165.81
643.759	138.81
643.964	151.81
644.169	156.81
644.374	137.81
644.579	150.81
644.784	156.81
644.989	160.81
645.194	160.81
645.399	152.81
645.604	151.81
645.809	155.81
646.014	150.81
646.219	160.81
646.423	147.81
646.628	153.81
646.833	145.81
647.038	151.81
647.243	152.81
647.447	159.81
647.652	150.81
647.857	150.81
648.062	162.81
648.266	146.81
648.471	164.81
648.676	158.81
648.88	160.81
649.085	146.81
649.289	155.81
649.494	142.81
649.698	171.81
649.903	161.81
650.107	141.81
650.312	164.81
650.516	155.81
650.721	151.81
650.925	136.81
651.13	143.81
651.334	153.81
651.539	140.81
651.743	146.81
651.947	127.81
652.152	144.81
652.356	128.81
652.56	127.81
652.764	144.81
652.969	122.81
653.173	136.81
653.377	125.81
653.581	126.81
653.785	137.81
653.99	127.81
654.194	133.81
654.398	126.81
654.602	136.81
654.806	123.81
655.01	140.81
655.214	136.81
655.418	134.81
655.622	135.81
655.826	124.81
656.03	119.81
656.234	130.81
656.438	134.81
656.642	147.81
656.846	133.81
657.049	126.81
657.253	132.81
657.457	111.81
657.661	111.81
657.865	124.81
658.068	110.81
658.272	106.81
658.476	103.81
658.68	111.81
658.883	107.81
659.087	106.81
659.291	106.81
659.494	108.81
659.698	95.81
659.901	100.81
660.105	100.81
660.309	96.81
660.512	87.81
660.716	110.81
660.919	100.81
661.123	98.81
661.326	105.81
661.53	104.81
661.733	81.81
661.936	93.81
662.14	84.81
662.343	93.81
662.546	91.81
662.75	84.81
662.953	91.81
663.156	79.81
663.36	79.81
663.563	82.81
663.766	87.81
663.969	90.81
664.173	87.81
664.376	93.81
664.579	86.81
664.782	73.81
664.985	80.81
665.188	95.81
665.391	93.81
665.594	83.81
665.797	72.81
666	64.81
666.203	85.81
666.406	90.81
666.609	94.81
666.812	73.81
667.015	87.81
667.218	103.81
667.421	83.81
667.624	80.81
667.827	86.81
668.03	88.81
668.232	76.81
668.435	81.81
668.638	85.81
668.841	86.81
669.043	78.81
669.246	81.81
669.449	93.81
669.651	79.81
669.854	85.81
670.057	84.81
670.259	83.81
670.462	83.81
670.665	83.81
670.867	83.81
671.07	90.81
671.272	102.81
671.475	85.81
671.677	67.81
671.88	82.81
672.082	84.81
672.284	76.81
672.487	93.81
672.689	86.81
672.892	66.81
