Data from 1964.PennyLincolnUp.Lamp.En5.5.200Scan.071719.P1._HRD10591_14-06-32-911.txt Node
Date: Thu Jul 18 14:06:32 EDT 2019
User: cochatt
Spectrometer: HR+D1059
Trigger mode: 1
Integration Time (sec): 1.000000E-1
Scans to average: 1
Electric dark correction enabled: true
Nonlinearity correction enabled: false
Boxcar width: 0
XAxis mode: Wavelengths
Number of Pixels in Spectrum: 2048
>>>>>Begin Spectral Data<<<<<
223.165	-29.12
223.4	-29.12
223.635	-29.12
223.869	-20.12
224.104	-19.12
224.338	-22.12
224.573	-8.12
224.808	-15.12
225.042	-11.12
225.277	6.88
225.511	-6.12
225.746	9.88
225.98	6.88
226.215	8.88
226.449	28.88
226.683	16.88
226.918	23.88
227.152	28.88
227.387	24.88
227.621	37.88
227.856	35.88
228.09	33.88
228.324	62.88
228.559	43.88
228.793	73.88
229.027	104.88
229.262	92.88
229.496	110.88
229.73	123.88
229.964	146.88
230.199	115.88
230.433	121.88
230.667	118.88
230.901	114.88
231.136	122.88
231.37	109.88
231.604	109.88
231.838	105.88
232.072	99.88
232.306	110.88
232.541	113.88
232.775	112.88
233.009	112.88
233.243	134.88
233.477	101.88
233.711	118.88
233.945	103.88
234.179	110.88
234.413	107.88
234.647	109.88
234.881	121.88
235.115	107.88
235.349	121.88
235.583	118.88
235.817	132.88
236.051	136.88
236.285	122.88
236.519	118.88
236.753	133.88
236.987	140.88
237.221	157.88
237.455	195.88
237.689	174.88
237.922	140.88
238.156	125.88
238.39	131.88
238.624	128.88
238.858	121.88
239.091	112.88
239.325	126.88
239.559	128.88
239.793	119.88
240.027	122.88
240.26	129.88
240.494	159.88
240.728	164.88
240.961	150.88
241.195	145.88
241.429	151.88
241.662	138.88
241.896	132.88
242.13	133.88
242.363	141.88
242.597	141.88
242.83	147.88
243.064	141.88
243.298	133.88
243.531	144.88
243.765	148.88
243.998	160.88
244.232	137.88
244.465	146.88
244.699	153.88
244.932	139.88
245.166	155.88
245.399	162.88
245.633	152.88
245.866	142.88
246.099	155.88
246.333	161.88
246.566	151.88
246.8	171.88
247.033	157.88
247.266	168.88
247.5	153.88
247.733	183.88
247.966	171.88
248.2	177.88
248.433	167.88
248.666	176.88
248.899	188.88
249.133	192.88
249.366	195.88
249.599	187.88
249.832	183.88
250.066	193.88
250.299	192.88
250.532	212.88
250.765	186.88
250.998	219.88
251.231	234.88
251.465	224.88
251.698	209.88
251.931	204.88
252.164	208.88
252.397	207.88
252.63	189.88
252.863	205.88
253.096	216.88
253.329	242.88
253.562	232.88
253.795	222.88
254.028	237.88
254.261	211.88
254.494	206.88
254.727	251.88
254.96	278.88
255.193	269.88
255.426	262.88
255.659	227.88
255.892	226.88
256.124	244.88
256.357	248.88
256.59	253.88
256.823	220.88
257.056	233.88
257.289	209.88
257.521	220.88
257.754	227.88
257.987	217.88
258.22	218.88
258.452	221.88
258.685	225.88
258.918	206.88
259.151	222.88
259.383	218.88
259.616	232.88
259.849	237.88
260.081	240.88
260.314	252.88
260.547	259.88
260.779	256.88
261.012	245.88
261.244	232.88
261.477	245.88
261.71	219.88
261.942	230.88
262.175	251.88
262.407	257.88
262.64	233.88
262.872	230.88
263.105	226.88
263.337	230.88
263.57	224.88
263.802	228.88
264.035	225.88
264.267	221.88
264.499	225.88
264.732	219.88
264.964	226.88
265.197	231.88
265.429	232.88
265.661	249.88
265.894	244.88
266.126	249.88
266.358	218.88
266.591	233.88
266.823	241.88
267.055	264.88
267.287	252.88
267.52	262.88
267.752	267.88
267.984	259.88
268.216	233.88
268.448	248.88
268.681	264.88
268.913	270.88
269.145	268.88
269.377	276.88
269.609	290.88
269.841	308.88
270.073	298.88
270.306	294.88
270.538	325.88
270.77	316.88
271.002	320.88
271.234	316.88
271.466	314.88
271.698	311.88
271.93	309.88
272.162	322.88
272.394	326.88
272.626	317.88
272.858	315.88
273.09	305.88
273.322	309.88
273.553	289.88
273.785	271.88
274.017	280.88
274.249	297.88
274.481	272.88
274.713	284.88
274.945	296.88
275.176	285.88
275.408	280.88
275.64	289.88
275.872	300.88
276.104	278.88
276.335	299.88
276.567	296.88
276.799	305.88
277.031	340.88
277.262	331.88
277.494	342.88
277.726	326.88
277.957	326.88
278.189	313.88
278.421	301.88
278.652	307.88
278.884	306.88
279.115	286.88
279.347	301.88
279.579	283.88
279.81	296.88
280.042	298.88
280.273	286.88
280.505	297.88
280.736	317.88
280.968	308.88
281.199	296.88
281.431	297.88
281.662	308.88
281.894	297.88
282.125	293.88
282.356	322.88
282.588	324.88
282.819	327.88
283.051	324.88
283.282	300.88
283.513	309.88
283.745	325.88
283.976	303.88
284.207	298.88
284.439	319.88
284.67	308.88
284.901	316.88
285.132	330.88
285.364	316.88
285.595	316.88
285.826	321.88
286.057	308.88
286.288	325.88
286.52	313.88
286.751	295.88
286.982	329.88
287.213	322.88
287.444	310.88
287.675	329.88
287.906	337.88
288.138	336.88
288.369	356.88
288.6	370.88
288.831	334.88
289.062	331.88
289.293	332.88
289.524	315.88
289.755	338.88
289.986	334.88
290.217	314.88
290.448	322.88
290.679	324.88
290.91	325.88
291.141	339.88
291.371	342.88
291.602	325.88
291.833	338.88
292.064	348.88
292.295	311.88
292.526	328.88
292.757	338.88
292.987	322.88
293.218	344.88
293.449	334.88
293.68	334.88
293.91	330.88
294.141	336.88
294.372	341.88
294.603	337.88
294.833	321.88
295.064	338.88
295.295	329.88
295.525	351.88
295.756	352.88
295.987	349.88
296.217	369.88
296.448	360.88
296.679	358.88
296.909	346.88
297.14	342.88
297.37	334.88
297.601	341.88
297.831	338.88
298.062	351.88
298.292	355.88
298.523	342.88
298.753	376.88
298.984	344.88
299.214	348.88
299.445	342.88
299.675	363.88
299.905	358.88
300.136	354.88
300.366	347.88
300.597	352.88
300.827	367.88
301.057	350.88
301.288	378.88
301.518	358.88
301.748	374.88
301.979	380.88
302.209	373.88
302.439	363.88
302.669	374.88
302.9	374.88
303.13	370.88
303.36	377.88
303.59	389.88
303.82	375.88
304.051	368.88
304.281	383.88
304.511	368.88
304.741	365.88
304.971	388.88
305.201	368.88
305.431	366.88
305.661	380.88
305.891	365.88
306.121	354.88
306.352	395.88
306.582	380.88
306.812	364.88
307.042	354.88
307.272	358.88
307.502	379.88
307.731	375.88
307.961	372.88
308.191	364.88
308.421	386.88
308.651	412.88
308.881	377.88
309.111	391.88
309.341	400.88
309.571	391.88
309.8	385.88
310.03	399.88
310.26	418.88
310.49	398.88
310.72	401.88
310.949	409.88
311.179	414.88
311.409	407.88
311.639	411.88
311.868	399.88
312.098	428.88
312.328	416.88
312.557	424.88
312.787	439.88
313.017	430.88
313.246	412.88
313.476	407.88
313.706	425.88
313.935	421.88
314.165	421.88
314.394	444.88
314.624	435.88
314.853	434.88
315.083	392.88
315.312	422.88
315.542	416.88
315.771	405.88
316.001	414.88
316.23	422.88
316.46	419.88
316.689	421.88
316.919	438.88
317.148	429.88
317.377	425.88
317.607	435.88
317.836	433.88
318.065	414.88
318.295	414.88
318.524	421.88
318.753	414.88
318.983	425.88
319.212	413.88
319.441	441.88
319.67	442.88
319.9	407.88
320.129	410.88
320.358	412.88
320.587	419.88
320.816	425.88
321.046	421.88
321.275	424.88
321.504	410.88
321.733	430.88
321.962	428.88
322.191	457.88
322.42	432.88
322.649	475.88
322.878	460.88
323.108	469.88
323.337	472.88
323.566	526.88
323.795	511.88
324.024	557.88
324.253	635.88
324.482	860.88
324.71	1287.88
324.939	1763.88
325.168	1482.88
325.397	812.88
325.626	606.88
325.855	546.88
326.084	496.88
326.313	503.88
326.542	521.88
326.77	532.88
326.999	635.88
327.228	811.88
327.457	1142.88
327.686	1302.88
327.914	917.88
328.143	649.88
328.372	578.88
328.6	568.88
328.829	541.88
329.058	567.88
329.287	550.88
329.515	558.88
329.744	522.88
329.972	520.88
330.201	534.88
330.43	565.88
330.658	589.88
330.887	580.88
331.115	568.88
331.344	502.88
331.572	510.88
331.801	501.88
332.03	512.88
332.258	484.88
332.486	505.88
332.715	492.88
332.943	494.88
333.172	512.88
333.4	514.88
333.629	518.88
333.857	521.88
334.085	526.88
334.314	526.88
334.542	567.88
334.771	585.88
334.999	534.88
335.227	534.88
335.455	501.88
335.684	497.88
335.912	471.88
336.14	491.88
336.369	492.88
336.597	498.88
336.825	498.88
337.053	483.88
337.281	471.88
337.51	466.88
337.738	474.88
337.966	481.88
338.194	482.88
338.422	514.88
338.65	478.88
338.878	481.88
339.106	456.88
339.334	459.88
339.562	453.88
339.79	456.88
340.018	459.88
340.246	470.88
340.474	474.88
340.702	467.88
340.93	472.88
341.158	470.88
341.386	464.88
341.614	462.88
341.842	458.88
342.07	458.88
342.298	468.88
342.526	455.88
342.754	438.88
342.981	425.88
343.209	454.88
343.437	456.88
343.665	458.88
343.893	480.88
344.12	473.88
344.348	469.88
344.576	498.88
344.804	476.88
345.031	492.88
345.259	465.88
345.487	470.88
345.714	443.88
345.942	432.88
346.17	450.88
346.397	445.88
346.625	457.88
346.853	427.88
347.08	412.88
347.308	426.88
347.535	429.88
347.763	462.88
347.99	459.88
348.218	435.88
348.445	427.88
348.673	422.88
348.9	430.88
349.128	438.88
349.355	425.88
349.583	402.88
349.81	430.88
350.037	421.88
350.265	421.88
350.492	430.88
350.72	406.88
350.947	425.88
351.174	421.88
351.402	416.88
351.629	448.88
351.856	409.88
352.083	444.88
352.311	442.88
352.538	440.88
352.765	443.88
352.992	413.88
353.22	437.88
353.447	413.88
353.674	410.88
353.901	412.88
354.128	422.88
354.355	422.88
354.583	423.88
354.81	400.88
355.037	414.88
355.264	404.88
355.491	410.88
355.718	400.88
355.945	389.88
356.172	399.88
356.399	419.88
356.626	396.88
356.853	397.88
357.08	404.88
357.307	422.88
357.534	399.88
357.761	396.88
357.988	409.88
358.215	401.88
358.441	409.88
358.668	403.88
358.895	408.88
359.122	400.88
359.349	405.88
359.576	416.88
359.802	428.88
360.029	452.88
360.256	454.88
360.483	458.88
360.709	409.88
360.936	439.88
361.163	424.88
361.39	426.88
361.616	415.88
361.843	432.88
362.07	437.88
362.296	452.88
362.523	423.88
362.749	417.88
362.976	404.88
363.203	404.88
363.429	410.88
363.656	396.88
363.882	426.88
364.109	406.88
364.335	414.88
364.562	397.88
364.788	405.88
365.015	408.88
365.241	399.88
365.468	419.88
365.694	411.88
365.92	414.88
366.147	421.88
366.373	406.88
366.599	398.88
366.826	405.88
367.052	408.88
367.278	403.88
367.505	400.88
367.731	408.88
367.957	410.88
368.184	423.88
368.41	419.88
368.636	408.88
368.862	423.88
369.089	422.88
369.315	405.88
369.541	399.88
369.767	388.88
369.993	398.88
370.219	410.88
370.445	418.88
370.672	420.88
370.898	398.88
371.124	410.88
371.35	409.88
371.576	411.88
371.802	411.88
372.028	395.88
372.254	392.88
372.48	413.88
372.706	411.88
372.932	413.88
373.158	426.88
373.384	432.88
373.61	410.88
373.835	413.88
374.061	394.88
374.287	403.88
374.513	425.88
374.739	408.88
374.965	401.88
375.191	440.88
375.416	422.88
375.642	418.88
375.868	410.88
376.094	410.88
376.319	414.88
376.545	398.88
376.771	400.88
376.997	417.88
377.222	384.88
377.448	402.88
377.674	401.88
377.899	399.88
378.125	394.88
378.35	412.88
378.576	405.88
378.802	403.88
379.027	400.88
379.253	420.88
379.478	397.88
379.704	394.88
379.929	409.88
380.155	405.88
380.38	397.88
380.606	386.88
380.831	406.88
381.057	412.88
381.282	402.88
381.507	396.88
381.733	391.88
381.958	388.88
382.184	398.88
382.409	390.88
382.634	410.88
382.86	396.88
383.085	397.88
383.31	382.88
383.535	396.88
383.761	409.88
383.986	413.88
384.211	426.88
384.436	412.88
384.662	446.88
384.887	432.88
385.112	427.88
385.337	441.88
385.562	450.88
385.787	455.88
386.013	442.88
386.238	439.88
386.463	448.88
386.688	432.88
386.913	430.88
387.138	440.88
387.363	446.88
387.588	436.88
387.813	435.88
388.038	445.88
388.263	429.88
388.488	438.88
388.713	430.88
388.938	436.88
389.163	437.88
389.387	451.88
389.612	428.88
389.837	414.88
390.062	430.88
390.287	419.88
390.512	424.88
390.736	433.88
390.961	446.88
391.186	432.88
391.411	441.88
391.636	433.88
391.86	446.88
392.085	443.88
392.31	440.88
392.534	445.88
392.759	441.88
392.984	443.88
393.208	448.88
393.433	437.88
393.658	445.88
393.882	446.88
394.107	457.88
394.331	422.88
394.556	459.88
394.78	435.88
395.005	449.88
395.229	443.88
395.454	433.88
395.678	444.88
395.903	451.88
396.127	466.88
396.352	462.88
396.576	440.88
396.801	455.88
397.025	472.88
397.249	467.88
397.474	450.88
397.698	475.88
397.922	463.88
398.147	484.88
398.371	486.88
398.595	500.88
398.82	480.88
399.044	518.88
399.268	517.88
399.492	561.88
399.717	568.88
399.941	619.88
400.165	633.88
400.389	618.88
400.613	564.88
400.837	541.88
401.062	524.88
401.286	525.88
401.51	495.88
401.734	491.88
401.958	516.88
402.182	498.88
402.406	510.88
402.63	505.88
402.854	521.88
403.078	501.88
403.302	526.88
403.526	493.88
403.75	514.88
403.974	532.88
404.198	516.88
404.422	531.88
404.645	512.88
404.869	524.88
405.093	562.88
405.317	575.88
405.541	592.88
405.765	567.88
405.988	532.88
406.212	522.88
406.436	546.88
406.66	545.88
406.883	550.88
407.107	571.88
407.331	569.88
407.555	660.88
407.778	662.88
408.002	604.88
408.226	549.88
408.449	545.88
408.673	547.88
408.896	584.88
409.12	604.88
409.344	573.88
409.567	507.88
409.791	501.88
410.014	478.88
410.238	505.88
410.461	520.88
410.685	509.88
410.908	526.88
411.132	539.88
411.355	576.88
411.578	524.88
411.802	509.88
412.025	491.88
412.249	512.88
412.472	536.88
412.695	557.88
412.919	551.88
413.142	519.88
413.365	478.88
413.589	491.88
413.812	487.88
414.035	483.88
414.258	472.88
414.482	478.88
414.705	470.88
414.928	479.88
415.151	472.88
415.374	458.88
415.597	472.88
415.821	460.88
416.044	466.88
416.267	472.88
416.49	470.88
416.713	471.88
416.936	480.88
417.159	462.88
417.382	466.88
417.605	484.88
417.828	486.88
418.051	485.88
418.274	474.88
418.497	481.88
418.72	480.88
418.943	474.88
419.166	476.88
419.389	526.88
419.611	506.88
419.834	485.88
420.057	536.88
420.28	498.88
420.503	514.88
420.726	517.88
420.948	516.88
421.171	524.88
421.394	572.88
421.617	510.88
421.839	480.88
422.062	484.88
422.285	521.88
422.507	566.88
422.73	609.88
422.953	573.88
423.175	515.88
423.398	520.88
423.621	508.88
423.843	520.88
424.066	521.88
424.288	526.88
424.511	541.88
424.733	589.88
424.956	648.88
425.178	581.88
425.401	586.88
425.623	600.88
425.846	543.88
426.068	510.88
426.291	500.88
426.513	519.88
426.735	499.88
426.958	548.88
427.18	602.88
427.402	722.88
427.625	773.88
427.847	668.88
428.069	586.88
428.292	564.88
428.514	509.88
428.736	483.88
428.958	487.88
429.181	485.88
429.403	457.88
429.625	487.88
429.847	498.88
430.069	553.88
430.292	533.88
430.514	484.88
430.736	461.88
430.958	452.88
431.18	461.88
431.402	456.88
431.624	448.88
431.846	451.88
432.068	456.88
432.29	482.88
432.512	446.88
432.734	450.88
432.956	457.88
433.178	442.88
433.4	458.88
433.622	467.88
433.844	466.88
434.066	457.88
434.287	445.88
434.509	452.88
434.731	469.88
434.953	502.88
435.175	478.88
435.397	519.88
435.618	527.88
435.84	558.88
436.062	598.88
436.284	666.88
436.505	562.88
436.727	526.88
436.949	458.88
437.17	470.88
437.392	450.88
437.614	493.88
437.835	487.88
438.057	555.88
438.278	645.88
438.5	660.88
438.721	683.88
438.943	661.88
439.165	566.88
439.386	507.88
439.608	486.88
439.829	491.88
440.05	519.88
440.272	536.88
440.493	524.88
440.715	484.88
440.936	488.88
441.158	472.88
441.379	477.88
441.6	488.88
441.822	500.88
442.043	522.88
442.264	594.88
442.486	627.88
442.707	551.88
442.928	508.88
443.149	526.88
443.371	523.88
443.592	575.88
443.813	646.88
444.034	682.88
444.255	589.88
444.476	522.88
444.698	519.88
444.919	500.88
445.14	599.88
445.361	571.88
445.582	538.88
445.803	588.88
446.024	653.88
446.245	651.88
446.466	617.88
446.687	533.88
446.908	499.88
447.129	472.88
447.35	460.88
447.571	460.88
447.792	480.88
448.013	453.88
448.234	473.88
448.455	502.88
448.675	610.88
448.896	678.88
449.117	596.88
449.338	544.88
449.559	660.88
449.779	726.88
450	605.88
450.221	486.88
450.442	463.88
450.662	448.88
450.883	445.88
451.104	434.88
451.324	444.88
451.545	421.88
451.766	416.88
451.986	386.88
452.207	400.88
452.428	424.88
452.648	428.88
452.869	408.88
453.089	428.88
453.31	443.88
453.53	392.88
453.751	412.88
453.971	397.88
454.192	418.88
454.412	399.88
454.633	400.88
454.853	403.88
455.073	415.88
455.294	422.88
455.514	472.88
455.734	460.88
455.955	398.88
456.175	405.88
456.395	397.88
456.616	382.88
456.836	383.88
457.056	362.88
457.276	393.88
457.497	390.88
457.717	386.88
457.937	397.88
458.157	406.88
458.377	406.88
458.598	401.88
458.818	445.88
459.038	523.88
459.258	532.88
459.478	475.88
459.698	466.88
459.918	437.88
460.138	427.88
460.358	422.88
460.578	456.88
460.798	454.88
461.018	448.88
461.238	430.88
461.458	453.88
461.678	459.88
461.898	458.88
462.118	448.88
462.338	491.88
462.558	476.88
462.777	494.88
462.997	517.88
463.217	518.88
463.437	517.88
463.657	496.88
463.876	486.88
464.096	493.88
464.316	470.88
464.536	489.88
464.755	488.88
464.975	501.88
465.195	534.88
465.414	526.88
465.634	493.88
465.854	456.88
466.073	449.88
466.293	429.88
466.512	426.88
466.732	427.88
466.951	410.88
467.171	401.88
467.391	407.88
467.61	448.88
467.829	426.88
468.049	427.88
468.268	436.88
468.488	420.88
468.707	408.88
468.927	411.88
469.146	401.88
469.365	413.88
469.585	422.88
469.804	427.88
470.023	427.88
470.243	431.88
470.462	446.88
470.681	430.88
470.901	443.88
471.12	414.88
471.339	434.88
471.558	434.88
471.777	418.88
471.997	397.88
472.216	433.88
472.435	447.88
472.654	422.88
472.873	438.88
473.092	432.88
473.311	412.88
473.53	434.88
473.749	427.88
473.968	471.88
474.187	536.88
474.406	563.88
474.625	464.88
474.844	434.88
475.063	448.88
475.282	436.88
475.501	414.88
475.72	408.88
475.939	439.88
476.158	446.88
476.377	429.88
476.596	436.88
476.814	459.88
477.033	442.88
477.252	446.88
477.471	444.88
477.69	442.88
477.908	464.88
478.127	455.88
478.346	478.88
478.564	478.88
478.783	469.88
479.002	466.88
479.22	508.88
479.439	482.88
479.658	504.88
479.876	504.88
480.095	510.88
480.313	555.88
480.532	532.88
480.751	542.88
480.969	550.88
481.188	589.88
481.406	579.88
481.624	534.88
481.843	504.88
482.061	502.88
482.28	498.88
482.498	515.88
482.717	501.88
482.935	482.88
483.153	500.88
483.372	477.88
483.59	474.88
483.808	493.88
484.027	492.88
484.245	473.88
484.463	480.88
484.681	504.88
484.9	503.88
485.118	504.88
485.336	493.88
485.554	515.88
485.772	517.88
485.99	502.88
486.209	504.88
486.427	517.88
486.645	523.88
486.863	533.88
487.081	533.88
487.299	526.88
487.517	531.88
487.735	490.88
487.953	520.88
488.171	500.88
488.389	504.88
488.607	502.88
488.825	516.88
489.043	528.88
489.261	522.88
489.479	511.88
489.696	529.88
489.914	522.88
490.132	536.88
490.35	556.88
490.568	559.88
490.786	536.88
491.003	562.88
491.221	574.88
491.439	571.88
491.657	578.88
491.874	590.88
492.092	583.88
492.31	590.88
492.527	581.88
492.745	585.88
492.963	604.88
493.18	603.88
493.398	582.88
493.615	608.88
493.833	605.88
494.05	610.88
494.268	608.88
494.485	581.88
494.703	609.88
494.92	609.88
495.138	608.88
495.355	586.88
495.573	621.88
495.79	622.88
496.008	627.88
496.225	606.88
496.442	582.88
496.66	599.88
496.877	586.88
497.094	610.88
497.312	621.88
497.529	630.88
497.746	651.88
497.963	664.88
498.181	649.88
498.398	688.88
498.615	697.88
498.832	730.88
499.049	723.88
499.267	724.88
499.484	772.88
499.701	818.88
499.918	854.88
500.135	866.88
500.352	932.88
500.569	954.88
500.786	948.88
501.003	905.88
501.22	883.88
501.437	857.88
501.654	813.88
501.871	802.88
502.088	770.88
502.305	734.88
502.522	714.88
502.739	682.88
502.956	680.88
503.172	659.88
503.389	673.88
503.606	668.88
503.823	640.88
504.04	641.88
504.256	636.88
504.473	648.88
504.69	637.88
504.907	634.88
505.123	603.88
505.34	590.88
505.557	581.88
505.773	581.88
505.99	589.88
506.207	580.88
506.423	586.88
506.64	559.88
506.856	549.88
507.073	535.88
507.289	553.88
507.506	553.88
507.722	563.88
507.939	546.88
508.155	539.88
508.372	552.88
508.588	544.88
508.805	505.88
509.021	546.88
509.238	541.88
509.454	554.88
509.67	540.88
509.887	528.88
510.103	534.88
510.319	533.88
510.536	571.88
510.752	810.88
510.968	704.88
511.184	546.88
511.401	502.88
511.617	538.88
511.833	483.88
512.049	518.88
512.265	512.88
512.481	517.88
512.698	502.88
512.914	503.88
513.13	516.88
513.346	493.88
513.562	516.88
513.778	514.88
513.994	518.88
514.21	524.88
514.426	538.88
514.642	546.88
514.858	547.88
515.074	589.88
515.29	641.88
515.506	832.88
515.721	718.88
515.937	569.88
516.153	552.88
516.369	532.88
516.585	529.88
516.801	523.88
517.016	534.88
517.232	561.88
517.448	538.88
517.664	544.88
517.879	546.88
518.095	543.88
518.311	575.88
518.527	549.88
518.742	536.88
518.958	524.88
519.173	518.88
519.389	497.88
519.605	498.88
519.82	497.88
520.036	517.88
520.251	520.88
520.467	528.88
520.682	527.88
520.898	527.88
521.113	529.88
521.329	572.88
521.544	580.88
521.76	713.88
521.975	1024.88
522.19	952.88
522.406	626.88
522.621	532.88
522.836	483.88
523.052	497.88
523.267	484.88
523.482	452.88
523.698	474.88
523.913	450.88
524.128	468.88
524.343	456.88
524.559	435.88
524.774	438.88
524.989	447.88
525.204	450.88
525.419	434.88
525.634	420.88
525.849	418.88
526.064	453.88
526.28	455.88
526.495	423.88
526.71	432.88
526.925	409.88
527.14	438.88
527.355	419.88
527.57	437.88
527.785	424.88
527.999	388.88
528.214	418.88
528.429	437.88
528.644	410.88
528.859	410.88
529.074	426.88
529.289	428.88
529.503	463.88
529.718	477.88
529.933	423.88
530.148	425.88
530.363	428.88
530.577	423.88
530.792	420.88
531.007	404.88
531.221	425.88
531.436	400.88
531.651	424.88
531.865	418.88
532.08	404.88
532.295	416.88
532.509	393.88
532.724	430.88
532.938	430.88
533.153	417.88
533.367	405.88
533.582	405.88
533.796	399.88
534.011	392.88
534.225	405.88
534.44	401.88
534.654	402.88
534.868	401.88
535.083	395.88
535.297	386.88
535.511	390.88
535.726	412.88
535.94	422.88
536.154	386.88
536.369	398.88
536.583	387.88
536.797	410.88
537.011	380.88
537.225	401.88
537.44	392.88
537.654	384.88
537.868	388.88
538.082	380.88
538.296	392.88
538.51	404.88
538.724	405.88
538.938	392.88
539.153	395.88
539.367	392.88
539.581	405.88
539.795	397.88
540.009	416.88
540.222	381.88
540.436	380.88
540.65	401.88
540.864	402.88
541.078	399.88
541.292	397.88
541.506	406.88
541.72	390.88
541.934	400.88
542.147	398.88
542.361	384.88
542.575	387.88
542.789	378.88
543.002	385.88
543.216	390.88
543.43	387.88
543.644	399.88
543.857	376.88
544.071	396.88
544.285	398.88
544.498	401.88
544.712	384.88
544.925	386.88
545.139	395.88
545.352	372.88
545.566	392.88
545.779	376.88
545.993	395.88
546.206	408.88
546.42	390.88
546.633	366.88
546.847	363.88
547.06	365.88
547.274	374.88
547.487	368.88
547.7	380.88
547.914	376.88
548.127	370.88
548.34	378.88
548.554	375.88
548.767	368.88
548.98	382.88
549.193	386.88
549.407	361.88
549.62	400.88
549.833	374.88
550.046	377.88
550.259	385.88
550.473	378.88
550.686	382.88
550.899	378.88
551.112	378.88
551.325	364.88
551.538	361.88
551.751	357.88
551.964	365.88
552.177	362.88
552.39	375.88
552.603	366.88
552.816	384.88
553.029	376.88
553.242	392.88
553.455	392.88
553.667	376.88
553.88	393.88
554.093	382.88
554.306	395.88
554.519	380.88
554.732	358.88
554.944	375.88
555.157	361.88
555.37	370.88
555.583	370.88
555.795	361.88
556.008	362.88
556.221	343.88
556.433	337.88
556.646	326.88
556.859	352.88
557.071	373.88
557.284	346.88
557.496	337.88
557.709	338.88
557.921	330.88
558.134	334.88
558.346	355.88
558.559	350.88
558.771	330.88
558.984	338.88
559.196	327.88
559.409	338.88
559.621	328.88
559.833	331.88
560.046	327.88
560.258	331.88
560.47	330.88
560.683	328.88
560.895	336.88
561.107	321.88
561.32	346.88
561.532	331.88
561.744	357.88
561.956	339.88
562.168	328.88
562.381	326.88
562.593	341.88
562.805	348.88
563.017	315.88
563.229	340.88
563.441	329.88
563.653	323.88
563.865	347.88
564.077	353.88
564.289	349.88
564.501	346.88
564.713	353.88
564.925	361.88
565.137	369.88
565.349	362.88
565.561	352.88
565.773	369.88
565.985	372.88
566.197	386.88
566.408	396.88
566.62	429.88
566.832	435.88
567.044	419.88
567.255	426.88
567.467	428.88
567.679	440.88
567.891	457.88
568.102	452.88
568.314	442.88
568.526	406.88
568.737	418.88
568.949	385.88
569.161	377.88
569.372	364.88
569.584	351.88
569.795	373.88
570.007	352.88
570.218	363.88
570.43	361.88
570.641	339.88
570.853	314.88
571.064	327.88
571.276	328.88
571.487	309.88
571.698	327.88
571.91	321.88
572.121	329.88
572.333	331.88
572.544	298.88
572.755	308.88
572.966	298.88
573.178	282.88
573.389	300.88
573.6	294.88
573.811	296.88
574.023	304.88
574.234	278.88
574.445	280.88
574.656	286.88
574.867	274.88
575.078	280.88
575.289	269.88
575.501	284.88
575.712	288.88
575.923	294.88
576.134	289.88
576.345	304.88
576.556	307.88
576.767	299.88
576.978	270.88
577.188	297.88
577.399	263.88
577.61	281.88
577.821	301.88
578.032	263.88
578.243	288.88
578.454	382.88
578.665	313.88
578.875	280.88
579.086	256.88
579.297	268.88
579.508	256.88
579.718	278.88
579.929	271.88
580.14	275.88
580.35	274.88
580.561	282.88
580.772	272.88
580.982	252.88
581.193	268.88
581.403	266.88
581.614	265.88
581.825	258.88
582.035	262.88
582.246	260.88
582.456	267.88
582.667	264.88
582.877	245.88
583.087	247.88
583.298	256.88
583.508	259.88
583.719	271.88
583.929	271.88
584.139	256.88
584.35	237.88
584.56	260.88
584.77	264.88
584.981	250.88
585.191	265.88
585.401	264.88
585.611	264.88
585.821	254.88
586.032	261.88
586.242	263.88
586.452	235.88
586.662	262.88
586.872	254.88
587.082	270.88
587.292	256.88
587.502	254.88
587.713	252.88
587.923	263.88
588.133	259.88
588.343	235.88
588.553	243.88
588.762	255.88
588.972	246.88
589.182	267.88
589.392	257.88
589.602	248.88
589.812	237.88
590.022	249.88
590.232	260.88
590.441	256.88
590.651	268.88
590.861	258.88
591.071	243.88
591.281	246.88
591.49	269.88
591.7	248.88
591.91	267.88
592.119	257.88
592.329	270.88
592.539	275.88
592.748	266.88
592.958	279.88
593.167	282.88
593.377	270.88
593.587	296.88
593.796	276.88
594.006	283.88
594.215	278.88
594.424	277.88
594.634	295.88
594.843	263.88
595.053	265.88
595.262	244.88
595.472	258.88
595.681	250.88
595.89	260.88
596.1	251.88
596.309	246.88
596.518	229.88
596.727	244.88
596.937	235.88
597.146	236.88
597.355	243.88
597.564	262.88
597.774	251.88
597.983	234.88
598.192	233.88
598.401	220.88
598.61	228.88
598.819	234.88
599.028	222.88
599.237	230.88
599.446	236.88
599.655	232.88
599.864	225.88
600.073	246.88
600.282	233.88
600.491	221.88
600.7	213.88
600.909	224.88
601.118	227.88
601.327	234.88
601.536	216.88
601.745	236.88
601.953	218.88
602.162	220.88
602.371	225.88
602.58	205.88
602.789	219.88
602.997	230.88
603.206	233.88
603.415	215.88
603.623	204.88
603.832	212.88
604.041	205.88
604.249	200.88
604.458	203.88
604.666	198.88
604.875	194.88
605.084	220.88
605.292	221.88
605.501	227.88
605.709	221.88
605.918	228.88
606.126	215.88
606.334	208.88
606.543	212.88
606.751	199.88
606.96	211.88
607.168	211.88
607.376	202.88
607.585	203.88
607.793	220.88
608.001	215.88
608.21	200.88
608.418	211.88
608.626	210.88
608.834	209.88
609.043	204.88
609.251	203.88
609.459	224.88
609.667	211.88
609.875	194.88
610.083	215.88
610.291	213.88
610.499	210.88
610.707	208.88
610.916	211.88
611.124	209.88
611.332	207.88
611.54	207.88
611.748	221.88
611.955	218.88
612.163	194.88
612.371	198.88
612.579	210.88
612.787	223.88
612.995	214.88
613.203	213.88
613.411	210.88
613.618	200.88
613.826	212.88
614.034	200.88
614.242	200.88
614.449	211.88
614.657	186.88
614.865	201.88
615.072	220.88
615.28	205.88
615.488	214.88
615.695	199.88
615.903	209.88
616.111	197.88
616.318	204.88
616.526	201.88
616.733	190.88
616.941	215.88
617.148	207.88
617.356	198.88
617.563	192.88
617.771	206.88
617.978	195.88
618.185	220.88
618.393	206.88
618.6	211.88
618.807	196.88
619.015	210.88
619.222	189.88
619.429	194.88
619.637	203.88
619.844	201.88
620.051	205.88
620.258	207.88
620.466	190.88
620.673	209.88
620.88	196.88
621.087	186.88
621.294	196.88
621.501	191.88
621.708	209.88
621.915	190.88
622.122	190.88
622.329	205.88
622.536	201.88
622.743	209.88
622.95	196.88
623.157	200.88
623.364	190.88
623.571	186.88
623.778	180.88
623.985	200.88
624.192	196.88
624.399	200.88
624.606	183.88
624.812	174.88
625.019	180.88
625.226	167.88
625.433	180.88
625.639	178.88
625.846	162.88
626.053	173.88
626.259	177.88
626.466	168.88
626.673	173.88
626.879	187.88
627.086	179.88
627.293	181.88
627.499	165.88
627.706	182.88
627.912	186.88
628.119	190.88
628.325	162.88
628.532	181.88
628.738	168.88
628.945	155.88
629.151	188.88
629.357	168.88
629.564	168.88
629.77	174.88
629.976	179.88
630.183	168.88
630.389	178.88
630.595	172.88
630.802	184.88
631.008	166.88
631.214	164.88
631.42	185.88
631.627	171.88
631.833	161.88
632.039	151.88
632.245	155.88
632.451	179.88
632.657	170.88
632.863	161.88
633.069	163.88
633.275	179.88
633.481	156.88
633.688	157.88
633.893	180.88
634.099	161.88
634.305	158.88
634.511	169.88
634.717	161.88
634.923	150.88
635.129	161.88
635.335	163.88
635.541	150.88
635.747	170.88
635.952	180.88
636.158	172.88
636.364	177.88
636.57	162.88
636.775	158.88
636.981	158.88
637.187	151.88
637.392	163.88
637.598	170.88
637.804	169.88
638.009	151.88
638.215	173.88
638.421	153.88
638.626	142.88
638.832	142.88
639.037	158.88
639.243	146.88
639.448	154.88
639.654	165.88
639.859	159.88
640.065	152.88
640.27	146.88
640.475	155.88
640.681	147.88
640.886	151.88
641.091	152.88
641.297	152.88
641.502	155.88
641.707	148.88
641.913	147.88
642.118	150.88
642.323	140.88
642.528	140.88
642.733	161.88
642.939	140.88
643.144	149.88
643.349	156.88
643.554	155.88
643.759	146.88
643.964	166.88
644.169	139.88
644.374	139.88
644.579	154.88
644.784	152.88
644.989	153.88
645.194	150.88
645.399	132.88
645.604	153.88
645.809	146.88
646.014	141.88
646.219	154.88
646.423	146.88
646.628	146.88
646.833	151.88
647.038	145.88
647.243	141.88
647.447	156.88
647.652	150.88
647.857	153.88
648.062	158.88
648.266	151.88
648.471	153.88
648.676	143.88
648.88	153.88
649.085	151.88
649.289	148.88
649.494	152.88
649.698	177.88
649.903	170.88
650.107	158.88
650.312	161.88
650.516	149.88
650.721	151.88
650.925	153.88
651.13	149.88
651.334	152.88
651.539	152.88
651.743	133.88
651.947	134.88
652.152	140.88
652.356	131.88
652.56	129.88
652.764	135.88
652.969	137.88
653.173	144.88
653.377	122.88
653.581	130.88
653.785	125.88
653.99	124.88
654.194	121.88
654.398	120.88
654.602	117.88
654.806	142.88
655.01	141.88
655.214	134.88
655.418	127.88
655.622	127.88
655.826	118.88
656.03	136.88
656.234	142.88
656.438	115.88
656.642	125.88
656.846	137.88
657.049	124.88
657.253	132.88
657.457	112.88
657.661	115.88
657.865	109.88
658.068	110.88
658.272	102.88
658.476	107.88
658.68	98.88
658.883	97.88
659.087	95.88
659.291	92.88
659.494	100.88
659.698	105.88
659.901	101.88
660.105	100.88
660.309	94.88
660.512	99.88
660.716	103.88
660.919	97.88
661.123	112.88
661.326	87.88
661.53	86.88
661.733	87.88
661.936	99.88
662.14	88.88
662.343	81.88
662.546	78.88
662.75	72.88
662.953	67.88
663.156	81.88
663.36	83.88
663.563	91.88
663.766	80.88
663.969	69.88
664.173	81.88
664.376	72.88
664.579	92.88
664.782	84.88
664.985	81.88
665.188	83.88
665.391	87.88
665.594	93.88
665.797	93.88
666	89.88
666.203	85.88
666.406	73.88
666.609	85.88
666.812	73.88
667.015	77.88
667.218	69.88
667.421	78.88
667.624	86.88
667.827	88.88
668.03	82.88
668.232	69.88
668.435	80.88
668.638	85.88
668.841	100.88
669.043	84.88
669.246	93.88
669.449	73.88
669.651	84.88
669.854	90.88
670.057	94.88
670.259	70.88
670.462	86.88
670.665	76.88
670.867	75.88
671.07	74.88
671.272	92.88
671.475	88.88
671.677	78.88
671.88	97.88
672.082	89.88
672.284	85.88
672.487	84.88
672.689	73.88
672.892	89.88
