Data from 1964.PennyLincolnUp.Lamp.En5.5.200Scan.071719.P1._HRD10591_14-06-14-911.txt Node
Date: Thu Jul 18 14:06:14 EDT 2019
User: cochatt
Spectrometer: HR+D1059
Trigger mode: 1
Integration Time (sec): 1.000000E-1
Scans to average: 1
Electric dark correction enabled: true
Nonlinearity correction enabled: false
Boxcar width: 0
XAxis mode: Wavelengths
Number of Pixels in Spectrum: 2048
>>>>>Begin Spectral Data<<<<<
223.165	1.69
223.4	1.69
223.635	1.69
223.869	-12.31
224.104	-15.31
224.338	4.69
224.573	-12.31
224.808	-17.31
225.042	3.69
225.277	-11.31
225.511	-28.31
225.746	-4.31
225.98	-20.31
226.215	11.69
226.449	15.69
226.683	23.69
226.918	24.69
227.152	35.69
227.387	32.69
227.621	43.69
227.856	41.69
228.09	26.69
228.324	31.69
228.559	48.69
228.793	60.69
229.027	91.69
229.262	96.69
229.496	91.69
229.73	109.69
229.964	158.69
230.199	124.69
230.433	100.69
230.667	102.69
230.901	102.69
231.136	113.69
231.37	122.69
231.604	125.69
231.838	110.69
232.072	115.69
232.306	97.69
232.541	116.69
232.775	103.69
233.009	104.69
233.243	103.69
233.477	117.69
233.711	117.69
233.945	109.69
234.179	127.69
234.413	117.69
234.647	135.69
234.881	99.69
235.115	112.69
235.349	120.69
235.583	126.69
235.817	126.69
236.051	105.69
236.285	109.69
236.519	131.69
236.753	126.69
236.987	144.69
237.221	180.69
237.455	218.69
237.689	161.69
237.922	146.69
238.156	145.69
238.39	123.69
238.624	126.69
238.858	122.69
239.091	134.69
239.325	122.69
239.559	122.69
239.793	121.69
240.027	128.69
240.26	131.69
240.494	164.69
240.728	158.69
240.961	141.69
241.195	136.69
241.429	133.69
241.662	144.69
241.896	139.69
242.13	139.69
242.363	146.69
242.597	138.69
242.83	118.69
243.064	133.69
243.298	155.69
243.531	149.69
243.765	155.69
243.998	155.69
244.232	128.69
244.465	161.69
244.699	149.69
244.932	147.69
245.166	150.69
245.399	158.69
245.633	152.69
245.866	151.69
246.099	140.69
246.333	147.69
246.566	154.69
246.8	153.69
247.033	156.69
247.266	162.69
247.5	160.69
247.733	158.69
247.966	151.69
248.2	170.69
248.433	170.69
248.666	187.69
248.899	170.69
249.133	198.69
249.366	207.69
249.599	173.69
249.832	195.69
250.066	190.69
250.299	198.69
250.532	179.69
250.765	204.69
250.998	215.69
251.231	234.69
251.465	224.69
251.698	209.69
251.931	185.69
252.164	188.69
252.397	198.69
252.63	210.69
252.863	213.69
253.096	221.69
253.329	219.69
253.562	214.69
253.795	223.69
254.028	221.69
254.261	220.69
254.494	223.69
254.727	266.69
254.96	272.69
255.193	259.69
255.426	256.69
255.659	230.69
255.892	222.69
256.124	240.69
256.357	240.69
256.59	241.69
256.823	223.69
257.056	218.69
257.289	220.69
257.521	206.69
257.754	217.69
257.987	227.69
258.22	225.69
258.452	213.69
258.685	218.69
258.918	208.69
259.151	221.69
259.383	224.69
259.616	220.69
259.849	220.69
260.081	248.69
260.314	252.69
260.547	257.69
260.779	259.69
261.012	248.69
261.244	251.69
261.477	247.69
261.71	232.69
261.942	237.69
262.175	229.69
262.407	228.69
262.64	202.69
262.872	237.69
263.105	241.69
263.337	240.69
263.57	229.69
263.802	233.69
264.035	231.69
264.267	225.69
264.499	218.69
264.732	227.69
264.964	222.69
265.197	238.69
265.429	233.69
265.661	242.69
265.894	252.69
266.126	227.69
266.358	244.69
266.591	242.69
266.823	247.69
267.055	249.69
267.287	240.69
267.52	253.69
267.752	245.69
267.984	250.69
268.216	249.69
268.448	253.69
268.681	259.69
268.913	271.69
269.145	268.69
269.377	271.69
269.609	283.69
269.841	284.69
270.073	283.69
270.306	285.69
270.538	309.69
270.77	316.69
271.002	304.69
271.234	309.69
271.466	310.69
271.698	324.69
271.93	324.69
272.162	318.69
272.394	329.69
272.626	311.69
272.858	309.69
273.09	294.69
273.322	299.69
273.553	277.69
273.785	288.69
274.017	302.69
274.249	284.69
274.481	283.69
274.713	297.69
274.945	296.69
275.176	286.69
275.408	283.69
275.64	290.69
275.872	298.69
276.104	291.69
276.335	288.69
276.567	294.69
276.799	292.69
277.031	317.69
277.262	326.69
277.494	327.69
277.726	314.69
277.957	309.69
278.189	305.69
278.421	289.69
278.652	312.69
278.884	304.69
279.115	284.69
279.347	307.69
279.579	294.69
279.81	293.69
280.042	305.69
280.273	309.69
280.505	310.69
280.736	294.69
280.968	295.69
281.199	310.69
281.431	311.69
281.662	297.69
281.894	319.69
282.125	312.69
282.356	309.69
282.588	328.69
282.819	328.69
283.051	301.69
283.282	303.69
283.513	331.69
283.745	339.69
283.976	315.69
284.207	297.69
284.439	319.69
284.67	331.69
284.901	318.69
285.132	308.69
285.364	313.69
285.595	333.69
285.826	323.69
286.057	326.69
286.288	341.69
286.52	320.69
286.751	316.69
286.982	334.69
287.213	318.69
287.444	326.69
287.675	314.69
287.906	333.69
288.138	327.69
288.369	330.69
288.6	327.69
288.831	334.69
289.062	343.69
289.293	328.69
289.524	347.69
289.755	333.69
289.986	309.69
290.217	318.69
290.448	326.69
290.679	340.69
290.91	325.69
291.141	335.69
291.371	337.69
291.602	319.69
291.833	328.69
292.064	340.69
292.295	320.69
292.526	324.69
292.757	325.69
292.987	304.69
293.218	324.69
293.449	317.69
293.68	325.69
293.91	332.69
294.141	341.69
294.372	334.69
294.603	320.69
294.833	339.69
295.064	325.69
295.295	340.69
295.525	350.69
295.756	328.69
295.987	353.69
296.217	347.69
296.448	357.69
296.679	344.69
296.909	338.69
297.14	346.69
297.37	332.69
297.601	342.69
297.831	335.69
298.062	329.69
298.292	362.69
298.523	360.69
298.753	341.69
298.984	341.69
299.214	337.69
299.445	357.69
299.675	349.69
299.905	350.69
300.136	352.69
300.366	347.69
300.597	347.69
300.827	380.69
301.057	333.69
301.288	365.69
301.518	370.69
301.748	382.69
301.979	357.69
302.209	376.69
302.439	384.69
302.669	371.69
302.9	366.69
303.13	381.69
303.36	378.69
303.59	377.69
303.82	365.69
304.051	384.69
304.281	344.69
304.511	358.69
304.741	356.69
304.971	366.69
305.201	375.69
305.431	368.69
305.661	389.69
305.891	368.69
306.121	368.69
306.352	384.69
306.582	380.69
306.812	373.69
307.042	380.69
307.272	374.69
307.502	389.69
307.731	374.69
307.961	370.69
308.191	372.69
308.421	383.69
308.651	391.69
308.881	372.69
309.111	388.69
309.341	378.69
309.571	398.69
309.8	385.69
310.03	411.69
310.26	417.69
310.49	382.69
310.72	410.69
310.949	423.69
311.179	438.69
311.409	416.69
311.639	403.69
311.868	416.69
312.098	413.69
312.328	401.69
312.557	425.69
312.787	428.69
313.017	432.69
313.246	418.69
313.476	437.69
313.706	402.69
313.935	426.69
314.165	427.69
314.394	426.69
314.624	428.69
314.853	416.69
315.083	397.69
315.312	422.69
315.542	418.69
315.771	425.69
316.001	407.69
316.23	405.69
316.46	425.69
316.689	430.69
316.919	432.69
317.148	412.69
317.377	428.69
317.607	439.69
317.836	410.69
318.065	416.69
318.295	411.69
318.524	421.69
318.753	413.69
318.983	424.69
319.212	425.69
319.441	435.69
319.67	419.69
319.9	408.69
320.129	407.69
320.358	402.69
320.587	436.69
320.816	436.69
321.046	444.69
321.275	433.69
321.504	434.69
321.733	432.69
321.962	434.69
322.191	430.69
322.42	468.69
322.649	457.69
322.878	473.69
323.108	453.69
323.337	489.69
323.566	487.69
323.795	526.69
324.024	554.69
324.253	652.69
324.482	882.69
324.71	1260.69
324.939	1776.69
325.168	1506.69
325.397	808.69
325.626	593.69
325.855	522.69
326.084	506.69
326.313	493.69
326.542	494.69
326.77	544.69
326.999	637.69
327.228	814.69
327.457	1152.69
327.686	1297.69
327.914	912.69
328.143	633.69
328.372	566.69
328.6	566.69
328.829	538.69
329.058	516.69
329.287	561.69
329.515	524.69
329.744	516.69
329.972	531.69
330.201	550.69
330.43	554.69
330.658	573.69
330.887	589.69
331.115	557.69
331.344	532.69
331.572	518.69
331.801	520.69
332.03	522.69
332.258	493.69
332.486	473.69
332.715	491.69
332.943	490.69
333.172	516.69
333.4	498.69
333.629	506.69
333.857	530.69
334.085	557.69
334.314	565.69
334.542	586.69
334.771	574.69
334.999	532.69
335.227	525.69
335.455	503.69
335.684	499.69
335.912	512.69
336.14	492.69
336.369	518.69
336.597	529.69
336.825	503.69
337.053	475.69
337.281	491.69
337.51	483.69
337.738	475.69
337.966	473.69
338.194	466.69
338.422	458.69
338.65	481.69
338.878	471.69
339.106	445.69
339.334	480.69
339.562	482.69
339.79	454.69
340.018	471.69
340.246	463.69
340.474	460.69
340.702	467.69
340.93	460.69
341.158	461.69
341.386	441.69
341.614	481.69
341.842	471.69
342.07	467.69
342.298	445.69
342.526	467.69
342.754	445.69
342.981	451.69
343.209	453.69
343.437	442.69
343.665	466.69
343.893	467.69
344.12	474.69
344.348	482.69
344.576	493.69
344.804	460.69
345.031	476.69
345.259	482.69
345.487	436.69
345.714	446.69
345.942	444.69
346.17	450.69
346.397	450.69
346.625	422.69
346.853	434.69
347.08	432.69
347.308	425.69
347.535	450.69
347.763	432.69
347.99	445.69
348.218	454.69
348.445	438.69
348.673	421.69
348.9	447.69
349.128	442.69
349.355	413.69
349.583	438.69
349.81	429.69
350.037	424.69
350.265	430.69
350.492	419.69
350.72	414.69
350.947	424.69
351.174	438.69
351.402	453.69
351.629	430.69
351.856	425.69
352.083	442.69
352.311	436.69
352.538	440.69
352.765	439.69
352.992	424.69
353.22	438.69
353.447	432.69
353.674	433.69
353.901	415.69
354.128	406.69
354.355	412.69
354.583	382.69
354.81	404.69
355.037	395.69
355.264	405.69
355.491	405.69
355.718	417.69
355.945	382.69
356.172	401.69
356.399	420.69
356.626	405.69
356.853	431.69
357.08	401.69
357.307	402.69
357.534	427.69
357.761	406.69
357.988	413.69
358.215	423.69
358.441	406.69
358.668	416.69
358.895	406.69
359.122	432.69
359.349	414.69
359.576	442.69
359.802	430.69
360.029	458.69
360.256	456.69
360.483	441.69
360.709	433.69
360.936	416.69
361.163	430.69
361.39	433.69
361.616	418.69
361.843	434.69
362.07	424.69
362.296	427.69
362.523	410.69
362.749	434.69
362.976	420.69
363.203	424.69
363.429	409.69
363.656	404.69
363.882	397.69
364.109	408.69
364.335	399.69
364.562	402.69
364.788	405.69
365.015	433.69
365.241	429.69
365.468	406.69
365.694	391.69
365.92	422.69
366.147	438.69
366.373	402.69
366.599	408.69
366.826	397.69
367.052	403.69
367.278	414.69
367.505	394.69
367.731	413.69
367.957	406.69
368.184	416.69
368.41	401.69
368.636	405.69
368.862	407.69
369.089	401.69
369.315	408.69
369.541	416.69
369.767	424.69
369.993	404.69
370.219	407.69
370.445	392.69
370.672	396.69
370.898	418.69
371.124	415.69
371.35	406.69
371.576	404.69
371.802	409.69
372.028	417.69
372.254	411.69
372.48	377.69
372.706	397.69
372.932	401.69
373.158	412.69
373.384	403.69
373.61	406.69
373.835	404.69
374.061	425.69
374.287	398.69
374.513	413.69
374.739	406.69
374.965	448.69
375.191	438.69
375.416	417.69
375.642	427.69
375.868	424.69
376.094	405.69
376.319	406.69
376.545	407.69
376.771	417.69
376.997	411.69
377.222	417.69
377.448	386.69
377.674	377.69
377.899	396.69
378.125	394.69
378.35	405.69
378.576	391.69
378.802	405.69
379.027	392.69
379.253	394.69
379.478	401.69
379.704	392.69
379.929	394.69
380.155	381.69
380.38	377.69
380.606	398.69
380.831	399.69
381.057	376.69
381.282	388.69
381.507	417.69
381.733	407.69
381.958	398.69
382.184	405.69
382.409	400.69
382.634	438.69
382.86	392.69
383.085	412.69
383.31	416.69
383.535	404.69
383.761	399.69
383.986	418.69
384.211	409.69
384.436	411.69
384.662	420.69
384.887	421.69
385.112	434.69
385.337	436.69
385.562	417.69
385.787	425.69
386.013	433.69
386.238	448.69
386.463	437.69
386.688	441.69
386.913	426.69
387.138	416.69
387.363	453.69
387.588	416.69
387.813	444.69
388.038	434.69
388.263	423.69
388.488	430.69
388.713	416.69
388.938	458.69
389.163	440.69
389.387	446.69
389.612	427.69
389.837	438.69
390.062	430.69
390.287	436.69
390.512	432.69
390.736	422.69
390.961	448.69
391.186	422.69
391.411	440.69
391.636	466.69
391.86	456.69
392.085	452.69
392.31	476.69
392.534	444.69
392.759	437.69
392.984	433.69
393.208	452.69
393.433	436.69
393.658	473.69
393.882	436.69
394.107	434.69
394.331	460.69
394.556	446.69
394.78	432.69
395.005	442.69
395.229	450.69
395.454	453.69
395.678	440.69
395.903	460.69
396.127	490.69
396.352	462.69
396.576	460.69
396.801	465.69
397.025	458.69
397.249	433.69
397.474	460.69
397.698	456.69
397.922	471.69
398.147	470.69
398.371	507.69
398.595	496.69
398.82	497.69
399.044	481.69
399.268	524.69
399.492	562.69
399.717	599.69
399.941	620.69
400.165	610.69
400.389	603.69
400.613	555.69
400.837	525.69
401.062	530.69
401.286	496.69
401.51	513.69
401.734	490.69
401.958	506.69
402.182	516.69
402.406	491.69
402.63	500.69
402.854	511.69
403.078	487.69
403.302	511.69
403.526	527.69
403.75	514.69
403.974	520.69
404.198	514.69
404.422	527.69
404.645	522.69
404.869	548.69
405.093	533.69
405.317	590.69
405.541	618.69
405.765	571.69
405.988	544.69
406.212	547.69
406.436	558.69
406.66	538.69
406.883	542.69
407.107	576.69
407.331	589.69
407.555	672.69
407.778	660.69
408.002	609.69
408.226	580.69
408.449	567.69
408.673	562.69
408.896	589.69
409.12	577.69
409.344	577.69
409.567	510.69
409.791	525.69
410.014	522.69
410.238	500.69
410.461	522.69
410.685	529.69
410.908	524.69
411.132	564.69
411.355	582.69
411.578	533.69
411.802	521.69
412.025	486.69
412.249	516.69
412.472	530.69
412.695	538.69
412.919	573.69
413.142	501.69
413.365	518.69
413.589	501.69
413.812	471.69
414.035	472.69
414.258	480.69
414.482	466.69
414.705	464.69
414.928	480.69
415.151	484.69
415.374	490.69
415.597	497.69
415.821	454.69
416.044	480.69
416.267	493.69
416.49	482.69
416.713	466.69
416.936	483.69
417.159	478.69
417.382	474.69
417.605	485.69
417.828	498.69
418.051	487.69
418.274	478.69
418.497	465.69
418.72	463.69
418.943	467.69
419.166	470.69
419.389	497.69
419.611	513.69
419.834	484.69
420.057	481.69
420.28	507.69
420.503	474.69
420.726	492.69
420.948	505.69
421.171	527.69
421.394	549.69
421.617	512.69
421.839	491.69
422.062	503.69
422.285	503.69
422.507	545.69
422.73	596.69
422.953	560.69
423.175	520.69
423.398	499.69
423.621	516.69
423.843	522.69
424.066	508.69
424.288	512.69
424.511	534.69
424.733	585.69
424.956	645.69
425.178	592.69
425.401	616.69
425.623	601.69
425.846	537.69
426.068	496.69
426.291	488.69
426.513	498.69
426.735	507.69
426.958	532.69
427.18	591.69
427.402	685.69
427.625	761.69
427.847	642.69
428.069	587.69
428.292	547.69
428.514	476.69
428.736	471.69
428.958	477.69
429.181	452.69
429.403	469.69
429.625	485.69
429.847	492.69
430.069	554.69
430.292	547.69
430.514	500.69
430.736	458.69
430.958	463.69
431.18	456.69
431.402	450.69
431.624	460.69
431.846	448.69
432.068	462.69
432.29	453.69
432.512	444.69
432.734	443.69
432.956	450.69
433.178	460.69
433.4	468.69
433.622	472.69
433.844	467.69
434.066	432.69
434.287	441.69
434.509	463.69
434.731	453.69
434.953	460.69
435.175	476.69
435.397	508.69
435.618	513.69
435.84	533.69
436.062	598.69
436.284	646.69
436.505	551.69
436.727	502.69
436.949	486.69
437.17	474.69
437.392	446.69
437.614	473.69
437.835	508.69
438.057	547.69
438.278	652.69
438.5	655.69
438.721	724.69
438.943	681.69
439.165	556.69
439.386	483.69
439.608	491.69
439.829	512.69
440.05	526.69
440.272	558.69
440.493	489.69
440.715	483.69
440.936	462.69
441.158	474.69
441.379	459.69
441.6	508.69
441.822	486.69
442.043	553.69
442.264	605.69
442.486	617.69
442.707	545.69
442.928	500.69
443.149	492.69
443.371	513.69
443.592	556.69
443.813	640.69
444.034	683.69
444.255	585.69
444.476	542.69
444.698	498.69
444.919	538.69
445.14	609.69
445.361	553.69
445.582	529.69
445.803	577.69
446.024	660.69
446.245	660.69
446.466	587.69
446.687	511.69
446.908	497.69
447.129	469.69
447.35	476.69
447.571	477.69
447.792	458.69
448.013	468.69
448.234	462.69
448.455	530.69
448.675	616.69
448.896	689.69
449.117	573.69
449.338	544.69
449.559	644.69
449.779	716.69
450	593.69
450.221	472.69
450.442	471.69
450.662	433.69
450.883	432.69
451.104	451.69
451.324	440.69
451.545	427.69
451.766	416.69
451.986	428.69
452.207	418.69
452.428	398.69
452.648	409.69
452.869	412.69
453.089	421.69
453.31	409.69
453.53	409.69
453.751	390.69
453.971	404.69
454.192	402.69
454.412	395.69
454.633	390.69
454.853	424.69
455.073	413.69
455.294	421.69
455.514	479.69
455.734	467.69
455.955	409.69
456.175	382.69
456.395	402.69
456.616	392.69
456.836	406.69
457.056	396.69
457.276	370.69
457.497	380.69
457.717	373.69
457.937	406.69
458.157	389.69
458.377	387.69
458.598	413.69
458.818	465.69
459.038	492.69
459.258	523.69
459.478	474.69
459.698	445.69
459.918	435.69
460.138	434.69
460.358	445.69
460.578	453.69
460.798	461.69
461.018	476.69
461.238	462.69
461.458	461.69
461.678	437.69
461.898	451.69
462.118	448.69
462.338	471.69
462.558	491.69
462.777	478.69
462.997	494.69
463.217	508.69
463.437	520.69
463.657	498.69
463.876	508.69
464.096	489.69
464.316	474.69
464.536	501.69
464.755	470.69
464.975	472.69
465.195	500.69
465.414	534.69
465.634	481.69
465.854	452.69
466.073	440.69
466.293	441.69
466.512	420.69
466.732	407.69
466.951	436.69
467.171	434.69
467.391	426.69
467.61	418.69
467.829	410.69
468.049	426.69
468.268	420.69
468.488	402.69
468.707	421.69
468.927	394.69
469.146	410.69
469.365	409.69
469.585	417.69
469.804	415.69
470.023	416.69
470.243	414.69
470.462	429.69
470.681	439.69
470.901	418.69
471.12	444.69
471.339	457.69
471.558	443.69
471.777	454.69
471.997	425.69
472.216	424.69
472.435	454.69
472.654	434.69
472.873	427.69
473.092	419.69
473.311	402.69
473.53	432.69
473.749	442.69
473.968	456.69
474.187	534.69
474.406	577.69
474.625	461.69
474.844	425.69
475.063	417.69
475.282	428.69
475.501	426.69
475.72	451.69
475.939	432.69
476.158	452.69
476.377	442.69
476.596	437.69
476.814	437.69
477.033	434.69
477.252	453.69
477.471	449.69
477.69	443.69
477.908	461.69
478.127	463.69
478.346	464.69
478.564	465.69
478.783	471.69
479.002	484.69
479.22	470.69
479.439	489.69
479.658	479.69
479.876	509.69
480.095	526.69
480.313	532.69
480.532	525.69
480.751	538.69
480.969	534.69
481.188	550.69
481.406	562.69
481.624	524.69
481.843	488.69
482.061	500.69
482.28	496.69
482.498	499.69
482.717	494.69
482.935	465.69
483.153	487.69
483.372	505.69
483.59	467.69
483.808	493.69
484.027	479.69
484.245	466.69
484.463	483.69
484.681	497.69
484.9	492.69
485.118	508.69
485.336	493.69
485.554	508.69
485.772	486.69
485.99	510.69
486.209	516.69
486.427	504.69
486.645	513.69
486.863	521.69
487.081	527.69
487.299	528.69
487.517	515.69
487.735	507.69
487.953	526.69
488.171	519.69
488.389	538.69
488.607	516.69
488.825	529.69
489.043	525.69
489.261	517.69
489.479	533.69
489.696	525.69
489.914	537.69
490.132	543.69
490.35	538.69
490.568	524.69
490.786	540.69
491.003	548.69
491.221	569.69
491.439	578.69
491.657	564.69
491.874	549.69
492.092	565.69
492.31	578.69
492.527	581.69
492.745	610.69
492.963	591.69
493.18	585.69
493.398	587.69
493.615	599.69
493.833	596.69
494.05	581.69
494.268	622.69
494.485	599.69
494.703	604.69
494.92	594.69
495.138	602.69
495.355	591.69
495.573	612.69
495.79	616.69
496.008	599.69
496.225	600.69
496.442	594.69
496.66	590.69
496.877	626.69
497.094	641.69
497.312	634.69
497.529	658.69
497.746	620.69
497.963	668.69
498.181	655.69
498.398	669.69
498.615	714.69
498.832	702.69
499.049	727.69
499.267	746.69
499.484	766.69
499.701	808.69
499.918	850.69
500.135	863.69
500.352	925.69
500.569	925.69
500.786	944.69
501.003	925.69
501.22	894.69
501.437	837.69
501.654	824.69
501.871	800.69
502.088	740.69
502.305	753.69
502.522	704.69
502.739	687.69
502.956	673.69
503.172	645.69
503.389	651.69
503.606	647.69
503.823	640.69
504.04	632.69
504.256	627.69
504.473	596.69
504.69	614.69
504.907	625.69
505.123	595.69
505.34	590.69
505.557	585.69
505.773	569.69
505.99	556.69
506.207	587.69
506.423	590.69
506.64	580.69
506.856	561.69
507.073	564.69
507.289	552.69
507.506	553.69
507.722	555.69
507.939	566.69
508.155	534.69
508.372	562.69
508.588	536.69
508.805	547.69
509.021	533.69
509.238	556.69
509.454	544.69
509.67	527.69
509.887	555.69
510.103	521.69
510.319	524.69
510.536	581.69
510.752	817.69
510.968	690.69
511.184	538.69
511.401	525.69
511.617	521.69
511.833	501.69
512.049	522.69
512.265	508.69
512.481	518.69
512.698	528.69
512.914	481.69
513.13	489.69
513.346	499.69
513.562	498.69
513.778	477.69
513.994	497.69
514.21	502.69
514.426	531.69
514.642	537.69
514.858	534.69
515.074	592.69
515.29	627.69
515.506	807.69
515.721	690.69
515.937	560.69
516.153	533.69
516.369	525.69
516.585	535.69
516.801	532.69
517.016	551.69
517.232	529.69
517.448	545.69
517.664	536.69
517.879	537.69
518.095	523.69
518.311	542.69
518.527	509.69
518.742	535.69
518.958	519.69
519.173	502.69
519.389	517.69
519.605	500.69
519.82	504.69
520.036	539.69
520.251	525.69
520.467	524.69
520.682	551.69
520.898	537.69
521.113	526.69
521.329	552.69
521.544	579.69
521.76	662.69
521.975	975.69
522.19	962.69
522.406	647.69
522.621	514.69
522.836	483.69
523.052	471.69
523.267	454.69
523.482	468.69
523.698	450.69
523.913	462.69
524.128	442.69
524.343	452.69
524.559	430.69
524.774	443.69
524.989	453.69
525.204	448.69
525.419	440.69
525.634	440.69
525.849	430.69
526.064	416.69
526.28	437.69
526.495	432.69
526.71	421.69
526.925	432.69
527.14	413.69
527.355	416.69
527.57	402.69
527.785	442.69
527.999	400.69
528.214	433.69
528.429	425.69
528.644	415.69
528.859	420.69
529.074	416.69
529.289	425.69
529.503	460.69
529.718	454.69
529.933	434.69
530.148	437.69
530.363	435.69
530.577	421.69
530.792	410.69
531.007	426.69
531.221	425.69
531.436	416.69
531.651	407.69
531.865	392.69
532.08	424.69
532.295	401.69
532.509	414.69
532.724	418.69
532.938	405.69
533.153	412.69
533.367	381.69
533.582	412.69
533.796	409.69
534.011	412.69
534.225	420.69
534.44	408.69
534.654	418.69
534.868	389.69
535.083	403.69
535.297	409.69
535.511	403.69
535.726	411.69
535.94	407.69
536.154	419.69
536.369	404.69
536.583	391.69
536.797	405.69
537.011	394.69
537.225	401.69
537.44	372.69
537.654	353.69
537.868	391.69
538.082	384.69
538.296	386.69
538.51	401.69
538.724	403.69
538.938	406.69
539.153	397.69
539.367	403.69
539.581	402.69
539.795	397.69
540.009	384.69
540.222	378.69
540.436	390.69
540.65	395.69
540.864	394.69
541.078	417.69
541.292	411.69
541.506	406.69
541.72	389.69
541.934	386.69
542.147	404.69
542.361	385.69
542.575	384.69
542.789	363.69
543.002	404.69
543.216	396.69
543.43	384.69
543.644	376.69
543.857	389.69
544.071	379.69
544.285	392.69
544.498	392.69
544.712	382.69
544.925	386.69
545.139	381.69
545.352	407.69
545.566	378.69
545.779	386.69
545.993	393.69
546.206	390.69
546.42	380.69
546.633	387.69
546.847	368.69
547.06	381.69
547.274	376.69
547.487	377.69
547.7	394.69
547.914	384.69
548.127	369.69
548.34	372.69
548.554	358.69
548.767	373.69
548.98	394.69
549.193	370.69
549.407	381.69
549.62	376.69
549.833	365.69
550.046	363.69
550.259	381.69
550.473	357.69
550.686	358.69
550.899	370.69
551.112	354.69
551.325	362.69
551.538	375.69
551.751	357.69
551.964	376.69
552.177	365.69
552.39	357.69
552.603	372.69
552.816	368.69
553.029	377.69
553.242	386.69
553.455	389.69
553.667	391.69
553.88	389.69
554.093	387.69
554.306	369.69
554.519	376.69
554.732	380.69
554.944	364.69
555.157	353.69
555.37	352.69
555.583	381.69
555.795	366.69
556.008	354.69
556.221	361.69
556.433	331.69
556.646	347.69
556.859	346.69
557.071	341.69
557.284	353.69
557.496	352.69
557.709	329.69
557.921	333.69
558.134	352.69
558.346	348.69
558.559	338.69
558.771	344.69
558.984	337.69
559.196	336.69
559.409	324.69
559.621	345.69
559.833	343.69
560.046	343.69
560.258	338.69
560.47	342.69
560.683	336.69
560.895	337.69
561.107	325.69
561.32	322.69
561.532	319.69
561.744	328.69
561.956	334.69
562.168	331.69
562.381	336.69
562.593	336.69
562.805	332.69
563.017	344.69
563.229	337.69
563.441	352.69
563.653	353.69
563.865	337.69
564.077	341.69
564.289	330.69
564.501	335.69
564.713	348.69
564.925	362.69
565.137	361.69
565.349	355.69
565.561	366.69
565.773	387.69
565.985	390.69
566.197	384.69
566.408	395.69
566.62	416.69
566.832	438.69
567.044	438.69
567.255	397.69
567.467	443.69
567.679	452.69
567.891	436.69
568.102	424.69
568.314	422.69
568.526	423.69
568.737	423.69
568.949	375.69
569.161	357.69
569.372	354.69
569.584	356.69
569.795	349.69
570.007	352.69
570.218	361.69
570.43	341.69
570.641	337.69
570.853	323.69
571.064	319.69
571.276	332.69
571.487	318.69
571.698	317.69
571.91	305.69
572.121	293.69
572.333	328.69
572.544	317.69
572.755	304.69
572.966	287.69
573.178	290.69
573.389	304.69
573.6	308.69
573.811	273.69
574.023	294.69
574.234	278.69
574.445	308.69
574.656	292.69
574.867	285.69
575.078	275.69
575.289	298.69
575.501	273.69
575.712	300.69
575.923	284.69
576.134	281.69
576.345	276.69
576.556	292.69
576.767	287.69
576.978	274.69
577.188	290.69
577.399	269.69
577.61	272.69
577.821	290.69
578.032	268.69
578.243	297.69
578.454	378.69
578.665	316.69
578.875	276.69
579.086	266.69
579.297	260.69
579.508	258.69
579.718	289.69
579.929	272.69
580.14	253.69
580.35	262.69
580.561	261.69
580.772	276.69
580.982	262.69
581.193	264.69
581.403	262.69
581.614	272.69
581.825	276.69
582.035	251.69
582.246	269.69
582.456	267.69
582.667	266.69
582.877	247.69
583.087	281.69
583.298	261.69
583.508	254.69
583.719	263.69
583.929	235.69
584.139	254.69
584.35	252.69
584.56	262.69
584.77	265.69
584.981	265.69
585.191	259.69
585.401	259.69
585.611	266.69
585.821	252.69
586.032	257.69
586.242	255.69
586.452	244.69
586.662	262.69
586.872	260.69
587.082	254.69
587.292	234.69
587.502	271.69
587.713	254.69
587.923	275.69
588.133	238.69
588.343	256.69
588.553	248.69
588.762	267.69
588.972	262.69
589.182	265.69
589.392	274.69
589.602	253.69
589.812	247.69
590.022	269.69
590.232	262.69
590.441	246.69
590.651	251.69
590.861	265.69
591.071	246.69
591.281	237.69
591.49	254.69
591.7	262.69
591.91	254.69
592.119	257.69
592.329	273.69
592.539	274.69
592.748	283.69
592.958	275.69
593.167	271.69
593.377	284.69
593.587	279.69
593.796	292.69
594.006	290.69
594.215	266.69
594.424	297.69
594.634	263.69
594.843	288.69
595.053	265.69
595.262	275.69
595.472	258.69
595.681	254.69
595.89	264.69
596.1	250.69
596.309	247.69
596.518	257.69
596.727	259.69
596.937	248.69
597.146	241.69
597.355	249.69
597.564	242.69
597.774	232.69
597.983	228.69
598.192	240.69
598.401	243.69
598.61	228.69
598.819	219.69
599.028	223.69
599.237	237.69
599.446	224.69
599.655	230.69
599.864	235.69
600.073	221.69
600.282	249.69
600.491	221.69
600.7	217.69
600.909	221.69
601.118	201.69
601.327	222.69
601.536	229.69
601.745	251.69
601.953	240.69
602.162	243.69
602.371	213.69
602.58	216.69
602.789	228.69
602.997	208.69
603.206	208.69
603.415	222.69
603.623	227.69
603.832	222.69
604.041	238.69
604.249	217.69
604.458	218.69
604.666	217.69
604.875	215.69
605.084	213.69
605.292	218.69
605.501	211.69
605.709	200.69
605.918	215.69
606.126	225.69
606.334	218.69
606.543	211.69
606.751	197.69
606.96	206.69
607.168	209.69
607.376	208.69
607.585	206.69
607.793	206.69
608.001	220.69
608.21	200.69
608.418	212.69
608.626	200.69
608.834	206.69
609.043	221.69
609.251	190.69
609.459	203.69
609.667	204.69
609.875	199.69
610.083	217.69
610.291	217.69
610.499	210.69
610.707	229.69
610.916	205.69
611.124	201.69
611.332	206.69
611.54	212.69
611.748	226.69
611.955	202.69
612.163	200.69
612.371	210.69
612.579	208.69
612.787	205.69
612.995	200.69
613.203	210.69
613.411	206.69
613.618	217.69
613.826	207.69
614.034	211.69
614.242	206.69
614.449	204.69
614.657	206.69
614.865	199.69
615.072	218.69
615.28	200.69
615.488	198.69
615.695	192.69
615.903	200.69
616.111	209.69
616.318	219.69
616.526	200.69
616.733	203.69
616.941	214.69
617.148	208.69
617.356	217.69
617.563	208.69
617.771	215.69
617.978	205.69
618.185	206.69
618.393	196.69
618.6	203.69
618.807	199.69
619.015	196.69
619.222	196.69
619.429	204.69
619.637	209.69
619.844	204.69
620.051	197.69
620.258	196.69
620.466	189.69
620.673	178.69
620.88	194.69
621.087	191.69
621.294	189.69
621.501	188.69
621.708	187.69
621.915	197.69
622.122	187.69
622.329	186.69
622.536	179.69
622.743	180.69
622.95	179.69
623.157	196.69
623.364	193.69
623.571	205.69
623.778	208.69
623.985	181.69
624.192	192.69
624.399	189.69
624.606	189.69
624.812	201.69
625.019	191.69
625.226	181.69
625.433	190.69
625.639	186.69
625.846	173.69
626.053	197.69
626.259	191.69
626.466	190.69
626.673	188.69
626.879	174.69
627.086	166.69
627.293	178.69
627.499	188.69
627.706	184.69
627.912	178.69
628.119	174.69
628.325	170.69
628.532	182.69
628.738	154.69
628.945	179.69
629.151	166.69
629.357	159.69
629.564	187.69
629.77	164.69
629.976	171.69
630.183	186.69
630.389	168.69
630.595	162.69
630.802	176.69
631.008	178.69
631.214	179.69
631.42	177.69
631.627	189.69
631.833	165.69
632.039	171.69
632.245	170.69
632.451	162.69
632.657	157.69
632.863	158.69
633.069	176.69
633.275	165.69
633.481	173.69
633.688	153.69
633.893	149.69
634.099	169.69
634.305	165.69
634.511	167.69
634.717	156.69
634.923	147.69
635.129	184.69
635.335	164.69
635.541	172.69
635.747	161.69
635.952	159.69
636.158	168.69
636.364	168.69
636.57	166.69
636.775	161.69
636.981	159.69
637.187	170.69
637.392	154.69
637.598	157.69
637.804	160.69
638.009	152.69
638.215	168.69
638.421	146.69
638.626	150.69
638.832	153.69
639.037	152.69
639.243	142.69
639.448	153.69
639.654	144.69
639.859	146.69
640.065	154.69
640.27	150.69
640.475	148.69
640.681	157.69
640.886	173.69
641.091	160.69
641.297	146.69
641.502	142.69
641.707	147.69
641.913	158.69
642.118	155.69
642.323	142.69
642.528	157.69
642.733	144.69
642.939	160.69
643.144	160.69
643.349	154.69
643.554	141.69
643.759	152.69
643.964	154.69
644.169	159.69
644.374	148.69
644.579	147.69
644.784	138.69
644.989	146.69
645.194	142.69
645.399	154.69
645.604	147.69
645.809	146.69
646.014	148.69
646.219	156.69
646.423	162.69
646.628	146.69
646.833	143.69
647.038	155.69
647.243	156.69
647.447	160.69
647.652	151.69
647.857	143.69
648.062	141.69
648.266	158.69
648.471	155.69
648.676	169.69
648.88	172.69
649.085	167.69
649.289	164.69
649.494	143.69
649.698	176.69
649.903	152.69
650.107	153.69
650.312	151.69
650.516	147.69
650.721	143.69
650.925	147.69
651.13	149.69
651.334	135.69
651.539	144.69
651.743	149.69
651.947	144.69
652.152	131.69
652.356	131.69
652.56	127.69
652.764	147.69
652.969	140.69
653.173	125.69
653.377	128.69
653.581	134.69
653.785	135.69
653.99	140.69
654.194	142.69
654.398	132.69
654.602	133.69
654.806	126.69
655.01	136.69
655.214	141.69
655.418	119.69
655.622	138.69
655.826	125.69
656.03	129.69
656.234	138.69
656.438	129.69
656.642	130.69
656.846	136.69
657.049	125.69
657.253	113.69
657.457	128.69
657.661	103.69
657.865	102.69
658.068	107.69
658.272	103.69
658.476	120.69
658.68	107.69
658.883	96.69
659.087	88.69
659.291	96.69
659.494	105.69
659.698	105.69
659.901	96.69
660.105	91.69
660.309	101.69
660.512	86.69
660.716	98.69
660.919	85.69
661.123	91.69
661.326	84.69
661.53	90.69
661.733	82.69
661.936	77.69
662.14	90.69
662.343	86.69
662.546	92.69
662.75	85.69
662.953	78.69
663.156	78.69
663.36	94.69
663.563	72.69
663.766	73.69
663.969	99.69
664.173	109.69
664.376	76.69
664.579	83.69
664.782	93.69
664.985	84.69
665.188	74.69
665.391	76.69
665.594	80.69
665.797	90.69
666	82.69
666.203	78.69
666.406	94.69
666.609	72.69
666.812	74.69
667.015	91.69
667.218	76.69
667.421	87.69
667.624	88.69
667.827	83.69
668.03	98.69
668.232	90.69
668.435	72.69
668.638	76.69
668.841	86.69
669.043	96.69
669.246	69.69
669.449	76.69
669.651	92.69
669.854	76.69
670.057	82.69
670.259	89.69
670.462	83.69
670.665	78.69
670.867	89.69
671.07	90.69
671.272	81.69
671.475	93.69
671.677	73.69
671.88	78.69
672.082	83.69
672.284	82.69
672.487	93.69
672.689	83.69
672.892	98.69
