Data from 1964.PennyLincolnUp.Lamp.En5.5.200Scan.071719.P1._HRD10591_14-06-12-909.txt Node
Date: Thu Jul 18 14:06:12 EDT 2019
User: cochatt
Spectrometer: HR+D1059
Trigger mode: 1
Integration Time (sec): 1.000000E-1
Scans to average: 1
Electric dark correction enabled: true
Nonlinearity correction enabled: false
Boxcar width: 0
XAxis mode: Wavelengths
Number of Pixels in Spectrum: 2048
>>>>>Begin Spectral Data<<<<<
223.165	-16.62
223.4	-16.62
223.635	-16.62
223.869	-19.62
224.104	-11.62
224.338	-7.62
224.573	-11.62
224.808	-21.62
225.042	-4.62
225.277	-5.62
225.511	7.38
225.746	11.38
225.98	7.38
226.215	13.38
226.449	-9.62
226.683	11.38
226.918	24.38
227.152	33.38
227.387	42.38
227.621	48.38
227.856	54.38
228.09	40.38
228.324	40.38
228.559	62.38
228.793	68.38
229.027	86.38
229.262	102.38
229.496	100.38
229.73	123.38
229.964	130.38
230.199	118.38
230.433	115.38
230.667	111.38
230.901	107.38
231.136	114.38
231.37	114.38
231.604	91.38
231.838	105.38
232.072	115.38
232.306	111.38
232.541	116.38
232.775	126.38
233.009	112.38
233.243	116.38
233.477	109.38
233.711	110.38
233.945	118.38
234.179	108.38
234.413	117.38
234.647	114.38
234.881	114.38
235.115	119.38
235.349	111.38
235.583	124.38
235.817	113.38
236.051	117.38
236.285	126.38
236.519	124.38
236.753	131.38
236.987	126.38
237.221	159.38
237.455	197.38
237.689	168.38
237.922	137.38
238.156	128.38
238.39	125.38
238.624	134.38
238.858	110.38
239.091	118.38
239.325	120.38
239.559	122.38
239.793	142.38
240.027	127.38
240.26	152.38
240.494	152.38
240.728	136.38
240.961	138.38
241.195	150.38
241.429	143.38
241.662	148.38
241.896	129.38
242.13	142.38
242.363	138.38
242.597	142.38
242.83	148.38
243.064	130.38
243.298	131.38
243.531	144.38
243.765	146.38
243.998	140.38
244.232	138.38
244.465	150.38
244.699	145.38
244.932	144.38
245.166	145.38
245.399	152.38
245.633	152.38
245.866	152.38
246.099	149.38
246.333	143.38
246.566	172.38
246.8	152.38
247.033	158.38
247.266	148.38
247.5	154.38
247.733	168.38
247.966	156.38
248.2	166.38
248.433	178.38
248.666	169.38
248.899	180.38
249.133	201.38
249.366	208.38
249.599	203.38
249.832	194.38
250.066	191.38
250.299	178.38
250.532	202.38
250.765	201.38
250.998	217.38
251.231	218.38
251.465	224.38
251.698	199.38
251.931	199.38
252.164	175.38
252.397	200.38
252.63	198.38
252.863	200.38
253.096	208.38
253.329	222.38
253.562	216.38
253.795	218.38
254.028	212.38
254.261	215.38
254.494	228.38
254.727	238.38
254.96	268.38
255.193	267.38
255.426	259.38
255.659	216.38
255.892	223.38
256.124	232.38
256.357	243.38
256.59	231.38
256.823	213.38
257.056	211.38
257.289	204.38
257.521	214.38
257.754	204.38
257.987	211.38
258.22	200.38
258.452	203.38
258.685	218.38
258.918	214.38
259.151	205.38
259.383	218.38
259.616	219.38
259.849	230.38
260.081	233.38
260.314	242.38
260.547	250.38
260.779	239.38
261.012	235.38
261.244	224.38
261.477	221.38
261.71	221.38
261.942	240.38
262.175	244.38
262.407	230.38
262.64	212.38
262.872	205.38
263.105	225.38
263.337	236.38
263.57	217.38
263.802	226.38
264.035	223.38
264.267	229.38
264.499	207.38
264.732	223.38
264.964	219.38
265.197	216.38
265.429	224.38
265.661	234.38
265.894	222.38
266.126	228.38
266.358	221.38
266.591	237.38
266.823	229.38
267.055	224.38
267.287	243.38
267.52	238.38
267.752	246.38
267.984	250.38
268.216	246.38
268.448	255.38
268.681	244.38
268.913	253.38
269.145	276.38
269.377	293.38
269.609	274.38
269.841	296.38
270.073	278.38
270.306	284.38
270.538	316.38
270.77	322.38
271.002	291.38
271.234	286.38
271.466	301.38
271.698	313.38
271.93	307.38
272.162	322.38
272.394	316.38
272.626	310.38
272.858	290.38
273.09	302.38
273.322	279.38
273.553	290.38
273.785	302.38
274.017	291.38
274.249	287.38
274.481	263.38
274.713	291.38
274.945	293.38
275.176	280.38
275.408	283.38
275.64	255.38
275.872	283.38
276.104	298.38
276.335	284.38
276.567	291.38
276.799	290.38
277.031	331.38
277.262	318.38
277.494	319.38
277.726	316.38
277.957	307.38
278.189	297.38
278.421	302.38
278.652	306.38
278.884	289.38
279.115	281.38
279.347	297.38
279.579	300.38
279.81	282.38
280.042	301.38
280.273	279.38
280.505	292.38
280.736	301.38
280.968	288.38
281.199	288.38
281.431	294.38
281.662	284.38
281.894	293.38
282.125	282.38
282.356	312.38
282.588	310.38
282.819	332.38
283.051	302.38
283.282	278.38
283.513	293.38
283.745	285.38
283.976	312.38
284.207	315.38
284.439	306.38
284.67	334.38
284.901	311.38
285.132	324.38
285.364	301.38
285.595	308.38
285.826	324.38
286.057	312.38
286.288	310.38
286.52	310.38
286.751	299.38
286.982	310.38
287.213	306.38
287.444	319.38
287.675	317.38
287.906	337.38
288.138	320.38
288.369	326.38
288.6	321.38
288.831	314.38
289.062	331.38
289.293	314.38
289.524	326.38
289.755	316.38
289.986	310.38
290.217	318.38
290.448	321.38
290.679	337.38
290.91	310.38
291.141	311.38
291.371	323.38
291.602	315.38
291.833	299.38
292.064	316.38
292.295	318.38
292.526	318.38
292.757	327.38
292.987	328.38
293.218	343.38
293.449	330.38
293.68	325.38
293.91	340.38
294.141	315.38
294.372	323.38
294.603	332.38
294.833	333.38
295.064	338.38
295.295	324.38
295.525	335.38
295.756	332.38
295.987	332.38
296.217	361.38
296.448	353.38
296.679	351.38
296.909	330.38
297.14	326.38
297.37	337.38
297.601	333.38
297.831	350.38
298.062	329.38
298.292	324.38
298.523	334.38
298.753	334.38
298.984	329.38
299.214	354.38
299.445	340.38
299.675	349.38
299.905	358.38
300.136	331.38
300.366	348.38
300.597	354.38
300.827	349.38
301.057	351.38
301.288	372.38
301.518	364.38
301.748	350.38
301.979	367.38
302.209	383.38
302.439	358.38
302.669	349.38
302.9	367.38
303.13	360.38
303.36	365.38
303.59	347.38
303.82	353.38
304.051	366.38
304.281	359.38
304.511	372.38
304.741	380.38
304.971	366.38
305.201	370.38
305.431	352.38
305.661	363.38
305.891	363.38
306.121	349.38
306.352	364.38
306.582	359.38
306.812	359.38
307.042	359.38
307.272	366.38
307.502	382.38
307.731	375.38
307.961	349.38
308.191	357.38
308.421	381.38
308.651	348.38
308.881	376.38
309.111	380.38
309.341	375.38
309.571	386.38
309.8	370.38
310.03	381.38
310.26	379.38
310.49	400.38
310.72	397.38
310.949	400.38
311.179	418.38
311.409	390.38
311.639	397.38
311.868	394.38
312.098	393.38
312.328	431.38
312.557	411.38
312.787	416.38
313.017	415.38
313.246	425.38
313.476	406.38
313.706	397.38
313.935	410.38
314.165	399.38
314.394	408.38
314.624	441.38
314.853	415.38
315.083	415.38
315.312	411.38
315.542	420.38
315.771	396.38
316.001	403.38
316.23	394.38
316.46	401.38
316.689	406.38
316.919	419.38
317.148	404.38
317.377	418.38
317.607	391.38
317.836	406.38
318.065	401.38
318.295	398.38
318.524	397.38
318.753	398.38
318.983	407.38
319.212	404.38
319.441	401.38
319.67	398.38
319.9	422.38
320.129	415.38
320.358	411.38
320.587	410.38
320.816	415.38
321.046	403.38
321.275	434.38
321.504	428.38
321.733	439.38
321.962	438.38
322.191	422.38
322.42	444.38
322.649	447.38
322.878	459.38
323.108	463.38
323.337	477.38
323.566	471.38
323.795	493.38
324.024	540.38
324.253	629.38
324.482	843.38
324.71	1204.38
324.939	1672.38
325.168	1412.38
325.397	766.38
325.626	564.38
325.855	510.38
326.084	506.38
326.313	482.38
326.542	500.38
326.77	533.38
326.999	587.38
327.228	753.38
327.457	1076.38
327.686	1262.38
327.914	865.38
328.143	623.38
328.372	540.38
328.6	534.38
328.829	529.38
329.058	550.38
329.287	532.38
329.515	504.38
329.744	501.38
329.972	480.38
330.201	528.38
330.43	539.38
330.658	557.38
330.887	552.38
331.115	539.38
331.344	501.38
331.572	504.38
331.801	509.38
332.03	479.38
332.258	483.38
332.486	470.38
332.715	471.38
332.943	483.38
333.172	500.38
333.4	494.38
333.629	491.38
333.857	520.38
334.085	525.38
334.314	532.38
334.542	549.38
334.771	549.38
334.999	530.38
335.227	505.38
335.455	517.38
335.684	504.38
335.912	476.38
336.14	476.38
336.369	482.38
336.597	471.38
336.825	472.38
337.053	471.38
337.281	479.38
337.51	475.38
337.738	462.38
337.966	454.38
338.194	465.38
338.422	470.38
338.65	467.38
338.878	452.38
339.106	448.38
339.334	458.38
339.562	455.38
339.79	456.38
340.018	457.38
340.246	434.38
340.474	446.38
340.702	456.38
340.93	447.38
341.158	464.38
341.386	456.38
341.614	447.38
341.842	436.38
342.07	436.38
342.298	440.38
342.526	439.38
342.754	431.38
342.981	432.38
343.209	441.38
343.437	452.38
343.665	471.38
343.893	478.38
344.12	469.38
344.348	473.38
344.576	446.38
344.804	470.38
345.031	453.38
345.259	449.38
345.487	458.38
345.714	474.38
345.942	438.38
346.17	423.38
346.397	440.38
346.625	439.38
346.853	428.38
347.08	429.38
347.308	439.38
347.535	439.38
347.763	436.38
347.99	423.38
348.218	432.38
348.445	423.38
348.673	431.38
348.9	427.38
349.128	440.38
349.355	414.38
349.583	407.38
349.81	429.38
350.037	427.38
350.265	411.38
350.492	435.38
350.72	408.38
350.947	427.38
351.174	404.38
351.402	415.38
351.629	426.38
351.856	426.38
352.083	421.38
352.311	426.38
352.538	426.38
352.765	447.38
352.992	412.38
353.22	415.38
353.447	407.38
353.674	408.38
353.901	393.38
354.128	397.38
354.355	405.38
354.583	386.38
354.81	400.38
355.037	412.38
355.264	390.38
355.491	400.38
355.718	395.38
355.945	400.38
356.172	394.38
356.399	400.38
356.626	392.38
356.853	395.38
357.08	401.38
357.307	411.38
357.534	393.38
357.761	406.38
357.988	398.38
358.215	409.38
358.441	401.38
358.668	399.38
358.895	391.38
359.122	398.38
359.349	393.38
359.576	427.38
359.802	428.38
360.029	451.38
360.256	444.38
360.483	428.38
360.709	435.38
360.936	419.38
361.163	391.38
361.39	423.38
361.616	412.38
361.843	406.38
362.07	405.38
362.296	398.38
362.523	410.38
362.749	391.38
362.976	406.38
363.203	407.38
363.429	397.38
363.656	391.38
363.882	399.38
364.109	388.38
364.335	388.38
364.562	379.38
364.788	387.38
365.015	397.38
365.241	397.38
365.468	418.38
365.694	394.38
365.92	396.38
366.147	408.38
366.373	388.38
366.599	409.38
366.826	391.38
367.052	380.38
367.278	392.38
367.505	402.38
367.731	411.38
367.957	395.38
368.184	399.38
368.41	393.38
368.636	419.38
368.862	417.38
369.089	403.38
369.315	415.38
369.541	392.38
369.767	409.38
369.993	394.38
370.219	392.38
370.445	383.38
370.672	400.38
370.898	394.38
371.124	393.38
371.35	388.38
371.576	412.38
371.802	395.38
372.028	411.38
372.254	401.38
372.48	419.38
372.706	418.38
372.932	404.38
373.158	395.38
373.384	412.38
373.61	418.38
373.835	395.38
374.061	410.38
374.287	400.38
374.513	390.38
374.739	401.38
374.965	423.38
375.191	398.38
375.416	406.38
375.642	406.38
375.868	411.38
376.094	390.38
376.319	400.38
376.545	397.38
376.771	373.38
376.997	405.38
377.222	408.38
377.448	397.38
377.674	375.38
377.899	377.38
378.125	379.38
378.35	381.38
378.576	408.38
378.802	382.38
379.027	381.38
379.253	389.38
379.478	379.38
379.704	366.38
379.929	390.38
380.155	394.38
380.38	385.38
380.606	387.38
380.831	393.38
381.057	397.38
381.282	367.38
381.507	374.38
381.733	389.38
381.958	380.38
382.184	390.38
382.409	383.38
382.634	403.38
382.86	405.38
383.085	397.38
383.31	392.38
383.535	422.38
383.761	422.38
383.986	412.38
384.211	418.38
384.436	416.38
384.662	423.38
384.887	437.38
385.112	429.38
385.337	438.38
385.562	433.38
385.787	409.38
386.013	443.38
386.238	409.38
386.463	444.38
386.688	429.38
386.913	440.38
387.138	415.38
387.363	416.38
387.588	435.38
387.813	447.38
388.038	443.38
388.263	419.38
388.488	430.38
388.713	430.38
388.938	422.38
389.163	441.38
389.387	436.38
389.612	430.38
389.837	414.38
390.062	420.38
390.287	436.38
390.512	412.38
390.736	410.38
390.961	424.38
391.186	447.38
391.411	445.38
391.636	444.38
391.86	458.38
392.085	431.38
392.31	442.38
392.534	451.38
392.759	443.38
392.984	431.38
393.208	422.38
393.433	421.38
393.658	430.38
393.882	434.38
394.107	440.38
394.331	431.38
394.556	430.38
394.78	448.38
395.005	434.38
395.229	421.38
395.454	454.38
395.678	463.38
395.903	465.38
396.127	472.38
396.352	473.38
396.576	451.38
396.801	449.38
397.025	451.38
397.249	458.38
397.474	446.38
397.698	454.38
397.922	464.38
398.147	469.38
398.371	466.38
398.595	479.38
398.82	479.38
399.044	498.38
399.268	522.38
399.492	548.38
399.717	579.38
399.941	587.38
400.165	587.38
400.389	583.38
400.613	550.38
400.837	536.38
401.062	513.38
401.286	498.38
401.51	480.38
401.734	480.38
401.958	504.38
402.182	498.38
402.406	475.38
402.63	492.38
402.854	493.38
403.078	488.38
403.302	494.38
403.526	520.38
403.75	518.38
403.974	494.38
404.198	490.38
404.422	516.38
404.645	498.38
404.869	519.38
405.093	539.38
405.317	581.38
405.541	582.38
405.765	523.38
405.988	520.38
406.212	527.38
406.436	527.38
406.66	515.38
406.883	538.38
407.107	566.38
407.331	578.38
407.555	637.38
407.778	634.38
408.002	587.38
408.226	573.38
408.449	532.38
408.673	564.38
408.896	564.38
409.12	579.38
409.344	574.38
409.567	508.38
409.791	489.38
410.014	498.38
410.238	483.38
410.461	496.38
410.685	501.38
410.908	500.38
411.132	542.38
411.355	531.38
411.578	529.38
411.802	514.38
412.025	503.38
412.249	489.38
412.472	504.38
412.695	544.38
412.919	546.38
413.142	507.38
413.365	477.38
413.589	487.38
413.812	491.38
414.035	472.38
414.258	485.38
414.482	472.38
414.705	474.38
414.928	483.38
415.151	495.38
415.374	456.38
415.597	479.38
415.821	463.38
416.044	451.38
416.267	454.38
416.49	466.38
416.713	439.38
416.936	459.38
417.159	459.38
417.382	478.38
417.605	480.38
417.828	445.38
418.051	467.38
418.274	487.38
418.497	478.38
418.72	469.38
418.943	472.38
419.166	490.38
419.389	508.38
419.611	520.38
419.834	495.38
420.057	495.38
420.28	471.38
420.503	480.38
420.726	465.38
420.948	476.38
421.171	517.38
421.394	522.38
421.617	492.38
421.839	454.38
422.062	488.38
422.285	493.38
422.507	565.38
422.73	586.38
422.953	558.38
423.175	513.38
423.398	500.38
423.621	492.38
423.843	512.38
424.066	506.38
424.288	490.38
424.511	525.38
424.733	568.38
424.956	612.38
425.178	608.38
425.401	582.38
425.623	613.38
425.846	537.38
426.068	499.38
426.291	489.38
426.513	512.38
426.735	474.38
426.958	531.38
427.18	572.38
427.402	690.38
427.625	720.38
427.847	626.38
428.069	558.38
428.292	513.38
428.514	463.38
428.736	472.38
428.958	465.38
429.181	451.38
429.403	459.38
429.625	449.38
429.847	492.38
430.069	541.38
430.292	545.38
430.514	473.38
430.736	485.38
430.958	458.38
431.18	434.38
431.402	421.38
431.624	435.38
431.846	422.38
432.068	438.38
432.29	445.38
432.512	442.38
432.734	436.38
432.956	451.38
433.178	443.38
433.4	451.38
433.622	451.38
433.844	434.38
434.066	451.38
434.287	447.38
434.509	443.38
434.731	447.38
434.953	471.38
435.175	478.38
435.397	477.38
435.618	487.38
435.84	538.38
436.062	582.38
436.284	607.38
436.505	555.38
436.727	488.38
436.949	466.38
437.17	439.38
437.392	459.38
437.614	451.38
437.835	484.38
438.057	534.38
438.278	614.38
438.5	608.38
438.721	653.38
438.943	667.38
439.165	534.38
439.386	485.38
439.608	499.38
439.829	483.38
440.05	494.38
440.272	526.38
440.493	515.38
440.715	464.38
440.936	458.38
441.158	460.38
441.379	460.38
441.6	467.38
441.822	490.38
442.043	517.38
442.264	585.38
442.486	612.38
442.707	539.38
442.928	487.38
443.149	488.38
443.371	540.38
443.592	558.38
443.813	620.38
444.034	655.38
444.255	558.38
444.476	527.38
444.698	502.38
444.919	526.38
445.14	611.38
445.361	542.38
445.582	531.38
445.803	547.38
446.024	618.38
446.245	650.38
446.466	599.38
446.687	516.38
446.908	482.38
447.129	444.38
447.35	430.38
447.571	450.38
447.792	430.38
448.013	454.38
448.234	481.38
448.455	486.38
448.675	587.38
448.896	679.38
449.117	575.38
449.338	537.38
449.559	633.38
449.779	672.38
450	561.38
450.221	474.38
450.442	449.38
450.662	430.38
450.883	416.38
451.104	460.38
451.324	442.38
451.545	428.38
451.766	414.38
451.986	399.38
452.207	390.38
452.428	384.38
452.648	407.38
452.869	395.38
453.089	398.38
453.31	400.38
453.53	406.38
453.751	409.38
453.971	393.38
454.192	414.38
454.412	394.38
454.633	387.38
454.853	378.38
455.073	396.38
455.294	404.38
455.514	470.38
455.734	453.38
455.955	384.38
456.175	378.38
456.395	377.38
456.616	383.38
456.836	378.38
457.056	384.38
457.276	364.38
457.497	374.38
457.717	376.38
457.937	382.38
458.157	384.38
458.377	393.38
458.598	405.38
458.818	450.38
459.038	516.38
459.258	530.38
459.478	459.38
459.698	434.38
459.918	434.38
460.138	440.38
460.358	450.38
460.578	460.38
460.798	445.38
461.018	444.38
461.238	455.38
461.458	450.38
461.678	444.38
461.898	455.38
462.118	456.38
462.338	450.38
462.558	481.38
462.777	488.38
462.997	486.38
463.217	501.38
463.437	507.38
463.657	475.38
463.876	464.38
464.096	495.38
464.316	484.38
464.536	469.38
464.755	473.38
464.975	461.38
465.195	496.38
465.414	517.38
465.634	462.38
465.854	474.38
466.073	434.38
466.293	409.38
466.512	410.38
466.732	426.38
466.951	428.38
467.171	405.38
467.391	404.38
467.61	411.38
467.829	410.38
468.049	410.38
468.268	421.38
468.488	411.38
468.707	386.38
468.927	410.38
469.146	407.38
469.365	384.38
469.585	399.38
469.804	402.38
470.023	408.38
470.243	425.38
470.462	416.38
470.681	424.38
470.901	450.38
471.12	448.38
471.339	424.38
471.558	417.38
471.777	410.38
471.997	417.38
472.216	437.38
472.435	436.38
472.654	446.38
472.873	400.38
473.092	420.38
473.311	423.38
473.53	419.38
473.749	428.38
473.968	454.38
474.187	537.38
474.406	549.38
474.625	448.38
474.844	414.38
475.063	418.38
475.282	439.38
475.501	388.38
475.72	439.38
475.939	434.38
476.158	428.38
476.377	432.38
476.596	440.38
476.814	434.38
477.033	423.38
477.252	450.38
477.471	441.38
477.69	440.38
477.908	454.38
478.127	451.38
478.346	460.38
478.564	436.38
478.783	467.38
479.002	470.38
479.22	471.38
479.439	489.38
479.658	516.38
479.876	476.38
480.095	498.38
480.313	530.38
480.532	501.38
480.751	498.38
480.969	520.38
481.188	539.38
481.406	570.38
481.624	508.38
481.843	508.38
482.061	466.38
482.28	473.38
482.498	491.38
482.717	482.38
482.935	469.38
483.153	476.38
483.372	455.38
483.59	490.38
483.808	459.38
484.027	506.38
484.245	487.38
484.463	462.38
484.681	481.38
484.9	477.38
485.118	475.38
485.336	480.38
485.554	470.38
485.772	485.38
485.99	491.38
486.209	485.38
486.427	504.38
486.645	502.38
486.863	495.38
487.081	518.38
487.299	514.38
487.517	506.38
487.735	511.38
487.953	499.38
488.171	508.38
488.389	502.38
488.607	507.38
488.825	479.38
489.043	503.38
489.261	504.38
489.479	528.38
489.696	533.38
489.914	522.38
490.132	510.38
490.35	530.38
490.568	510.38
490.786	544.38
491.003	529.38
491.221	557.38
491.439	545.38
491.657	557.38
491.874	558.38
492.092	571.38
492.31	556.38
492.527	562.38
492.745	575.38
492.963	568.38
493.18	563.38
493.398	582.38
493.615	574.38
493.833	590.38
494.05	618.38
494.268	580.38
494.485	568.38
494.703	582.38
494.92	589.38
495.138	602.38
495.355	603.38
495.573	586.38
495.79	579.38
496.008	578.38
496.225	554.38
496.442	614.38
496.66	603.38
496.877	602.38
497.094	606.38
497.312	612.38
497.529	611.38
497.746	636.38
497.963	636.38
498.181	636.38
498.398	644.38
498.615	671.38
498.832	682.38
499.049	711.38
499.267	717.38
499.484	748.38
499.701	795.38
499.918	784.38
500.135	847.38
500.352	888.38
500.569	939.38
500.786	918.38
501.003	898.38
501.22	879.38
501.437	842.38
501.654	799.38
501.871	764.38
502.088	732.38
502.305	714.38
502.522	696.38
502.739	687.38
502.956	654.38
503.172	629.38
503.389	623.38
503.606	598.38
503.823	644.38
504.04	626.38
504.256	613.38
504.473	624.38
504.69	604.38
504.907	585.38
505.123	596.38
505.34	585.38
505.557	570.38
505.773	566.38
505.99	583.38
506.207	555.38
506.423	553.38
506.64	528.38
506.856	541.38
507.073	566.38
507.289	525.38
507.506	536.38
507.722	550.38
507.939	539.38
508.155	526.38
508.372	565.38
508.588	521.38
508.805	523.38
509.021	523.38
509.238	527.38
509.454	532.38
509.67	518.38
509.887	512.38
510.103	514.38
510.319	510.38
510.536	574.38
510.752	796.38
510.968	653.38
511.184	520.38
511.401	525.38
511.617	503.38
511.833	475.38
512.049	483.38
512.265	482.38
512.481	500.38
512.698	492.38
512.914	496.38
513.13	472.38
513.346	476.38
513.562	479.38
513.778	495.38
513.994	508.38
514.21	470.38
514.426	496.38
514.642	524.38
514.858	550.38
515.074	550.38
515.29	626.38
515.506	812.38
515.721	715.38
515.937	554.38
516.153	516.38
516.369	529.38
516.585	510.38
516.801	514.38
517.016	521.38
517.232	526.38
517.448	524.38
517.664	520.38
517.879	528.38
518.095	550.38
518.311	536.38
518.527	527.38
518.742	510.38
518.958	501.38
519.173	518.38
519.389	482.38
519.605	480.38
519.82	468.38
520.036	496.38
520.251	491.38
520.467	518.38
520.682	513.38
520.898	513.38
521.113	516.38
521.329	517.38
521.544	590.38
521.76	676.38
521.975	935.38
522.19	918.38
522.406	593.38
522.621	504.38
522.836	475.38
523.052	471.38
523.267	453.38
523.482	422.38
523.698	473.38
523.913	438.38
524.128	448.38
524.343	444.38
524.559	436.38
524.774	402.38
524.989	440.38
525.204	427.38
525.419	427.38
525.634	418.38
525.849	414.38
526.064	418.38
526.28	410.38
526.495	398.38
526.71	401.38
526.925	413.38
527.14	427.38
527.355	414.38
527.57	413.38
527.785	403.38
527.999	422.38
528.214	414.38
528.429	407.38
528.644	414.38
528.859	406.38
529.074	416.38
529.289	405.38
529.503	443.38
529.718	448.38
529.933	425.38
530.148	421.38
530.363	417.38
530.577	411.38
530.792	430.38
531.007	411.38
531.221	418.38
531.436	390.38
531.651	409.38
531.865	395.38
532.08	410.38
532.295	387.38
532.509	390.38
532.724	386.38
532.938	392.38
533.153	391.38
533.367	400.38
533.582	391.38
533.796	396.38
534.011	405.38
534.225	374.38
534.44	385.38
534.654	384.38
534.868	390.38
535.083	389.38
535.297	393.38
535.511	413.38
535.726	401.38
535.94	425.38
536.154	394.38
536.369	392.38
536.583	371.38
536.797	376.38
537.011	356.38
537.225	396.38
537.44	371.38
537.654	368.38
537.868	398.38
538.082	380.38
538.296	394.38
538.51	393.38
538.724	391.38
538.938	375.38
539.153	382.38
539.367	387.38
539.581	382.38
539.795	375.38
540.009	379.38
540.222	372.38
540.436	397.38
540.65	383.38
540.864	390.38
541.078	392.38
541.292	376.38
541.506	379.38
541.72	399.38
541.934	386.38
542.147	389.38
542.361	391.38
542.575	374.38
542.789	366.38
543.002	389.38
543.216	362.38
543.43	378.38
543.644	396.38
543.857	384.38
544.071	367.38
544.285	382.38
544.498	374.38
544.712	366.38
544.925	380.38
545.139	379.38
545.352	366.38
545.566	382.38
545.779	363.38
545.993	364.38
546.206	360.38
546.42	370.38
546.633	373.38
546.847	379.38
547.06	376.38
547.274	374.38
547.487	396.38
547.7	376.38
547.914	364.38
548.127	364.38
548.34	373.38
548.554	362.38
548.767	367.38
548.98	376.38
549.193	362.38
549.407	368.38
549.62	365.38
549.833	371.38
550.046	356.38
550.259	394.38
550.473	364.38
550.686	358.38
550.899	350.38
551.112	375.38
551.325	363.38
551.538	352.38
551.751	346.38
551.964	357.38
552.177	366.38
552.39	366.38
552.603	379.38
552.816	346.38
553.029	368.38
553.242	356.38
553.455	372.38
553.667	388.38
553.88	405.38
554.093	389.38
554.306	371.38
554.519	378.38
554.732	375.38
554.944	362.38
555.157	363.38
555.37	349.38
555.583	364.38
555.795	336.38
556.008	344.38
556.221	330.38
556.433	340.38
556.646	344.38
556.859	328.38
557.071	326.38
557.284	339.38
557.496	343.38
557.709	347.38
557.921	305.38
558.134	330.38
558.346	334.38
558.559	323.38
558.771	330.38
558.984	327.38
559.196	335.38
559.409	314.38
559.621	342.38
559.833	336.38
560.046	322.38
560.258	319.38
560.47	320.38
560.683	319.38
560.895	327.38
561.107	341.38
561.32	327.38
561.532	336.38
561.744	329.38
561.956	339.38
562.168	327.38
562.381	346.38
562.593	315.38
562.805	327.38
563.017	324.38
563.229	326.38
563.441	330.38
563.653	331.38
563.865	340.38
564.077	324.38
564.289	328.38
564.501	355.38
564.713	334.38
564.925	335.38
565.137	345.38
565.349	357.38
565.561	345.38
565.773	372.38
565.985	373.38
566.197	366.38
566.408	385.38
566.62	394.38
566.832	385.38
567.044	419.38
567.255	426.38
567.467	413.38
567.679	419.38
567.891	429.38
568.102	458.38
568.314	438.38
568.526	410.38
568.737	410.38
568.949	400.38
569.161	379.38
569.372	344.38
569.584	342.38
569.795	342.38
570.007	351.38
570.218	342.38
570.43	348.38
570.641	325.38
570.853	316.38
571.064	326.38
571.276	331.38
571.487	320.38
571.698	306.38
571.91	306.38
572.121	299.38
572.333	301.38
572.544	290.38
572.755	306.38
572.966	310.38
573.178	292.38
573.389	294.38
573.6	297.38
573.811	271.38
574.023	272.38
574.234	296.38
574.445	283.38
574.656	294.38
574.867	271.38
575.078	275.38
575.289	301.38
575.501	287.38
575.712	280.38
575.923	282.38
576.134	276.38
576.345	290.38
576.556	280.38
576.767	266.38
576.978	285.38
577.188	281.38
577.399	272.38
577.61	266.38
577.821	258.38
578.032	274.38
578.243	290.38
578.454	364.38
578.665	319.38
578.875	291.38
579.086	265.38
579.297	263.38
579.508	264.38
579.718	276.38
579.929	251.38
580.14	265.38
580.35	269.38
580.561	269.38
580.772	251.38
580.982	259.38
581.193	251.38
581.403	270.38
581.614	264.38
581.825	262.38
582.035	263.38
582.246	248.38
582.456	261.38
582.667	262.38
582.877	262.38
583.087	264.38
583.298	256.38
583.508	276.38
583.719	260.38
583.929	259.38
584.139	266.38
584.35	271.38
584.56	248.38
584.77	253.38
584.981	256.38
585.191	257.38
585.401	245.38
585.611	259.38
585.821	250.38
586.032	260.38
586.242	264.38
586.452	263.38
586.662	242.38
586.872	250.38
587.082	248.38
587.292	253.38
587.502	269.38
587.713	248.38
587.923	271.38
588.133	254.38
588.343	249.38
588.553	240.38
588.762	247.38
588.972	240.38
589.182	274.38
589.392	246.38
589.602	246.38
589.812	265.38
590.022	269.38
590.232	237.38
590.441	262.38
590.651	248.38
590.861	250.38
591.071	236.38
591.281	235.38
591.49	269.38
591.7	254.38
591.91	259.38
592.119	262.38
592.329	267.38
592.539	271.38
592.748	273.38
592.958	260.38
593.167	267.38
593.377	264.38
593.587	276.38
593.796	266.38
594.006	281.38
594.215	264.38
594.424	290.38
594.634	278.38
594.843	284.38
595.053	259.38
595.262	264.38
595.472	239.38
595.681	249.38
595.89	247.38
596.1	240.38
596.309	250.38
596.518	222.38
596.727	239.38
596.937	234.38
597.146	225.38
597.355	234.38
597.564	255.38
597.774	228.38
597.983	231.38
598.192	222.38
598.401	220.38
598.61	240.38
598.819	219.38
599.028	223.38
599.237	214.38
599.446	221.38
599.655	221.38
599.864	219.38
600.073	211.38
600.282	210.38
600.491	228.38
600.7	222.38
600.909	224.38
601.118	228.38
601.327	215.38
601.536	235.38
601.745	228.38
601.953	212.38
602.162	210.38
602.371	196.38
602.58	212.38
602.789	216.38
602.997	232.38
603.206	230.38
603.415	207.38
603.623	197.38
603.832	205.38
604.041	231.38
604.249	216.38
604.458	195.38
604.666	206.38
604.875	208.38
605.084	221.38
605.292	217.38
605.501	219.38
605.709	212.38
605.918	213.38
606.126	210.38
606.334	220.38
606.543	228.38
606.751	213.38
606.96	208.38
607.168	206.38
607.376	204.38
607.585	193.38
607.793	220.38
608.001	226.38
608.21	216.38
608.418	209.38
608.626	201.38
608.834	219.38
609.043	203.38
609.251	200.38
609.459	197.38
609.667	212.38
609.875	195.38
610.083	190.38
610.291	202.38
610.499	194.38
610.707	206.38
610.916	191.38
611.124	222.38
611.332	226.38
611.54	215.38
611.748	208.38
611.955	205.38
612.163	205.38
612.371	201.38
612.579	208.38
612.787	207.38
612.995	219.38
613.203	212.38
613.411	198.38
613.618	196.38
613.826	201.38
614.034	191.38
614.242	208.38
614.449	203.38
614.657	195.38
614.865	192.38
615.072	199.38
615.28	195.38
615.488	199.38
615.695	208.38
615.903	197.38
616.111	205.38
616.318	199.38
616.526	203.38
616.733	199.38
616.941	199.38
617.148	204.38
617.356	195.38
617.563	199.38
617.771	197.38
617.978	195.38
618.185	191.38
618.393	191.38
618.6	202.38
618.807	208.38
619.015	201.38
619.222	205.38
619.429	199.38
619.637	207.38
619.844	199.38
620.051	186.38
620.258	191.38
620.466	205.38
620.673	204.38
620.88	192.38
621.087	199.38
621.294	183.38
621.501	183.38
621.708	193.38
621.915	189.38
622.122	194.38
622.329	191.38
622.536	191.38
622.743	171.38
622.95	187.38
623.157	173.38
623.364	191.38
623.571	183.38
623.778	195.38
623.985	178.38
624.192	186.38
624.399	186.38
624.606	176.38
624.812	186.38
625.019	177.38
625.226	179.38
625.433	180.38
625.639	182.38
625.846	179.38
626.053	187.38
626.259	182.38
626.466	170.38
626.673	178.38
626.879	181.38
627.086	168.38
627.293	180.38
627.499	183.38
627.706	171.38
627.912	182.38
628.119	181.38
628.325	174.38
628.532	186.38
628.738	170.38
628.945	170.38
629.151	182.38
629.357	169.38
629.564	171.38
629.77	185.38
629.976	175.38
630.183	180.38
630.389	174.38
630.595	167.38
630.802	181.38
631.008	180.38
631.214	156.38
631.42	179.38
631.627	165.38
631.833	167.38
632.039	151.38
632.245	149.38
632.451	170.38
632.657	166.38
632.863	157.38
633.069	185.38
633.275	170.38
633.481	174.38
633.688	181.38
633.893	164.38
634.099	180.38
634.305	171.38
634.511	178.38
634.717	154.38
634.923	172.38
635.129	168.38
635.335	155.38
635.541	147.38
635.747	168.38
635.952	158.38
636.158	152.38
636.364	174.38
636.57	162.38
636.775	162.38
636.981	162.38
637.187	166.38
637.392	180.38
637.598	154.38
637.804	163.38
638.009	168.38
638.215	159.38
638.421	164.38
638.626	153.38
638.832	157.38
639.037	156.38
639.243	167.38
639.448	148.38
639.654	158.38
639.859	137.38
640.065	156.38
640.27	151.38
640.475	173.38
640.681	144.38
640.886	153.38
641.091	148.38
641.297	167.38
641.502	138.38
641.707	169.38
641.913	155.38
642.118	146.38
642.323	150.38
642.528	146.38
642.733	159.38
642.939	136.38
643.144	143.38
643.349	141.38
643.554	157.38
643.759	142.38
643.964	158.38
644.169	163.38
644.374	149.38
644.579	154.38
644.784	160.38
644.989	154.38
645.194	154.38
645.399	150.38
645.604	142.38
645.809	152.38
646.014	159.38
646.219	159.38
646.423	163.38
646.628	126.38
646.833	149.38
647.038	155.38
647.243	148.38
647.447	151.38
647.652	155.38
647.857	142.38
648.062	165.38
648.266	154.38
648.471	169.38
648.676	151.38
648.88	162.38
649.085	152.38
649.289	143.38
649.494	147.38
649.698	167.38
649.903	179.38
650.107	160.38
650.312	148.38
650.516	148.38
650.721	142.38
650.925	150.38
651.13	143.38
651.334	133.38
651.539	159.38
651.743	130.38
651.947	130.38
652.152	153.38
652.356	137.38
652.56	127.38
652.764	143.38
652.969	126.38
653.173	108.38
653.377	136.38
653.581	136.38
653.785	137.38
653.99	140.38
654.194	132.38
654.398	135.38
654.602	126.38
654.806	118.38
655.01	118.38
655.214	135.38
655.418	134.38
655.622	138.38
655.826	136.38
656.03	139.38
656.234	145.38
656.438	118.38
656.642	124.38
656.846	127.38
657.049	136.38
657.253	140.38
657.457	123.38
657.661	116.38
657.865	121.38
658.068	111.38
658.272	109.38
658.476	117.38
658.68	110.38
658.883	112.38
659.087	111.38
659.291	105.38
659.494	104.38
659.698	89.38
659.901	102.38
660.105	104.38
660.309	102.38
660.512	90.38
660.716	83.38
660.919	103.38
661.123	108.38
661.326	99.38
661.53	106.38
661.733	97.38
661.936	98.38
662.14	94.38
662.343	82.38
662.546	77.38
662.75	91.38
662.953	95.38
663.156	74.38
663.36	86.38
663.563	84.38
663.766	92.38
663.969	91.38
664.173	86.38
664.376	94.38
664.579	79.38
664.782	84.38
664.985	94.38
665.188	85.38
665.391	72.38
665.594	87.38
665.797	89.38
666	91.38
666.203	86.38
666.406	77.38
666.609	94.38
666.812	87.38
667.015	83.38
667.218	71.38
667.421	89.38
667.624	80.38
667.827	79.38
668.03	93.38
668.232	83.38
668.435	86.38
668.638	98.38
668.841	85.38
669.043	69.38
669.246	79.38
669.449	91.38
669.651	84.38
669.854	84.38
670.057	82.38
670.259	85.38
670.462	83.38
670.665	77.38
670.867	79.38
671.07	79.38
671.272	78.38
671.475	85.38
671.677	79.38
671.88	77.38
672.082	84.38
672.284	86.38
672.487	81.38
672.689	75.38
672.892	80.38
