Data from 1964.PennyLincolnUp.Lamp.En5.5.200Scan.071719.P1._HRD10591_14-06-13-909.txt Node
Date: Thu Jul 18 14:06:13 EDT 2019
User: cochatt
Spectrometer: HR+D1059
Trigger mode: 1
Integration Time (sec): 1.000000E-1
Scans to average: 1
Electric dark correction enabled: true
Nonlinearity correction enabled: false
Boxcar width: 0
XAxis mode: Wavelengths
Number of Pixels in Spectrum: 2048
>>>>>Begin Spectral Data<<<<<
223.165	-13.12
223.4	-13.12
223.635	-13.12
223.869	-9.12
224.104	-27.12
224.338	-2.12
224.573	-21.12
224.808	-7.12
225.042	-14.12
225.277	-18.12
225.511	1.88
225.746	9.88
225.98	4.88
226.215	14.88
226.449	0.88
226.683	33.88
226.918	20.88
227.152	24.88
227.387	38.88
227.621	33.88
227.856	49.88
228.09	58.88
228.324	51.88
228.559	54.88
228.793	69.88
229.027	98.88
229.262	106.88
229.496	101.88
229.73	120.88
229.964	154.88
230.199	114.88
230.433	113.88
230.667	110.88
230.901	107.88
231.136	117.88
231.37	106.88
231.604	92.88
231.838	121.88
232.072	123.88
232.306	111.88
232.541	113.88
232.775	113.88
233.009	111.88
233.243	115.88
233.477	107.88
233.711	115.88
233.945	121.88
234.179	106.88
234.413	125.88
234.647	115.88
234.881	122.88
235.115	120.88
235.349	121.88
235.583	153.88
235.817	121.88
236.051	121.88
236.285	128.88
236.519	125.88
236.753	131.88
236.987	125.88
237.221	174.88
237.455	217.88
237.689	166.88
237.922	139.88
238.156	143.88
238.39	139.88
238.624	130.88
238.858	131.88
239.091	119.88
239.325	120.88
239.559	121.88
239.793	129.88
240.027	142.88
240.26	127.88
240.494	142.88
240.728	154.88
240.961	163.88
241.195	133.88
241.429	150.88
241.662	131.88
241.896	135.88
242.13	141.88
242.363	139.88
242.597	136.88
242.83	143.88
243.064	133.88
243.298	129.88
243.531	147.88
243.765	147.88
243.998	146.88
244.232	159.88
244.465	143.88
244.699	158.88
244.932	149.88
245.166	149.88
245.399	165.88
245.633	145.88
245.866	154.88
246.099	162.88
246.333	164.88
246.566	163.88
246.8	149.88
247.033	168.88
247.266	181.88
247.5	166.88
247.733	174.88
247.966	179.88
248.2	185.88
248.433	185.88
248.666	181.88
248.899	190.88
249.133	197.88
249.366	206.88
249.599	194.88
249.832	188.88
250.066	191.88
250.299	199.88
250.532	191.88
250.765	210.88
250.998	227.88
251.231	253.88
251.465	218.88
251.698	213.88
251.931	185.88
252.164	203.88
252.397	210.88
252.63	217.88
252.863	217.88
253.096	230.88
253.329	229.88
253.562	206.88
253.795	229.88
254.028	229.88
254.261	227.88
254.494	223.88
254.727	250.88
254.96	279.88
255.193	265.88
255.426	260.88
255.659	237.88
255.892	242.88
256.124	233.88
256.357	240.88
256.59	243.88
256.823	246.88
257.056	229.88
257.289	223.88
257.521	220.88
257.754	211.88
257.987	221.88
258.22	222.88
258.452	227.88
258.685	233.88
258.918	214.88
259.151	229.88
259.383	233.88
259.616	231.88
259.849	257.88
260.081	232.88
260.314	270.88
260.547	262.88
260.779	248.88
261.012	246.88
261.244	222.88
261.477	236.88
261.71	242.88
261.942	229.88
262.175	245.88
262.407	235.88
262.64	225.88
262.872	229.88
263.105	232.88
263.337	241.88
263.57	228.88
263.802	227.88
264.035	219.88
264.267	218.88
264.499	239.88
264.732	219.88
264.964	239.88
265.197	250.88
265.429	228.88
265.661	223.88
265.894	236.88
266.126	233.88
266.358	225.88
266.591	236.88
266.823	246.88
267.055	241.88
267.287	250.88
267.52	239.88
267.752	246.88
267.984	266.88
268.216	247.88
268.448	266.88
268.681	276.88
268.913	270.88
269.145	282.88
269.377	313.88
269.609	289.88
269.841	287.88
270.073	275.88
270.306	297.88
270.538	324.88
270.77	334.88
271.002	313.88
271.234	321.88
271.466	307.88
271.698	324.88
271.93	339.88
272.162	323.88
272.394	331.88
272.626	337.88
272.858	317.88
273.09	288.88
273.322	296.88
273.553	295.88
273.785	300.88
274.017	300.88
274.249	292.88
274.481	298.88
274.713	276.88
274.945	263.88
275.176	291.88
275.408	292.88
275.64	293.88
275.872	285.88
276.104	289.88
276.335	296.88
276.567	293.88
276.799	323.88
277.031	332.88
277.262	311.88
277.494	340.88
277.726	322.88
277.957	321.88
278.189	313.88
278.421	309.88
278.652	300.88
278.884	302.88
279.115	301.88
279.347	305.88
279.579	307.88
279.81	303.88
280.042	293.88
280.273	305.88
280.505	306.88
280.736	313.88
280.968	309.88
281.199	298.88
281.431	297.88
281.662	316.88
281.894	300.88
282.125	305.88
282.356	329.88
282.588	339.88
282.819	320.88
283.051	308.88
283.282	302.88
283.513	313.88
283.745	321.88
283.976	313.88
284.207	298.88
284.439	318.88
284.67	326.88
284.901	314.88
285.132	314.88
285.364	328.88
285.595	325.88
285.826	315.88
286.057	307.88
286.288	318.88
286.52	311.88
286.751	332.88
286.982	341.88
287.213	316.88
287.444	325.88
287.675	335.88
287.906	327.88
288.138	337.88
288.369	334.88
288.6	342.88
288.831	337.88
289.062	327.88
289.293	325.88
289.524	341.88
289.755	330.88
289.986	329.88
290.217	345.88
290.448	321.88
290.679	332.88
290.91	330.88
291.141	334.88
291.371	336.88
291.602	334.88
291.833	334.88
292.064	349.88
292.295	337.88
292.526	316.88
292.757	329.88
292.987	339.88
293.218	349.88
293.449	338.88
293.68	350.88
293.91	327.88
294.141	330.88
294.372	341.88
294.603	323.88
294.833	345.88
295.064	324.88
295.295	327.88
295.525	327.88
295.756	335.88
295.987	352.88
296.217	366.88
296.448	382.88
296.679	346.88
296.909	337.88
297.14	359.88
297.37	335.88
297.601	349.88
297.831	358.88
298.062	355.88
298.292	359.88
298.523	363.88
298.753	364.88
298.984	343.88
299.214	381.88
299.445	385.88
299.675	362.88
299.905	349.88
300.136	365.88
300.366	354.88
300.597	350.88
300.827	363.88
301.057	357.88
301.288	355.88
301.518	358.88
301.748	375.88
301.979	375.88
302.209	376.88
302.439	379.88
302.669	370.88
302.9	364.88
303.13	381.88
303.36	381.88
303.59	382.88
303.82	378.88
304.051	380.88
304.281	373.88
304.511	357.88
304.741	391.88
304.971	361.88
305.201	387.88
305.431	378.88
305.661	369.88
305.891	396.88
306.121	395.88
306.352	362.88
306.582	377.88
306.812	370.88
307.042	378.88
307.272	385.88
307.502	379.88
307.731	389.88
307.961	385.88
308.191	354.88
308.421	387.88
308.651	391.88
308.881	387.88
309.111	401.88
309.341	395.88
309.571	404.88
309.8	397.88
310.03	388.88
310.26	407.88
310.49	393.88
310.72	415.88
310.949	411.88
311.179	426.88
311.409	405.88
311.639	423.88
311.868	422.88
312.098	423.88
312.328	418.88
312.557	422.88
312.787	445.88
313.017	447.88
313.246	418.88
313.476	408.88
313.706	424.88
313.935	425.88
314.165	434.88
314.394	438.88
314.624	452.88
314.853	413.88
315.083	439.88
315.312	409.88
315.542	398.88
315.771	438.88
316.001	414.88
316.23	416.88
316.46	406.88
316.689	421.88
316.919	418.88
317.148	419.88
317.377	414.88
317.607	424.88
317.836	403.88
318.065	419.88
318.295	414.88
318.524	411.88
318.753	418.88
318.983	418.88
319.212	423.88
319.441	426.88
319.67	430.88
319.9	440.88
320.129	442.88
320.358	435.88
320.587	429.88
320.816	418.88
321.046	426.88
321.275	436.88
321.504	445.88
321.733	445.88
321.962	453.88
322.191	463.88
322.42	458.88
322.649	469.88
322.878	464.88
323.108	497.88
323.337	475.88
323.566	497.88
323.795	533.88
324.024	570.88
324.253	648.88
324.482	894.88
324.71	1309.88
324.939	1770.88
325.168	1546.88
325.397	827.88
325.626	591.88
325.855	533.88
326.084	502.88
326.313	488.88
326.542	525.88
326.77	545.88
326.999	626.88
327.228	817.88
327.457	1178.88
327.686	1351.88
327.914	925.88
328.143	633.88
328.372	596.88
328.6	557.88
328.829	550.88
329.058	564.88
329.287	559.88
329.515	532.88
329.744	535.88
329.972	530.88
330.201	519.88
330.43	578.88
330.658	563.88
330.887	600.88
331.115	570.88
331.344	549.88
331.572	517.88
331.801	520.88
332.03	534.88
332.258	512.88
332.486	470.88
332.715	482.88
332.943	519.88
333.172	496.88
333.4	512.88
333.629	507.88
333.857	537.88
334.085	540.88
334.314	565.88
334.542	566.88
334.771	584.88
334.999	555.88
335.227	550.88
335.455	516.88
335.684	494.88
335.912	511.88
336.14	506.88
336.369	502.88
336.597	503.88
336.825	492.88
337.053	465.88
337.281	470.88
337.51	475.88
337.738	483.88
337.966	492.88
338.194	507.88
338.422	477.88
338.65	467.88
338.878	483.88
339.106	451.88
339.334	476.88
339.562	458.88
339.79	458.88
340.018	462.88
340.246	451.88
340.474	474.88
340.702	457.88
340.93	449.88
341.158	462.88
341.386	455.88
341.614	466.88
341.842	455.88
342.07	467.88
342.298	457.88
342.526	443.88
342.754	466.88
342.981	449.88
343.209	452.88
343.437	476.88
343.665	458.88
343.893	483.88
344.12	494.88
344.348	473.88
344.576	483.88
344.804	481.88
345.031	472.88
345.259	469.88
345.487	442.88
345.714	455.88
345.942	434.88
346.17	443.88
346.397	448.88
346.625	427.88
346.853	436.88
347.08	435.88
347.308	422.88
347.535	446.88
347.763	471.88
347.99	447.88
348.218	458.88
348.445	439.88
348.673	459.88
348.9	428.88
349.128	441.88
349.355	437.88
349.583	407.88
349.81	423.88
350.037	430.88
350.265	436.88
350.492	423.88
350.72	448.88
350.947	429.88
351.174	437.88
351.402	422.88
351.629	442.88
351.856	441.88
352.083	428.88
352.311	443.88
352.538	435.88
352.765	450.88
352.992	420.88
353.22	443.88
353.447	424.88
353.674	428.88
353.901	426.88
354.128	419.88
354.355	425.88
354.583	424.88
354.81	415.88
355.037	419.88
355.264	418.88
355.491	407.88
355.718	409.88
355.945	415.88
356.172	393.88
356.399	407.88
356.626	400.88
356.853	397.88
357.08	401.88
357.307	401.88
357.534	422.88
357.761	403.88
357.988	392.88
358.215	405.88
358.441	405.88
358.668	426.88
358.895	425.88
359.122	436.88
359.349	435.88
359.576	447.88
359.802	445.88
360.029	449.88
360.256	487.88
360.483	462.88
360.709	454.88
360.936	441.88
361.163	414.88
361.39	404.88
361.616	407.88
361.843	418.88
362.07	421.88
362.296	437.88
362.523	422.88
362.749	413.88
362.976	410.88
363.203	422.88
363.429	410.88
363.656	405.88
363.882	422.88
364.109	413.88
364.335	414.88
364.562	414.88
364.788	402.88
365.015	407.88
365.241	406.88
365.468	438.88
365.694	412.88
365.92	411.88
366.147	423.88
366.373	406.88
366.599	419.88
366.826	402.88
367.052	411.88
367.278	417.88
367.505	398.88
367.731	407.88
367.957	398.88
368.184	399.88
368.41	416.88
368.636	387.88
368.862	423.88
369.089	403.88
369.315	414.88
369.541	424.88
369.767	393.88
369.993	419.88
370.219	402.88
370.445	408.88
370.672	408.88
370.898	397.88
371.124	405.88
371.35	412.88
371.576	409.88
371.802	425.88
372.028	406.88
372.254	420.88
372.48	402.88
372.706	410.88
372.932	396.88
373.158	412.88
373.384	421.88
373.61	414.88
373.835	402.88
374.061	421.88
374.287	411.88
374.513	393.88
374.739	419.88
374.965	424.88
375.191	412.88
375.416	430.88
375.642	427.88
375.868	414.88
376.094	413.88
376.319	418.88
376.545	421.88
376.771	407.88
376.997	395.88
377.222	403.88
377.448	400.88
377.674	412.88
377.899	390.88
378.125	405.88
378.35	408.88
378.576	393.88
378.802	418.88
379.027	400.88
379.253	396.88
379.478	406.88
379.704	403.88
379.929	397.88
380.155	399.88
380.38	408.88
380.606	404.88
380.831	397.88
381.057	407.88
381.282	405.88
381.507	398.88
381.733	409.88
381.958	406.88
382.184	393.88
382.409	405.88
382.634	420.88
382.86	413.88
383.085	420.88
383.31	417.88
383.535	410.88
383.761	421.88
383.986	408.88
384.211	434.88
384.436	442.88
384.662	415.88
384.887	426.88
385.112	461.88
385.337	427.88
385.562	446.88
385.787	429.88
386.013	449.88
386.238	452.88
386.463	423.88
386.688	422.88
386.913	434.88
387.138	429.88
387.363	431.88
387.588	434.88
387.813	437.88
388.038	433.88
388.263	449.88
388.488	450.88
388.713	453.88
388.938	450.88
389.163	427.88
389.387	449.88
389.612	433.88
389.837	424.88
390.062	431.88
390.287	425.88
390.512	426.88
390.736	430.88
390.961	447.88
391.186	443.88
391.411	478.88
391.636	470.88
391.86	459.88
392.085	444.88
392.31	454.88
392.534	468.88
392.759	447.88
392.984	456.88
393.208	434.88
393.433	467.88
393.658	447.88
393.882	433.88
394.107	439.88
394.331	449.88
394.556	439.88
394.78	421.88
395.005	459.88
395.229	451.88
395.454	467.88
395.678	464.88
395.903	478.88
396.127	486.88
396.352	477.88
396.576	466.88
396.801	464.88
397.025	454.88
397.249	485.88
397.474	464.88
397.698	458.88
397.922	473.88
398.147	480.88
398.371	489.88
398.595	508.88
398.82	503.88
399.044	491.88
399.268	535.88
399.492	559.88
399.717	604.88
399.941	613.88
400.165	621.88
400.389	616.88
400.613	555.88
400.837	543.88
401.062	533.88
401.286	507.88
401.51	508.88
401.734	473.88
401.958	504.88
402.182	509.88
402.406	517.88
402.63	536.88
402.854	491.88
403.078	505.88
403.302	536.88
403.526	528.88
403.75	512.88
403.974	525.88
404.198	521.88
404.422	525.88
404.645	532.88
404.869	518.88
405.093	550.88
405.317	588.88
405.541	605.88
405.765	591.88
405.988	552.88
406.212	553.88
406.436	554.88
406.66	576.88
406.883	565.88
407.107	589.88
407.331	625.88
407.555	683.88
407.778	684.88
408.002	599.88
408.226	577.88
408.449	554.88
408.673	570.88
408.896	577.88
409.12	610.88
409.344	590.88
409.567	546.88
409.791	534.88
410.014	523.88
410.238	531.88
410.461	502.88
410.685	523.88
410.908	513.88
411.132	567.88
411.355	571.88
411.578	548.88
411.802	513.88
412.025	510.88
412.249	533.88
412.472	537.88
412.695	585.88
412.919	561.88
413.142	505.88
413.365	503.88
413.589	508.88
413.812	494.88
414.035	507.88
414.258	454.88
414.482	479.88
414.705	498.88
414.928	479.88
415.151	486.88
415.374	497.88
415.597	476.88
415.821	467.88
416.044	485.88
416.267	480.88
416.49	502.88
416.713	484.88
416.936	471.88
417.159	459.88
417.382	487.88
417.605	457.88
417.828	481.88
418.051	504.88
418.274	493.88
418.497	478.88
418.72	505.88
418.943	487.88
419.166	482.88
419.389	517.88
419.611	520.88
419.834	505.88
420.057	502.88
420.28	505.88
420.503	504.88
420.726	475.88
420.948	524.88
421.171	546.88
421.394	539.88
421.617	475.88
421.839	512.88
422.062	492.88
422.285	497.88
422.507	537.88
422.73	605.88
422.953	581.88
423.175	531.88
423.398	514.88
423.621	505.88
423.843	544.88
424.066	521.88
424.288	533.88
424.511	545.88
424.733	583.88
424.956	647.88
425.178	620.88
425.401	629.88
425.623	613.88
425.846	543.88
426.068	501.88
426.291	512.88
426.513	506.88
426.735	521.88
426.958	555.88
427.18	602.88
427.402	723.88
427.625	758.88
427.847	661.88
428.069	589.88
428.292	535.88
428.514	483.88
428.736	492.88
428.958	476.88
429.181	461.88
429.403	478.88
429.625	467.88
429.847	511.88
430.069	543.88
430.292	554.88
430.514	494.88
430.736	484.88
430.958	463.88
431.18	466.88
431.402	441.88
431.624	460.88
431.846	441.88
432.068	431.88
432.29	451.88
432.512	452.88
432.734	463.88
432.956	475.88
433.178	470.88
433.4	467.88
433.622	475.88
433.844	457.88
434.066	446.88
434.287	447.88
434.509	455.88
434.731	460.88
434.953	466.88
435.175	510.88
435.397	511.88
435.618	503.88
435.84	552.88
436.062	636.88
436.284	665.88
436.505	550.88
436.727	497.88
436.949	476.88
437.17	470.88
437.392	458.88
437.614	493.88
437.835	498.88
438.057	556.88
438.278	659.88
438.5	644.88
438.721	711.88
438.943	688.88
439.165	544.88
439.386	506.88
439.608	500.88
439.829	517.88
440.05	520.88
440.272	583.88
440.493	521.88
440.715	499.88
440.936	491.88
441.158	467.88
441.379	476.88
441.6	489.88
441.822	523.88
442.043	546.88
442.264	611.88
442.486	628.88
442.707	561.88
442.928	503.88
443.149	517.88
443.371	514.88
443.592	581.88
443.813	664.88
444.034	691.88
444.255	599.88
444.476	542.88
444.698	534.88
444.919	533.88
445.14	615.88
445.361	558.88
445.582	545.88
445.803	587.88
446.024	669.88
446.245	665.88
446.466	611.88
446.687	531.88
446.908	490.88
447.129	493.88
447.35	448.88
447.571	470.88
447.792	433.88
448.013	445.88
448.234	466.88
448.455	529.88
448.675	638.88
448.896	692.88
449.117	574.88
449.338	561.88
449.559	646.88
449.779	761.88
450	588.88
450.221	490.88
450.442	469.88
450.662	443.88
450.883	436.88
451.104	441.88
451.324	443.88
451.545	429.88
451.766	413.88
451.986	420.88
452.207	420.88
452.428	403.88
452.648	415.88
452.869	406.88
453.089	423.88
453.31	457.88
453.53	429.88
453.751	390.88
453.971	420.88
454.192	425.88
454.412	429.88
454.633	395.88
454.853	410.88
455.073	404.88
455.294	452.88
455.514	497.88
455.734	459.88
455.955	415.88
456.175	399.88
456.395	393.88
456.616	402.88
456.836	387.88
457.056	397.88
457.276	392.88
457.497	379.88
457.717	411.88
457.937	412.88
458.157	406.88
458.377	417.88
458.598	447.88
458.818	477.88
459.038	539.88
459.258	542.88
459.478	471.88
459.698	454.88
459.918	460.88
460.138	470.88
460.358	470.88
460.578	450.88
460.798	464.88
461.018	460.88
461.238	451.88
461.458	447.88
461.678	475.88
461.898	479.88
462.118	478.88
462.338	477.88
462.558	465.88
462.777	493.88
462.997	496.88
463.217	527.88
463.437	532.88
463.657	487.88
463.876	505.88
464.096	505.88
464.316	489.88
464.536	501.88
464.755	511.88
464.975	501.88
465.195	499.88
465.414	532.88
465.634	490.88
465.854	471.88
466.073	440.88
466.293	448.88
466.512	421.88
466.732	423.88
466.951	424.88
467.171	423.88
467.391	425.88
467.61	440.88
467.829	427.88
468.049	448.88
468.268	430.88
468.488	412.88
468.707	415.88
468.927	379.88
469.146	381.88
469.365	394.88
469.585	417.88
469.804	426.88
470.023	440.88
470.243	435.88
470.462	421.88
470.681	451.88
470.901	449.88
471.12	439.88
471.339	444.88
471.558	421.88
471.777	447.88
471.997	424.88
472.216	429.88
472.435	454.88
472.654	437.88
472.873	426.88
473.092	443.88
473.311	420.88
473.53	422.88
473.749	442.88
473.968	465.88
474.187	543.88
474.406	552.88
474.625	453.88
474.844	429.88
475.063	447.88
475.282	423.88
475.501	443.88
475.72	448.88
475.939	444.88
476.158	450.88
476.377	449.88
476.596	430.88
476.814	446.88
477.033	461.88
477.252	472.88
477.471	455.88
477.69	477.88
477.908	464.88
478.127	487.88
478.346	467.88
478.564	482.88
478.783	478.88
479.002	490.88
479.22	476.88
479.439	509.88
479.658	493.88
479.876	517.88
480.095	496.88
480.313	553.88
480.532	547.88
480.751	526.88
480.969	517.88
481.188	562.88
481.406	605.88
481.624	547.88
481.843	535.88
482.061	504.88
482.28	505.88
482.498	498.88
482.717	502.88
482.935	518.88
483.153	477.88
483.372	491.88
483.59	489.88
483.808	497.88
484.027	497.88
484.245	487.88
484.463	507.88
484.681	521.88
484.9	513.88
485.118	516.88
485.336	501.88
485.554	507.88
485.772	524.88
485.99	511.88
486.209	520.88
486.427	515.88
486.645	509.88
486.863	539.88
487.081	523.88
487.299	527.88
487.517	547.88
487.735	538.88
487.953	535.88
488.171	515.88
488.389	525.88
488.607	517.88
488.825	527.88
489.043	509.88
489.261	568.88
489.479	513.88
489.696	544.88
489.914	517.88
490.132	541.88
490.35	555.88
490.568	549.88
490.786	535.88
491.003	563.88
491.221	583.88
491.439	584.88
491.657	583.88
491.874	599.88
492.092	591.88
492.31	595.88
492.527	614.88
492.745	601.88
492.963	612.88
493.18	605.88
493.398	591.88
493.615	618.88
493.833	596.88
494.05	617.88
494.268	609.88
494.485	600.88
494.703	586.88
494.92	611.88
495.138	605.88
495.355	593.88
495.573	626.88
495.79	617.88
496.008	604.88
496.225	629.88
496.442	622.88
496.66	632.88
496.877	612.88
497.094	630.88
497.312	634.88
497.529	653.88
497.746	633.88
497.963	656.88
498.181	691.88
498.398	664.88
498.615	697.88
498.832	703.88
499.049	739.88
499.267	746.88
499.484	782.88
499.701	818.88
499.918	857.88
500.135	865.88
500.352	942.88
500.569	972.88
500.786	959.88
501.003	940.88
501.22	894.88
501.437	855.88
501.654	855.88
501.871	833.88
502.088	771.88
502.305	738.88
502.522	713.88
502.739	723.88
502.956	679.88
503.172	667.88
503.389	656.88
503.606	665.88
503.823	640.88
504.04	629.88
504.256	640.88
504.473	621.88
504.69	625.88
504.907	595.88
505.123	626.88
505.34	606.88
505.557	593.88
505.773	596.88
505.99	582.88
506.207	597.88
506.423	569.88
506.64	575.88
506.856	579.88
507.073	557.88
507.289	543.88
507.506	557.88
507.722	571.88
507.939	590.88
508.155	559.88
508.372	550.88
508.588	554.88
508.805	533.88
509.021	550.88
509.238	571.88
509.454	564.88
509.67	543.88
509.887	546.88
510.103	537.88
510.319	544.88
510.536	604.88
510.752	823.88
510.968	693.88
511.184	535.88
511.401	539.88
511.617	520.88
511.833	512.88
512.049	508.88
512.265	520.88
512.481	502.88
512.698	521.88
512.914	512.88
513.13	516.88
513.346	512.88
513.562	516.88
513.778	510.88
513.994	504.88
514.21	542.88
514.426	522.88
514.642	556.88
514.858	546.88
515.074	582.88
515.29	650.88
515.506	831.88
515.721	710.88
515.937	572.88
516.153	546.88
516.369	535.88
516.585	513.88
516.801	561.88
517.016	549.88
517.232	552.88
517.448	542.88
517.664	583.88
517.879	567.88
518.095	582.88
518.311	541.88
518.527	546.88
518.742	539.88
518.958	527.88
519.173	529.88
519.389	512.88
519.605	522.88
519.82	505.88
520.036	527.88
520.251	520.88
520.467	547.88
520.682	541.88
520.898	532.88
521.113	549.88
521.329	574.88
521.544	593.88
521.76	681.88
521.975	1004.88
522.19	929.88
522.406	638.88
522.621	539.88
522.836	491.88
523.052	476.88
523.267	480.88
523.482	469.88
523.698	466.88
523.913	452.88
524.128	462.88
524.343	468.88
524.559	452.88
524.774	447.88
524.989	423.88
525.204	455.88
525.419	463.88
525.634	421.88
525.849	449.88
526.064	450.88
526.28	425.88
526.495	421.88
526.71	440.88
526.925	413.88
527.14	427.88
527.355	433.88
527.57	429.88
527.785	439.88
527.999	433.88
528.214	402.88
528.429	415.88
528.644	441.88
528.859	429.88
529.074	417.88
529.289	436.88
529.503	472.88
529.718	450.88
529.933	435.88
530.148	435.88
530.363	447.88
530.577	425.88
530.792	418.88
531.007	415.88
531.221	420.88
531.436	432.88
531.651	425.88
531.865	429.88
532.08	421.88
532.295	405.88
532.509	434.88
532.724	426.88
532.938	426.88
533.153	437.88
533.367	436.88
533.582	419.88
533.796	407.88
534.011	437.88
534.225	435.88
534.44	400.88
534.654	414.88
534.868	412.88
535.083	402.88
535.297	401.88
535.511	392.88
535.726	402.88
535.94	425.88
536.154	403.88
536.369	404.88
536.583	424.88
536.797	415.88
537.011	393.88
537.225	397.88
537.44	389.88
537.654	398.88
537.868	377.88
538.082	405.88
538.296	413.88
538.51	403.88
538.724	394.88
538.938	385.88
539.153	401.88
539.367	387.88
539.581	403.88
539.795	389.88
540.009	382.88
540.222	409.88
540.436	396.88
540.65	379.88
540.864	400.88
541.078	390.88
541.292	403.88
541.506	390.88
541.72	382.88
541.934	383.88
542.147	371.88
542.361	380.88
542.575	399.88
542.789	393.88
543.002	391.88
543.216	398.88
543.43	398.88
543.644	378.88
543.857	398.88
544.071	416.88
544.285	397.88
544.498	393.88
544.712	394.88
544.925	399.88
545.139	402.88
545.352	371.88
545.566	410.88
545.779	387.88
545.993	390.88
546.206	397.88
546.42	384.88
546.633	382.88
546.847	387.88
547.06	388.88
547.274	395.88
547.487	381.88
547.7	400.88
547.914	409.88
548.127	387.88
548.34	381.88
548.554	394.88
548.767	395.88
548.98	386.88
549.193	380.88
549.407	377.88
549.62	382.88
549.833	385.88
550.046	381.88
550.259	384.88
550.473	374.88
550.686	377.88
550.899	391.88
551.112	382.88
551.325	380.88
551.538	366.88
551.751	365.88
551.964	363.88
552.177	364.88
552.39	371.88
552.603	381.88
552.816	384.88
553.029	402.88
553.242	404.88
553.455	383.88
553.667	389.88
553.88	423.88
554.093	398.88
554.306	389.88
554.519	383.88
554.732	401.88
554.944	393.88
555.157	369.88
555.37	378.88
555.583	381.88
555.795	363.88
556.008	357.88
556.221	374.88
556.433	346.88
556.646	365.88
556.859	341.88
557.071	330.88
557.284	346.88
557.496	335.88
557.709	339.88
557.921	362.88
558.134	340.88
558.346	350.88
558.559	345.88
558.771	348.88
558.984	345.88
559.196	343.88
559.409	329.88
559.621	341.88
559.833	339.88
560.046	327.88
560.258	340.88
560.47	346.88
560.683	335.88
560.895	342.88
561.107	334.88
561.32	342.88
561.532	337.88
561.744	343.88
561.956	353.88
562.168	348.88
562.381	352.88
562.593	334.88
562.805	332.88
563.017	347.88
563.229	351.88
563.441	329.88
563.653	345.88
563.865	333.88
564.077	348.88
564.289	347.88
564.501	348.88
564.713	350.88
564.925	352.88
565.137	372.88
565.349	390.88
565.561	373.88
565.773	379.88
565.985	378.88
566.197	390.88
566.408	403.88
566.62	405.88
566.832	409.88
567.044	426.88
567.255	455.88
567.467	449.88
567.679	441.88
567.891	445.88
568.102	439.88
568.314	441.88
568.526	397.88
568.737	409.88
568.949	385.88
569.161	371.88
569.372	354.88
569.584	344.88
569.795	363.88
570.007	361.88
570.218	369.88
570.43	355.88
570.641	337.88
570.853	321.88
571.064	335.88
571.276	333.88
571.487	321.88
571.698	310.88
571.91	313.88
572.121	308.88
572.333	301.88
572.544	327.88
572.755	325.88
572.966	315.88
573.178	305.88
573.389	309.88
573.6	290.88
573.811	307.88
574.023	306.88
574.234	300.88
574.445	315.88
574.656	293.88
574.867	311.88
575.078	278.88
575.289	313.88
575.501	293.88
575.712	308.88
575.923	279.88
576.134	302.88
576.345	291.88
576.556	294.88
576.767	288.88
576.978	283.88
577.188	297.88
577.399	302.88
577.61	269.88
577.821	270.88
578.032	286.88
578.243	306.88
578.454	395.88
578.665	330.88
578.875	283.88
579.086	273.88
579.297	266.88
579.508	268.88
579.718	268.88
579.929	270.88
580.14	252.88
580.35	289.88
580.561	259.88
580.772	288.88
580.982	281.88
581.193	256.88
581.403	278.88
581.614	268.88
581.825	257.88
582.035	285.88
582.246	263.88
582.456	241.88
582.667	257.88
582.877	253.88
583.087	268.88
583.298	254.88
583.508	251.88
583.719	251.88
583.929	259.88
584.139	260.88
584.35	243.88
584.56	276.88
584.77	267.88
584.981	259.88
585.191	250.88
585.401	268.88
585.611	268.88
585.821	264.88
586.032	271.88
586.242	244.88
586.452	261.88
586.662	236.88
586.872	263.88
587.082	253.88
587.292	268.88
587.502	264.88
587.713	266.88
587.923	274.88
588.133	243.88
588.343	229.88
588.553	273.88
588.762	254.88
588.972	260.88
589.182	250.88
589.392	255.88
589.602	260.88
589.812	264.88
590.022	238.88
590.232	244.88
590.441	261.88
590.651	257.88
590.861	250.88
591.071	273.88
591.281	257.88
591.49	264.88
591.7	259.88
591.91	270.88
592.119	249.88
592.329	289.88
592.539	252.88
592.748	284.88
592.958	283.88
593.167	284.88
593.377	290.88
593.587	299.88
593.796	267.88
594.006	283.88
594.215	284.88
594.424	268.88
594.634	278.88
594.843	266.88
595.053	249.88
595.262	266.88
595.472	252.88
595.681	255.88
595.89	252.88
596.1	245.88
596.309	243.88
596.518	271.88
596.727	228.88
596.937	234.88
597.146	254.88
597.355	253.88
597.564	231.88
597.774	222.88
597.983	236.88
598.192	238.88
598.401	229.88
598.61	228.88
598.819	217.88
599.028	244.88
599.237	225.88
599.446	219.88
599.655	241.88
599.864	248.88
600.073	243.88
600.282	241.88
600.491	211.88
600.7	224.88
600.909	235.88
601.118	221.88
601.327	238.88
601.536	225.88
601.745	217.88
601.953	215.88
602.162	228.88
602.371	218.88
602.58	216.88
602.789	227.88
602.997	219.88
603.206	221.88
603.415	225.88
603.623	199.88
603.832	222.88
604.041	212.88
604.249	215.88
604.458	236.88
604.666	204.88
604.875	212.88
605.084	194.88
605.292	209.88
605.501	215.88
605.709	213.88
605.918	222.88
606.126	219.88
606.334	217.88
606.543	220.88
606.751	216.88
606.96	220.88
607.168	214.88
607.376	194.88
607.585	212.88
607.793	217.88
608.001	231.88
608.21	202.88
608.418	205.88
608.626	213.88
608.834	207.88
609.043	203.88
609.251	213.88
609.459	214.88
609.667	214.88
609.875	203.88
610.083	206.88
610.291	213.88
610.499	198.88
610.707	221.88
610.916	220.88
611.124	214.88
611.332	203.88
611.54	222.88
611.748	214.88
611.955	211.88
612.163	203.88
612.371	203.88
612.579	206.88
612.787	202.88
612.995	201.88
613.203	212.88
613.411	206.88
613.618	218.88
613.826	194.88
614.034	199.88
614.242	198.88
614.449	203.88
614.657	212.88
614.865	190.88
615.072	199.88
615.28	197.88
615.488	215.88
615.695	196.88
615.903	188.88
616.111	206.88
616.318	210.88
616.526	210.88
616.733	208.88
616.941	198.88
617.148	205.88
617.356	202.88
617.563	197.88
617.771	204.88
617.978	214.88
618.185	203.88
618.393	216.88
618.6	209.88
618.807	203.88
619.015	199.88
619.222	190.88
619.429	202.88
619.637	193.88
619.844	189.88
620.051	184.88
620.258	191.88
620.466	186.88
620.673	185.88
620.88	205.88
621.087	207.88
621.294	199.88
621.501	193.88
621.708	201.88
621.915	188.88
622.122	183.88
622.329	197.88
622.536	189.88
622.743	211.88
622.95	200.88
623.157	188.88
623.364	182.88
623.571	168.88
623.778	181.88
623.985	179.88
624.192	174.88
624.399	183.88
624.606	199.88
624.812	196.88
625.019	188.88
625.226	188.88
625.433	197.88
625.639	197.88
625.846	210.88
626.053	180.88
626.259	194.88
626.466	190.88
626.673	180.88
626.879	171.88
627.086	199.88
627.293	187.88
627.499	182.88
627.706	187.88
627.912	181.88
628.119	182.88
628.325	190.88
628.532	170.88
628.738	177.88
628.945	181.88
629.151	196.88
629.357	167.88
629.564	183.88
629.77	167.88
629.976	179.88
630.183	181.88
630.389	175.88
630.595	171.88
630.802	159.88
631.008	178.88
631.214	163.88
631.42	174.88
631.627	175.88
631.833	171.88
632.039	173.88
632.245	165.88
632.451	178.88
632.657	167.88
632.863	173.88
633.069	172.88
633.275	180.88
633.481	167.88
633.688	172.88
633.893	164.88
634.099	172.88
634.305	168.88
634.511	163.88
634.717	150.88
634.923	159.88
635.129	157.88
635.335	169.88
635.541	156.88
635.747	182.88
635.952	163.88
636.158	157.88
636.364	175.88
636.57	165.88
636.775	166.88
636.981	161.88
637.187	154.88
637.392	161.88
637.598	146.88
637.804	158.88
638.009	158.88
638.215	168.88
638.421	159.88
638.626	165.88
638.832	157.88
639.037	155.88
639.243	135.88
639.448	149.88
639.654	158.88
639.859	171.88
640.065	145.88
640.27	142.88
640.475	156.88
640.681	158.88
640.886	158.88
641.091	146.88
641.297	154.88
641.502	156.88
641.707	162.88
641.913	163.88
642.118	151.88
642.323	141.88
642.528	178.88
642.733	143.88
642.939	138.88
643.144	160.88
643.349	149.88
643.554	162.88
643.759	153.88
643.964	158.88
644.169	160.88
644.374	144.88
644.579	150.88
644.784	166.88
644.989	143.88
645.194	155.88
645.399	142.88
645.604	172.88
645.809	148.88
646.014	150.88
646.219	164.88
646.423	138.88
646.628	138.88
646.833	155.88
647.038	163.88
647.243	160.88
647.447	158.88
647.652	143.88
647.857	153.88
648.062	140.88
648.266	156.88
648.471	154.88
648.676	168.88
648.88	156.88
649.085	146.88
649.289	152.88
649.494	150.88
649.698	168.88
649.903	156.88
650.107	150.88
650.312	156.88
650.516	157.88
650.721	146.88
650.925	127.88
651.13	139.88
651.334	126.88
651.539	124.88
651.743	143.88
651.947	137.88
652.152	135.88
652.356	129.88
652.56	138.88
652.764	139.88
652.969	134.88
653.173	134.88
653.377	131.88
653.581	126.88
653.785	136.88
653.99	123.88
654.194	128.88
654.398	134.88
654.602	118.88
654.806	135.88
655.01	144.88
655.214	127.88
655.418	146.88
655.622	127.88
655.826	129.88
656.03	125.88
656.234	118.88
656.438	141.88
656.642	135.88
656.846	124.88
657.049	130.88
657.253	121.88
657.457	130.88
657.661	129.88
657.865	99.88
658.068	104.88
658.272	113.88
658.476	117.88
658.68	94.88
658.883	113.88
659.087	89.88
659.291	101.88
659.494	104.88
659.698	107.88
659.901	119.88
660.105	99.88
660.309	87.88
660.512	91.88
660.716	85.88
660.919	92.88
661.123	94.88
661.326	97.88
661.53	97.88
661.733	88.88
661.936	93.88
662.14	89.88
662.343	80.88
662.546	87.88
662.75	79.88
662.953	84.88
663.156	85.88
663.36	82.88
663.563	102.88
663.766	93.88
663.969	94.88
664.173	78.88
664.376	93.88
664.579	76.88
664.782	99.88
664.985	86.88
665.188	85.88
665.391	90.88
665.594	86.88
665.797	91.88
666	79.88
666.203	78.88
666.406	88.88
666.609	81.88
666.812	77.88
667.015	82.88
667.218	73.88
667.421	88.88
667.624	88.88
667.827	83.88
668.03	83.88
668.232	86.88
668.435	84.88
668.638	86.88
668.841	98.88
669.043	72.88
669.246	83.88
669.449	87.88
669.651	76.88
669.854	87.88
670.057	81.88
670.259	77.88
670.462	82.88
670.665	84.88
670.867	69.88
671.07	80.88
671.272	86.88
671.475	81.88
671.677	83.88
671.88	79.88
672.082	73.88
672.284	75.88
672.487	80.88
672.689	76.88
672.892	90.88
