Data from 1964.PennyLincolnUp.Lamp.En5.5.200Scan.071719.P1._HRD10591_14-05-18-910.txt Node
Date: Thu Jul 18 14:05:18 EDT 2019
User: cochatt
Spectrometer: HR+D1059
Trigger mode: 1
Integration Time (sec): 1.000000E-1
Scans to average: 1
Electric dark correction enabled: true
Nonlinearity correction enabled: false
Boxcar width: 0
XAxis mode: Wavelengths
Number of Pixels in Spectrum: 2048
>>>>>Begin Spectral Data<<<<<
223.165	-8.31
223.4	-8.31
223.635	-8.31
223.869	-10.31
224.104	-10.31
224.338	-8.31
224.573	-22.31
224.808	-25.31
225.042	-14.31
225.277	7.69
225.511	0.69
225.746	-7.31
225.98	1.69
226.215	0.69
226.449	16.69
226.683	26.69
226.918	22.69
227.152	29.69
227.387	40.69
227.621	36.69
227.856	50.69
228.09	49.69
228.324	26.69
228.559	64.69
228.793	61.69
229.027	89.69
229.262	106.69
229.496	120.69
229.73	126.69
229.964	132.69
230.199	108.69
230.433	106.69
230.667	110.69
230.901	106.69
231.136	102.69
231.37	111.69
231.604	100.69
231.838	112.69
232.072	110.69
232.306	122.69
232.541	106.69
232.775	118.69
233.009	130.69
233.243	103.69
233.477	120.69
233.711	112.69
233.945	122.69
234.179	110.69
234.413	112.69
234.647	97.69
234.881	98.69
235.115	115.69
235.349	118.69
235.583	120.69
235.817	103.69
236.051	115.69
236.285	126.69
236.519	124.69
236.753	111.69
236.987	153.69
237.221	158.69
237.455	196.69
237.689	143.69
237.922	149.69
238.156	136.69
238.39	128.69
238.624	129.69
238.858	120.69
239.091	124.69
239.325	123.69
239.559	129.69
239.793	135.69
240.027	128.69
240.26	141.69
240.494	127.69
240.728	154.69
240.961	133.69
241.195	136.69
241.429	134.69
241.662	138.69
241.896	132.69
242.13	143.69
242.363	125.69
242.597	121.69
242.83	144.69
243.064	142.69
243.298	144.69
243.531	139.69
243.765	159.69
243.998	145.69
244.232	146.69
244.465	147.69
244.699	154.69
244.932	152.69
245.166	152.69
245.399	151.69
245.633	132.69
245.866	167.69
246.099	154.69
246.333	167.69
246.566	155.69
246.8	146.69
247.033	164.69
247.266	173.69
247.5	173.69
247.733	182.69
247.966	168.69
248.2	177.69
248.433	187.69
248.666	175.69
248.899	178.69
249.133	180.69
249.366	188.69
249.599	186.69
249.832	203.69
250.066	177.69
250.299	193.69
250.532	194.69
250.765	203.69
250.998	205.69
251.231	236.69
251.465	208.69
251.698	205.69
251.931	190.69
252.164	198.69
252.397	207.69
252.63	193.69
252.863	206.69
253.096	210.69
253.329	210.69
253.562	224.69
253.795	221.69
254.028	221.69
254.261	204.69
254.494	231.69
254.727	240.69
254.96	266.69
255.193	272.69
255.426	246.69
255.659	225.69
255.892	256.69
256.124	240.69
256.357	226.69
256.59	227.69
256.823	222.69
257.056	222.69
257.289	230.69
257.521	220.69
257.754	223.69
257.987	216.69
258.22	225.69
258.452	215.69
258.685	200.69
258.918	208.69
259.151	230.69
259.383	212.69
259.616	214.69
259.849	224.69
260.081	238.69
260.314	244.69
260.547	263.69
260.779	247.69
261.012	234.69
261.244	222.69
261.477	222.69
261.71	230.69
261.942	228.69
262.175	230.69
262.407	224.69
262.64	234.69
262.872	222.69
263.105	233.69
263.337	224.69
263.57	210.69
263.802	236.69
264.035	224.69
264.267	223.69
264.499	223.69
264.732	220.69
264.964	224.69
265.197	225.69
265.429	236.69
265.661	229.69
265.894	212.69
266.126	237.69
266.358	228.69
266.591	236.69
266.823	250.69
267.055	248.69
267.287	269.69
267.52	240.69
267.752	224.69
267.984	245.69
268.216	233.69
268.448	241.69
268.681	245.69
268.913	252.69
269.145	273.69
269.377	289.69
269.609	296.69
269.841	298.69
270.073	288.69
270.306	304.69
270.538	304.69
270.77	312.69
271.002	319.69
271.234	301.69
271.466	298.69
271.698	316.69
271.93	316.69
272.162	312.69
272.394	308.69
272.626	290.69
272.858	287.69
273.09	299.69
273.322	270.69
273.553	286.69
273.785	294.69
274.017	276.69
274.249	285.69
274.481	264.69
274.713	278.69
274.945	288.69
275.176	298.69
275.408	285.69
275.64	292.69
275.872	279.69
276.104	286.69
276.335	296.69
276.567	286.69
276.799	302.69
277.031	306.69
277.262	331.69
277.494	330.69
277.726	322.69
277.957	300.69
278.189	296.69
278.421	299.69
278.652	293.69
278.884	294.69
279.115	287.69
279.347	324.69
279.579	305.69
279.81	274.69
280.042	298.69
280.273	302.69
280.505	301.69
280.736	318.69
280.968	300.69
281.199	296.69
281.431	298.69
281.662	294.69
281.894	304.69
282.125	294.69
282.356	311.69
282.588	328.69
282.819	326.69
283.051	293.69
283.282	308.69
283.513	310.69
283.745	321.69
283.976	317.69
284.207	307.69
284.439	310.69
284.67	330.69
284.901	322.69
285.132	320.69
285.364	306.69
285.595	305.69
285.826	309.69
286.057	320.69
286.288	317.69
286.52	301.69
286.751	319.69
286.982	338.69
287.213	317.69
287.444	316.69
287.675	320.69
287.906	327.69
288.138	343.69
288.369	350.69
288.6	320.69
288.831	323.69
289.062	318.69
289.293	308.69
289.524	330.69
289.755	321.69
289.986	328.69
290.217	338.69
290.448	329.69
290.679	359.69
290.91	334.69
291.141	325.69
291.371	334.69
291.602	328.69
291.833	321.69
292.064	321.69
292.295	334.69
292.526	324.69
292.757	322.69
292.987	316.69
293.218	314.69
293.449	312.69
293.68	328.69
293.91	341.69
294.141	307.69
294.372	320.69
294.603	328.69
294.833	346.69
295.064	330.69
295.295	329.69
295.525	337.69
295.756	345.69
295.987	357.69
296.217	368.69
296.448	338.69
296.679	344.69
296.909	338.69
297.14	332.69
297.37	340.69
297.601	354.69
297.831	329.69
298.062	347.69
298.292	346.69
298.523	343.69
298.753	350.69
298.984	349.69
299.214	343.69
299.445	351.69
299.675	350.69
299.905	375.69
300.136	349.69
300.366	348.69
300.597	372.69
300.827	365.69
301.057	364.69
301.288	351.69
301.518	361.69
301.748	374.69
301.979	365.69
302.209	348.69
302.439	367.69
302.669	361.69
302.9	359.69
303.13	370.69
303.36	353.69
303.59	369.69
303.82	377.69
304.051	372.69
304.281	361.69
304.511	374.69
304.741	373.69
304.971	374.69
305.201	377.69
305.431	370.69
305.661	372.69
305.891	360.69
306.121	369.69
306.352	378.69
306.582	362.69
306.812	374.69
307.042	364.69
307.272	380.69
307.502	360.69
307.731	383.69
307.961	390.69
308.191	382.69
308.421	368.69
308.651	378.69
308.881	378.69
309.111	378.69
309.341	383.69
309.571	395.69
309.8	398.69
310.03	405.69
310.26	393.69
310.49	401.69
310.72	401.69
310.949	424.69
311.179	408.69
311.409	405.69
311.639	409.69
311.868	388.69
312.098	404.69
312.328	393.69
312.557	420.69
312.787	416.69
313.017	408.69
313.246	415.69
313.476	428.69
313.706	409.69
313.935	404.69
314.165	416.69
314.394	407.69
314.624	418.69
314.853	408.69
315.083	412.69
315.312	424.69
315.542	401.69
315.771	400.69
316.001	429.69
316.23	397.69
316.46	400.69
316.689	413.69
316.919	415.69
317.148	408.69
317.377	431.69
317.607	410.69
317.836	403.69
318.065	390.69
318.295	401.69
318.524	425.69
318.753	406.69
318.983	407.69
319.212	418.69
319.441	422.69
319.67	425.69
319.9	411.69
320.129	433.69
320.358	410.69
320.587	409.69
320.816	429.69
321.046	420.69
321.275	444.69
321.504	412.69
321.733	430.69
321.962	433.69
322.191	444.69
322.42	428.69
322.649	438.69
322.878	443.69
323.108	457.69
323.337	488.69
323.566	507.69
323.795	522.69
324.024	536.69
324.253	600.69
324.482	816.69
324.71	1181.69
324.939	1594.69
325.168	1332.69
325.397	733.69
325.626	574.69
325.855	501.69
326.084	490.69
326.313	484.69
326.542	476.69
326.77	548.69
326.999	592.69
327.228	751.69
327.457	1043.69
327.686	1210.69
327.914	832.69
328.143	607.69
328.372	563.69
328.6	539.69
328.829	529.69
329.058	511.69
329.287	522.69
329.515	536.69
329.744	515.69
329.972	524.69
330.201	518.69
330.43	545.69
330.658	537.69
330.887	580.69
331.115	536.69
331.344	495.69
331.572	508.69
331.801	506.69
332.03	505.69
332.258	491.69
332.486	474.69
332.715	473.69
332.943	482.69
333.172	477.69
333.4	497.69
333.629	501.69
333.857	505.69
334.085	527.69
334.314	533.69
334.542	552.69
334.771	560.69
334.999	524.69
335.227	503.69
335.455	523.69
335.684	491.69
335.912	481.69
336.14	480.69
336.369	487.69
336.597	494.69
336.825	495.69
337.053	479.69
337.281	500.69
337.51	450.69
337.738	464.69
337.966	487.69
338.194	477.69
338.422	459.69
338.65	472.69
338.878	487.69
339.106	470.69
339.334	466.69
339.562	444.69
339.79	459.69
340.018	464.69
340.246	452.69
340.474	477.69
340.702	451.69
340.93	438.69
341.158	448.69
341.386	481.69
341.614	462.69
341.842	461.69
342.07	449.69
342.298	475.69
342.526	449.69
342.754	423.69
342.981	448.69
343.209	462.69
343.437	449.69
343.665	476.69
343.893	479.69
344.12	482.69
344.348	472.69
344.576	439.69
344.804	471.69
345.031	468.69
345.259	469.69
345.487	458.69
345.714	453.69
345.942	446.69
346.17	450.69
346.397	412.69
346.625	455.69
346.853	440.69
347.08	441.69
347.308	437.69
347.535	434.69
347.763	447.69
347.99	446.69
348.218	442.69
348.445	427.69
348.673	443.69
348.9	431.69
349.128	431.69
349.355	412.69
349.583	405.69
349.81	434.69
350.037	429.69
350.265	426.69
350.492	432.69
350.72	405.69
350.947	416.69
351.174	439.69
351.402	433.69
351.629	432.69
351.856	413.69
352.083	430.69
352.311	439.69
352.538	422.69
352.765	426.69
352.992	388.69
353.22	407.69
353.447	402.69
353.674	413.69
353.901	404.69
354.128	420.69
354.355	390.69
354.583	407.69
354.81	395.69
355.037	413.69
355.264	401.69
355.491	402.69
355.718	396.69
355.945	390.69
356.172	386.69
356.399	420.69
356.626	417.69
356.853	398.69
357.08	413.69
357.307	400.69
357.534	391.69
357.761	390.69
357.988	400.69
358.215	421.69
358.441	399.69
358.668	403.69
358.895	411.69
359.122	405.69
359.349	417.69
359.576	425.69
359.802	425.69
360.029	449.69
360.256	436.69
360.483	419.69
360.709	422.69
360.936	425.69
361.163	404.69
361.39	442.69
361.616	421.69
361.843	396.69
362.07	418.69
362.296	434.69
362.523	407.69
362.749	419.69
362.976	413.69
363.203	425.69
363.429	411.69
363.656	407.69
363.882	398.69
364.109	396.69
364.335	411.69
364.562	414.69
364.788	398.69
365.015	409.69
365.241	397.69
365.468	410.69
365.694	408.69
365.92	415.69
366.147	397.69
366.373	402.69
366.599	400.69
366.826	393.69
367.052	401.69
367.278	405.69
367.505	416.69
367.731	399.69
367.957	390.69
368.184	386.69
368.41	408.69
368.636	395.69
368.862	427.69
369.089	408.69
369.315	412.69
369.541	407.69
369.767	411.69
369.993	405.69
370.219	400.69
370.445	397.69
370.672	394.69
370.898	414.69
371.124	414.69
371.35	396.69
371.576	385.69
371.802	388.69
372.028	400.69
372.254	405.69
372.48	414.69
372.706	401.69
372.932	405.69
373.158	404.69
373.384	406.69
373.61	429.69
373.835	415.69
374.061	402.69
374.287	396.69
374.513	426.69
374.739	421.69
374.965	413.69
375.191	394.69
375.416	402.69
375.642	397.69
375.868	396.69
376.094	413.69
376.319	402.69
376.545	414.69
376.771	415.69
376.997	402.69
377.222	386.69
377.448	413.69
377.674	412.69
377.899	386.69
378.125	407.69
378.35	406.69
378.576	403.69
378.802	395.69
379.027	396.69
379.253	383.69
379.478	397.69
379.704	389.69
379.929	404.69
380.155	394.69
380.38	390.69
380.606	395.69
380.831	399.69
381.057	413.69
381.282	403.69
381.507	395.69
381.733	408.69
381.958	378.69
382.184	405.69
382.409	397.69
382.634	394.69
382.86	398.69
383.085	418.69
383.31	393.69
383.535	409.69
383.761	413.69
383.986	449.69
384.211	419.69
384.436	430.69
384.662	406.69
384.887	438.69
385.112	426.69
385.337	442.69
385.562	437.69
385.787	447.69
386.013	431.69
386.238	447.69
386.463	418.69
386.688	434.69
386.913	431.69
387.138	444.69
387.363	449.69
387.588	428.69
387.813	429.69
388.038	432.69
388.263	449.69
388.488	420.69
388.713	427.69
388.938	433.69
389.163	428.69
389.387	432.69
389.612	442.69
389.837	423.69
390.062	416.69
390.287	441.69
390.512	431.69
390.736	435.69
390.961	430.69
391.186	446.69
391.411	436.69
391.636	454.69
391.86	438.69
392.085	458.69
392.31	436.69
392.534	440.69
392.759	453.69
392.984	437.69
393.208	451.69
393.433	446.69
393.658	453.69
393.882	448.69
394.107	433.69
394.331	438.69
394.556	452.69
394.78	438.69
395.005	431.69
395.229	452.69
395.454	432.69
395.678	442.69
395.903	463.69
396.127	484.69
396.352	484.69
396.576	447.69
396.801	456.69
397.025	439.69
397.249	457.69
397.474	469.69
397.698	446.69
397.922	478.69
398.147	474.69
398.371	479.69
398.595	479.69
398.82	481.69
399.044	503.69
399.268	536.69
399.492	578.69
399.717	579.69
399.941	590.69
400.165	615.69
400.389	605.69
400.613	544.69
400.837	524.69
401.062	524.69
401.286	515.69
401.51	496.69
401.734	465.69
401.958	490.69
402.182	479.69
402.406	470.69
402.63	496.69
402.854	512.69
403.078	504.69
403.302	508.69
403.526	492.69
403.75	501.69
403.974	520.69
404.198	503.69
404.422	513.69
404.645	517.69
404.869	552.69
405.093	532.69
405.317	582.69
405.541	595.69
405.765	548.69
405.988	519.69
406.212	555.69
406.436	535.69
406.66	550.69
406.883	551.69
407.107	571.69
407.331	594.69
407.555	649.69
407.778	634.69
408.002	589.69
408.226	575.69
408.449	538.69
408.673	542.69
408.896	553.69
409.12	589.69
409.344	569.69
409.567	504.69
409.791	519.69
410.014	507.69
410.238	520.69
410.461	520.69
410.685	515.69
410.908	510.69
411.132	562.69
411.355	568.69
411.578	549.69
411.802	506.69
412.025	483.69
412.249	523.69
412.472	540.69
412.695	544.69
412.919	546.69
413.142	517.69
413.365	486.69
413.589	496.69
413.812	501.69
414.035	481.69
414.258	471.69
414.482	483.69
414.705	453.69
414.928	470.69
415.151	480.69
415.374	489.69
415.597	466.69
415.821	461.69
416.044	471.69
416.267	457.69
416.49	471.69
416.713	473.69
416.936	469.69
417.159	465.69
417.382	469.69
417.605	468.69
417.828	452.69
418.051	474.69
418.274	465.69
418.497	467.69
418.72	465.69
418.943	456.69
419.166	485.69
419.389	487.69
419.611	536.69
419.834	510.69
420.057	505.69
420.28	490.69
420.503	497.69
420.726	495.69
420.948	496.69
421.171	508.69
421.394	534.69
421.617	492.69
421.839	475.69
422.062	464.69
422.285	486.69
422.507	526.69
422.73	582.69
422.953	539.69
423.175	498.69
423.398	491.69
423.621	498.69
423.843	535.69
424.066	525.69
424.288	524.69
424.511	515.69
424.733	531.69
424.956	597.69
425.178	585.69
425.401	600.69
425.623	606.69
425.846	539.69
426.068	523.69
426.291	505.69
426.513	481.69
426.735	487.69
426.958	525.69
427.18	594.69
427.402	701.69
427.625	735.69
427.847	622.69
428.069	582.69
428.292	526.69
428.514	478.69
428.736	479.69
428.958	467.69
429.181	464.69
429.403	458.69
429.625	472.69
429.847	494.69
430.069	534.69
430.292	539.69
430.514	474.69
430.736	457.69
430.958	438.69
431.18	440.69
431.402	440.69
431.624	447.69
431.846	453.69
432.068	457.69
432.29	459.69
432.512	460.69
432.734	448.69
432.956	445.69
433.178	443.69
433.4	444.69
433.622	450.69
433.844	456.69
434.066	454.69
434.287	454.69
434.509	456.69
434.731	462.69
434.953	470.69
435.175	464.69
435.397	512.69
435.618	481.69
435.84	534.69
436.062	606.69
436.284	654.69
436.505	542.69
436.727	500.69
436.949	478.69
437.17	470.69
437.392	449.69
437.614	467.69
437.835	484.69
438.057	557.69
438.278	631.69
438.5	596.69
438.721	676.69
438.943	620.69
439.165	520.69
439.386	496.69
439.608	493.69
439.829	514.69
440.05	492.69
440.272	530.69
440.493	526.69
440.715	475.69
440.936	460.69
441.158	460.69
441.379	476.69
441.6	474.69
441.822	486.69
442.043	513.69
442.264	573.69
442.486	603.69
442.707	528.69
442.928	481.69
443.149	508.69
443.371	513.69
443.592	546.69
443.813	615.69
444.034	667.69
444.255	560.69
444.476	544.69
444.698	521.69
444.919	519.69
445.14	642.69
445.361	591.69
445.582	552.69
445.803	587.69
446.024	625.69
446.245	642.69
446.466	578.69
446.687	525.69
446.908	494.69
447.129	453.69
447.35	447.69
447.571	443.69
447.792	452.69
448.013	457.69
448.234	440.69
448.455	477.69
448.675	568.69
448.896	658.69
449.117	565.69
449.338	538.69
449.559	633.69
449.779	694.69
450	567.69
450.221	476.69
450.442	460.69
450.662	434.69
450.883	430.69
451.104	429.69
451.324	450.69
451.545	426.69
451.766	429.69
451.986	402.69
452.207	404.69
452.428	412.69
452.648	395.69
452.869	405.69
453.089	432.69
453.31	434.69
453.53	414.69
453.751	402.69
453.971	399.69
454.192	392.69
454.412	400.69
454.633	379.69
454.853	400.69
455.073	395.69
455.294	403.69
455.514	461.69
455.734	438.69
455.955	397.69
456.175	390.69
456.395	389.69
456.616	401.69
456.836	390.69
457.056	381.69
457.276	378.69
457.497	365.69
457.717	382.69
457.937	393.69
458.157	389.69
458.377	401.69
458.598	424.69
458.818	461.69
459.038	502.69
459.258	520.69
459.478	454.69
459.698	442.69
459.918	431.69
460.138	449.69
460.358	457.69
460.578	453.69
460.798	462.69
461.018	459.69
461.238	450.69
461.458	463.69
461.678	460.69
461.898	465.69
462.118	461.69
462.338	473.69
462.558	468.69
462.777	467.69
462.997	495.69
463.217	521.69
463.437	513.69
463.657	504.69
463.876	478.69
464.096	482.69
464.316	507.69
464.536	497.69
464.755	475.69
464.975	505.69
465.195	483.69
465.414	530.69
465.634	485.69
465.854	451.69
466.073	429.69
466.293	430.69
466.512	427.69
466.732	415.69
466.951	400.69
467.171	423.69
467.391	422.69
467.61	418.69
467.829	424.69
468.049	421.69
468.268	444.69
468.488	402.69
468.707	402.69
468.927	400.69
469.146	408.69
469.365	420.69
469.585	409.69
469.804	416.69
470.023	432.69
470.243	428.69
470.462	423.69
470.681	436.69
470.901	424.69
471.12	424.69
471.339	419.69
471.558	431.69
471.777	424.69
471.997	411.69
472.216	413.69
472.435	454.69
472.654	436.69
472.873	423.69
473.092	430.69
473.311	424.69
473.53	402.69
473.749	430.69
473.968	461.69
474.187	530.69
474.406	529.69
474.625	474.69
474.844	440.69
475.063	423.69
475.282	431.69
475.501	416.69
475.72	440.69
475.939	435.69
476.158	419.69
476.377	423.69
476.596	419.69
476.814	447.69
477.033	450.69
477.252	437.69
477.471	421.69
477.69	442.69
477.908	454.69
478.127	464.69
478.346	460.69
478.564	455.69
478.783	475.69
479.002	466.69
479.22	489.69
479.439	501.69
479.658	470.69
479.876	493.69
480.095	504.69
480.313	530.69
480.532	516.69
480.751	509.69
480.969	514.69
481.188	566.69
481.406	573.69
481.624	524.69
481.843	507.69
482.061	488.69
482.28	484.69
482.498	484.69
482.717	474.69
482.935	487.69
483.153	463.69
483.372	477.69
483.59	516.69
483.808	456.69
484.027	478.69
484.245	476.69
484.463	480.69
484.681	500.69
484.9	497.69
485.118	474.69
485.336	489.69
485.554	488.69
485.772	488.69
485.99	493.69
486.209	504.69
486.427	482.69
486.645	522.69
486.863	522.69
487.081	529.69
487.299	520.69
487.517	527.69
487.735	518.69
487.953	505.69
488.171	502.69
488.389	528.69
488.607	526.69
488.825	514.69
489.043	524.69
489.261	520.69
489.479	538.69
489.696	528.69
489.914	505.69
490.132	520.69
490.35	536.69
490.568	535.69
490.786	531.69
491.003	546.69
491.221	559.69
491.439	556.69
491.657	549.69
491.874	542.69
492.092	584.69
492.31	589.69
492.527	579.69
492.745	594.69
492.963	586.69
493.18	578.69
493.398	577.69
493.615	583.69
493.833	595.69
494.05	590.69
494.268	593.69
494.485	565.69
494.703	580.69
494.92	576.69
495.138	598.69
495.355	606.69
495.573	610.69
495.79	600.69
496.008	610.69
496.225	617.69
496.442	598.69
496.66	621.69
496.877	605.69
497.094	620.69
497.312	622.69
497.529	622.69
497.746	636.69
497.963	655.69
498.181	649.69
498.398	673.69
498.615	687.69
498.832	697.69
499.049	730.69
499.267	735.69
499.484	756.69
499.701	790.69
499.918	816.69
500.135	874.69
500.352	941.69
500.569	944.69
500.786	950.69
501.003	900.69
501.22	891.69
501.437	834.69
501.654	824.69
501.871	806.69
502.088	752.69
502.305	704.69
502.522	708.69
502.739	689.69
502.956	677.69
503.172	654.69
503.389	632.69
503.606	631.69
503.823	645.69
504.04	612.69
504.256	623.69
504.473	594.69
504.69	601.69
504.907	610.69
505.123	582.69
505.34	564.69
505.557	573.69
505.773	593.69
505.99	551.69
506.207	556.69
506.423	572.69
506.64	543.69
506.856	577.69
507.073	528.69
507.289	538.69
507.506	542.69
507.722	544.69
507.939	553.69
508.155	547.69
508.372	523.69
508.588	535.69
508.805	531.69
509.021	540.69
509.238	531.69
509.454	544.69
509.67	517.69
509.887	521.69
510.103	500.69
510.319	527.69
510.536	570.69
510.752	775.69
510.968	661.69
511.184	503.69
511.401	514.69
511.617	478.69
511.833	495.69
512.049	496.69
512.265	501.69
512.481	493.69
512.698	504.69
512.914	482.69
513.13	489.69
513.346	473.69
513.562	501.69
513.778	494.69
513.994	516.69
514.21	510.69
514.426	500.69
514.642	515.69
514.858	523.69
515.074	551.69
515.29	607.69
515.506	794.69
515.721	670.69
515.937	555.69
516.153	541.69
516.369	512.69
516.585	514.69
516.801	530.69
517.016	520.69
517.232	529.69
517.448	525.69
517.664	536.69
517.879	566.69
518.095	530.69
518.311	533.69
518.527	528.69
518.742	525.69
518.958	509.69
519.173	490.69
519.389	504.69
519.605	494.69
519.82	530.69
520.036	507.69
520.251	541.69
520.467	533.69
520.682	497.69
520.898	529.69
521.113	536.69
521.329	528.69
521.544	562.69
521.76	657.69
521.975	912.69
522.19	889.69
522.406	583.69
522.621	500.69
522.836	465.69
523.052	472.69
523.267	456.69
523.482	446.69
523.698	450.69
523.913	431.69
524.128	450.69
524.343	424.69
524.559	434.69
524.774	434.69
524.989	425.69
525.204	438.69
525.419	447.69
525.634	427.69
525.849	422.69
526.064	440.69
526.28	421.69
526.495	424.69
526.71	415.69
526.925	427.69
527.14	390.69
527.355	422.69
527.57	429.69
527.785	434.69
527.999	414.69
528.214	425.69
528.429	433.69
528.644	421.69
528.859	411.69
529.074	422.69
529.289	442.69
529.503	466.69
529.718	440.69
529.933	427.69
530.148	415.69
530.363	441.69
530.577	402.69
530.792	434.69
531.007	411.69
531.221	441.69
531.436	405.69
531.651	389.69
531.865	405.69
532.08	385.69
532.295	411.69
532.509	408.69
532.724	399.69
532.938	420.69
533.153	413.69
533.367	414.69
533.582	401.69
533.796	402.69
534.011	393.69
534.225	409.69
534.44	400.69
534.654	406.69
534.868	399.69
535.083	403.69
535.297	388.69
535.511	417.69
535.726	394.69
535.94	401.69
536.154	400.69
536.369	401.69
536.583	398.69
536.797	401.69
537.011	405.69
537.225	406.69
537.44	376.69
537.654	378.69
537.868	392.69
538.082	388.69
538.296	406.69
538.51	393.69
538.724	374.69
538.938	383.69
539.153	397.69
539.367	386.69
539.581	393.69
539.795	378.69
540.009	370.69
540.222	374.69
540.436	397.69
540.65	409.69
540.864	385.69
541.078	398.69
541.292	412.69
541.506	360.69
541.72	408.69
541.934	384.69
542.147	405.69
542.361	394.69
542.575	367.69
542.789	375.69
543.002	398.69
543.216	389.69
543.43	383.69
543.644	385.69
543.857	361.69
544.071	382.69
544.285	386.69
544.498	354.69
544.712	388.69
544.925	388.69
545.139	388.69
545.352	358.69
545.566	367.69
545.779	360.69
545.993	377.69
546.206	385.69
546.42	380.69
546.633	382.69
546.847	389.69
547.06	404.69
547.274	367.69
547.487	364.69
547.7	380.69
547.914	376.69
548.127	377.69
548.34	385.69
548.554	375.69
548.767	378.69
548.98	388.69
549.193	372.69
549.407	365.69
549.62	357.69
549.833	362.69
550.046	383.69
550.259	357.69
550.473	384.69
550.686	372.69
550.899	379.69
551.112	354.69
551.325	359.69
551.538	374.69
551.751	368.69
551.964	374.69
552.177	362.69
552.39	377.69
552.603	394.69
552.816	387.69
553.029	381.69
553.242	396.69
553.455	380.69
553.667	385.69
553.88	412.69
554.093	380.69
554.306	396.69
554.519	383.69
554.732	380.69
554.944	370.69
555.157	365.69
555.37	336.69
555.583	363.69
555.795	359.69
556.008	339.69
556.221	356.69
556.433	328.69
556.646	332.69
556.859	359.69
557.071	339.69
557.284	354.69
557.496	332.69
557.709	361.69
557.921	328.69
558.134	337.69
558.346	336.69
558.559	327.69
558.771	345.69
558.984	335.69
559.196	330.69
559.409	320.69
559.621	329.69
559.833	335.69
560.046	329.69
560.258	315.69
560.47	310.69
560.683	344.69
560.895	316.69
561.107	331.69
561.32	311.69
561.532	338.69
561.744	335.69
561.956	324.69
562.168	342.69
562.381	346.69
562.593	337.69
562.805	330.69
563.017	328.69
563.229	342.69
563.441	335.69
563.653	332.69
563.865	344.69
564.077	343.69
564.289	348.69
564.501	357.69
564.713	353.69
564.925	352.69
565.137	374.69
565.349	347.69
565.561	365.69
565.773	381.69
565.985	381.69
566.197	395.69
566.408	394.69
566.62	433.69
566.832	422.69
567.044	441.69
567.255	444.69
567.467	436.69
567.679	440.69
567.891	454.69
568.102	450.69
568.314	439.69
568.526	403.69
568.737	411.69
568.949	388.69
569.161	375.69
569.372	346.69
569.584	348.69
569.795	342.69
570.007	357.69
570.218	358.69
570.43	357.69
570.641	342.69
570.853	317.69
571.064	342.69
571.276	336.69
571.487	317.69
571.698	314.69
571.91	339.69
572.121	321.69
572.333	299.69
572.544	317.69
572.755	301.69
572.966	308.69
573.178	304.69
573.389	292.69
573.6	283.69
573.811	297.69
574.023	289.69
574.234	312.69
574.445	289.69
574.656	288.69
574.867	280.69
575.078	292.69
575.289	271.69
575.501	283.69
575.712	291.69
575.923	284.69
576.134	301.69
576.345	297.69
576.556	292.69
576.767	288.69
576.978	287.69
577.188	284.69
577.399	305.69
577.61	265.69
577.821	278.69
578.032	286.69
578.243	285.69
578.454	394.69
578.665	324.69
578.875	276.69
579.086	270.69
579.297	285.69
579.508	271.69
579.718	270.69
579.929	268.69
580.14	277.69
580.35	262.69
580.561	254.69
580.772	281.69
580.982	262.69
581.193	263.69
581.403	260.69
581.614	270.69
581.825	282.69
582.035	279.69
582.246	233.69
582.456	242.69
582.667	273.69
582.877	267.69
583.087	246.69
583.298	274.69
583.508	254.69
583.719	274.69
583.929	266.69
584.139	251.69
584.35	242.69
584.56	249.69
584.77	266.69
584.981	257.69
585.191	263.69
585.401	254.69
585.611	254.69
585.821	257.69
586.032	251.69
586.242	249.69
586.452	228.69
586.662	273.69
586.872	257.69
587.082	273.69
587.292	254.69
587.502	258.69
587.713	253.69
587.923	252.69
588.133	241.69
588.343	249.69
588.553	250.69
588.762	242.69
588.972	260.69
589.182	284.69
589.392	269.69
589.602	250.69
589.812	256.69
590.022	281.69
590.232	250.69
590.441	260.69
590.651	248.69
590.861	245.69
591.071	263.69
591.281	264.69
591.49	272.69
591.7	263.69
591.91	265.69
592.119	246.69
592.329	270.69
592.539	269.69
592.748	271.69
592.958	280.69
593.167	249.69
593.377	297.69
593.587	290.69
593.796	288.69
594.006	293.69
594.215	260.69
594.424	257.69
594.634	284.69
594.843	268.69
595.053	279.69
595.262	264.69
595.472	275.69
595.681	241.69
595.89	247.69
596.1	255.69
596.309	244.69
596.518	257.69
596.727	247.69
596.937	245.69
597.146	225.69
597.355	240.69
597.564	239.69
597.774	244.69
597.983	239.69
598.192	230.69
598.401	238.69
598.61	230.69
598.819	223.69
599.028	252.69
599.237	228.69
599.446	232.69
599.655	232.69
599.864	230.69
600.073	222.69
600.282	230.69
600.491	211.69
600.7	225.69
600.909	230.69
601.118	227.69
601.327	225.69
601.536	239.69
601.745	228.69
601.953	229.69
602.162	211.69
602.371	214.69
602.58	223.69
602.789	229.69
602.997	221.69
603.206	218.69
603.415	230.69
603.623	219.69
603.832	221.69
604.041	207.69
604.249	218.69
604.458	216.69
604.666	218.69
604.875	228.69
605.084	206.69
605.292	231.69
605.501	221.69
605.709	219.69
605.918	214.69
606.126	224.69
606.334	222.69
606.543	214.69
606.751	224.69
606.96	209.69
607.168	214.69
607.376	224.69
607.585	205.69
607.793	206.69
608.001	217.69
608.21	215.69
608.418	206.69
608.626	216.69
608.834	183.69
609.043	225.69
609.251	209.69
609.459	206.69
609.667	206.69
609.875	206.69
610.083	191.69
610.291	214.69
610.499	213.69
610.707	215.69
610.916	213.69
611.124	213.69
611.332	222.69
611.54	222.69
611.748	215.69
611.955	214.69
612.163	198.69
612.371	210.69
612.579	202.69
612.787	192.69
612.995	192.69
613.203	220.69
613.411	202.69
613.618	212.69
613.826	205.69
614.034	232.69
614.242	214.69
614.449	216.69
614.657	192.69
614.865	177.69
615.072	191.69
615.28	189.69
615.488	211.69
615.695	200.69
615.903	185.69
616.111	205.69
616.318	206.69
616.526	199.69
616.733	212.69
616.941	191.69
617.148	197.69
617.356	210.69
617.563	179.69
617.771	193.69
617.978	188.69
618.185	196.69
618.393	192.69
618.6	218.69
618.807	202.69
619.015	209.69
619.222	200.69
619.429	201.69
619.637	193.69
619.844	190.69
620.051	176.69
620.258	201.69
620.466	205.69
620.673	193.69
620.88	176.69
621.087	184.69
621.294	199.69
621.501	186.69
621.708	195.69
621.915	209.69
622.122	180.69
622.329	191.69
622.536	204.69
622.743	183.69
622.95	203.69
623.157	189.69
623.364	196.69
623.571	186.69
623.778	192.69
623.985	178.69
624.192	186.69
624.399	178.69
624.606	190.69
624.812	190.69
625.019	185.69
625.226	182.69
625.433	180.69
625.639	193.69
625.846	172.69
626.053	169.69
626.259	189.69
626.466	176.69
626.673	171.69
626.879	186.69
627.086	188.69
627.293	193.69
627.499	180.69
627.706	165.69
627.912	184.69
628.119	186.69
628.325	174.69
628.532	180.69
628.738	186.69
628.945	190.69
629.151	182.69
629.357	173.69
629.564	172.69
629.77	177.69
629.976	186.69
630.183	190.69
630.389	183.69
630.595	178.69
630.802	180.69
631.008	179.69
631.214	184.69
631.42	173.69
631.627	174.69
631.833	165.69
632.039	186.69
632.245	164.69
632.451	164.69
632.657	168.69
632.863	161.69
633.069	164.69
633.275	172.69
633.481	170.69
633.688	168.69
633.893	185.69
634.099	183.69
634.305	156.69
634.511	168.69
634.717	166.69
634.923	164.69
635.129	163.69
635.335	164.69
635.541	164.69
635.747	182.69
635.952	163.69
636.158	163.69
636.364	173.69
636.57	182.69
636.775	160.69
636.981	160.69
637.187	156.69
637.392	159.69
637.598	166.69
637.804	156.69
638.009	144.69
638.215	152.69
638.421	155.69
638.626	164.69
638.832	169.69
639.037	158.69
639.243	150.69
639.448	146.69
639.654	157.69
639.859	146.69
640.065	145.69
640.27	172.69
640.475	170.69
640.681	153.69
640.886	150.69
641.091	154.69
641.297	166.69
641.502	163.69
641.707	144.69
641.913	156.69
642.118	167.69
642.323	159.69
642.528	155.69
642.733	145.69
642.939	170.69
643.144	158.69
643.349	145.69
643.554	161.69
643.759	150.69
643.964	147.69
644.169	149.69
644.374	162.69
644.579	142.69
644.784	143.69
644.989	150.69
645.194	132.69
645.399	149.69
645.604	154.69
645.809	144.69
646.014	140.69
646.219	150.69
646.423	152.69
646.628	143.69
646.833	157.69
647.038	154.69
647.243	156.69
647.447	153.69
647.652	147.69
647.857	134.69
648.062	151.69
648.266	143.69
648.471	167.69
648.676	166.69
648.88	164.69
649.085	152.69
649.289	150.69
649.494	158.69
649.698	172.69
649.903	165.69
650.107	145.69
650.312	136.69
650.516	145.69
650.721	157.69
650.925	137.69
651.13	152.69
651.334	129.69
651.539	137.69
651.743	145.69
651.947	129.69
652.152	137.69
652.356	132.69
652.56	144.69
652.764	130.69
652.969	137.69
653.173	126.69
653.377	125.69
653.581	133.69
653.785	136.69
653.99	134.69
654.194	125.69
654.398	129.69
654.602	132.69
654.806	132.69
655.01	119.69
655.214	150.69
655.418	123.69
655.622	139.69
655.826	143.69
656.03	124.69
656.234	139.69
656.438	130.69
656.642	142.69
656.846	133.69
657.049	104.69
657.253	114.69
657.457	124.69
657.661	124.69
657.865	126.69
658.068	120.69
658.272	104.69
658.476	97.69
658.68	100.69
658.883	96.69
659.087	112.69
659.291	100.69
659.494	113.69
659.698	99.69
659.901	91.69
660.105	102.69
660.309	98.69
660.512	97.69
660.716	98.69
660.919	108.69
661.123	87.69
661.326	93.69
661.53	81.69
661.733	83.69
661.936	88.69
662.14	89.69
662.343	82.69
662.546	79.69
662.75	104.69
662.953	92.69
663.156	81.69
663.36	84.69
663.563	78.69
663.766	97.69
663.969	82.69
664.173	87.69
664.376	91.69
664.579	78.69
664.782	84.69
664.985	88.69
665.188	78.69
665.391	90.69
665.594	80.69
665.797	89.69
666	91.69
666.203	65.69
666.406	91.69
666.609	94.69
666.812	101.69
667.015	86.69
667.218	90.69
667.421	89.69
667.624	88.69
667.827	88.69
668.03	88.69
668.232	79.69
668.435	88.69
668.638	87.69
668.841	91.69
669.043	87.69
669.246	82.69
669.449	78.69
669.651	86.69
669.854	75.69
670.057	90.69
670.259	79.69
670.462	86.69
670.665	95.69
670.867	85.69
671.07	96.69
671.272	91.69
671.475	84.69
671.677	77.69
671.88	70.69
672.082	79.69
672.284	85.69
672.487	81.69
672.689	76.69
672.892	88.69
