Data from 1964.PennyLincolnUp.Lamp.En5.5.200Scan.071719.P1._HRD10591_14-06-30-910.txt Node
Date: Thu Jul 18 14:06:30 EDT 2019
User: cochatt
Spectrometer: HR+D1059
Trigger mode: 1
Integration Time (sec): 1.000000E-1
Scans to average: 1
Electric dark correction enabled: true
Nonlinearity correction enabled: false
Boxcar width: 0
XAxis mode: Wavelengths
Number of Pixels in Spectrum: 2048
>>>>>Begin Spectral Data<<<<<
223.165	-13.25
223.4	-13.25
223.635	-13.25
223.869	-4.25
224.104	-20.25
224.338	-17.25
224.573	-19.25
224.808	-17.25
225.042	0.75
225.277	-10.25
225.511	8.75
225.746	5.75
225.98	5.75
226.215	7.75
226.449	8.75
226.683	16.75
226.918	24.75
227.152	22.75
227.387	34.75
227.621	33.75
227.856	45.75
228.09	48.75
228.324	45.75
228.559	58.75
228.793	72.75
229.027	87.75
229.262	108.75
229.496	100.75
229.73	117.75
229.964	126.75
230.199	121.75
230.433	116.75
230.667	104.75
230.901	107.75
231.136	116.75
231.37	105.75
231.604	108.75
231.838	119.75
232.072	123.75
232.306	103.75
232.541	116.75
232.775	121.75
233.009	113.75
233.243	119.75
233.477	119.75
233.711	116.75
233.945	123.75
234.179	112.75
234.413	127.75
234.647	114.75
234.881	107.75
235.115	132.75
235.349	127.75
235.583	130.75
235.817	122.75
236.051	131.75
236.285	106.75
236.519	116.75
236.753	125.75
236.987	153.75
237.221	167.75
237.455	213.75
237.689	164.75
237.922	145.75
238.156	140.75
238.39	126.75
238.624	133.75
238.858	117.75
239.091	124.75
239.325	134.75
239.559	126.75
239.793	125.75
240.027	142.75
240.26	148.75
240.494	156.75
240.728	150.75
240.961	146.75
241.195	165.75
241.429	155.75
241.662	150.75
241.896	140.75
242.13	128.75
242.363	143.75
242.597	145.75
242.83	132.75
243.064	157.75
243.298	147.75
243.531	154.75
243.765	143.75
243.998	134.75
244.232	150.75
244.465	151.75
244.699	153.75
244.932	144.75
245.166	144.75
245.399	152.75
245.633	153.75
245.866	142.75
246.099	152.75
246.333	162.75
246.566	173.75
246.8	167.75
247.033	156.75
247.266	145.75
247.5	161.75
247.733	174.75
247.966	159.75
248.2	169.75
248.433	179.75
248.666	204.75
248.899	190.75
249.133	193.75
249.366	215.75
249.599	197.75
249.832	199.75
250.066	191.75
250.299	194.75
250.532	189.75
250.765	203.75
250.998	213.75
251.231	222.75
251.465	208.75
251.698	207.75
251.931	211.75
252.164	205.75
252.397	215.75
252.63	207.75
252.863	221.75
253.096	222.75
253.329	235.75
253.562	235.75
253.795	220.75
254.028	217.75
254.261	246.75
254.494	229.75
254.727	267.75
254.96	278.75
255.193	262.75
255.426	245.75
255.659	242.75
255.892	236.75
256.124	254.75
256.357	258.75
256.59	247.75
256.823	251.75
257.056	203.75
257.289	220.75
257.521	234.75
257.754	236.75
257.987	208.75
258.22	225.75
258.452	220.75
258.685	227.75
258.918	209.75
259.151	214.75
259.383	244.75
259.616	224.75
259.849	239.75
260.081	252.75
260.314	269.75
260.547	277.75
260.779	253.75
261.012	246.75
261.244	239.75
261.477	228.75
261.71	238.75
261.942	226.75
262.175	232.75
262.407	235.75
262.64	233.75
262.872	245.75
263.105	237.75
263.337	237.75
263.57	233.75
263.802	231.75
264.035	244.75
264.267	223.75
264.499	228.75
264.732	236.75
264.964	234.75
265.197	228.75
265.429	239.75
265.661	242.75
265.894	233.75
266.126	236.75
266.358	247.75
266.591	250.75
266.823	246.75
267.055	239.75
267.287	236.75
267.52	239.75
267.752	244.75
267.984	254.75
268.216	249.75
268.448	244.75
268.681	280.75
268.913	270.75
269.145	283.75
269.377	301.75
269.609	303.75
269.841	297.75
270.073	298.75
270.306	321.75
270.538	333.75
270.77	315.75
271.002	323.75
271.234	308.75
271.466	312.75
271.698	314.75
271.93	335.75
272.162	332.75
272.394	338.75
272.626	333.75
272.858	308.75
273.09	292.75
273.322	287.75
273.553	277.75
273.785	296.75
274.017	286.75
274.249	314.75
274.481	297.75
274.713	291.75
274.945	301.75
275.176	307.75
275.408	298.75
275.64	286.75
275.872	284.75
276.104	275.75
276.335	307.75
276.567	299.75
276.799	316.75
277.031	330.75
277.262	339.75
277.494	332.75
277.726	314.75
277.957	298.75
278.189	310.75
278.421	300.75
278.652	298.75
278.884	307.75
279.115	308.75
279.347	311.75
279.579	287.75
279.81	282.75
280.042	316.75
280.273	296.75
280.505	314.75
280.736	297.75
280.968	302.75
281.199	311.75
281.431	315.75
281.662	304.75
281.894	298.75
282.125	301.75
282.356	308.75
282.588	321.75
282.819	334.75
283.051	313.75
283.282	304.75
283.513	335.75
283.745	317.75
283.976	314.75
284.207	332.75
284.439	332.75
284.67	316.75
284.901	306.75
285.132	321.75
285.364	313.75
285.595	317.75
285.826	317.75
286.057	347.75
286.288	319.75
286.52	303.75
286.751	322.75
286.982	306.75
287.213	309.75
287.444	315.75
287.675	324.75
287.906	328.75
288.138	336.75
288.369	336.75
288.6	329.75
288.831	336.75
289.062	331.75
289.293	337.75
289.524	335.75
289.755	331.75
289.986	329.75
290.217	322.75
290.448	336.75
290.679	323.75
290.91	326.75
291.141	320.75
291.371	331.75
291.602	328.75
291.833	333.75
292.064	335.75
292.295	316.75
292.526	339.75
292.757	327.75
292.987	326.75
293.218	333.75
293.449	346.75
293.68	321.75
293.91	331.75
294.141	332.75
294.372	354.75
294.603	336.75
294.833	333.75
295.064	332.75
295.295	355.75
295.525	339.75
295.756	340.75
295.987	350.75
296.217	363.75
296.448	359.75
296.679	336.75
296.909	350.75
297.14	334.75
297.37	356.75
297.601	333.75
297.831	339.75
298.062	345.75
298.292	362.75
298.523	357.75
298.753	351.75
298.984	356.75
299.214	365.75
299.445	361.75
299.675	366.75
299.905	377.75
300.136	351.75
300.366	356.75
300.597	370.75
300.827	362.75
301.057	357.75
301.288	378.75
301.518	376.75
301.748	377.75
301.979	363.75
302.209	390.75
302.439	378.75
302.669	364.75
302.9	363.75
303.13	366.75
303.36	361.75
303.59	375.75
303.82	386.75
304.051	378.75
304.281	371.75
304.511	368.75
304.741	363.75
304.971	383.75
305.201	384.75
305.431	381.75
305.661	383.75
305.891	377.75
306.121	376.75
306.352	388.75
306.582	382.75
306.812	371.75
307.042	372.75
307.272	382.75
307.502	375.75
307.731	387.75
307.961	380.75
308.191	374.75
308.421	363.75
308.651	393.75
308.881	386.75
309.111	390.75
309.341	381.75
309.571	389.75
309.8	406.75
310.03	395.75
310.26	405.75
310.49	406.75
310.72	405.75
310.949	436.75
311.179	434.75
311.409	420.75
311.639	400.75
311.868	422.75
312.098	406.75
312.328	425.75
312.557	422.75
312.787	441.75
313.017	430.75
313.246	426.75
313.476	393.75
313.706	387.75
313.935	426.75
314.165	418.75
314.394	422.75
314.624	422.75
314.853	441.75
315.083	406.75
315.312	447.75
315.542	421.75
315.771	426.75
316.001	416.75
316.23	404.75
316.46	432.75
316.689	440.75
316.919	426.75
317.148	409.75
317.377	441.75
317.607	426.75
317.836	416.75
318.065	437.75
318.295	440.75
318.524	427.75
318.753	424.75
318.983	400.75
319.212	408.75
319.441	423.75
319.67	451.75
319.9	415.75
320.129	429.75
320.358	414.75
320.587	429.75
320.816	441.75
321.046	417.75
321.275	426.75
321.504	441.75
321.733	453.75
321.962	462.75
322.191	443.75
322.42	478.75
322.649	476.75
322.878	474.75
323.108	479.75
323.337	468.75
323.566	512.75
323.795	531.75
324.024	559.75
324.253	674.75
324.482	884.75
324.71	1295.75
324.939	1794.75
325.168	1515.75
325.397	804.75
325.626	616.75
325.855	514.75
326.084	521.75
326.313	503.75
326.542	499.75
326.77	535.75
326.999	636.75
327.228	830.75
327.457	1130.75
327.686	1328.75
327.914	906.75
328.143	666.75
328.372	591.75
328.6	572.75
328.829	562.75
329.058	567.75
329.287	579.75
329.515	553.75
329.744	528.75
329.972	493.75
330.201	544.75
330.43	582.75
330.658	588.75
330.887	606.75
331.115	590.75
331.344	535.75
331.572	521.75
331.801	519.75
332.03	502.75
332.258	519.75
332.486	504.75
332.715	485.75
332.943	498.75
333.172	508.75
333.4	546.75
333.629	509.75
333.857	557.75
334.085	533.75
334.314	560.75
334.542	578.75
334.771	574.75
334.999	545.75
335.227	540.75
335.455	527.75
335.684	503.75
335.912	511.75
336.14	503.75
336.369	501.75
336.597	493.75
336.825	474.75
337.053	478.75
337.281	494.75
337.51	491.75
337.738	475.75
337.966	488.75
338.194	487.75
338.422	499.75
338.65	513.75
338.878	492.75
339.106	486.75
339.334	467.75
339.562	490.75
339.79	463.75
340.018	483.75
340.246	463.75
340.474	469.75
340.702	454.75
340.93	484.75
341.158	478.75
341.386	467.75
341.614	456.75
341.842	483.75
342.07	462.75
342.298	465.75
342.526	452.75
342.754	457.75
342.981	428.75
343.209	452.75
343.437	458.75
343.665	468.75
343.893	475.75
344.12	507.75
344.348	491.75
344.576	488.75
344.804	476.75
345.031	470.75
345.259	476.75
345.487	469.75
345.714	466.75
345.942	470.75
346.17	455.75
346.397	439.75
346.625	424.75
346.853	431.75
347.08	449.75
347.308	448.75
347.535	459.75
347.763	440.75
347.99	452.75
348.218	435.75
348.445	457.75
348.673	470.75
348.9	436.75
349.128	429.75
349.355	431.75
349.583	426.75
349.81	444.75
350.037	442.75
350.265	420.75
350.492	438.75
350.72	429.75
350.947	429.75
351.174	435.75
351.402	440.75
351.629	443.75
351.856	425.75
352.083	449.75
352.311	446.75
352.538	419.75
352.765	435.75
352.992	450.75
353.22	424.75
353.447	456.75
353.674	431.75
353.901	424.75
354.128	419.75
354.355	409.75
354.583	434.75
354.81	416.75
355.037	399.75
355.264	404.75
355.491	428.75
355.718	422.75
355.945	413.75
356.172	413.75
356.399	405.75
356.626	429.75
356.853	430.75
357.08	401.75
357.307	412.75
357.534	420.75
357.761	405.75
357.988	422.75
358.215	390.75
358.441	405.75
358.668	416.75
358.895	420.75
359.122	426.75
359.349	415.75
359.576	423.75
359.802	441.75
360.029	455.75
360.256	447.75
360.483	441.75
360.709	423.75
360.936	423.75
361.163	443.75
361.39	433.75
361.616	425.75
361.843	414.75
362.07	435.75
362.296	424.75
362.523	412.75
362.749	422.75
362.976	413.75
363.203	389.75
363.429	403.75
363.656	402.75
363.882	388.75
364.109	398.75
364.335	413.75
364.562	419.75
364.788	425.75
365.015	419.75
365.241	404.75
365.468	414.75
365.694	424.75
365.92	393.75
366.147	392.75
366.373	399.75
366.599	411.75
366.826	397.75
367.052	404.75
367.278	409.75
367.505	415.75
367.731	411.75
367.957	407.75
368.184	393.75
368.41	399.75
368.636	416.75
368.862	429.75
369.089	406.75
369.315	400.75
369.541	404.75
369.767	405.75
369.993	407.75
370.219	392.75
370.445	423.75
370.672	412.75
370.898	405.75
371.124	400.75
371.35	423.75
371.576	418.75
371.802	419.75
372.028	430.75
372.254	411.75
372.48	410.75
372.706	421.75
372.932	436.75
373.158	405.75
373.384	420.75
373.61	405.75
373.835	398.75
374.061	417.75
374.287	416.75
374.513	408.75
374.739	425.75
374.965	412.75
375.191	412.75
375.416	413.75
375.642	422.75
375.868	412.75
376.094	400.75
376.319	409.75
376.545	406.75
376.771	394.75
376.997	398.75
377.222	413.75
377.448	412.75
377.674	406.75
377.899	385.75
378.125	403.75
378.35	405.75
378.576	406.75
378.802	395.75
379.027	400.75
379.253	384.75
379.478	400.75
379.704	414.75
379.929	420.75
380.155	383.75
380.38	392.75
380.606	416.75
380.831	408.75
381.057	395.75
381.282	394.75
381.507	399.75
381.733	405.75
381.958	383.75
382.184	408.75
382.409	398.75
382.634	406.75
382.86	408.75
383.085	419.75
383.31	407.75
383.535	420.75
383.761	416.75
383.986	421.75
384.211	444.75
384.436	408.75
384.662	431.75
384.887	439.75
385.112	444.75
385.337	434.75
385.562	438.75
385.787	450.75
386.013	451.75
386.238	472.75
386.463	441.75
386.688	461.75
386.913	426.75
387.138	413.75
387.363	438.75
387.588	446.75
387.813	435.75
388.038	460.75
388.263	464.75
388.488	431.75
388.713	431.75
388.938	428.75
389.163	435.75
389.387	437.75
389.612	426.75
389.837	430.75
390.062	425.75
390.287	432.75
390.512	424.75
390.736	455.75
390.961	453.75
391.186	435.75
391.411	448.75
391.636	443.75
391.86	453.75
392.085	465.75
392.31	463.75
392.534	446.75
392.759	454.75
392.984	448.75
393.208	436.75
393.433	447.75
393.658	452.75
393.882	453.75
394.107	430.75
394.331	449.75
394.556	445.75
394.78	450.75
395.005	440.75
395.229	438.75
395.454	446.75
395.678	459.75
395.903	480.75
396.127	477.75
396.352	475.75
396.576	464.75
396.801	446.75
397.025	469.75
397.249	472.75
397.474	461.75
397.698	466.75
397.922	479.75
398.147	488.75
398.371	486.75
398.595	493.75
398.82	494.75
399.044	519.75
399.268	550.75
399.492	576.75
399.717	599.75
399.941	606.75
400.165	630.75
400.389	626.75
400.613	570.75
400.837	544.75
401.062	528.75
401.286	525.75
401.51	501.75
401.734	506.75
401.958	510.75
402.182	491.75
402.406	508.75
402.63	502.75
402.854	507.75
403.078	520.75
403.302	526.75
403.526	506.75
403.75	534.75
403.974	523.75
404.198	512.75
404.422	513.75
404.645	516.75
404.869	534.75
405.093	560.75
405.317	590.75
405.541	608.75
405.765	548.75
405.988	530.75
406.212	532.75
406.436	552.75
406.66	570.75
406.883	554.75
407.107	562.75
407.331	626.75
407.555	668.75
407.778	671.75
408.002	609.75
408.226	588.75
408.449	541.75
408.673	577.75
408.896	596.75
409.12	596.75
409.344	579.75
409.567	522.75
409.791	520.75
410.014	519.75
410.238	503.75
410.461	512.75
410.685	521.75
410.908	519.75
411.132	555.75
411.355	576.75
411.578	564.75
411.802	524.75
412.025	506.75
412.249	511.75
412.472	519.75
412.695	586.75
412.919	571.75
413.142	525.75
413.365	520.75
413.589	505.75
413.812	503.75
414.035	491.75
414.258	464.75
414.482	482.75
414.705	473.75
414.928	490.75
415.151	478.75
415.374	477.75
415.597	461.75
415.821	474.75
416.044	461.75
416.267	447.75
416.49	471.75
416.713	459.75
416.936	482.75
417.159	479.75
417.382	484.75
417.605	496.75
417.828	470.75
418.051	491.75
418.274	501.75
418.497	462.75
418.72	468.75
418.943	475.75
419.166	485.75
419.389	524.75
419.611	501.75
419.834	501.75
420.057	516.75
420.28	522.75
420.503	514.75
420.726	485.75
420.948	498.75
421.171	546.75
421.394	576.75
421.617	508.75
421.839	507.75
422.062	502.75
422.285	509.75
422.507	530.75
422.73	597.75
422.953	605.75
423.175	523.75
423.398	511.75
423.621	525.75
423.843	521.75
424.066	526.75
424.288	552.75
424.511	540.75
424.733	586.75
424.956	641.75
425.178	617.75
425.401	633.75
425.623	646.75
425.846	546.75
426.068	512.75
426.291	499.75
426.513	503.75
426.735	516.75
426.958	562.75
427.18	599.75
427.402	723.75
427.625	766.75
427.847	656.75
428.069	598.75
428.292	508.75
428.514	520.75
428.736	498.75
428.958	476.75
429.181	477.75
429.403	486.75
429.625	484.75
429.847	504.75
430.069	579.75
430.292	532.75
430.514	483.75
430.736	483.75
430.958	464.75
431.18	474.75
431.402	450.75
431.624	444.75
431.846	459.75
432.068	453.75
432.29	468.75
432.512	461.75
432.734	476.75
432.956	440.75
433.178	453.75
433.4	459.75
433.622	468.75
433.844	436.75
434.066	467.75
434.287	458.75
434.509	479.75
434.731	464.75
434.953	469.75
435.175	490.75
435.397	512.75
435.618	520.75
435.84	559.75
436.062	618.75
436.284	687.75
436.505	540.75
436.727	500.75
436.949	483.75
437.17	450.75
437.392	470.75
437.614	479.75
437.835	502.75
438.057	562.75
438.278	670.75
438.5	646.75
438.721	711.75
438.943	668.75
439.165	568.75
439.386	546.75
439.608	512.75
439.829	528.75
440.05	523.75
440.272	557.75
440.493	520.75
440.715	488.75
440.936	484.75
441.158	472.75
441.379	472.75
441.6	486.75
441.822	494.75
442.043	535.75
442.264	579.75
442.486	644.75
442.707	536.75
442.928	542.75
443.149	537.75
443.371	557.75
443.592	558.75
443.813	663.75
444.034	670.75
444.255	581.75
444.476	554.75
444.698	523.75
444.919	525.75
445.14	629.75
445.361	575.75
445.582	552.75
445.803	608.75
446.024	647.75
446.245	667.75
446.466	613.75
446.687	538.75
446.908	492.75
447.129	464.75
447.35	470.75
447.571	465.75
447.792	465.75
448.013	460.75
448.234	481.75
448.455	521.75
448.675	616.75
448.896	681.75
449.117	602.75
449.338	567.75
449.559	648.75
449.779	732.75
450	583.75
450.221	503.75
450.442	455.75
450.662	462.75
450.883	451.75
451.104	457.75
451.324	451.75
451.545	422.75
451.766	408.75
451.986	408.75
452.207	419.75
452.428	407.75
452.648	417.75
452.869	431.75
453.089	419.75
453.31	422.75
453.53	421.75
453.751	423.75
453.971	413.75
454.192	416.75
454.412	406.75
454.633	423.75
454.853	392.75
455.073	416.75
455.294	445.75
455.514	480.75
455.734	466.75
455.955	412.75
456.175	383.75
456.395	380.75
456.616	367.75
456.836	386.75
457.056	390.75
457.276	393.75
457.497	400.75
457.717	408.75
457.937	407.75
458.157	411.75
458.377	405.75
458.598	431.75
458.818	452.75
459.038	510.75
459.258	536.75
459.478	470.75
459.698	438.75
459.918	447.75
460.138	460.75
460.358	467.75
460.578	467.75
460.798	469.75
461.018	465.75
461.238	468.75
461.458	456.75
461.678	456.75
461.898	456.75
462.118	460.75
462.338	499.75
462.558	489.75
462.777	477.75
462.997	492.75
463.217	510.75
463.437	512.75
463.657	509.75
463.876	532.75
464.096	503.75
464.316	491.75
464.536	494.75
464.755	496.75
464.975	496.75
465.195	536.75
465.414	533.75
465.634	511.75
465.854	454.75
466.073	458.75
466.293	430.75
466.512	428.75
466.732	421.75
466.951	444.75
467.171	405.75
467.391	427.75
467.61	432.75
467.829	429.75
468.049	423.75
468.268	424.75
468.488	420.75
468.707	417.75
468.927	411.75
469.146	409.75
469.365	412.75
469.585	393.75
469.804	430.75
470.023	426.75
470.243	427.75
470.462	445.75
470.681	435.75
470.901	420.75
471.12	429.75
471.339	438.75
471.558	434.75
471.777	440.75
471.997	416.75
472.216	425.75
472.435	466.75
472.654	439.75
472.873	418.75
473.092	436.75
473.311	431.75
473.53	434.75
473.749	446.75
473.968	496.75
474.187	574.75
474.406	556.75
474.625	468.75
474.844	432.75
475.063	432.75
475.282	437.75
475.501	440.75
475.72	438.75
475.939	446.75
476.158	463.75
476.377	428.75
476.596	438.75
476.814	438.75
477.033	464.75
477.252	450.75
477.471	483.75
477.69	476.75
477.908	485.75
478.127	464.75
478.346	467.75
478.564	478.75
478.783	504.75
479.002	481.75
479.22	485.75
479.439	494.75
479.658	511.75
479.876	508.75
480.095	527.75
480.313	546.75
480.532	534.75
480.751	533.75
480.969	516.75
481.188	572.75
481.406	590.75
481.624	544.75
481.843	533.75
482.061	511.75
482.28	487.75
482.498	501.75
482.717	490.75
482.935	496.75
483.153	491.75
483.372	484.75
483.59	489.75
483.808	499.75
484.027	490.75
484.245	503.75
484.463	508.75
484.681	516.75
484.9	505.75
485.118	500.75
485.336	514.75
485.554	532.75
485.772	522.75
485.99	504.75
486.209	503.75
486.427	520.75
486.645	529.75
486.863	526.75
487.081	520.75
487.299	517.75
487.517	537.75
487.735	523.75
487.953	530.75
488.171	554.75
488.389	514.75
488.607	534.75
488.825	528.75
489.043	505.75
489.261	539.75
489.479	523.75
489.696	540.75
489.914	552.75
490.132	547.75
490.35	550.75
490.568	565.75
490.786	557.75
491.003	574.75
491.221	571.75
491.439	580.75
491.657	613.75
491.874	612.75
492.092	591.75
492.31	587.75
492.527	591.75
492.745	605.75
492.963	595.75
493.18	601.75
493.398	583.75
493.615	613.75
493.833	598.75
494.05	619.75
494.268	612.75
494.485	598.75
494.703	622.75
494.92	639.75
495.138	633.75
495.355	626.75
495.573	611.75
495.79	623.75
496.008	618.75
496.225	631.75
496.442	634.75
496.66	622.75
496.877	634.75
497.094	628.75
497.312	612.75
497.529	643.75
497.746	658.75
497.963	666.75
498.181	684.75
498.398	669.75
498.615	707.75
498.832	702.75
499.049	724.75
499.267	755.75
499.484	779.75
499.701	813.75
499.918	850.75
500.135	902.75
500.352	940.75
500.569	951.75
500.786	978.75
501.003	947.75
501.22	898.75
501.437	849.75
501.654	835.75
501.871	838.75
502.088	743.75
502.305	737.75
502.522	707.75
502.739	695.75
502.956	674.75
503.172	684.75
503.389	646.75
503.606	633.75
503.823	654.75
504.04	644.75
504.256	622.75
504.473	652.75
504.69	640.75
504.907	618.75
505.123	610.75
505.34	605.75
505.557	576.75
505.773	592.75
505.99	590.75
506.207	573.75
506.423	578.75
506.64	569.75
506.856	566.75
507.073	557.75
507.289	558.75
507.506	570.75
507.722	567.75
507.939	583.75
508.155	555.75
508.372	554.75
508.588	540.75
508.805	552.75
509.021	539.75
509.238	563.75
509.454	557.75
509.67	532.75
509.887	543.75
510.103	520.75
510.319	532.75
510.536	595.75
510.752	840.75
510.968	679.75
511.184	543.75
511.401	523.75
511.617	522.75
511.833	520.75
512.049	506.75
512.265	506.75
512.481	491.75
512.698	495.75
512.914	519.75
513.13	503.75
513.346	509.75
513.562	516.75
513.778	500.75
513.994	511.75
514.21	511.75
514.426	542.75
514.642	567.75
514.858	564.75
515.074	590.75
515.29	650.75
515.506	816.75
515.721	698.75
515.937	584.75
516.153	571.75
516.369	526.75
516.585	536.75
516.801	540.75
517.016	537.75
517.232	548.75
517.448	550.75
517.664	555.75
517.879	542.75
518.095	572.75
518.311	561.75
518.527	555.75
518.742	532.75
518.958	518.75
519.173	514.75
519.389	500.75
519.605	505.75
519.82	517.75
520.036	543.75
520.251	520.75
520.467	535.75
520.682	539.75
520.898	531.75
521.113	549.75
521.329	556.75
521.544	596.75
521.76	717.75
521.975	1002.75
522.19	958.75
522.406	650.75
522.621	542.75
522.836	513.75
523.052	486.75
523.267	463.75
523.482	466.75
523.698	460.75
523.913	459.75
524.128	448.75
524.343	450.75
524.559	459.75
524.774	452.75
524.989	456.75
525.204	458.75
525.419	447.75
525.634	449.75
525.849	427.75
526.064	422.75
526.28	444.75
526.495	425.75
526.71	430.75
526.925	443.75
527.14	414.75
527.355	444.75
527.57	420.75
527.785	420.75
527.999	412.75
528.214	432.75
528.429	444.75
528.644	434.75
528.859	442.75
529.074	406.75
529.289	441.75
529.503	476.75
529.718	448.75
529.933	466.75
530.148	424.75
530.363	431.75
530.577	398.75
530.792	428.75
531.007	431.75
531.221	430.75
531.436	404.75
531.651	422.75
531.865	411.75
532.08	412.75
532.295	435.75
532.509	409.75
532.724	408.75
532.938	406.75
533.153	421.75
533.367	423.75
533.582	437.75
533.796	404.75
534.011	418.75
534.225	416.75
534.44	404.75
534.654	394.75
534.868	417.75
535.083	391.75
535.297	403.75
535.511	406.75
535.726	404.75
535.94	396.75
536.154	390.75
536.369	414.75
536.583	396.75
536.797	414.75
537.011	388.75
537.225	394.75
537.44	397.75
537.654	383.75
537.868	389.75
538.082	408.75
538.296	395.75
538.51	405.75
538.724	396.75
538.938	390.75
539.153	398.75
539.367	396.75
539.581	385.75
539.795	375.75
540.009	397.75
540.222	400.75
540.436	413.75
540.65	391.75
540.864	391.75
541.078	394.75
541.292	396.75
541.506	395.75
541.72	399.75
541.934	389.75
542.147	401.75
542.361	378.75
542.575	385.75
542.789	371.75
543.002	392.75
543.216	404.75
543.43	413.75
543.644	412.75
543.857	404.75
544.071	388.75
544.285	388.75
544.498	403.75
544.712	383.75
544.925	394.75
545.139	414.75
545.352	391.75
545.566	380.75
545.779	377.75
545.993	384.75
546.206	396.75
546.42	399.75
546.633	395.75
546.847	389.75
547.06	382.75
547.274	380.75
547.487	384.75
547.7	390.75
547.914	383.75
548.127	382.75
548.34	372.75
548.554	375.75
548.767	387.75
548.98	380.75
549.193	382.75
549.407	371.75
549.62	394.75
549.833	383.75
550.046	400.75
550.259	356.75
550.473	380.75
550.686	374.75
550.899	352.75
551.112	371.75
551.325	381.75
551.538	383.75
551.751	372.75
551.964	364.75
552.177	382.75
552.39	364.75
552.603	380.75
552.816	404.75
553.029	386.75
553.242	392.75
553.455	400.75
553.667	403.75
553.88	378.75
554.093	377.75
554.306	394.75
554.519	386.75
554.732	363.75
554.944	382.75
555.157	363.75
555.37	355.75
555.583	374.75
555.795	356.75
556.008	373.75
556.221	362.75
556.433	357.75
556.646	357.75
556.859	351.75
557.071	361.75
557.284	358.75
557.496	344.75
557.709	364.75
557.921	330.75
558.134	330.75
558.346	347.75
558.559	356.75
558.771	317.75
558.984	318.75
559.196	337.75
559.409	341.75
559.621	321.75
559.833	333.75
560.046	319.75
560.258	333.75
560.47	338.75
560.683	343.75
560.895	343.75
561.107	332.75
561.32	329.75
561.532	330.75
561.744	346.75
561.956	333.75
562.168	334.75
562.381	342.75
562.593	339.75
562.805	354.75
563.017	344.75
563.229	334.75
563.441	362.75
563.653	339.75
563.865	324.75
564.077	346.75
564.289	333.75
564.501	343.75
564.713	364.75
564.925	354.75
565.137	375.75
565.349	366.75
565.561	365.75
565.773	385.75
565.985	394.75
566.197	393.75
566.408	409.75
566.62	419.75
566.832	453.75
567.044	430.75
567.255	435.75
567.467	415.75
567.679	463.75
567.891	458.75
568.102	460.75
568.314	442.75
568.526	420.75
568.737	417.75
568.949	416.75
569.161	381.75
569.372	378.75
569.584	351.75
569.795	349.75
570.007	349.75
570.218	363.75
570.43	380.75
570.641	348.75
570.853	336.75
571.064	326.75
571.276	334.75
571.487	313.75
571.698	344.75
571.91	317.75
572.121	306.75
572.333	310.75
572.544	336.75
572.755	318.75
572.966	293.75
573.178	320.75
573.389	300.75
573.6	291.75
573.811	286.75
574.023	290.75
574.234	311.75
574.445	306.75
574.656	286.75
574.867	292.75
575.078	294.75
575.289	302.75
575.501	298.75
575.712	302.75
575.923	310.75
576.134	290.75
576.345	286.75
576.556	293.75
576.767	296.75
576.978	296.75
577.188	292.75
577.399	284.75
577.61	279.75
577.821	310.75
578.032	282.75
578.243	301.75
578.454	397.75
578.665	318.75
578.875	283.75
579.086	266.75
579.297	248.75
579.508	292.75
579.718	306.75
579.929	285.75
580.14	268.75
580.35	291.75
580.561	274.75
580.772	266.75
580.982	281.75
581.193	270.75
581.403	264.75
581.614	252.75
581.825	258.75
582.035	258.75
582.246	279.75
582.456	274.75
582.667	255.75
582.877	262.75
583.087	258.75
583.298	268.75
583.508	276.75
583.719	258.75
583.929	281.75
584.139	262.75
584.35	248.75
584.56	273.75
584.77	246.75
584.981	257.75
585.191	268.75
585.401	261.75
585.611	270.75
585.821	247.75
586.032	261.75
586.242	265.75
586.452	252.75
586.662	247.75
586.872	267.75
587.082	258.75
587.292	258.75
587.502	277.75
587.713	248.75
587.923	253.75
588.133	266.75
588.343	264.75
588.553	246.75
588.762	259.75
588.972	259.75
589.182	267.75
589.392	251.75
589.602	251.75
589.812	258.75
590.022	263.75
590.232	272.75
590.441	256.75
590.651	275.75
590.861	243.75
591.071	245.75
591.281	259.75
591.49	265.75
591.7	271.75
591.91	273.75
592.119	268.75
592.329	268.75
592.539	280.75
592.748	290.75
592.958	283.75
593.167	270.75
593.377	280.75
593.587	276.75
593.796	288.75
594.006	277.75
594.215	295.75
594.424	285.75
594.634	270.75
594.843	266.75
595.053	255.75
595.262	260.75
595.472	250.75
595.681	246.75
595.89	279.75
596.1	247.75
596.309	248.75
596.518	255.75
596.727	238.75
596.937	237.75
597.146	228.75
597.355	245.75
597.564	242.75
597.774	218.75
597.983	251.75
598.192	240.75
598.401	233.75
598.61	219.75
598.819	242.75
599.028	242.75
599.237	221.75
599.446	227.75
599.655	219.75
599.864	228.75
600.073	227.75
600.282	233.75
600.491	238.75
600.7	216.75
600.909	219.75
601.118	222.75
601.327	230.75
601.536	222.75
601.745	231.75
601.953	225.75
602.162	245.75
602.371	227.75
602.58	202.75
602.789	237.75
602.997	227.75
603.206	247.75
603.415	233.75
603.623	223.75
603.832	227.75
604.041	216.75
604.249	210.75
604.458	214.75
604.666	212.75
604.875	219.75
605.084	220.75
605.292	203.75
605.501	235.75
605.709	222.75
605.918	214.75
606.126	221.75
606.334	211.75
606.543	221.75
606.751	215.75
606.96	229.75
607.168	210.75
607.376	222.75
607.585	207.75
607.793	215.75
608.001	222.75
608.21	215.75
608.418	209.75
608.626	215.75
608.834	201.75
609.043	203.75
609.251	231.75
609.459	207.75
609.667	207.75
609.875	219.75
610.083	215.75
610.291	211.75
610.499	222.75
610.707	220.75
610.916	233.75
611.124	222.75
611.332	217.75
611.54	222.75
611.748	221.75
611.955	219.75
612.163	206.75
612.371	206.75
612.579	207.75
612.787	199.75
612.995	216.75
613.203	206.75
613.411	204.75
613.618	212.75
613.826	219.75
614.034	206.75
614.242	206.75
614.449	207.75
614.657	215.75
614.865	212.75
615.072	204.75
615.28	202.75
615.488	210.75
615.695	214.75
615.903	202.75
616.111	205.75
616.318	229.75
616.526	201.75
616.733	202.75
616.941	213.75
617.148	196.75
617.356	204.75
617.563	208.75
617.771	198.75
617.978	200.75
618.185	214.75
618.393	199.75
618.6	217.75
618.807	211.75
619.015	197.75
619.222	199.75
619.429	202.75
619.637	202.75
619.844	204.75
620.051	202.75
620.258	202.75
620.466	199.75
620.673	188.75
620.88	178.75
621.087	198.75
621.294	182.75
621.501	186.75
621.708	175.75
621.915	191.75
622.122	188.75
622.329	194.75
622.536	193.75
622.743	200.75
622.95	214.75
623.157	199.75
623.364	201.75
623.571	196.75
623.778	194.75
623.985	190.75
624.192	190.75
624.399	197.75
624.606	175.75
624.812	202.75
625.019	185.75
625.226	182.75
625.433	196.75
625.639	188.75
625.846	178.75
626.053	187.75
626.259	192.75
626.466	182.75
626.673	185.75
626.879	188.75
627.086	192.75
627.293	166.75
627.499	170.75
627.706	170.75
627.912	197.75
628.119	186.75
628.325	185.75
628.532	184.75
628.738	173.75
628.945	185.75
629.151	194.75
629.357	166.75
629.564	204.75
629.77	170.75
629.976	174.75
630.183	159.75
630.389	188.75
630.595	188.75
630.802	179.75
631.008	167.75
631.214	184.75
631.42	175.75
631.627	170.75
631.833	176.75
632.039	156.75
632.245	153.75
632.451	170.75
632.657	178.75
632.863	180.75
633.069	187.75
633.275	173.75
633.481	154.75
633.688	160.75
633.893	155.75
634.099	169.75
634.305	160.75
634.511	160.75
634.717	169.75
634.923	172.75
635.129	167.75
635.335	167.75
635.541	168.75
635.747	173.75
635.952	156.75
636.158	165.75
636.364	155.75
636.57	160.75
636.775	169.75
636.981	176.75
637.187	180.75
637.392	170.75
637.598	148.75
637.804	164.75
638.009	164.75
638.215	164.75
638.421	151.75
638.626	150.75
638.832	166.75
639.037	155.75
639.243	158.75
639.448	158.75
639.654	148.75
639.859	152.75
640.065	163.75
640.27	158.75
640.475	154.75
640.681	143.75
640.886	148.75
641.091	158.75
641.297	170.75
641.502	156.75
641.707	158.75
641.913	161.75
642.118	137.75
642.323	138.75
642.528	144.75
642.733	152.75
642.939	148.75
643.144	156.75
643.349	158.75
643.554	160.75
643.759	166.75
643.964	142.75
644.169	149.75
644.374	162.75
644.579	167.75
644.784	148.75
644.989	144.75
645.194	162.75
645.399	145.75
645.604	146.75
645.809	151.75
646.014	143.75
646.219	168.75
646.423	164.75
646.628	150.75
646.833	158.75
647.038	163.75
647.243	161.75
647.447	141.75
647.652	166.75
647.857	163.75
648.062	152.75
648.266	158.75
648.471	165.75
648.676	156.75
648.88	163.75
649.085	151.75
649.289	144.75
649.494	171.75
649.698	178.75
649.903	172.75
650.107	150.75
650.312	149.75
650.516	143.75
650.721	155.75
650.925	121.75
651.13	140.75
651.334	134.75
651.539	127.75
651.743	142.75
651.947	146.75
652.152	130.75
652.356	144.75
652.56	133.75
652.764	138.75
652.969	136.75
653.173	147.75
653.377	128.75
653.581	136.75
653.785	133.75
653.99	141.75
654.194	144.75
654.398	125.75
654.602	133.75
654.806	108.75
655.01	130.75
655.214	129.75
655.418	138.75
655.622	119.75
655.826	127.75
656.03	118.75
656.234	144.75
656.438	136.75
656.642	143.75
656.846	127.75
657.049	127.75
657.253	134.75
657.457	110.75
657.661	111.75
657.865	109.75
658.068	122.75
658.272	100.75
658.476	116.75
658.68	108.75
658.883	102.75
659.087	98.75
659.291	99.75
659.494	94.75
659.698	101.75
659.901	91.75
660.105	103.75
660.309	94.75
660.512	98.75
660.716	88.75
660.919	87.75
661.123	94.75
661.326	85.75
661.53	96.75
661.733	86.75
661.936	85.75
662.14	95.75
662.343	96.75
662.546	89.75
662.75	89.75
662.953	91.75
663.156	88.75
663.36	79.75
663.563	81.75
663.766	80.75
663.969	63.75
664.173	99.75
664.376	86.75
664.579	72.75
664.782	91.75
664.985	82.75
665.188	83.75
665.391	97.75
665.594	92.75
665.797	77.75
666	62.75
666.203	63.75
666.406	87.75
666.609	85.75
666.812	74.75
667.015	90.75
667.218	83.75
667.421	90.75
667.624	88.75
667.827	85.75
668.03	83.75
668.232	79.75
668.435	78.75
668.638	84.75
668.841	85.75
669.043	99.75
669.246	96.75
669.449	87.75
669.651	91.75
669.854	74.75
670.057	94.75
670.259	86.75
670.462	83.75
670.665	100.75
670.867	76.75
671.07	83.75
671.272	90.75
671.475	98.75
671.677	83.75
671.88	81.75
672.082	87.75
672.284	81.75
672.487	93.75
672.689	64.75
672.892	74.75
