Data from 1964.PennyLincolnUp.Lamp.En5.5.200Scan.071719.P1._HRD10591_14-03-56-908.txt Node
Date: Thu Jul 18 14:03:56 EDT 2019
User: cochatt
Spectrometer: HR+D1059
Trigger mode: 1
Integration Time (sec): 1.000000E-1
Scans to average: 1
Electric dark correction enabled: true
Nonlinearity correction enabled: false
Boxcar width: 0
XAxis mode: Wavelengths
Number of Pixels in Spectrum: 2048
>>>>>Begin Spectral Data<<<<<
223.165	-20.94
223.4	-20.94
223.635	-20.94
223.869	-17.94
224.104	-7.94
224.338	-10.94
224.573	-27.94
224.808	-15.94
225.042	1.06
225.277	-7.94
225.511	-1.94
225.746	3.06
225.98	6.06
226.215	17.06
226.449	13.06
226.683	22.06
226.918	29.06
227.152	20.06
227.387	34.06
227.621	23.06
227.856	36.06
228.09	45.06
228.324	32.06
228.559	60.06
228.793	67.06
229.027	95.06
229.262	96.06
229.496	98.06
229.73	117.06
229.964	123.06
230.199	112.06
230.433	97.06
230.667	107.06
230.901	112.06
231.136	100.06
231.37	100.06
231.604	105.06
231.838	96.06
232.072	113.06
232.306	99.06
232.541	100.06
232.775	115.06
233.009	125.06
233.243	122.06
233.477	101.06
233.711	122.06
233.945	115.06
234.179	124.06
234.413	113.06
234.647	118.06
234.881	120.06
235.115	106.06
235.349	102.06
235.583	112.06
235.817	128.06
236.051	107.06
236.285	114.06
236.519	131.06
236.753	112.06
236.987	148.06
237.221	151.06
237.455	189.06
237.689	163.06
237.922	112.06
238.156	123.06
238.39	116.06
238.624	135.06
238.858	109.06
239.091	109.06
239.325	94.06
239.559	105.06
239.793	128.06
240.027	133.06
240.26	161.06
240.494	139.06
240.728	133.06
240.961	152.06
241.195	134.06
241.429	141.06
241.662	123.06
241.896	125.06
242.13	118.06
242.363	127.06
242.597	129.06
242.83	136.06
243.064	134.06
243.298	134.06
243.531	127.06
243.765	130.06
243.998	124.06
244.232	125.06
244.465	144.06
244.699	140.06
244.932	147.06
245.166	142.06
245.399	143.06
245.633	144.06
245.866	150.06
246.099	132.06
246.333	136.06
246.566	152.06
246.8	142.06
247.033	157.06
247.266	152.06
247.5	151.06
247.733	173.06
247.966	181.06
248.2	155.06
248.433	164.06
248.666	165.06
248.899	165.06
249.133	178.06
249.366	188.06
249.599	191.06
249.832	186.06
250.066	166.06
250.299	192.06
250.532	188.06
250.765	178.06
250.998	215.06
251.231	213.06
251.465	183.06
251.698	191.06
251.931	201.06
252.164	204.06
252.397	176.06
252.63	192.06
252.863	212.06
253.096	223.06
253.329	199.06
253.562	216.06
253.795	201.06
254.028	211.06
254.261	203.06
254.494	229.06
254.727	212.06
254.96	256.06
255.193	244.06
255.426	229.06
255.659	215.06
255.892	227.06
256.124	198.06
256.357	216.06
256.59	226.06
256.823	213.06
257.056	216.06
257.289	201.06
257.521	233.06
257.754	209.06
257.987	197.06
258.22	217.06
258.452	211.06
258.685	220.06
258.918	190.06
259.151	210.06
259.383	190.06
259.616	213.06
259.849	204.06
260.081	221.06
260.314	243.06
260.547	233.06
260.779	221.06
261.012	218.06
261.244	230.06
261.477	227.06
261.71	216.06
261.942	225.06
262.175	208.06
262.407	227.06
262.64	207.06
262.872	201.06
263.105	208.06
263.337	201.06
263.57	200.06
263.802	222.06
264.035	223.06
264.267	201.06
264.499	217.06
264.732	218.06
264.964	197.06
265.197	208.06
265.429	212.06
265.661	225.06
265.894	236.06
266.126	210.06
266.358	233.06
266.591	228.06
266.823	234.06
267.055	239.06
267.287	249.06
267.52	254.06
267.752	237.06
267.984	237.06
268.216	217.06
268.448	247.06
268.681	249.06
268.913	261.06
269.145	268.06
269.377	269.06
269.609	264.06
269.841	263.06
270.073	254.06
270.306	292.06
270.538	291.06
270.77	314.06
271.002	279.06
271.234	283.06
271.466	286.06
271.698	281.06
271.93	326.06
272.162	321.06
272.394	297.06
272.626	308.06
272.858	290.06
273.09	290.06
273.322	286.06
273.553	257.06
273.785	256.06
274.017	267.06
274.249	265.06
274.481	269.06
274.713	264.06
274.945	280.06
275.176	280.06
275.408	270.06
275.64	271.06
275.872	274.06
276.104	299.06
276.335	294.06
276.567	275.06
276.799	292.06
277.031	296.06
277.262	322.06
277.494	318.06
277.726	308.06
277.957	299.06
278.189	293.06
278.421	283.06
278.652	289.06
278.884	293.06
279.115	288.06
279.347	296.06
279.579	266.06
279.81	273.06
280.042	295.06
280.273	283.06
280.505	267.06
280.736	290.06
280.968	280.06
281.199	261.06
281.431	274.06
281.662	270.06
281.894	281.06
282.125	282.06
282.356	262.06
282.588	300.06
282.819	304.06
283.051	267.06
283.282	268.06
283.513	295.06
283.745	294.06
283.976	304.06
284.207	301.06
284.439	298.06
284.67	307.06
284.901	298.06
285.132	312.06
285.364	287.06
285.595	310.06
285.826	298.06
286.057	304.06
286.288	313.06
286.52	324.06
286.751	293.06
286.982	296.06
287.213	306.06
287.444	294.06
287.675	298.06
287.906	310.06
288.138	318.06
288.369	322.06
288.6	320.06
288.831	322.06
289.062	329.06
289.293	304.06
289.524	302.06
289.755	318.06
289.986	293.06
290.217	317.06
290.448	325.06
290.679	317.06
290.91	329.06
291.141	311.06
291.371	314.06
291.602	310.06
291.833	298.06
292.064	296.06
292.295	312.06
292.526	317.06
292.757	316.06
292.987	315.06
293.218	327.06
293.449	304.06
293.68	304.06
293.91	308.06
294.141	318.06
294.372	328.06
294.603	318.06
294.833	313.06
295.064	308.06
295.295	322.06
295.525	306.06
295.756	312.06
295.987	337.06
296.217	352.06
296.448	325.06
296.679	340.06
296.909	312.06
297.14	337.06
297.37	328.06
297.601	334.06
297.831	308.06
298.062	326.06
298.292	326.06
298.523	328.06
298.753	329.06
298.984	333.06
299.214	327.06
299.445	336.06
299.675	356.06
299.905	337.06
300.136	339.06
300.366	331.06
300.597	343.06
300.827	356.06
301.057	353.06
301.288	339.06
301.518	348.06
301.748	349.06
301.979	328.06
302.209	358.06
302.439	346.06
302.669	358.06
302.9	348.06
303.13	373.06
303.36	357.06
303.59	362.06
303.82	349.06
304.051	360.06
304.281	345.06
304.511	356.06
304.741	350.06
304.971	363.06
305.201	350.06
305.431	352.06
305.661	358.06
305.891	338.06
306.121	375.06
306.352	350.06
306.582	374.06
306.812	352.06
307.042	379.06
307.272	348.06
307.502	354.06
307.731	374.06
307.961	353.06
308.191	370.06
308.421	368.06
308.651	349.06
308.881	368.06
309.111	371.06
309.341	371.06
309.571	376.06
309.8	377.06
310.03	380.06
310.26	377.06
310.49	372.06
310.72	393.06
310.949	384.06
311.179	395.06
311.409	388.06
311.639	399.06
311.868	390.06
312.098	383.06
312.328	389.06
312.557	417.06
312.787	395.06
313.017	410.06
313.246	391.06
313.476	390.06
313.706	391.06
313.935	404.06
314.165	398.06
314.394	411.06
314.624	398.06
314.853	384.06
315.083	404.06
315.312	397.06
315.542	390.06
315.771	382.06
316.001	392.06
316.23	394.06
316.46	394.06
316.689	391.06
316.919	390.06
317.148	400.06
317.377	413.06
317.607	414.06
317.836	389.06
318.065	386.06
318.295	392.06
318.524	398.06
318.753	396.06
318.983	394.06
319.212	393.06
319.441	398.06
319.67	390.06
319.9	399.06
320.129	399.06
320.358	396.06
320.587	398.06
320.816	420.06
321.046	421.06
321.275	423.06
321.504	417.06
321.733	421.06
321.962	416.06
322.191	398.06
322.42	432.06
322.649	434.06
322.878	433.06
323.108	421.06
323.337	448.06
323.566	460.06
323.795	471.06
324.024	489.06
324.253	562.06
324.482	771.06
324.71	1014.06
324.939	1421.06
325.168	1176.06
325.397	683.06
325.626	500.06
325.855	468.06
326.084	471.06
326.313	440.06
326.542	486.06
326.77	491.06
326.999	533.06
327.228	694.06
327.457	934.06
327.686	1091.06
327.914	736.06
328.143	540.06
328.372	503.06
328.6	500.06
328.829	489.06
329.058	498.06
329.287	492.06
329.515	465.06
329.744	478.06
329.972	464.06
330.201	493.06
330.43	505.06
330.658	536.06
330.887	517.06
331.115	500.06
331.344	472.06
331.572	483.06
331.801	454.06
332.03	450.06
332.258	476.06
332.486	454.06
332.715	475.06
332.943	441.06
333.172	467.06
333.4	488.06
333.629	503.06
333.857	508.06
334.085	513.06
334.314	516.06
334.542	534.06
334.771	543.06
334.999	493.06
335.227	499.06
335.455	503.06
335.684	492.06
335.912	436.06
336.14	472.06
336.369	489.06
336.597	478.06
336.825	477.06
337.053	470.06
337.281	465.06
337.51	459.06
337.738	451.06
337.966	450.06
338.194	461.06
338.422	456.06
338.65	458.06
338.878	457.06
339.106	440.06
339.334	470.06
339.562	435.06
339.79	442.06
340.018	444.06
340.246	432.06
340.474	449.06
340.702	416.06
340.93	435.06
341.158	436.06
341.386	426.06
341.614	444.06
341.842	419.06
342.07	418.06
342.298	438.06
342.526	426.06
342.754	440.06
342.981	431.06
343.209	431.06
343.437	437.06
343.665	457.06
343.893	460.06
344.12	448.06
344.348	453.06
344.576	442.06
344.804	450.06
345.031	455.06
345.259	453.06
345.487	440.06
345.714	417.06
345.942	419.06
346.17	421.06
346.397	396.06
346.625	405.06
346.853	413.06
347.08	425.06
347.308	413.06
347.535	441.06
347.763	411.06
347.99	419.06
348.218	407.06
348.445	426.06
348.673	417.06
348.9	411.06
349.128	392.06
349.355	395.06
349.583	392.06
349.81	395.06
350.037	386.06
350.265	394.06
350.492	404.06
350.72	403.06
350.947	410.06
351.174	422.06
351.402	410.06
351.629	416.06
351.856	418.06
352.083	426.06
352.311	421.06
352.538	422.06
352.765	406.06
352.992	416.06
353.22	410.06
353.447	404.06
353.674	403.06
353.901	398.06
354.128	406.06
354.355	410.06
354.583	375.06
354.81	394.06
355.037	397.06
355.264	380.06
355.491	378.06
355.718	405.06
355.945	390.06
356.172	382.06
356.399	390.06
356.626	380.06
356.853	388.06
357.08	396.06
357.307	382.06
357.534	395.06
357.761	392.06
357.988	383.06
358.215	406.06
358.441	384.06
358.668	381.06
358.895	388.06
359.122	404.06
359.349	399.06
359.576	390.06
359.802	389.06
360.029	428.06
360.256	432.06
360.483	395.06
360.709	396.06
360.936	390.06
361.163	412.06
361.39	406.06
361.616	380.06
361.843	396.06
362.07	376.06
362.296	380.06
362.523	374.06
362.749	398.06
362.976	402.06
363.203	365.06
363.429	396.06
363.656	390.06
363.882	401.06
364.109	398.06
364.335	384.06
364.562	376.06
364.788	378.06
365.015	380.06
365.241	386.06
365.468	407.06
365.694	377.06
365.92	385.06
366.147	390.06
366.373	381.06
366.599	381.06
366.826	394.06
367.052	386.06
367.278	377.06
367.505	390.06
367.731	369.06
367.957	387.06
368.184	385.06
368.41	393.06
368.636	383.06
368.862	407.06
369.089	376.06
369.315	373.06
369.541	399.06
369.767	399.06
369.993	385.06
370.219	392.06
370.445	384.06
370.672	388.06
370.898	386.06
371.124	394.06
371.35	382.06
371.576	378.06
371.802	406.06
372.028	398.06
372.254	387.06
372.48	379.06
372.706	403.06
372.932	405.06
373.158	388.06
373.384	404.06
373.61	400.06
373.835	378.06
374.061	412.06
374.287	384.06
374.513	394.06
374.739	412.06
374.965	404.06
375.191	405.06
375.416	402.06
375.642	385.06
375.868	390.06
376.094	397.06
376.319	388.06
376.545	382.06
376.771	390.06
376.997	398.06
377.222	396.06
377.448	402.06
377.674	384.06
377.899	393.06
378.125	384.06
378.35	369.06
378.576	378.06
378.802	388.06
379.027	398.06
379.253	385.06
379.478	386.06
379.704	377.06
379.929	382.06
380.155	375.06
380.38	377.06
380.606	371.06
380.831	372.06
381.057	394.06
381.282	397.06
381.507	389.06
381.733	408.06
381.958	386.06
382.184	390.06
382.409	391.06
382.634	407.06
382.86	393.06
383.085	386.06
383.31	390.06
383.535	405.06
383.761	401.06
383.986	406.06
384.211	403.06
384.436	414.06
384.662	402.06
384.887	410.06
385.112	398.06
385.337	423.06
385.562	421.06
385.787	404.06
386.013	432.06
386.238	431.06
386.463	430.06
386.688	440.06
386.913	414.06
387.138	411.06
387.363	415.06
387.588	425.06
387.813	427.06
388.038	420.06
388.263	408.06
388.488	405.06
388.713	413.06
388.938	415.06
389.163	416.06
389.387	409.06
389.612	422.06
389.837	430.06
390.062	420.06
390.287	436.06
390.512	412.06
390.736	401.06
390.961	428.06
391.186	406.06
391.411	420.06
391.636	436.06
391.86	429.06
392.085	456.06
392.31	434.06
392.534	447.06
392.759	461.06
392.984	419.06
393.208	408.06
393.433	449.06
393.658	430.06
393.882	423.06
394.107	418.06
394.331	409.06
394.556	418.06
394.78	428.06
395.005	446.06
395.229	417.06
395.454	446.06
395.678	453.06
395.903	457.06
396.127	438.06
396.352	449.06
396.576	434.06
396.801	442.06
397.025	450.06
397.249	433.06
397.474	451.06
397.698	446.06
397.922	450.06
398.147	481.06
398.371	462.06
398.595	475.06
398.82	480.06
399.044	484.06
399.268	529.06
399.492	546.06
399.717	582.06
399.941	597.06
400.165	601.06
400.389	581.06
400.613	554.06
400.837	520.06
401.062	498.06
401.286	486.06
401.51	484.06
401.734	482.06
401.958	475.06
402.182	485.06
402.406	482.06
402.63	500.06
402.854	493.06
403.078	492.06
403.302	489.06
403.526	493.06
403.75	492.06
403.974	490.06
404.198	490.06
404.422	487.06
404.645	491.06
404.869	494.06
405.093	524.06
405.317	556.06
405.541	558.06
405.765	525.06
405.988	521.06
406.212	529.06
406.436	544.06
406.66	513.06
406.883	513.06
407.107	564.06
407.331	580.06
407.555	636.06
407.778	602.06
408.002	568.06
408.226	553.06
408.449	546.06
408.673	513.06
408.896	547.06
409.12	590.06
409.344	526.06
409.567	513.06
409.791	481.06
410.014	480.06
410.238	496.06
410.461	491.06
410.685	474.06
410.908	509.06
411.132	536.06
411.355	530.06
411.578	509.06
411.802	482.06
412.025	489.06
412.249	486.06
412.472	499.06
412.695	569.06
412.919	519.06
413.142	490.06
413.365	468.06
413.589	467.06
413.812	459.06
414.035	463.06
414.258	448.06
414.482	459.06
414.705	454.06
414.928	451.06
415.151	458.06
415.374	458.06
415.597	438.06
415.821	456.06
416.044	452.06
416.267	465.06
416.49	456.06
416.713	466.06
416.936	459.06
417.159	468.06
417.382	457.06
417.605	444.06
417.828	447.06
418.051	477.06
418.274	468.06
418.497	443.06
418.72	493.06
418.943	446.06
419.166	487.06
419.389	485.06
419.611	491.06
419.834	483.06
420.057	494.06
420.28	470.06
420.503	434.06
420.726	473.06
420.948	474.06
421.171	496.06
421.394	521.06
421.617	486.06
421.839	472.06
422.062	467.06
422.285	475.06
422.507	535.06
422.73	547.06
422.953	543.06
423.175	491.06
423.398	487.06
423.621	468.06
423.843	505.06
424.066	487.06
424.288	492.06
424.511	509.06
424.733	557.06
424.956	573.06
425.178	578.06
425.401	561.06
425.623	600.06
425.846	517.06
426.068	457.06
426.291	462.06
426.513	472.06
426.735	480.06
426.958	489.06
427.18	576.06
427.402	672.06
427.625	727.06
427.847	605.06
428.069	545.06
428.292	514.06
428.514	488.06
428.736	437.06
428.958	447.06
429.181	439.06
429.403	444.06
429.625	458.06
429.847	459.06
430.069	516.06
430.292	522.06
430.514	447.06
430.736	462.06
430.958	439.06
431.18	426.06
431.402	432.06
431.624	416.06
431.846	423.06
432.068	434.06
432.29	430.06
432.512	432.06
432.734	413.06
432.956	443.06
433.178	424.06
433.4	436.06
433.622	403.06
433.844	450.06
434.066	432.06
434.287	425.06
434.509	445.06
434.731	453.06
434.953	454.06
435.175	468.06
435.397	470.06
435.618	456.06
435.84	500.06
436.062	558.06
436.284	604.06
436.505	526.06
436.727	480.06
436.949	440.06
437.17	440.06
437.392	444.06
437.614	451.06
437.835	482.06
438.057	535.06
438.278	609.06
438.5	611.06
438.721	652.06
438.943	616.06
439.165	502.06
439.386	473.06
439.608	467.06
439.829	463.06
440.05	480.06
440.272	505.06
440.493	482.06
440.715	455.06
440.936	444.06
441.158	458.06
441.379	454.06
441.6	437.06
441.822	454.06
442.043	504.06
442.264	534.06
442.486	586.06
442.707	506.06
442.928	466.06
443.149	481.06
443.371	493.06
443.592	535.06
443.813	586.06
444.034	638.06
444.255	549.06
444.476	498.06
444.698	506.06
444.919	477.06
445.14	615.06
445.361	548.06
445.582	518.06
445.803	548.06
446.024	613.06
446.245	595.06
446.466	567.06
446.687	485.06
446.908	466.06
447.129	443.06
447.35	413.06
447.571	443.06
447.792	409.06
448.013	421.06
448.234	434.06
448.455	461.06
448.675	557.06
448.896	628.06
449.117	537.06
449.338	532.06
449.559	611.06
449.779	657.06
450	551.06
450.221	452.06
450.442	432.06
450.662	401.06
450.883	417.06
451.104	422.06
451.324	423.06
451.545	402.06
451.766	396.06
451.986	395.06
452.207	404.06
452.428	382.06
452.648	390.06
452.869	382.06
453.089	409.06
453.31	380.06
453.53	382.06
453.751	376.06
453.971	382.06
454.192	395.06
454.412	370.06
454.633	390.06
454.853	371.06
455.073	368.06
455.294	406.06
455.514	459.06
455.734	444.06
455.955	373.06
456.175	379.06
456.395	375.06
456.616	388.06
456.836	392.06
457.056	378.06
457.276	368.06
457.497	387.06
457.717	384.06
457.937	361.06
458.157	374.06
458.377	382.06
458.598	406.06
458.818	422.06
459.038	472.06
459.258	481.06
459.478	434.06
459.698	426.06
459.918	435.06
460.138	413.06
460.358	429.06
460.578	433.06
460.798	432.06
461.018	459.06
461.238	448.06
461.458	431.06
461.678	442.06
461.898	449.06
462.118	465.06
462.338	443.06
462.558	472.06
462.777	470.06
462.997	482.06
463.217	484.06
463.437	516.06
463.657	469.06
463.876	484.06
464.096	497.06
464.316	481.06
464.536	489.06
464.755	485.06
464.975	484.06
465.195	479.06
465.414	515.06
465.634	440.06
465.854	438.06
466.073	425.06
466.293	412.06
466.512	415.06
466.732	392.06
466.951	402.06
467.171	393.06
467.391	410.06
467.61	401.06
467.829	414.06
468.049	408.06
468.268	404.06
468.488	403.06
468.707	379.06
468.927	395.06
469.146	412.06
469.365	384.06
469.585	385.06
469.804	394.06
470.023	412.06
470.243	406.06
470.462	420.06
470.681	437.06
470.901	402.06
471.12	417.06
471.339	398.06
471.558	388.06
471.777	418.06
471.997	411.06
472.216	400.06
472.435	419.06
472.654	406.06
472.873	417.06
473.092	406.06
473.311	412.06
473.53	393.06
473.749	413.06
473.968	447.06
474.187	493.06
474.406	523.06
474.625	446.06
474.844	398.06
475.063	411.06
475.282	392.06
475.501	415.06
475.72	424.06
475.939	410.06
476.158	411.06
476.377	423.06
476.596	412.06
476.814	430.06
477.033	417.06
477.252	414.06
477.471	424.06
477.69	434.06
477.908	438.06
478.127	452.06
478.346	449.06
478.564	469.06
478.783	451.06
479.002	452.06
479.22	451.06
479.439	458.06
479.658	483.06
479.876	500.06
480.095	484.06
480.313	520.06
480.532	485.06
480.751	506.06
480.969	489.06
481.188	526.06
481.406	547.06
481.624	502.06
481.843	490.06
482.061	472.06
482.28	473.06
482.498	463.06
482.717	463.06
482.935	489.06
483.153	470.06
483.372	458.06
483.59	465.06
483.808	468.06
484.027	464.06
484.245	465.06
484.463	454.06
484.681	480.06
484.9	472.06
485.118	477.06
485.336	481.06
485.554	489.06
485.772	485.06
485.99	478.06
486.209	504.06
486.427	486.06
486.645	483.06
486.863	500.06
487.081	485.06
487.299	477.06
487.517	495.06
487.735	506.06
487.953	478.06
488.171	500.06
488.389	476.06
488.607	502.06
488.825	491.06
489.043	504.06
489.261	499.06
489.479	498.06
489.696	485.06
489.914	509.06
490.132	507.06
490.35	506.06
490.568	522.06
490.786	532.06
491.003	526.06
491.221	519.06
491.439	553.06
491.657	553.06
491.874	563.06
492.092	562.06
492.31	527.06
492.527	560.06
492.745	547.06
492.963	561.06
493.18	565.06
493.398	579.06
493.615	558.06
493.833	567.06
494.05	557.06
494.268	572.06
494.485	564.06
494.703	559.06
494.92	565.06
495.138	566.06
495.355	555.06
495.573	576.06
495.79	574.06
496.008	561.06
496.225	589.06
496.442	592.06
496.66	589.06
496.877	586.06
497.094	564.06
497.312	579.06
497.529	601.06
497.746	597.06
497.963	606.06
498.181	655.06
498.398	665.06
498.615	655.06
498.832	666.06
499.049	706.06
499.267	718.06
499.484	724.06
499.701	758.06
499.918	790.06
500.135	844.06
500.352	911.06
500.569	896.06
500.786	905.06
501.003	868.06
501.22	877.06
501.437	805.06
501.654	797.06
501.871	754.06
502.088	721.06
502.305	683.06
502.522	688.06
502.739	672.06
502.956	646.06
503.172	625.06
503.389	626.06
503.606	628.06
503.823	608.06
504.04	612.06
504.256	584.06
504.473	586.06
504.69	608.06
504.907	579.06
505.123	591.06
505.34	573.06
505.557	548.06
505.773	562.06
505.99	560.06
506.207	555.06
506.423	521.06
506.64	536.06
506.856	542.06
507.073	534.06
507.289	531.06
507.506	525.06
507.722	543.06
507.939	512.06
508.155	519.06
508.372	518.06
508.588	473.06
508.805	483.06
509.021	497.06
509.238	496.06
509.454	522.06
509.67	516.06
509.887	482.06
510.103	481.06
510.319	493.06
510.536	547.06
510.752	730.06
510.968	621.06
511.184	485.06
511.401	475.06
511.617	478.06
511.833	469.06
512.049	493.06
512.265	464.06
512.481	478.06
512.698	472.06
512.914	479.06
513.13	481.06
513.346	484.06
513.562	465.06
513.778	486.06
513.994	489.06
514.21	481.06
514.426	493.06
514.642	529.06
514.858	502.06
515.074	517.06
515.29	587.06
515.506	683.06
515.721	604.06
515.937	484.06
516.153	488.06
516.369	501.06
516.585	526.06
516.801	512.06
517.016	508.06
517.232	515.06
517.448	527.06
517.664	527.06
517.879	530.06
518.095	518.06
518.311	505.06
518.527	492.06
518.742	506.06
518.958	512.06
519.173	509.06
519.389	480.06
519.605	476.06
519.82	470.06
520.036	483.06
520.251	461.06
520.467	500.06
520.682	485.06
520.898	501.06
521.113	514.06
521.329	504.06
521.544	532.06
521.76	591.06
521.975	826.06
522.19	804.06
522.406	575.06
522.621	480.06
522.836	465.06
523.052	457.06
523.267	434.06
523.482	420.06
523.698	433.06
523.913	442.06
524.128	443.06
524.343	432.06
524.559	408.06
524.774	420.06
524.989	421.06
525.204	426.06
525.419	416.06
525.634	406.06
525.849	408.06
526.064	389.06
526.28	405.06
526.495	408.06
526.71	410.06
526.925	399.06
527.14	410.06
527.355	409.06
527.57	409.06
527.785	382.06
527.999	404.06
528.214	377.06
528.429	382.06
528.644	387.06
528.859	407.06
529.074	414.06
529.289	422.06
529.503	413.06
529.718	419.06
529.933	417.06
530.148	422.06
530.363	420.06
530.577	394.06
530.792	404.06
531.007	375.06
531.221	397.06
531.436	384.06
531.651	394.06
531.865	388.06
532.08	391.06
532.295	390.06
532.509	397.06
532.724	389.06
532.938	387.06
533.153	384.06
533.367	398.06
533.582	386.06
533.796	387.06
534.011	403.06
534.225	391.06
534.44	378.06
534.654	389.06
534.868	386.06
535.083	383.06
535.297	391.06
535.511	380.06
535.726	372.06
535.94	390.06
536.154	368.06
536.369	365.06
536.583	378.06
536.797	376.06
537.011	377.06
537.225	387.06
537.44	376.06
537.654	372.06
537.868	364.06
538.082	362.06
538.296	378.06
538.51	369.06
538.724	404.06
538.938	393.06
539.153	375.06
539.367	369.06
539.581	364.06
539.795	382.06
540.009	362.06
540.222	360.06
540.436	359.06
540.65	372.06
540.864	373.06
541.078	394.06
541.292	379.06
541.506	391.06
541.72	365.06
541.934	373.06
542.147	372.06
542.361	379.06
542.575	371.06
542.789	375.06
543.002	371.06
543.216	380.06
543.43	354.06
543.644	357.06
543.857	371.06
544.071	363.06
544.285	380.06
544.498	371.06
544.712	355.06
544.925	382.06
545.139	366.06
545.352	352.06
545.566	371.06
545.779	378.06
545.993	366.06
546.206	386.06
546.42	359.06
546.633	342.06
546.847	367.06
547.06	376.06
547.274	363.06
547.487	359.06
547.7	357.06
547.914	358.06
548.127	383.06
548.34	376.06
548.554	354.06
548.767	361.06
548.98	355.06
549.193	362.06
549.407	356.06
549.62	358.06
549.833	354.06
550.046	374.06
550.259	356.06
550.473	370.06
550.686	358.06
550.899	368.06
551.112	354.06
551.325	341.06
551.538	329.06
551.751	364.06
551.964	372.06
552.177	345.06
552.39	344.06
552.603	363.06
552.816	377.06
553.029	380.06
553.242	395.06
553.455	379.06
553.667	381.06
553.88	379.06
554.093	382.06
554.306	371.06
554.519	360.06
554.732	365.06
554.944	348.06
555.157	342.06
555.37	333.06
555.583	355.06
555.795	332.06
556.008	350.06
556.221	327.06
556.433	348.06
556.646	327.06
556.859	321.06
557.071	321.06
557.284	318.06
557.496	341.06
557.709	312.06
557.921	337.06
558.134	338.06
558.346	318.06
558.559	349.06
558.771	304.06
558.984	322.06
559.196	311.06
559.409	320.06
559.621	314.06
559.833	322.06
560.046	320.06
560.258	304.06
560.47	336.06
560.683	310.06
560.895	305.06
561.107	321.06
561.32	297.06
561.532	321.06
561.744	325.06
561.956	324.06
562.168	314.06
562.381	330.06
562.593	315.06
562.805	312.06
563.017	306.06
563.229	317.06
563.441	324.06
563.653	313.06
563.865	324.06
564.077	326.06
564.289	338.06
564.501	325.06
564.713	347.06
564.925	324.06
565.137	349.06
565.349	348.06
565.561	358.06
565.773	368.06
565.985	370.06
566.197	383.06
566.408	388.06
566.62	421.06
566.832	394.06
567.044	406.06
567.255	421.06
567.467	408.06
567.679	438.06
567.891	433.06
568.102	445.06
568.314	434.06
568.526	406.06
568.737	377.06
568.949	376.06
569.161	361.06
569.372	349.06
569.584	342.06
569.795	349.06
570.007	349.06
570.218	343.06
570.43	344.06
570.641	320.06
570.853	317.06
571.064	334.06
571.276	332.06
571.487	300.06
571.698	306.06
571.91	317.06
572.121	328.06
572.333	302.06
572.544	295.06
572.755	316.06
572.966	299.06
573.178	292.06
573.389	282.06
573.6	287.06
573.811	289.06
574.023	275.06
574.234	285.06
574.445	284.06
574.656	276.06
574.867	300.06
575.078	267.06
575.289	269.06
575.501	273.06
575.712	269.06
575.923	264.06
576.134	273.06
576.345	266.06
576.556	282.06
576.767	273.06
576.978	264.06
577.188	268.06
577.399	261.06
577.61	273.06
577.821	262.06
578.032	272.06
578.243	292.06
578.454	336.06
578.665	299.06
578.875	288.06
579.086	267.06
579.297	261.06
579.508	261.06
579.718	260.06
579.929	268.06
580.14	268.06
580.35	249.06
580.561	244.06
580.772	254.06
580.982	262.06
581.193	247.06
581.403	256.06
581.614	244.06
581.825	261.06
582.035	259.06
582.246	258.06
582.456	253.06
582.667	258.06
582.877	238.06
583.087	233.06
583.298	234.06
583.508	254.06
583.719	240.06
583.929	240.06
584.139	263.06
584.35	267.06
584.56	250.06
584.77	242.06
584.981	259.06
585.191	262.06
585.401	245.06
585.611	250.06
585.821	241.06
586.032	261.06
586.242	240.06
586.452	248.06
586.662	241.06
586.872	254.06
587.082	198.06
587.292	229.06
587.502	242.06
587.713	237.06
587.923	241.06
588.133	247.06
588.343	241.06
588.553	264.06
588.762	233.06
588.972	247.06
589.182	282.06
589.392	248.06
589.602	242.06
589.812	258.06
590.022	257.06
590.232	232.06
590.441	250.06
590.651	244.06
590.861	246.06
591.071	234.06
591.281	250.06
591.49	233.06
591.7	230.06
591.91	247.06
592.119	267.06
592.329	262.06
592.539	269.06
592.748	279.06
592.958	247.06
593.167	256.06
593.377	260.06
593.587	278.06
593.796	266.06
594.006	262.06
594.215	273.06
594.424	254.06
594.634	276.06
594.843	263.06
595.053	256.06
595.262	255.06
595.472	257.06
595.681	254.06
595.89	241.06
596.1	233.06
596.309	241.06
596.518	241.06
596.727	229.06
596.937	250.06
597.146	241.06
597.355	246.06
597.564	237.06
597.774	230.06
597.983	225.06
598.192	219.06
598.401	219.06
598.61	215.06
598.819	222.06
599.028	221.06
599.237	222.06
599.446	222.06
599.655	224.06
599.864	221.06
600.073	217.06
600.282	219.06
600.491	214.06
600.7	221.06
600.909	218.06
601.118	228.06
601.327	218.06
601.536	226.06
601.745	234.06
601.953	219.06
602.162	212.06
602.371	209.06
602.58	221.06
602.789	215.06
602.997	195.06
603.206	203.06
603.415	214.06
603.623	210.06
603.832	205.06
604.041	203.06
604.249	201.06
604.458	205.06
604.666	204.06
604.875	210.06
605.084	213.06
605.292	219.06
605.501	215.06
605.709	217.06
605.918	209.06
606.126	205.06
606.334	208.06
606.543	208.06
606.751	206.06
606.96	197.06
607.168	210.06
607.376	208.06
607.585	211.06
607.793	205.06
608.001	215.06
608.21	200.06
608.418	182.06
608.626	193.06
608.834	192.06
609.043	186.06
609.251	213.06
609.459	210.06
609.667	201.06
609.875	213.06
610.083	215.06
610.291	213.06
610.499	195.06
610.707	201.06
610.916	212.06
611.124	221.06
611.332	202.06
611.54	201.06
611.748	223.06
611.955	210.06
612.163	206.06
612.371	195.06
612.579	222.06
612.787	188.06
612.995	210.06
613.203	210.06
613.411	203.06
613.618	181.06
613.826	190.06
614.034	210.06
614.242	200.06
614.449	192.06
614.657	196.06
614.865	193.06
615.072	192.06
615.28	210.06
615.488	183.06
615.695	200.06
615.903	205.06
616.111	195.06
616.318	189.06
616.526	207.06
616.733	193.06
616.941	203.06
617.148	193.06
617.356	193.06
617.563	197.06
617.771	203.06
617.978	212.06
618.185	196.06
618.393	204.06
618.6	189.06
618.807	185.06
619.015	201.06
619.222	200.06
619.429	197.06
619.637	193.06
619.844	191.06
620.051	174.06
620.258	180.06
620.466	192.06
620.673	187.06
620.88	189.06
621.087	173.06
621.294	181.06
621.501	169.06
621.708	180.06
621.915	198.06
622.122	181.06
622.329	184.06
622.536	189.06
622.743	174.06
622.95	180.06
623.157	186.06
623.364	178.06
623.571	177.06
623.778	190.06
623.985	190.06
624.192	179.06
624.399	171.06
624.606	178.06
624.812	194.06
625.019	174.06
625.226	183.06
625.433	182.06
625.639	181.06
625.846	182.06
626.053	191.06
626.259	153.06
626.466	178.06
626.673	170.06
626.879	154.06
627.086	178.06
627.293	179.06
627.499	171.06
627.706	168.06
627.912	171.06
628.119	182.06
628.325	160.06
628.532	180.06
628.738	158.06
628.945	169.06
629.151	170.06
629.357	172.06
629.564	184.06
629.77	174.06
629.976	161.06
630.183	165.06
630.389	166.06
630.595	158.06
630.802	165.06
631.008	169.06
631.214	161.06
631.42	163.06
631.627	189.06
631.833	156.06
632.039	158.06
632.245	146.06
632.451	163.06
632.657	172.06
632.863	152.06
633.069	145.06
633.275	162.06
633.481	159.06
633.688	156.06
633.893	170.06
634.099	165.06
634.305	158.06
634.511	156.06
634.717	172.06
634.923	155.06
635.129	167.06
635.335	168.06
635.541	164.06
635.747	162.06
635.952	155.06
636.158	167.06
636.364	150.06
636.57	162.06
636.775	160.06
636.981	149.06
637.187	170.06
637.392	171.06
637.598	160.06
637.804	148.06
638.009	162.06
638.215	155.06
638.421	158.06
638.626	156.06
638.832	156.06
639.037	150.06
639.243	148.06
639.448	147.06
639.654	154.06
639.859	146.06
640.065	156.06
640.27	151.06
640.475	142.06
640.681	136.06
640.886	147.06
641.091	162.06
641.297	161.06
641.502	144.06
641.707	141.06
641.913	140.06
642.118	140.06
642.323	147.06
642.528	158.06
642.733	161.06
642.939	152.06
643.144	167.06
643.349	160.06
643.554	148.06
643.759	155.06
643.964	140.06
644.169	148.06
644.374	137.06
644.579	152.06
644.784	158.06
644.989	161.06
645.194	130.06
645.399	150.06
645.604	148.06
645.809	150.06
646.014	147.06
646.219	147.06
646.423	149.06
646.628	159.06
646.833	146.06
647.038	145.06
647.243	153.06
647.447	159.06
647.652	157.06
647.857	164.06
648.062	153.06
648.266	144.06
648.471	157.06
648.676	155.06
648.88	139.06
649.085	157.06
649.289	158.06
649.494	152.06
649.698	168.06
649.903	145.06
650.107	156.06
650.312	148.06
650.516	153.06
650.721	147.06
650.925	136.06
651.13	126.06
651.334	134.06
651.539	137.06
651.743	121.06
651.947	133.06
652.152	135.06
652.356	136.06
652.56	137.06
652.764	128.06
652.969	124.06
653.173	131.06
653.377	130.06
653.581	138.06
653.785	121.06
653.99	131.06
654.194	128.06
654.398	150.06
654.602	114.06
654.806	120.06
655.01	136.06
655.214	140.06
655.418	109.06
655.622	122.06
655.826	132.06
656.03	126.06
656.234	128.06
656.438	125.06
656.642	148.06
656.846	143.06
657.049	140.06
657.253	124.06
657.457	116.06
657.661	119.06
657.865	113.06
658.068	114.06
658.272	101.06
658.476	102.06
658.68	108.06
658.883	116.06
659.087	110.06
659.291	97.06
659.494	88.06
659.698	110.06
659.901	101.06
660.105	99.06
660.309	88.06
660.512	81.06
660.716	71.06
660.919	89.06
661.123	87.06
661.326	84.06
661.53	89.06
661.733	84.06
661.936	84.06
662.14	91.06
662.343	85.06
662.546	78.06
662.75	71.06
662.953	82.06
663.156	81.06
663.36	98.06
663.563	92.06
663.766	89.06
663.969	92.06
664.173	90.06
664.376	85.06
664.579	70.06
664.782	88.06
664.985	90.06
665.188	77.06
665.391	96.06
665.594	84.06
665.797	97.06
666	75.06
666.203	85.06
666.406	66.06
666.609	76.06
666.812	87.06
667.015	79.06
667.218	81.06
667.421	78.06
667.624	76.06
667.827	90.06
668.03	72.06
668.232	82.06
668.435	85.06
668.638	89.06
668.841	101.06
669.043	69.06
669.246	91.06
669.449	77.06
669.651	84.06
669.854	76.06
670.057	91.06
670.259	87.06
670.462	80.06
670.665	100.06
670.867	101.06
671.07	85.06
671.272	84.06
671.475	78.06
671.677	86.06
671.88	87.06
672.082	91.06
672.284	76.06
672.487	84.06
672.689	81.06
672.892	80.06
