Data from 1964.PennyLincolnUp.Lamp.En5.5.200Scan.071719.P1._HRD10591_14-05-01-910.txt Node
Date: Thu Jul 18 14:05:01 EDT 2019
User: cochatt
Spectrometer: HR+D1059
Trigger mode: 1
Integration Time (sec): 1.000000E-1
Scans to average: 1
Electric dark correction enabled: true
Nonlinearity correction enabled: false
Boxcar width: 0
XAxis mode: Wavelengths
Number of Pixels in Spectrum: 2048
>>>>>Begin Spectral Data<<<<<
223.165	-10.62
223.4	-10.62
223.635	-10.62
223.869	-5.62
224.104	-16.62
224.338	-19.62
224.573	-8.62
224.808	-19.62
225.042	-7.62
225.277	-6.62
225.511	3.38
225.746	9.38
225.98	-3.62
226.215	13.38
226.449	16.38
226.683	12.38
226.918	20.38
227.152	23.38
227.387	35.38
227.621	38.38
227.856	43.38
228.09	41.38
228.324	43.38
228.559	63.38
228.793	70.38
229.027	92.38
229.262	96.38
229.496	107.38
229.73	110.38
229.964	137.38
230.199	131.38
230.433	119.38
230.667	105.38
230.901	110.38
231.136	102.38
231.37	110.38
231.604	113.38
231.838	118.38
232.072	107.38
232.306	110.38
232.541	126.38
232.775	110.38
233.009	107.38
233.243	115.38
233.477	90.38
233.711	124.38
233.945	129.38
234.179	135.38
234.413	128.38
234.647	123.38
234.881	125.38
235.115	115.38
235.349	131.38
235.583	116.38
235.817	102.38
236.051	114.38
236.285	137.38
236.519	108.38
236.753	121.38
236.987	148.38
237.221	164.38
237.455	201.38
237.689	157.38
237.922	130.38
238.156	129.38
238.39	121.38
238.624	123.38
238.858	136.38
239.091	135.38
239.325	121.38
239.559	121.38
239.793	125.38
240.027	136.38
240.26	127.38
240.494	157.38
240.728	151.38
240.961	152.38
241.195	137.38
241.429	132.38
241.662	136.38
241.896	129.38
242.13	129.38
242.363	137.38
242.597	132.38
242.83	137.38
243.064	146.38
243.298	146.38
243.531	147.38
243.765	156.38
243.998	137.38
244.232	153.38
244.465	158.38
244.699	162.38
244.932	155.38
245.166	153.38
245.399	145.38
245.633	141.38
245.866	136.38
246.099	140.38
246.333	161.38
246.566	145.38
246.8	146.38
247.033	163.38
247.266	156.38
247.5	154.38
247.733	158.38
247.966	189.38
248.2	186.38
248.433	167.38
248.666	181.38
248.899	198.38
249.133	186.38
249.366	199.38
249.599	186.38
249.832	187.38
250.066	177.38
250.299	186.38
250.532	199.38
250.765	199.38
250.998	226.38
251.231	235.38
251.465	221.38
251.698	206.38
251.931	195.38
252.164	207.38
252.397	188.38
252.63	193.38
252.863	211.38
253.096	198.38
253.329	217.38
253.562	222.38
253.795	225.38
254.028	206.38
254.261	211.38
254.494	225.38
254.727	243.38
254.96	253.38
255.193	264.38
255.426	241.38
255.659	237.38
255.892	227.38
256.124	237.38
256.357	251.38
256.59	238.38
256.823	238.38
257.056	225.38
257.289	226.38
257.521	216.38
257.754	213.38
257.987	222.38
258.22	221.38
258.452	212.38
258.685	203.38
258.918	208.38
259.151	244.38
259.383	221.38
259.616	223.38
259.849	223.38
260.081	253.38
260.314	256.38
260.547	254.38
260.779	247.38
261.012	246.38
261.244	229.38
261.477	237.38
261.71	227.38
261.942	227.38
262.175	225.38
262.407	224.38
262.64	220.38
262.872	227.38
263.105	228.38
263.337	222.38
263.57	251.38
263.802	220.38
264.035	231.38
264.267	209.38
264.499	229.38
264.732	230.38
264.964	237.38
265.197	237.38
265.429	218.38
265.661	218.38
265.894	225.38
266.126	223.38
266.358	243.38
266.591	234.38
266.823	239.38
267.055	261.38
267.287	239.38
267.52	249.38
267.752	256.38
267.984	236.38
268.216	263.38
268.448	239.38
268.681	249.38
268.913	266.38
269.145	252.38
269.377	278.38
269.609	285.38
269.841	277.38
270.073	285.38
270.306	285.38
270.538	285.38
270.77	307.38
271.002	310.38
271.234	303.38
271.466	311.38
271.698	325.38
271.93	309.38
272.162	314.38
272.394	312.38
272.626	302.38
272.858	297.38
273.09	291.38
273.322	285.38
273.553	290.38
273.785	277.38
274.017	267.38
274.249	278.38
274.481	281.38
274.713	292.38
274.945	281.38
275.176	293.38
275.408	285.38
275.64	287.38
275.872	270.38
276.104	283.38
276.335	288.38
276.567	289.38
276.799	294.38
277.031	306.38
277.262	319.38
277.494	323.38
277.726	307.38
277.957	300.38
278.189	289.38
278.421	301.38
278.652	282.38
278.884	294.38
279.115	286.38
279.347	275.38
279.579	296.38
279.81	297.38
280.042	278.38
280.273	298.38
280.505	302.38
280.736	285.38
280.968	286.38
281.199	296.38
281.431	299.38
281.662	289.38
281.894	292.38
282.125	332.38
282.356	304.38
282.588	316.38
282.819	323.38
283.051	311.38
283.282	320.38
283.513	290.38
283.745	294.38
283.976	304.38
284.207	303.38
284.439	307.38
284.67	295.38
284.901	325.38
285.132	327.38
285.364	309.38
285.595	328.38
285.826	320.38
286.057	289.38
286.288	295.38
286.52	310.38
286.751	316.38
286.982	320.38
287.213	307.38
287.444	329.38
287.675	329.38
287.906	319.38
288.138	342.38
288.369	342.38
288.6	327.38
288.831	341.38
289.062	306.38
289.293	325.38
289.524	329.38
289.755	333.38
289.986	320.38
290.217	298.38
290.448	315.38
290.679	317.38
290.91	353.38
291.141	312.38
291.371	309.38
291.602	327.38
291.833	311.38
292.064	306.38
292.295	321.38
292.526	312.38
292.757	316.38
292.987	305.38
293.218	311.38
293.449	321.38
293.68	334.38
293.91	325.38
294.141	343.38
294.372	316.38
294.603	328.38
294.833	338.38
295.064	315.38
295.295	320.38
295.525	330.38
295.756	305.38
295.987	328.38
296.217	353.38
296.448	350.38
296.679	350.38
296.909	343.38
297.14	321.38
297.37	335.38
297.601	357.38
297.831	319.38
298.062	335.38
298.292	356.38
298.523	347.38
298.753	362.38
298.984	336.38
299.214	350.38
299.445	349.38
299.675	349.38
299.905	338.38
300.136	343.38
300.366	352.38
300.597	345.38
300.827	352.38
301.057	356.38
301.288	358.38
301.518	358.38
301.748	356.38
301.979	374.38
302.209	362.38
302.439	359.38
302.669	354.38
302.9	367.38
303.13	386.38
303.36	369.38
303.59	368.38
303.82	379.38
304.051	371.38
304.281	367.38
304.511	346.38
304.741	352.38
304.971	358.38
305.201	377.38
305.431	364.38
305.661	375.38
305.891	351.38
306.121	350.38
306.352	353.38
306.582	375.38
306.812	383.38
307.042	384.38
307.272	383.38
307.502	370.38
307.731	349.38
307.961	363.38
308.191	368.38
308.421	373.38
308.651	375.38
308.881	367.38
309.111	369.38
309.341	369.38
309.571	381.38
309.8	385.38
310.03	407.38
310.26	378.38
310.49	391.38
310.72	406.38
310.949	408.38
311.179	413.38
311.409	398.38
311.639	365.38
311.868	401.38
312.098	385.38
312.328	405.38
312.557	411.38
312.787	431.38
313.017	409.38
313.246	387.38
313.476	392.38
313.706	412.38
313.935	411.38
314.165	410.38
314.394	402.38
314.624	417.38
314.853	393.38
315.083	400.38
315.312	410.38
315.542	385.38
315.771	402.38
316.001	410.38
316.23	400.38
316.46	393.38
316.689	389.38
316.919	412.38
317.148	408.38
317.377	432.38
317.607	415.38
317.836	410.38
318.065	404.38
318.295	418.38
318.524	407.38
318.753	409.38
318.983	385.38
319.212	413.38
319.441	423.38
319.67	421.38
319.9	405.38
320.129	430.38
320.358	402.38
320.587	404.38
320.816	431.38
321.046	423.38
321.275	396.38
321.504	412.38
321.733	424.38
321.962	416.38
322.191	443.38
322.42	449.38
322.649	446.38
322.878	456.38
323.108	462.38
323.337	455.38
323.566	473.38
323.795	486.38
324.024	521.38
324.253	596.38
324.482	805.38
324.71	1157.38
324.939	1551.38
325.168	1342.38
325.397	748.38
325.626	529.38
325.855	500.38
326.084	483.38
326.313	466.38
326.542	472.38
326.77	517.38
326.999	586.38
327.228	744.38
327.457	1033.38
327.686	1155.38
327.914	809.38
328.143	601.38
328.372	560.38
328.6	508.38
328.829	517.38
329.058	530.38
329.287	524.38
329.515	526.38
329.744	505.38
329.972	501.38
330.201	522.38
330.43	522.38
330.658	526.38
330.887	539.38
331.115	522.38
331.344	482.38
331.572	478.38
331.801	475.38
332.03	496.38
332.258	481.38
332.486	480.38
332.715	463.38
332.943	471.38
333.172	473.38
333.4	486.38
333.629	500.38
333.857	533.38
334.085	525.38
334.314	523.38
334.542	572.38
334.771	545.38
334.999	545.38
335.227	520.38
335.455	487.38
335.684	495.38
335.912	487.38
336.14	473.38
336.369	472.38
336.597	480.38
336.825	457.38
337.053	471.38
337.281	473.38
337.51	462.38
337.738	480.38
337.966	479.38
338.194	468.38
338.422	465.38
338.65	464.38
338.878	469.38
339.106	474.38
339.334	447.38
339.562	456.38
339.79	447.38
340.018	455.38
340.246	457.38
340.474	450.38
340.702	447.38
340.93	437.38
341.158	449.38
341.386	439.38
341.614	462.38
341.842	463.38
342.07	465.38
342.298	439.38
342.526	431.38
342.754	423.38
342.981	429.38
343.209	445.38
343.437	443.38
343.665	463.38
343.893	488.38
344.12	474.38
344.348	463.38
344.576	453.38
344.804	463.38
345.031	453.38
345.259	473.38
345.487	457.38
345.714	441.38
345.942	440.38
346.17	412.38
346.397	430.38
346.625	431.38
346.853	445.38
347.08	430.38
347.308	417.38
347.535	428.38
347.763	449.38
347.99	448.38
348.218	424.38
348.445	415.38
348.673	435.38
348.9	431.38
349.128	436.38
349.355	423.38
349.583	405.38
349.81	397.38
350.037	430.38
350.265	413.38
350.492	413.38
350.72	399.38
350.947	422.38
351.174	421.38
351.402	433.38
351.629	411.38
351.856	445.38
352.083	434.38
352.311	413.38
352.538	411.38
352.765	414.38
352.992	430.38
353.22	411.38
353.447	416.38
353.674	413.38
353.901	417.38
354.128	394.38
354.355	413.38
354.583	404.38
354.81	389.38
355.037	378.38
355.264	389.38
355.491	385.38
355.718	382.38
355.945	421.38
356.172	382.38
356.399	395.38
356.626	393.38
356.853	378.38
357.08	395.38
357.307	388.38
357.534	402.38
357.761	391.38
357.988	431.38
358.215	405.38
358.441	391.38
358.668	373.38
358.895	398.38
359.122	419.38
359.349	403.38
359.576	430.38
359.802	406.38
360.029	425.38
360.256	448.38
360.483	419.38
360.709	415.38
360.936	428.38
361.163	417.38
361.39	383.38
361.616	406.38
361.843	393.38
362.07	429.38
362.296	417.38
362.523	398.38
362.749	401.38
362.976	402.38
363.203	424.38
363.429	407.38
363.656	406.38
363.882	417.38
364.109	413.38
364.335	415.38
364.562	407.38
364.788	387.38
365.015	380.38
365.241	393.38
365.468	405.38
365.694	402.38
365.92	402.38
366.147	388.38
366.373	393.38
366.599	382.38
366.826	395.38
367.052	390.38
367.278	403.38
367.505	397.38
367.731	405.38
367.957	397.38
368.184	399.38
368.41	397.38
368.636	399.38
368.862	414.38
369.089	381.38
369.315	401.38
369.541	396.38
369.767	406.38
369.993	393.38
370.219	391.38
370.445	381.38
370.672	406.38
370.898	409.38
371.124	399.38
371.35	404.38
371.576	410.38
371.802	386.38
372.028	401.38
372.254	381.38
372.48	413.38
372.706	417.38
372.932	398.38
373.158	401.38
373.384	404.38
373.61	399.38
373.835	403.38
374.061	402.38
374.287	406.38
374.513	417.38
374.739	411.38
374.965	425.38
375.191	419.38
375.416	413.38
375.642	407.38
375.868	397.38
376.094	397.38
376.319	416.38
376.545	398.38
376.771	389.38
376.997	409.38
377.222	399.38
377.448	395.38
377.674	391.38
377.899	388.38
378.125	386.38
378.35	376.38
378.576	387.38
378.802	383.38
379.027	399.38
379.253	391.38
379.478	385.38
379.704	397.38
379.929	382.38
380.155	383.38
380.38	386.38
380.606	386.38
380.831	387.38
381.057	394.38
381.282	401.38
381.507	386.38
381.733	380.38
381.958	383.38
382.184	387.38
382.409	403.38
382.634	391.38
382.86	400.38
383.085	407.38
383.31	399.38
383.535	404.38
383.761	402.38
383.986	412.38
384.211	433.38
384.436	413.38
384.662	429.38
384.887	440.38
385.112	421.38
385.337	427.38
385.562	433.38
385.787	422.38
386.013	430.38
386.238	421.38
386.463	441.38
386.688	434.38
386.913	427.38
387.138	446.38
387.363	422.38
387.588	434.38
387.813	423.38
388.038	410.38
388.263	430.38
388.488	437.38
388.713	416.38
388.938	427.38
389.163	432.38
389.387	438.38
389.612	438.38
389.837	421.38
390.062	418.38
390.287	432.38
390.512	422.38
390.736	423.38
390.961	433.38
391.186	428.38
391.411	425.38
391.636	439.38
391.86	459.38
392.085	461.38
392.31	443.38
392.534	439.38
392.759	435.38
392.984	433.38
393.208	428.38
393.433	433.38
393.658	431.38
393.882	408.38
394.107	422.38
394.331	439.38
394.556	438.38
394.78	433.38
395.005	439.38
395.229	443.38
395.454	421.38
395.678	467.38
395.903	453.38
396.127	472.38
396.352	474.38
396.576	441.38
396.801	431.38
397.025	448.38
397.249	452.38
397.474	466.38
397.698	467.38
397.922	467.38
398.147	468.38
398.371	482.38
398.595	491.38
398.82	479.38
399.044	493.38
399.268	500.38
399.492	542.38
399.717	592.38
399.941	602.38
400.165	610.38
400.389	595.38
400.613	546.38
400.837	496.38
401.062	500.38
401.286	486.38
401.51	489.38
401.734	475.38
401.958	468.38
402.182	492.38
402.406	489.38
402.63	489.38
402.854	464.38
403.078	498.38
403.302	482.38
403.526	492.38
403.75	495.38
403.974	495.38
404.198	506.38
404.422	491.38
404.645	523.38
404.869	498.38
405.093	530.38
405.317	539.38
405.541	570.38
405.765	542.38
405.988	510.38
406.212	494.38
406.436	539.38
406.66	542.38
406.883	531.38
407.107	562.38
407.331	597.38
407.555	616.38
407.778	615.38
408.002	570.38
408.226	586.38
408.449	543.38
408.673	534.38
408.896	553.38
409.12	569.38
409.344	554.38
409.567	501.38
409.791	533.38
410.014	515.38
410.238	485.38
410.461	498.38
410.685	501.38
410.908	526.38
411.132	547.38
411.355	543.38
411.578	538.38
411.802	494.38
412.025	482.38
412.249	506.38
412.472	494.38
412.695	526.38
412.919	534.38
413.142	512.38
413.365	488.38
413.589	473.38
413.812	482.38
414.035	471.38
414.258	451.38
414.482	479.38
414.705	465.38
414.928	464.38
415.151	471.38
415.374	478.38
415.597	469.38
415.821	455.38
416.044	484.38
416.267	464.38
416.49	469.38
416.713	455.38
416.936	462.38
417.159	455.38
417.382	450.38
417.605	465.38
417.828	476.38
418.051	486.38
418.274	467.38
418.497	472.38
418.72	473.38
418.943	467.38
419.166	495.38
419.389	499.38
419.611	490.38
419.834	492.38
420.057	502.38
420.28	464.38
420.503	485.38
420.726	460.38
420.948	497.38
421.171	528.38
421.394	541.38
421.617	490.38
421.839	461.38
422.062	471.38
422.285	473.38
422.507	529.38
422.73	587.38
422.953	570.38
423.175	482.38
423.398	514.38
423.621	513.38
423.843	496.38
424.066	494.38
424.288	498.38
424.511	524.38
424.733	555.38
424.956	600.38
425.178	606.38
425.401	571.38
425.623	585.38
425.846	507.38
426.068	498.38
426.291	498.38
426.513	481.38
426.735	471.38
426.958	533.38
427.18	597.38
427.402	688.38
427.625	714.38
427.847	626.38
428.069	555.38
428.292	518.38
428.514	469.38
428.736	463.38
428.958	462.38
429.181	467.38
429.403	457.38
429.625	460.38
429.847	484.38
430.069	520.38
430.292	531.38
430.514	464.38
430.736	451.38
430.958	438.38
431.18	450.38
431.402	432.38
431.624	456.38
431.846	443.38
432.068	418.38
432.29	449.38
432.512	456.38
432.734	455.38
432.956	425.38
433.178	432.38
433.4	431.38
433.622	445.38
433.844	440.38
434.066	449.38
434.287	433.38
434.509	460.38
434.731	439.38
434.953	448.38
435.175	501.38
435.397	481.38
435.618	507.38
435.84	517.38
436.062	590.38
436.284	642.38
436.505	554.38
436.727	483.38
436.949	461.38
437.17	459.38
437.392	439.38
437.614	471.38
437.835	481.38
438.057	539.38
438.278	612.38
438.5	611.38
438.721	667.38
438.943	631.38
439.165	506.38
439.386	487.38
439.608	486.38
439.829	484.38
440.05	493.38
440.272	525.38
440.493	527.38
440.715	503.38
440.936	464.38
441.158	469.38
441.379	461.38
441.6	473.38
441.822	493.38
442.043	526.38
442.264	577.38
442.486	593.38
442.707	527.38
442.928	484.38
443.149	491.38
443.371	526.38
443.592	543.38
443.813	610.38
444.034	640.38
444.255	557.38
444.476	512.38
444.698	482.38
444.919	504.38
445.14	618.38
445.361	545.38
445.582	532.38
445.803	553.38
446.024	635.38
446.245	617.38
446.466	575.38
446.687	502.38
446.908	459.38
447.129	447.38
447.35	461.38
447.571	450.38
447.792	438.38
448.013	460.38
448.234	477.38
448.455	486.38
448.675	584.38
448.896	647.38
449.117	568.38
449.338	510.38
449.559	631.38
449.779	673.38
450	568.38
450.221	489.38
450.442	441.38
450.662	440.38
450.883	438.38
451.104	441.38
451.324	428.38
451.545	418.38
451.766	403.38
451.986	406.38
452.207	402.38
452.428	392.38
452.648	397.38
452.869	390.38
453.089	426.38
453.31	406.38
453.53	405.38
453.751	396.38
453.971	402.38
454.192	412.38
454.412	399.38
454.633	403.38
454.853	401.38
455.073	368.38
455.294	416.38
455.514	465.38
455.734	449.38
455.955	392.38
456.175	391.38
456.395	384.38
456.616	396.38
456.836	387.38
457.056	373.38
457.276	371.38
457.497	368.38
457.717	376.38
457.937	396.38
458.157	391.38
458.377	407.38
458.598	399.38
458.818	445.38
459.038	492.38
459.258	512.38
459.478	438.38
459.698	415.38
459.918	449.38
460.138	415.38
460.358	433.38
460.578	435.38
460.798	467.38
461.018	447.38
461.238	454.38
461.458	467.38
461.678	434.38
461.898	437.38
462.118	450.38
462.338	477.38
462.558	469.38
462.777	469.38
462.997	508.38
463.217	477.38
463.437	504.38
463.657	465.38
463.876	473.38
464.096	493.38
464.316	475.38
464.536	479.38
464.755	475.38
464.975	481.38
465.195	489.38
465.414	518.38
465.634	477.38
465.854	447.38
466.073	422.38
466.293	410.38
466.512	433.38
466.732	412.38
466.951	421.38
467.171	426.38
467.391	430.38
467.61	435.38
467.829	416.38
468.049	422.38
468.268	416.38
468.488	412.38
468.707	417.38
468.927	390.38
469.146	395.38
469.365	403.38
469.585	386.38
469.804	395.38
470.023	409.38
470.243	417.38
470.462	410.38
470.681	433.38
470.901	413.38
471.12	406.38
471.339	407.38
471.558	430.38
471.777	414.38
471.997	401.38
472.216	424.38
472.435	445.38
472.654	400.38
472.873	429.38
473.092	413.38
473.311	403.38
473.53	411.38
473.749	429.38
473.968	450.38
474.187	503.38
474.406	530.38
474.625	461.38
474.844	427.38
475.063	414.38
475.282	431.38
475.501	421.38
475.72	419.38
475.939	418.38
476.158	421.38
476.377	413.38
476.596	426.38
476.814	449.38
477.033	427.38
477.252	432.38
477.471	435.38
477.69	461.38
477.908	442.38
478.127	453.38
478.346	449.38
478.564	477.38
478.783	473.38
479.002	466.38
479.22	470.38
479.439	496.38
479.658	503.38
479.876	487.38
480.095	513.38
480.313	519.38
480.532	498.38
480.751	480.38
480.969	513.38
481.188	565.38
481.406	543.38
481.624	535.38
481.843	494.38
482.061	506.38
482.28	498.38
482.498	486.38
482.717	463.38
482.935	489.38
483.153	473.38
483.372	463.38
483.59	487.38
483.808	458.38
484.027	469.38
484.245	472.38
484.463	475.38
484.681	487.38
484.9	489.38
485.118	494.38
485.336	500.38
485.554	496.38
485.772	488.38
485.99	489.38
486.209	506.38
486.427	494.38
486.645	484.38
486.863	489.38
487.081	496.38
487.299	513.38
487.517	498.38
487.735	493.38
487.953	499.38
488.171	516.38
488.389	504.38
488.607	512.38
488.825	490.38
489.043	507.38
489.261	517.38
489.479	517.38
489.696	511.38
489.914	512.38
490.132	547.38
490.35	510.38
490.568	529.38
490.786	535.38
491.003	530.38
491.221	562.38
491.439	548.38
491.657	561.38
491.874	580.38
492.092	582.38
492.31	565.38
492.527	574.38
492.745	554.38
492.963	571.38
493.18	571.38
493.398	588.38
493.615	603.38
493.833	574.38
494.05	590.38
494.268	590.38
494.485	575.38
494.703	582.38
494.92	587.38
495.138	583.38
495.355	570.38
495.573	592.38
495.79	583.38
496.008	594.38
496.225	596.38
496.442	569.38
496.66	611.38
496.877	583.38
497.094	573.38
497.312	610.38
497.529	621.38
497.746	610.38
497.963	623.38
498.181	629.38
498.398	663.38
498.615	654.38
498.832	705.38
499.049	701.38
499.267	733.38
499.484	749.38
499.701	765.38
499.918	828.38
500.135	867.38
500.352	892.38
500.569	905.38
500.786	904.38
501.003	901.38
501.22	867.38
501.437	805.38
501.654	780.38
501.871	762.38
502.088	747.38
502.305	701.38
502.522	675.38
502.739	693.38
502.956	648.38
503.172	658.38
503.389	617.38
503.606	626.38
503.823	624.38
504.04	583.38
504.256	613.38
504.473	594.38
504.69	609.38
504.907	613.38
505.123	583.38
505.34	590.38
505.557	550.38
505.773	561.38
505.99	553.38
506.207	537.38
506.423	546.38
506.64	550.38
506.856	531.38
507.073	527.38
507.289	529.38
507.506	533.38
507.722	560.38
507.939	552.38
508.155	532.38
508.372	493.38
508.588	517.38
508.805	520.38
509.021	526.38
509.238	531.38
509.454	541.38
509.67	528.38
509.887	517.38
510.103	529.38
510.319	517.38
510.536	594.38
510.752	789.38
510.968	636.38
511.184	518.38
511.401	493.38
511.617	469.38
511.833	525.38
512.049	483.38
512.265	501.38
512.481	496.38
512.698	497.38
512.914	483.38
513.13	482.38
513.346	470.38
513.562	465.38
513.778	491.38
513.994	498.38
514.21	502.38
514.426	515.38
514.642	518.38
514.858	519.38
515.074	522.38
515.29	616.38
515.506	748.38
515.721	640.38
515.937	540.38
516.153	530.38
516.369	519.38
516.585	522.38
516.801	521.38
517.016	523.38
517.232	530.38
517.448	518.38
517.664	531.38
517.879	553.38
518.095	535.38
518.311	537.38
518.527	529.38
518.742	488.38
518.958	521.38
519.173	521.38
519.389	502.38
519.605	515.38
519.82	493.38
520.036	473.38
520.251	494.38
520.467	517.38
520.682	507.38
520.898	495.38
521.113	505.38
521.329	510.38
521.544	569.38
521.76	634.38
521.975	881.38
522.19	859.38
522.406	574.38
522.621	503.38
522.836	457.38
523.052	472.38
523.267	464.38
523.482	425.38
523.698	443.38
523.913	458.38
524.128	427.38
524.343	438.38
524.559	435.38
524.774	433.38
524.989	437.38
525.204	441.38
525.419	435.38
525.634	433.38
525.849	411.38
526.064	430.38
526.28	422.38
526.495	414.38
526.71	421.38
526.925	418.38
527.14	412.38
527.355	403.38
527.57	407.38
527.785	432.38
527.999	418.38
528.214	416.38
528.429	411.38
528.644	422.38
528.859	416.38
529.074	408.38
529.289	431.38
529.503	447.38
529.718	424.38
529.933	391.38
530.148	413.38
530.363	417.38
530.577	396.38
530.792	399.38
531.007	393.38
531.221	391.38
531.436	414.38
531.651	397.38
531.865	395.38
532.08	375.38
532.295	409.38
532.509	407.38
532.724	417.38
532.938	399.38
533.153	394.38
533.367	393.38
533.582	402.38
533.796	404.38
534.011	407.38
534.225	402.38
534.44	378.38
534.654	401.38
534.868	389.38
535.083	399.38
535.297	397.38
535.511	391.38
535.726	390.38
535.94	415.38
536.154	382.38
536.369	402.38
536.583	401.38
536.797	369.38
537.011	398.38
537.225	384.38
537.44	388.38
537.654	391.38
537.868	374.38
538.082	378.38
538.296	391.38
538.51	385.38
538.724	380.38
538.938	389.38
539.153	383.38
539.367	399.38
539.581	392.38
539.795	367.38
540.009	346.38
540.222	375.38
540.436	369.38
540.65	385.38
540.864	373.38
541.078	390.38
541.292	384.38
541.506	395.38
541.72	367.38
541.934	385.38
542.147	401.38
542.361	377.38
542.575	368.38
542.789	353.38
543.002	363.38
543.216	386.38
543.43	399.38
543.644	361.38
543.857	356.38
544.071	394.38
544.285	362.38
544.498	384.38
544.712	373.38
544.925	403.38
545.139	377.38
545.352	375.38
545.566	382.38
545.779	383.38
545.993	367.38
546.206	367.38
546.42	389.38
546.633	363.38
546.847	372.38
547.06	355.38
547.274	373.38
547.487	369.38
547.7	354.38
547.914	378.38
548.127	368.38
548.34	360.38
548.554	359.38
548.767	368.38
548.98	371.38
549.193	362.38
549.407	373.38
549.62	383.38
549.833	382.38
550.046	380.38
550.259	366.38
550.473	374.38
550.686	363.38
550.899	343.38
551.112	378.38
551.325	375.38
551.538	357.38
551.751	371.38
551.964	335.38
552.177	362.38
552.39	367.38
552.603	373.38
552.816	369.38
553.029	370.38
553.242	375.38
553.455	386.38
553.667	382.38
553.88	385.38
554.093	370.38
554.306	382.38
554.519	381.38
554.732	369.38
554.944	352.38
555.157	354.38
555.37	349.38
555.583	351.38
555.795	362.38
556.008	353.38
556.221	335.38
556.433	348.38
556.646	331.38
556.859	335.38
557.071	330.38
557.284	349.38
557.496	338.38
557.709	333.38
557.921	324.38
558.134	341.38
558.346	331.38
558.559	327.38
558.771	318.38
558.984	320.38
559.196	318.38
559.409	313.38
559.621	341.38
559.833	338.38
560.046	322.38
560.258	313.38
560.47	321.38
560.683	307.38
560.895	328.38
561.107	346.38
561.32	321.38
561.532	330.38
561.744	335.38
561.956	339.38
562.168	353.38
562.381	339.38
562.593	353.38
562.805	339.38
563.017	320.38
563.229	332.38
563.441	326.38
563.653	338.38
563.865	339.38
564.077	340.38
564.289	346.38
564.501	342.38
564.713	347.38
564.925	348.38
565.137	355.38
565.349	352.38
565.561	356.38
565.773	357.38
565.985	372.38
566.197	386.38
566.408	401.38
566.62	392.38
566.832	408.38
567.044	416.38
567.255	413.38
567.467	420.38
567.679	417.38
567.891	450.38
568.102	443.38
568.314	439.38
568.526	411.38
568.737	408.38
568.949	379.38
569.161	384.38
569.372	368.38
569.584	339.38
569.795	341.38
570.007	345.38
570.218	369.38
570.43	341.38
570.641	341.38
570.853	348.38
571.064	330.38
571.276	331.38
571.487	347.38
571.698	330.38
571.91	311.38
572.121	321.38
572.333	307.38
572.544	303.38
572.755	298.38
572.966	304.38
573.178	312.38
573.389	311.38
573.6	290.38
573.811	291.38
574.023	298.38
574.234	279.38
574.445	300.38
574.656	294.38
574.867	273.38
575.078	283.38
575.289	290.38
575.501	295.38
575.712	295.38
575.923	278.38
576.134	280.38
576.345	281.38
576.556	292.38
576.767	289.38
576.978	270.38
577.188	277.38
577.399	268.38
577.61	259.38
577.821	271.38
578.032	261.38
578.243	292.38
578.454	373.38
578.665	315.38
578.875	275.38
579.086	287.38
579.297	259.38
579.508	263.38
579.718	274.38
579.929	273.38
580.14	254.38
580.35	269.38
580.561	261.38
580.772	253.38
580.982	254.38
581.193	256.38
581.403	263.38
581.614	260.38
581.825	256.38
582.035	266.38
582.246	239.38
582.456	241.38
582.667	254.38
582.877	253.38
583.087	280.38
583.298	254.38
583.508	263.38
583.719	268.38
583.929	255.38
584.139	254.38
584.35	246.38
584.56	266.38
584.77	255.38
584.981	251.38
585.191	261.38
585.401	242.38
585.611	252.38
585.821	249.38
586.032	247.38
586.242	248.38
586.452	247.38
586.662	246.38
586.872	253.38
587.082	236.38
587.292	254.38
587.502	259.38
587.713	257.38
587.923	283.38
588.133	251.38
588.343	246.38
588.553	255.38
588.762	249.38
588.972	253.38
589.182	273.38
589.392	267.38
589.602	276.38
589.812	245.38
590.022	256.38
590.232	247.38
590.441	251.38
590.651	252.38
590.861	241.38
591.071	242.38
591.281	255.38
591.49	249.38
591.7	252.38
591.91	253.38
592.119	240.38
592.329	269.38
592.539	283.38
592.748	269.38
592.958	274.38
593.167	281.38
593.377	281.38
593.587	303.38
593.796	267.38
594.006	285.38
594.215	288.38
594.424	263.38
594.634	263.38
594.843	262.38
595.053	272.38
595.262	260.38
595.472	273.38
595.681	257.38
595.89	245.38
596.1	247.38
596.309	247.38
596.518	265.38
596.727	247.38
596.937	232.38
597.146	242.38
597.355	249.38
597.564	229.38
597.774	254.38
597.983	235.38
598.192	236.38
598.401	248.38
598.61	242.38
598.819	231.38
599.028	223.38
599.237	236.38
599.446	225.38
599.655	214.38
599.864	218.38
600.073	225.38
600.282	242.38
600.491	222.38
600.7	231.38
600.909	226.38
601.118	219.38
601.327	210.38
601.536	237.38
601.745	233.38
601.953	242.38
602.162	228.38
602.371	228.38
602.58	225.38
602.789	211.38
602.997	199.38
603.206	214.38
603.415	223.38
603.623	218.38
603.832	221.38
604.041	210.38
604.249	202.38
604.458	231.38
604.666	207.38
604.875	213.38
605.084	215.38
605.292	183.38
605.501	203.38
605.709	219.38
605.918	212.38
606.126	200.38
606.334	220.38
606.543	214.38
606.751	227.38
606.96	210.38
607.168	210.38
607.376	218.38
607.585	208.38
607.793	219.38
608.001	228.38
608.21	207.38
608.418	213.38
608.626	227.38
608.834	202.38
609.043	206.38
609.251	222.38
609.459	201.38
609.667	222.38
609.875	195.38
610.083	203.38
610.291	214.38
610.499	213.38
610.707	197.38
610.916	211.38
611.124	225.38
611.332	226.38
611.54	213.38
611.748	197.38
611.955	216.38
612.163	204.38
612.371	217.38
612.579	208.38
612.787	209.38
612.995	194.38
613.203	189.38
613.411	200.38
613.618	187.38
613.826	209.38
614.034	200.38
614.242	206.38
614.449	216.38
614.657	204.38
614.865	195.38
615.072	210.38
615.28	199.38
615.488	217.38
615.695	206.38
615.903	198.38
616.111	201.38
616.318	207.38
616.526	202.38
616.733	205.38
616.941	212.38
617.148	193.38
617.356	201.38
617.563	202.38
617.771	198.38
617.978	196.38
618.185	206.38
618.393	197.38
618.6	194.38
618.807	211.38
619.015	203.38
619.222	199.38
619.429	205.38
619.637	188.38
619.844	211.38
620.051	185.38
620.258	200.38
620.466	209.38
620.673	201.38
620.88	175.38
621.087	185.38
621.294	184.38
621.501	193.38
621.708	214.38
621.915	177.38
622.122	197.38
622.329	178.38
622.536	192.38
622.743	186.38
622.95	197.38
623.157	189.38
623.364	194.38
623.571	184.38
623.778	177.38
623.985	188.38
624.192	189.38
624.399	177.38
624.606	172.38
624.812	186.38
625.019	163.38
625.226	188.38
625.433	185.38
625.639	194.38
625.846	190.38
626.053	176.38
626.259	194.38
626.466	185.38
626.673	176.38
626.879	165.38
627.086	185.38
627.293	185.38
627.499	172.38
627.706	179.38
627.912	167.38
628.119	170.38
628.325	182.38
628.532	191.38
628.738	176.38
628.945	183.38
629.151	170.38
629.357	171.38
629.564	178.38
629.77	165.38
629.976	179.38
630.183	175.38
630.389	182.38
630.595	157.38
630.802	183.38
631.008	175.38
631.214	167.38
631.42	170.38
631.627	155.38
631.833	170.38
632.039	169.38
632.245	177.38
632.451	168.38
632.657	167.38
632.863	175.38
633.069	167.38
633.275	181.38
633.481	162.38
633.688	169.38
633.893	175.38
634.099	185.38
634.305	152.38
634.511	170.38
634.717	152.38
634.923	154.38
635.129	163.38
635.335	162.38
635.541	166.38
635.747	162.38
635.952	168.38
636.158	180.38
636.364	171.38
636.57	161.38
636.775	172.38
636.981	162.38
637.187	163.38
637.392	156.38
637.598	164.38
637.804	172.38
638.009	166.38
638.215	156.38
638.421	157.38
638.626	145.38
638.832	161.38
639.037	153.38
639.243	160.38
639.448	161.38
639.654	159.38
639.859	157.38
640.065	163.38
640.27	168.38
640.475	156.38
640.681	162.38
640.886	158.38
641.091	150.38
641.297	164.38
641.502	168.38
641.707	165.38
641.913	155.38
642.118	145.38
642.323	166.38
642.528	160.38
642.733	151.38
642.939	148.38
643.144	148.38
643.349	150.38
643.554	159.38
643.759	147.38
643.964	142.38
644.169	141.38
644.374	142.38
644.579	139.38
644.784	139.38
644.989	160.38
645.194	158.38
645.399	152.38
645.604	151.38
645.809	148.38
646.014	152.38
646.219	153.38
646.423	165.38
646.628	153.38
646.833	131.38
647.038	146.38
647.243	144.38
647.447	158.38
647.652	155.38
647.857	163.38
648.062	175.38
648.266	151.38
648.471	155.38
648.676	147.38
648.88	147.38
649.085	151.38
649.289	167.38
649.494	173.38
649.698	167.38
649.903	171.38
650.107	146.38
650.312	155.38
650.516	155.38
650.721	160.38
650.925	158.38
651.13	157.38
651.334	139.38
651.539	163.38
651.743	137.38
651.947	133.38
652.152	137.38
652.356	136.38
652.56	139.38
652.764	130.38
652.969	134.38
653.173	133.38
653.377	147.38
653.581	121.38
653.785	133.38
653.99	127.38
654.194	130.38
654.398	123.38
654.602	125.38
654.806	141.38
655.01	132.38
655.214	138.38
655.418	123.38
655.622	128.38
655.826	138.38
656.03	133.38
656.234	136.38
656.438	144.38
656.642	143.38
656.846	139.38
657.049	127.38
657.253	130.38
657.457	121.38
657.661	132.38
657.865	121.38
658.068	106.38
658.272	112.38
658.476	106.38
658.68	104.38
658.883	96.38
659.087	117.38
659.291	114.38
659.494	98.38
659.698	96.38
659.901	104.38
660.105	108.38
660.309	98.38
660.512	93.38
660.716	102.38
660.919	100.38
661.123	103.38
661.326	93.38
661.53	97.38
661.733	85.38
661.936	89.38
662.14	86.38
662.343	104.38
662.546	88.38
662.75	108.38
662.953	88.38
663.156	94.38
663.36	105.38
663.563	102.38
663.766	79.38
663.969	87.38
664.173	77.38
664.376	72.38
664.579	96.38
664.782	79.38
664.985	85.38
665.188	87.38
665.391	80.38
665.594	84.38
665.797	79.38
666	83.38
666.203	96.38
666.406	85.38
666.609	74.38
666.812	81.38
667.015	99.38
667.218	90.38
667.421	82.38
667.624	88.38
667.827	85.38
668.03	91.38
668.232	95.38
668.435	89.38
668.638	88.38
668.841	88.38
669.043	98.38
669.246	92.38
669.449	83.38
669.651	85.38
669.854	71.38
670.057	84.38
670.259	79.38
670.462	71.38
670.665	75.38
670.867	90.38
671.07	87.38
671.272	84.38
671.475	82.38
671.677	81.38
671.88	91.38
672.082	77.38
672.284	83.38
672.487	63.38
672.689	74.38
672.892	79.38
