Data from 1964.PennyLincolnUp.Lamp.En5.5.200Scan.071719.P1._HRD10591_14-03-43-908.txt Node
Date: Thu Jul 18 14:03:43 EDT 2019
User: cochatt
Spectrometer: HR+D1059
Trigger mode: 1
Integration Time (sec): 1.000000E-1
Scans to average: 1
Electric dark correction enabled: true
Nonlinearity correction enabled: false
Boxcar width: 0
XAxis mode: Wavelengths
Number of Pixels in Spectrum: 2048
>>>>>Begin Spectral Data<<<<<
223.165	-12.12
223.4	-12.12
223.635	-12.12
223.869	-5.12
224.104	-6.12
224.338	-22.12
224.573	-26.12
224.808	-11.12
225.042	0.88
225.277	-2.12
225.511	-4.12
225.746	8.88
225.98	2.88
226.215	11.88
226.449	9.88
226.683	15.88
226.918	24.88
227.152	13.88
227.387	21.88
227.621	51.88
227.856	55.88
228.09	43.88
228.324	43.88
228.559	50.88
228.793	54.88
229.027	71.88
229.262	78.88
229.496	87.88
229.73	102.88
229.964	114.88
230.199	100.88
230.433	101.88
230.667	108.88
230.901	94.88
231.136	113.88
231.37	101.88
231.604	109.88
231.838	107.88
232.072	103.88
232.306	103.88
232.541	118.88
232.775	111.88
233.009	114.88
233.243	92.88
233.477	113.88
233.711	95.88
233.945	99.88
234.179	102.88
234.413	121.88
234.647	108.88
234.881	118.88
235.115	119.88
235.349	104.88
235.583	97.88
235.817	117.88
236.051	113.88
236.285	112.88
236.519	103.88
236.753	123.88
236.987	109.88
237.221	136.88
237.455	177.88
237.689	145.88
237.922	117.88
238.156	107.88
238.39	134.88
238.624	114.88
238.858	119.88
239.091	116.88
239.325	101.88
239.559	117.88
239.793	103.88
240.027	121.88
240.26	110.88
240.494	138.88
240.728	153.88
240.961	143.88
241.195	120.88
241.429	139.88
241.662	130.88
241.896	119.88
242.13	131.88
242.363	116.88
242.597	120.88
242.83	141.88
243.064	136.88
243.298	128.88
243.531	120.88
243.765	133.88
243.998	137.88
244.232	122.88
244.465	133.88
244.699	147.88
244.932	130.88
245.166	140.88
245.399	148.88
245.633	134.88
245.866	140.88
246.099	146.88
246.333	136.88
246.566	151.88
246.8	133.88
247.033	136.88
247.266	142.88
247.5	143.88
247.733	168.88
247.966	167.88
248.2	151.88
248.433	162.88
248.666	167.88
248.899	149.88
249.133	156.88
249.366	184.88
249.599	177.88
249.832	184.88
250.066	179.88
250.299	163.88
250.532	179.88
250.765	176.88
250.998	195.88
251.231	197.88
251.465	208.88
251.698	187.88
251.931	185.88
252.164	183.88
252.397	187.88
252.63	181.88
252.863	203.88
253.096	187.88
253.329	190.88
253.562	187.88
253.795	201.88
254.028	204.88
254.261	206.88
254.494	211.88
254.727	220.88
254.96	241.88
255.193	224.88
255.426	223.88
255.659	205.88
255.892	203.88
256.124	205.88
256.357	225.88
256.59	209.88
256.823	185.88
257.056	197.88
257.289	190.88
257.521	195.88
257.754	180.88
257.987	204.88
258.22	182.88
258.452	182.88
258.685	207.88
258.918	196.88
259.151	199.88
259.383	191.88
259.616	200.88
259.849	199.88
260.081	210.88
260.314	231.88
260.547	224.88
260.779	211.88
261.012	211.88
261.244	215.88
261.477	219.88
261.71	210.88
261.942	220.88
262.175	195.88
262.407	203.88
262.64	209.88
262.872	214.88
263.105	193.88
263.337	207.88
263.57	213.88
263.802	197.88
264.035	210.88
264.267	204.88
264.499	217.88
264.732	185.88
264.964	225.88
265.197	214.88
265.429	205.88
265.661	211.88
265.894	210.88
266.126	213.88
266.358	208.88
266.591	210.88
266.823	228.88
267.055	215.88
267.287	211.88
267.52	212.88
267.752	226.88
267.984	216.88
268.216	236.88
268.448	234.88
268.681	224.88
268.913	231.88
269.145	245.88
269.377	256.88
269.609	255.88
269.841	257.88
270.073	258.88
270.306	276.88
270.538	283.88
270.77	271.88
271.002	289.88
271.234	282.88
271.466	281.88
271.698	290.88
271.93	293.88
272.162	275.88
272.394	273.88
272.626	296.88
272.858	275.88
273.09	245.88
273.322	276.88
273.553	251.88
273.785	258.88
274.017	255.88
274.249	246.88
274.481	247.88
274.713	265.88
274.945	273.88
275.176	264.88
275.408	260.88
275.64	259.88
275.872	253.88
276.104	270.88
276.335	259.88
276.567	266.88
276.799	264.88
277.031	275.88
277.262	294.88
277.494	299.88
277.726	289.88
277.957	275.88
278.189	271.88
278.421	280.88
278.652	268.88
278.884	282.88
279.115	266.88
279.347	259.88
279.579	262.88
279.81	263.88
280.042	260.88
280.273	290.88
280.505	285.88
280.736	261.88
280.968	282.88
281.199	265.88
281.431	267.88
281.662	278.88
281.894	277.88
282.125	279.88
282.356	284.88
282.588	295.88
282.819	292.88
283.051	269.88
283.282	286.88
283.513	298.88
283.745	295.88
283.976	266.88
284.207	278.88
284.439	280.88
284.67	288.88
284.901	297.88
285.132	296.88
285.364	291.88
285.595	270.88
285.826	275.88
286.057	288.88
286.288	282.88
286.52	294.88
286.751	280.88
286.982	285.88
287.213	284.88
287.444	289.88
287.675	291.88
287.906	291.88
288.138	314.88
288.369	305.88
288.6	296.88
288.831	277.88
289.062	321.88
289.293	310.88
289.524	289.88
289.755	292.88
289.986	298.88
290.217	273.88
290.448	276.88
290.679	305.88
290.91	305.88
291.141	307.88
291.371	304.88
291.602	303.88
291.833	292.88
292.064	307.88
292.295	285.88
292.526	299.88
292.757	288.88
292.987	300.88
293.218	276.88
293.449	296.88
293.68	283.88
293.91	287.88
294.141	297.88
294.372	281.88
294.603	295.88
294.833	288.88
295.064	305.88
295.295	311.88
295.525	301.88
295.756	311.88
295.987	308.88
296.217	321.88
296.448	327.88
296.679	328.88
296.909	311.88
297.14	332.88
297.37	309.88
297.601	316.88
297.831	330.88
298.062	328.88
298.292	322.88
298.523	333.88
298.753	331.88
298.984	310.88
299.214	325.88
299.445	351.88
299.675	306.88
299.905	324.88
300.136	336.88
300.366	336.88
300.597	325.88
300.827	341.88
301.057	346.88
301.288	331.88
301.518	338.88
301.748	345.88
301.979	319.88
302.209	324.88
302.439	334.88
302.669	327.88
302.9	333.88
303.13	340.88
303.36	345.88
303.59	342.88
303.82	359.88
304.051	337.88
304.281	350.88
304.511	330.88
304.741	349.88
304.971	327.88
305.201	345.88
305.431	349.88
305.661	351.88
305.891	339.88
306.121	337.88
306.352	349.88
306.582	332.88
306.812	330.88
307.042	332.88
307.272	344.88
307.502	331.88
307.731	333.88
307.961	334.88
308.191	337.88
308.421	319.88
308.651	316.88
308.881	362.88
309.111	345.88
309.341	346.88
309.571	359.88
309.8	363.88
310.03	356.88
310.26	356.88
310.49	375.88
310.72	371.88
310.949	367.88
311.179	370.88
311.409	357.88
311.639	375.88
311.868	361.88
312.098	365.88
312.328	371.88
312.557	369.88
312.787	383.88
313.017	388.88
313.246	384.88
313.476	370.88
313.706	367.88
313.935	371.88
314.165	384.88
314.394	377.88
314.624	387.88
314.853	387.88
315.083	384.88
315.312	385.88
315.542	374.88
315.771	360.88
316.001	402.88
316.23	367.88
316.46	370.88
316.689	373.88
316.919	376.88
317.148	401.88
317.377	385.88
317.607	379.88
317.836	370.88
318.065	378.88
318.295	374.88
318.524	375.88
318.753	394.88
318.983	381.88
319.212	390.88
319.441	379.88
319.67	363.88
319.9	377.88
320.129	411.88
320.358	397.88
320.587	375.88
320.816	389.88
321.046	399.88
321.275	387.88
321.504	380.88
321.733	387.88
321.962	399.88
322.191	374.88
322.42	394.88
322.649	396.88
322.878	419.88
323.108	413.88
323.337	435.88
323.566	429.88
323.795	448.88
324.024	456.88
324.253	537.88
324.482	687.88
324.71	959.88
324.939	1347.88
325.168	1133.88
325.397	619.88
325.626	517.88
325.855	417.88
326.084	434.88
326.313	433.88
326.542	427.88
326.77	446.88
326.999	523.88
327.228	664.88
327.457	901.88
327.686	1022.88
327.914	694.88
328.143	519.88
328.372	464.88
328.6	466.88
328.829	487.88
329.058	472.88
329.287	471.88
329.515	476.88
329.744	452.88
329.972	452.88
330.201	460.88
330.43	504.88
330.658	500.88
330.887	487.88
331.115	453.88
331.344	455.88
331.572	434.88
331.801	451.88
332.03	436.88
332.258	437.88
332.486	436.88
332.715	431.88
332.943	446.88
333.172	443.88
333.4	452.88
333.629	460.88
333.857	474.88
334.085	451.88
334.314	484.88
334.542	503.88
334.771	511.88
334.999	486.88
335.227	480.88
335.455	452.88
335.684	445.88
335.912	448.88
336.14	421.88
336.369	436.88
336.597	456.88
336.825	447.88
337.053	443.88
337.281	433.88
337.51	427.88
337.738	448.88
337.966	447.88
338.194	449.88
338.422	423.88
338.65	431.88
338.878	439.88
339.106	435.88
339.334	433.88
339.562	416.88
339.79	410.88
340.018	419.88
340.246	412.88
340.474	420.88
340.702	402.88
340.93	424.88
341.158	423.88
341.386	417.88
341.614	401.88
341.842	431.88
342.07	416.88
342.298	401.88
342.526	401.88
342.754	393.88
342.981	429.88
343.209	393.88
343.437	410.88
343.665	416.88
343.893	436.88
344.12	454.88
344.348	427.88
344.576	442.88
344.804	443.88
345.031	415.88
345.259	424.88
345.487	408.88
345.714	420.88
345.942	407.88
346.17	390.88
346.397	407.88
346.625	415.88
346.853	395.88
347.08	411.88
347.308	396.88
347.535	396.88
347.763	395.88
347.99	390.88
348.218	425.88
348.445	389.88
348.673	392.88
348.9	404.88
349.128	392.88
349.355	377.88
349.583	381.88
349.81	404.88
350.037	379.88
350.265	379.88
350.492	390.88
350.72	373.88
350.947	387.88
351.174	391.88
351.402	386.88
351.629	386.88
351.856	377.88
352.083	395.88
352.311	386.88
352.538	394.88
352.765	410.88
352.992	382.88
353.22	376.88
353.447	380.88
353.674	372.88
353.901	373.88
354.128	384.88
354.355	353.88
354.583	369.88
354.81	346.88
355.037	383.88
355.264	371.88
355.491	358.88
355.718	367.88
355.945	361.88
356.172	379.88
356.399	350.88
356.626	370.88
356.853	383.88
357.08	383.88
357.307	365.88
357.534	364.88
357.761	386.88
357.988	375.88
358.215	367.88
358.441	378.88
358.668	372.88
358.895	372.88
359.122	397.88
359.349	384.88
359.576	367.88
359.802	392.88
360.029	388.88
360.256	391.88
360.483	389.88
360.709	380.88
360.936	379.88
361.163	379.88
361.39	386.88
361.616	382.88
361.843	405.88
362.07	388.88
362.296	388.88
362.523	387.88
362.749	373.88
362.976	377.88
363.203	376.88
363.429	374.88
363.656	370.88
363.882	352.88
364.109	383.88
364.335	369.88
364.562	363.88
364.788	377.88
365.015	365.88
365.241	356.88
365.468	378.88
365.694	348.88
365.92	372.88
366.147	368.88
366.373	372.88
366.599	379.88
366.826	367.88
367.052	362.88
367.278	353.88
367.505	376.88
367.731	369.88
367.957	368.88
368.184	377.88
368.41	380.88
368.636	376.88
368.862	387.88
369.089	361.88
369.315	380.88
369.541	364.88
369.767	399.88
369.993	369.88
370.219	390.88
370.445	369.88
370.672	364.88
370.898	367.88
371.124	375.88
371.35	377.88
371.576	380.88
371.802	366.88
372.028	357.88
372.254	375.88
372.48	362.88
372.706	365.88
372.932	381.88
373.158	389.88
373.384	393.88
373.61	366.88
373.835	379.88
374.061	377.88
374.287	373.88
374.513	371.88
374.739	393.88
374.965	370.88
375.191	390.88
375.416	389.88
375.642	354.88
375.868	390.88
376.094	369.88
376.319	379.88
376.545	389.88
376.771	391.88
376.997	384.88
377.222	366.88
377.448	353.88
377.674	354.88
377.899	375.88
378.125	367.88
378.35	387.88
378.576	362.88
378.802	369.88
379.027	383.88
379.253	372.88
379.478	372.88
379.704	372.88
379.929	371.88
380.155	358.88
380.38	373.88
380.606	373.88
380.831	368.88
381.057	367.88
381.282	374.88
381.507	368.88
381.733	374.88
381.958	371.88
382.184	367.88
382.409	370.88
382.634	354.88
382.86	387.88
383.085	391.88
383.31	378.88
383.535	407.88
383.761	405.88
383.986	382.88
384.211	370.88
384.436	373.88
384.662	388.88
384.887	397.88
385.112	385.88
385.337	409.88
385.562	407.88
385.787	405.88
386.013	411.88
386.238	400.88
386.463	390.88
386.688	393.88
386.913	402.88
387.138	408.88
387.363	423.88
387.588	413.88
387.813	417.88
388.038	403.88
388.263	391.88
388.488	399.88
388.713	398.88
388.938	413.88
389.163	394.88
389.387	394.88
389.612	405.88
389.837	407.88
390.062	405.88
390.287	403.88
390.512	407.88
390.736	389.88
390.961	411.88
391.186	404.88
391.411	405.88
391.636	401.88
391.86	426.88
392.085	407.88
392.31	405.88
392.534	424.88
392.759	413.88
392.984	425.88
393.208	394.88
393.433	407.88
393.658	417.88
393.882	406.88
394.107	394.88
394.331	415.88
394.556	407.88
394.78	420.88
395.005	398.88
395.229	398.88
395.454	426.88
395.678	420.88
395.903	436.88
396.127	431.88
396.352	433.88
396.576	400.88
396.801	411.88
397.025	423.88
397.249	423.88
397.474	445.88
397.698	418.88
397.922	450.88
398.147	443.88
398.371	442.88
398.595	445.88
398.82	437.88
399.044	486.88
399.268	482.88
399.492	508.88
399.717	541.88
399.941	547.88
400.165	577.88
400.389	565.88
400.613	519.88
400.837	523.88
401.062	478.88
401.286	470.88
401.51	463.88
401.734	452.88
401.958	452.88
402.182	457.88
402.406	448.88
402.63	474.88
402.854	458.88
403.078	458.88
403.302	488.88
403.526	474.88
403.75	473.88
403.974	474.88
404.198	467.88
404.422	488.88
404.645	477.88
404.869	492.88
405.093	509.88
405.317	522.88
405.541	554.88
405.765	500.88
405.988	495.88
406.212	495.88
406.436	503.88
406.66	489.88
406.883	498.88
407.107	531.88
407.331	559.88
407.555	595.88
407.778	604.88
408.002	544.88
408.226	523.88
408.449	516.88
408.673	511.88
408.896	522.88
409.12	538.88
409.344	516.88
409.567	495.88
409.791	466.88
410.014	459.88
410.238	472.88
410.461	474.88
410.685	469.88
410.908	472.88
411.132	529.88
411.355	512.88
411.578	510.88
411.802	483.88
412.025	455.88
412.249	460.88
412.472	491.88
412.695	502.88
412.919	500.88
413.142	477.88
413.365	447.88
413.589	450.88
413.812	443.88
414.035	456.88
414.258	443.88
414.482	418.88
414.705	423.88
414.928	435.88
415.151	431.88
415.374	425.88
415.597	435.88
415.821	428.88
416.044	447.88
416.267	421.88
416.49	432.88
416.713	444.88
416.936	455.88
417.159	412.88
417.382	419.88
417.605	429.88
417.828	454.88
418.051	461.88
418.274	459.88
418.497	434.88
418.72	426.88
418.943	417.88
419.166	466.88
419.389	467.88
419.611	453.88
419.834	435.88
420.057	445.88
420.28	448.88
420.503	445.88
420.726	437.88
420.948	446.88
421.171	471.88
421.394	492.88
421.617	453.88
421.839	443.88
422.062	469.88
422.285	467.88
422.507	491.88
422.73	550.88
422.953	513.88
423.175	453.88
423.398	443.88
423.621	447.88
423.843	472.88
424.066	480.88
424.288	472.88
424.511	481.88
424.733	510.88
424.956	560.88
425.178	524.88
425.401	543.88
425.623	543.88
425.846	489.88
426.068	456.88
426.291	448.88
426.513	440.88
426.735	446.88
426.958	482.88
427.18	536.88
427.402	620.88
427.625	650.88
427.847	592.88
428.069	520.88
428.292	486.88
428.514	460.88
428.736	448.88
428.958	425.88
429.181	421.88
429.403	402.88
429.625	428.88
429.847	451.88
430.069	476.88
430.292	490.88
430.514	438.88
430.736	425.88
430.958	408.88
431.18	396.88
431.402	393.88
431.624	398.88
431.846	421.88
432.068	395.88
432.29	419.88
432.512	419.88
432.734	403.88
432.956	420.88
433.178	408.88
433.4	417.88
433.622	390.88
433.844	398.88
434.066	404.88
434.287	413.88
434.509	417.88
434.731	423.88
434.953	424.88
435.175	425.88
435.397	434.88
435.618	448.88
435.84	460.88
436.062	530.88
436.284	587.88
436.505	501.88
436.727	444.88
436.949	427.88
437.17	426.88
437.392	427.88
437.614	417.88
437.835	413.88
438.057	495.88
438.278	572.88
438.5	555.88
438.721	620.88
438.943	573.88
439.165	479.88
439.386	432.88
439.608	456.88
439.829	433.88
440.05	445.88
440.272	456.88
440.493	447.88
440.715	447.88
440.936	425.88
441.158	436.88
441.379	415.88
441.6	441.88
441.822	445.88
442.043	475.88
442.264	527.88
442.486	539.88
442.707	479.88
442.928	460.88
443.149	456.88
443.371	469.88
443.592	481.88
443.813	556.88
444.034	588.88
444.255	542.88
444.476	471.88
444.698	453.88
444.919	450.88
445.14	566.88
445.361	515.88
445.582	496.88
445.803	514.88
446.024	574.88
446.245	571.88
446.466	504.88
446.687	459.88
446.908	454.88
447.129	416.88
447.35	398.88
447.571	421.88
447.792	407.88
448.013	404.88
448.234	409.88
448.455	446.88
448.675	533.88
448.896	589.88
449.117	518.88
449.338	498.88
449.559	555.88
449.779	630.88
450	491.88
450.221	441.88
450.442	410.88
450.662	395.88
450.883	394.88
451.104	382.88
451.324	405.88
451.545	385.88
451.766	380.88
451.986	380.88
452.207	368.88
452.428	375.88
452.648	353.88
452.869	377.88
453.089	383.88
453.31	382.88
453.53	376.88
453.751	378.88
453.971	364.88
454.192	375.88
454.412	354.88
454.633	369.88
454.853	367.88
455.073	353.88
455.294	385.88
455.514	409.88
455.734	414.88
455.955	376.88
456.175	371.88
456.395	352.88
456.616	371.88
456.836	357.88
457.056	352.88
457.276	346.88
457.497	355.88
457.717	380.88
457.937	355.88
458.157	369.88
458.377	365.88
458.598	383.88
458.818	407.88
459.038	438.88
459.258	478.88
459.478	431.88
459.698	403.88
459.918	400.88
460.138	408.88
460.358	389.88
460.578	397.88
460.798	426.88
461.018	447.88
461.238	421.88
461.458	424.88
461.678	428.88
461.898	420.88
462.118	423.88
462.338	441.88
462.558	428.88
462.777	467.88
462.997	476.88
463.217	458.88
463.437	472.88
463.657	447.88
463.876	452.88
464.096	445.88
464.316	450.88
464.536	460.88
464.755	458.88
464.975	444.88
465.195	459.88
465.414	464.88
465.634	442.88
465.854	396.88
466.073	405.88
466.293	393.88
466.512	363.88
466.732	391.88
466.951	395.88
467.171	412.88
467.391	396.88
467.61	384.88
467.829	393.88
468.049	402.88
468.268	391.88
468.488	383.88
468.707	390.88
468.927	368.88
469.146	380.88
469.365	382.88
469.585	379.88
469.804	381.88
470.023	390.88
470.243	389.88
470.462	394.88
470.681	375.88
470.901	378.88
471.12	384.88
471.339	384.88
471.558	400.88
471.777	402.88
471.997	389.88
472.216	370.88
472.435	411.88
472.654	384.88
472.873	375.88
473.092	386.88
473.311	397.88
473.53	373.88
473.749	393.88
473.968	431.88
474.187	468.88
474.406	480.88
474.625	419.88
474.844	386.88
475.063	375.88
475.282	378.88
475.501	381.88
475.72	368.88
475.939	384.88
476.158	376.88
476.377	403.88
476.596	406.88
476.814	412.88
477.033	399.88
477.252	422.88
477.471	416.88
477.69	418.88
477.908	424.88
478.127	410.88
478.346	418.88
478.564	453.88
478.783	421.88
479.002	436.88
479.22	441.88
479.439	450.88
479.658	453.88
479.876	452.88
480.095	444.88
480.313	456.88
480.532	496.88
480.751	459.88
480.969	459.88
481.188	519.88
481.406	525.88
481.624	485.88
481.843	456.88
482.061	459.88
482.28	437.88
482.498	454.88
482.717	425.88
482.935	445.88
483.153	446.88
483.372	447.88
483.59	459.88
483.808	442.88
484.027	442.88
484.245	433.88
484.463	448.88
484.681	451.88
484.9	463.88
485.118	440.88
485.336	458.88
485.554	469.88
485.772	451.88
485.99	452.88
486.209	471.88
486.427	469.88
486.645	461.88
486.863	468.88
487.081	466.88
487.299	466.88
487.517	466.88
487.735	469.88
487.953	476.88
488.171	461.88
488.389	473.88
488.607	487.88
488.825	464.88
489.043	455.88
489.261	457.88
489.479	475.88
489.696	474.88
489.914	486.88
490.132	458.88
490.35	485.88
490.568	499.88
490.786	503.88
491.003	501.88
491.221	484.88
491.439	514.88
491.657	535.88
491.874	514.88
492.092	535.88
492.31	500.88
492.527	531.88
492.745	543.88
492.963	536.88
493.18	554.88
493.398	539.88
493.615	545.88
493.833	536.88
494.05	563.88
494.268	533.88
494.485	531.88
494.703	536.88
494.92	539.88
495.138	561.88
495.355	533.88
495.573	534.88
495.79	542.88
496.008	551.88
496.225	528.88
496.442	531.88
496.66	563.88
496.877	531.88
497.094	556.88
497.312	576.88
497.529	547.88
497.746	586.88
497.963	573.88
498.181	615.88
498.398	602.88
498.615	619.88
498.832	633.88
499.049	668.88
499.267	680.88
499.484	714.88
499.701	735.88
499.918	777.88
500.135	829.88
500.352	857.88
500.569	861.88
500.786	844.88
501.003	835.88
501.22	805.88
501.437	775.88
501.654	749.88
501.871	721.88
502.088	693.88
502.305	659.88
502.522	630.88
502.739	589.88
502.956	624.88
503.172	593.88
503.389	577.88
503.606	611.88
503.823	564.88
504.04	552.88
504.256	569.88
504.473	547.88
504.69	561.88
504.907	567.88
505.123	522.88
505.34	525.88
505.557	539.88
505.773	537.88
505.99	514.88
506.207	512.88
506.423	536.88
506.64	507.88
506.856	507.88
507.073	510.88
507.289	491.88
507.506	480.88
507.722	511.88
507.939	492.88
508.155	482.88
508.372	497.88
508.588	478.88
508.805	469.88
509.021	477.88
509.238	475.88
509.454	496.88
509.67	490.88
509.887	491.88
510.103	479.88
510.319	490.88
510.536	502.88
510.752	661.88
510.968	575.88
511.184	471.88
511.401	450.88
511.617	446.88
511.833	472.88
512.049	450.88
512.265	450.88
512.481	458.88
512.698	442.88
512.914	427.88
513.13	459.88
513.346	451.88
513.562	448.88
513.778	459.88
513.994	447.88
514.21	455.88
514.426	471.88
514.642	478.88
514.858	483.88
515.074	501.88
515.29	543.88
515.506	672.88
515.721	573.88
515.937	515.88
516.153	464.88
516.369	469.88
516.585	478.88
516.801	477.88
517.016	469.88
517.232	481.88
517.448	504.88
517.664	492.88
517.879	485.88
518.095	491.88
518.311	489.88
518.527	487.88
518.742	466.88
518.958	480.88
519.173	477.88
519.389	468.88
519.605	470.88
519.82	453.88
520.036	471.88
520.251	449.88
520.467	473.88
520.682	469.88
520.898	472.88
521.113	459.88
521.329	461.88
521.544	501.88
521.76	564.88
521.975	755.88
522.19	730.88
522.406	505.88
522.621	456.88
522.836	449.88
523.052	438.88
523.267	437.88
523.482	404.88
523.698	409.88
523.913	402.88
524.128	414.88
524.343	400.88
524.559	402.88
524.774	389.88
524.989	385.88
525.204	405.88
525.419	379.88
525.634	405.88
525.849	392.88
526.064	381.88
526.28	387.88
526.495	405.88
526.71	382.88
526.925	383.88
527.14	379.88
527.355	380.88
527.57	397.88
527.785	379.88
527.999	388.88
528.214	375.88
528.429	379.88
528.644	368.88
528.859	373.88
529.074	381.88
529.289	397.88
529.503	408.88
529.718	433.88
529.933	407.88
530.148	371.88
530.363	401.88
530.577	383.88
530.792	380.88
531.007	371.88
531.221	359.88
531.436	376.88
531.651	365.88
531.865	363.88
532.08	368.88
532.295	381.88
532.509	371.88
532.724	377.88
532.938	378.88
533.153	375.88
533.367	355.88
533.582	371.88
533.796	368.88
534.011	371.88
534.225	372.88
534.44	353.88
534.654	348.88
534.868	356.88
535.083	362.88
535.297	379.88
535.511	377.88
535.726	379.88
535.94	379.88
536.154	379.88
536.369	357.88
536.583	350.88
536.797	363.88
537.011	341.88
537.225	358.88
537.44	345.88
537.654	351.88
537.868	355.88
538.082	341.88
538.296	364.88
538.51	353.88
538.724	353.88
538.938	361.88
539.153	356.88
539.367	354.88
539.581	337.88
539.795	350.88
540.009	359.88
540.222	351.88
540.436	364.88
540.65	351.88
540.864	344.88
541.078	368.88
541.292	363.88
541.506	360.88
541.72	347.88
541.934	365.88
542.147	377.88
542.361	334.88
542.575	333.88
542.789	351.88
543.002	363.88
543.216	365.88
543.43	361.88
543.644	363.88
543.857	356.88
544.071	359.88
544.285	359.88
544.498	346.88
544.712	370.88
544.925	351.88
545.139	375.88
545.352	342.88
545.566	367.88
545.779	352.88
545.993	347.88
546.206	353.88
546.42	362.88
546.633	361.88
546.847	351.88
547.06	342.88
547.274	342.88
547.487	346.88
547.7	345.88
547.914	354.88
548.127	345.88
548.34	352.88
548.554	355.88
548.767	344.88
548.98	354.88
549.193	345.88
549.407	336.88
549.62	345.88
549.833	345.88
550.046	370.88
550.259	327.88
550.473	365.88
550.686	354.88
550.899	348.88
551.112	344.88
551.325	355.88
551.538	336.88
551.751	348.88
551.964	321.88
552.177	349.88
552.39	338.88
552.603	355.88
552.816	346.88
553.029	349.88
553.242	336.88
553.455	355.88
553.667	353.88
553.88	349.88
554.093	341.88
554.306	357.88
554.519	351.88
554.732	363.88
554.944	328.88
555.157	337.88
555.37	339.88
555.583	329.88
555.795	310.88
556.008	319.88
556.221	307.88
556.433	328.88
556.646	324.88
556.859	323.88
557.071	322.88
557.284	314.88
557.496	298.88
557.709	307.88
557.921	304.88
558.134	317.88
558.346	311.88
558.559	315.88
558.771	305.88
558.984	317.88
559.196	301.88
559.409	305.88
559.621	319.88
559.833	297.88
560.046	301.88
560.258	303.88
560.47	306.88
560.683	319.88
560.895	319.88
561.107	316.88
561.32	291.88
561.532	305.88
561.744	316.88
561.956	319.88
562.168	320.88
562.381	306.88
562.593	295.88
562.805	315.88
563.017	295.88
563.229	313.88
563.441	332.88
563.653	325.88
563.865	318.88
564.077	319.88
564.289	317.88
564.501	317.88
564.713	333.88
564.925	335.88
565.137	325.88
565.349	337.88
565.561	346.88
565.773	343.88
565.985	372.88
566.197	372.88
566.408	372.88
566.62	397.88
566.832	376.88
567.044	396.88
567.255	393.88
567.467	406.88
567.679	431.88
567.891	437.88
568.102	432.88
568.314	405.88
568.526	389.88
568.737	367.88
568.949	368.88
569.161	344.88
569.372	341.88
569.584	336.88
569.795	345.88
570.007	318.88
570.218	333.88
570.43	334.88
570.641	311.88
570.853	313.88
571.064	318.88
571.276	312.88
571.487	317.88
571.698	285.88
571.91	296.88
572.121	314.88
572.333	295.88
572.544	291.88
572.755	293.88
572.966	281.88
573.178	290.88
573.389	266.88
573.6	273.88
573.811	275.88
574.023	260.88
574.234	266.88
574.445	265.88
574.656	270.88
574.867	276.88
575.078	269.88
575.289	275.88
575.501	282.88
575.712	275.88
575.923	280.88
576.134	272.88
576.345	267.88
576.556	266.88
576.767	256.88
576.978	266.88
577.188	262.88
577.399	247.88
577.61	258.88
577.821	273.88
578.032	245.88
578.243	279.88
578.454	335.88
578.665	284.88
578.875	242.88
579.086	244.88
579.297	265.88
579.508	253.88
579.718	254.88
579.929	250.88
580.14	252.88
580.35	264.88
580.561	231.88
580.772	258.88
580.982	257.88
581.193	239.88
581.403	249.88
581.614	246.88
581.825	243.88
582.035	245.88
582.246	259.88
582.456	234.88
582.667	254.88
582.877	244.88
583.087	247.88
583.298	245.88
583.508	244.88
583.719	240.88
583.929	228.88
584.139	239.88
584.35	250.88
584.56	240.88
584.77	234.88
584.981	235.88
585.191	228.88
585.401	231.88
585.611	260.88
585.821	235.88
586.032	232.88
586.242	231.88
586.452	242.88
586.662	242.88
586.872	244.88
587.082	237.88
587.292	232.88
587.502	235.88
587.713	245.88
587.923	243.88
588.133	237.88
588.343	240.88
588.553	231.88
588.762	228.88
588.972	241.88
589.182	279.88
589.392	267.88
589.602	252.88
589.812	253.88
590.022	245.88
590.232	238.88
590.441	227.88
590.651	232.88
590.861	232.88
591.071	250.88
591.281	242.88
591.49	235.88
591.7	263.88
591.91	240.88
592.119	236.88
592.329	247.88
592.539	260.88
592.748	263.88
592.958	255.88
593.167	273.88
593.377	271.88
593.587	274.88
593.796	270.88
594.006	272.88
594.215	249.88
594.424	243.88
594.634	257.88
594.843	244.88
595.053	237.88
595.262	253.88
595.472	260.88
595.681	223.88
595.89	244.88
596.1	246.88
596.309	229.88
596.518	232.88
596.727	212.88
596.937	212.88
597.146	219.88
597.355	227.88
597.564	210.88
597.774	205.88
597.983	207.88
598.192	217.88
598.401	216.88
598.61	208.88
598.819	207.88
599.028	209.88
599.237	206.88
599.446	217.88
599.655	207.88
599.864	208.88
600.073	211.88
600.282	201.88
600.491	216.88
600.7	205.88
600.909	207.88
601.118	199.88
601.327	212.88
601.536	217.88
601.745	208.88
601.953	201.88
602.162	213.88
602.371	202.88
602.58	204.88
602.789	209.88
602.997	201.88
603.206	208.88
603.415	215.88
603.623	225.88
603.832	195.88
604.041	206.88
604.249	205.88
604.458	210.88
604.666	196.88
604.875	183.88
605.084	198.88
605.292	185.88
605.501	203.88
605.709	193.88
605.918	201.88
606.126	195.88
606.334	187.88
606.543	195.88
606.751	218.88
606.96	201.88
607.168	201.88
607.376	215.88
607.585	199.88
607.793	209.88
608.001	199.88
608.21	198.88
608.418	211.88
608.626	200.88
608.834	197.88
609.043	208.88
609.251	194.88
609.459	195.88
609.667	223.88
609.875	201.88
610.083	180.88
610.291	181.88
610.499	203.88
610.707	204.88
610.916	197.88
611.124	215.88
611.332	177.88
611.54	196.88
611.748	216.88
611.955	207.88
612.163	191.88
612.371	198.88
612.579	190.88
612.787	195.88
612.995	219.88
613.203	207.88
613.411	196.88
613.618	203.88
613.826	191.88
614.034	198.88
614.242	200.88
614.449	203.88
614.657	181.88
614.865	189.88
615.072	210.88
615.28	197.88
615.488	189.88
615.695	188.88
615.903	200.88
616.111	180.88
616.318	207.88
616.526	198.88
616.733	206.88
616.941	189.88
617.148	178.88
617.356	186.88
617.563	177.88
617.771	179.88
617.978	189.88
618.185	180.88
618.393	189.88
618.6	187.88
618.807	199.88
619.015	179.88
619.222	177.88
619.429	205.88
619.637	180.88
619.844	180.88
620.051	185.88
620.258	177.88
620.466	210.88
620.673	187.88
620.88	166.88
621.087	174.88
621.294	167.88
621.501	180.88
621.708	198.88
621.915	171.88
622.122	184.88
622.329	175.88
622.536	179.88
622.743	185.88
622.95	166.88
623.157	177.88
623.364	178.88
623.571	178.88
623.778	186.88
623.985	173.88
624.192	191.88
624.399	169.88
624.606	176.88
624.812	169.88
625.019	190.88
625.226	182.88
625.433	177.88
625.639	167.88
625.846	191.88
626.053	181.88
626.259	166.88
626.466	177.88
626.673	157.88
626.879	180.88
627.086	165.88
627.293	148.88
627.499	165.88
627.706	165.88
627.912	179.88
628.119	171.88
628.325	175.88
628.532	161.88
628.738	163.88
628.945	162.88
629.151	153.88
629.357	153.88
629.564	149.88
629.77	162.88
629.976	176.88
630.183	172.88
630.389	162.88
630.595	167.88
630.802	150.88
631.008	177.88
631.214	155.88
631.42	156.88
631.627	163.88
631.833	159.88
632.039	171.88
632.245	157.88
632.451	161.88
632.657	155.88
632.863	159.88
633.069	170.88
633.275	165.88
633.481	156.88
633.688	172.88
633.893	167.88
634.099	151.88
634.305	155.88
634.511	159.88
634.717	156.88
634.923	146.88
635.129	139.88
635.335	152.88
635.541	162.88
635.747	156.88
635.952	159.88
636.158	147.88
636.364	149.88
636.57	143.88
636.775	149.88
636.981	158.88
637.187	160.88
637.392	152.88
637.598	157.88
637.804	162.88
638.009	155.88
638.215	171.88
638.421	151.88
638.626	155.88
638.832	163.88
639.037	151.88
639.243	157.88
639.448	160.88
639.654	152.88
639.859	140.88
640.065	152.88
640.27	135.88
640.475	144.88
640.681	143.88
640.886	151.88
641.091	165.88
641.297	160.88
641.502	147.88
641.707	156.88
641.913	145.88
642.118	131.88
642.323	151.88
642.528	139.88
642.733	140.88
642.939	153.88
643.144	132.88
643.349	139.88
643.554	162.88
643.759	155.88
643.964	147.88
644.169	145.88
644.374	148.88
644.579	146.88
644.784	153.88
644.989	137.88
645.194	136.88
645.399	161.88
645.604	139.88
645.809	147.88
646.014	141.88
646.219	140.88
646.423	142.88
646.628	140.88
646.833	140.88
647.038	134.88
647.243	150.88
647.447	152.88
647.652	132.88
647.857	142.88
648.062	138.88
648.266	148.88
648.471	152.88
648.676	159.88
648.88	153.88
649.085	142.88
649.289	145.88
649.494	139.88
649.698	163.88
649.903	163.88
650.107	131.88
650.312	138.88
650.516	132.88
650.721	144.88
650.925	128.88
651.13	136.88
651.334	146.88
651.539	140.88
651.743	128.88
651.947	146.88
652.152	130.88
652.356	142.88
652.56	123.88
652.764	127.88
652.969	128.88
653.173	129.88
653.377	132.88
653.581	135.88
653.785	147.88
653.99	136.88
654.194	131.88
654.398	133.88
654.602	121.88
654.806	114.88
655.01	123.88
655.214	116.88
655.418	129.88
655.622	122.88
655.826	125.88
656.03	130.88
656.234	133.88
656.438	129.88
656.642	153.88
656.846	129.88
657.049	133.88
657.253	125.88
657.457	113.88
657.661	111.88
657.865	98.88
658.068	110.88
658.272	118.88
658.476	107.88
658.68	106.88
658.883	100.88
659.087	97.88
659.291	109.88
659.494	103.88
659.698	87.88
659.901	91.88
660.105	95.88
660.309	93.88
660.512	99.88
660.716	98.88
660.919	96.88
661.123	93.88
661.326	82.88
661.53	107.88
661.733	94.88
661.936	90.88
662.14	84.88
662.343	75.88
662.546	90.88
662.75	79.88
662.953	77.88
663.156	70.88
663.36	92.88
663.563	82.88
663.766	90.88
663.969	93.88
664.173	76.88
664.376	88.88
664.579	90.88
664.782	92.88
664.985	90.88
665.188	67.88
665.391	94.88
665.594	61.88
665.797	79.88
666	76.88
666.203	82.88
666.406	83.88
666.609	83.88
666.812	76.88
667.015	86.88
667.218	86.88
667.421	83.88
667.624	87.88
667.827	76.88
668.03	77.88
668.232	89.88
668.435	78.88
668.638	81.88
668.841	92.88
669.043	84.88
669.246	85.88
669.449	73.88
669.651	76.88
669.854	86.88
670.057	81.88
670.259	67.88
670.462	89.88
670.665	84.88
670.867	85.88
671.07	76.88
671.272	75.88
671.475	98.88
671.677	95.88
671.88	85.88
672.082	105.88
672.284	84.88
672.487	84.88
672.689	86.88
672.892	71.88
