Data from 1964.PennyLincolnUp.Lamp.En5.5.200Scan.071719.P1._HRD10591_14-04-20-909.txt Node
Date: Thu Jul 18 14:04:20 EDT 2019
User: cochatt
Spectrometer: HR+D1059
Trigger mode: 1
Integration Time (sec): 1.000000E-1
Scans to average: 1
Electric dark correction enabled: true
Nonlinearity correction enabled: false
Boxcar width: 0
XAxis mode: Wavelengths
Number of Pixels in Spectrum: 2048
>>>>>Begin Spectral Data<<<<<
223.165	-16.62
223.4	-16.62
223.635	-16.62
223.869	-21.62
224.104	-9.62
224.338	-21.62
224.573	-13.62
224.808	-5.62
225.042	2.38
225.277	-2.62
225.511	-1.62
225.746	6.38
225.98	-1.62
226.215	2.38
226.449	18.38
226.683	17.38
226.918	21.38
227.152	26.38
227.387	34.38
227.621	32.38
227.856	39.38
228.09	35.38
228.324	48.38
228.559	43.38
228.793	47.38
229.027	86.38
229.262	101.38
229.496	104.38
229.73	120.38
229.964	128.38
230.199	110.38
230.433	86.38
230.667	106.38
230.901	98.38
231.136	109.38
231.37	110.38
231.604	110.38
231.838	115.38
232.072	103.38
232.306	110.38
232.541	108.38
232.775	101.38
233.009	111.38
233.243	101.38
233.477	114.38
233.711	114.38
233.945	119.38
234.179	115.38
234.413	109.38
234.647	107.38
234.881	109.38
235.115	104.38
235.349	104.38
235.583	114.38
235.817	114.38
236.051	126.38
236.285	118.38
236.519	106.38
236.753	113.38
236.987	117.38
237.221	144.38
237.455	181.38
237.689	149.38
237.922	121.38
238.156	127.38
238.39	120.38
238.624	104.38
238.858	120.38
239.091	130.38
239.325	122.38
239.559	125.38
239.793	108.38
240.027	143.38
240.26	120.38
240.494	125.38
240.728	149.38
240.961	157.38
241.195	139.38
241.429	126.38
241.662	131.38
241.896	116.38
242.13	115.38
242.363	136.38
242.597	112.38
242.83	133.38
243.064	124.38
243.298	126.38
243.531	119.38
243.765	130.38
243.998	138.38
244.232	142.38
244.465	131.38
244.699	122.38
244.932	146.38
245.166	150.38
245.399	150.38
245.633	147.38
245.866	152.38
246.099	155.38
246.333	148.38
246.566	141.38
246.8	154.38
247.033	165.38
247.266	162.38
247.5	171.38
247.733	144.38
247.966	171.38
248.2	139.38
248.433	161.38
248.666	159.38
248.899	154.38
249.133	196.38
249.366	194.38
249.599	182.38
249.832	164.38
250.066	174.38
250.299	171.38
250.532	181.38
250.765	187.38
250.998	182.38
251.231	198.38
251.465	197.38
251.698	165.38
251.931	179.38
252.164	184.38
252.397	179.38
252.63	176.38
252.863	193.38
253.096	178.38
253.329	205.38
253.562	201.38
253.795	199.38
254.028	206.38
254.261	221.38
254.494	200.38
254.727	211.38
254.96	230.38
255.193	237.38
255.426	232.38
255.659	216.38
255.892	206.38
256.124	227.38
256.357	209.38
256.59	210.38
256.823	218.38
257.056	198.38
257.289	194.38
257.521	210.38
257.754	212.38
257.987	192.38
258.22	219.38
258.452	191.38
258.685	189.38
258.918	198.38
259.151	196.38
259.383	201.38
259.616	213.38
259.849	210.38
260.081	229.38
260.314	215.38
260.547	219.38
260.779	228.38
261.012	232.38
261.244	218.38
261.477	229.38
261.71	223.38
261.942	200.38
262.175	219.38
262.407	215.38
262.64	190.38
262.872	198.38
263.105	204.38
263.337	212.38
263.57	228.38
263.802	219.38
264.035	219.38
264.267	215.38
264.499	217.38
264.732	208.38
264.964	215.38
265.197	218.38
265.429	205.38
265.661	206.38
265.894	216.38
266.126	208.38
266.358	219.38
266.591	224.38
266.823	244.38
267.055	212.38
267.287	230.38
267.52	224.38
267.752	236.38
267.984	221.38
268.216	240.38
268.448	236.38
268.681	244.38
268.913	249.38
269.145	259.38
269.377	271.38
269.609	263.38
269.841	270.38
270.073	277.38
270.306	259.38
270.538	290.38
270.77	299.38
271.002	270.38
271.234	251.38
271.466	274.38
271.698	291.38
271.93	290.38
272.162	311.38
272.394	287.38
272.626	295.38
272.858	278.38
273.09	276.38
273.322	277.38
273.553	269.38
273.785	270.38
274.017	255.38
274.249	274.38
274.481	269.38
274.713	252.38
274.945	257.38
275.176	255.38
275.408	264.38
275.64	256.38
275.872	248.38
276.104	262.38
276.335	265.38
276.567	290.38
276.799	276.38
277.031	292.38
277.262	294.38
277.494	297.38
277.726	287.38
277.957	283.38
278.189	279.38
278.421	271.38
278.652	266.38
278.884	275.38
279.115	288.38
279.347	275.38
279.579	266.38
279.81	258.38
280.042	270.38
280.273	261.38
280.505	281.38
280.736	286.38
280.968	271.38
281.199	271.38
281.431	277.38
281.662	269.38
281.894	292.38
282.125	291.38
282.356	290.38
282.588	295.38
282.819	298.38
283.051	295.38
283.282	286.38
283.513	276.38
283.745	269.38
283.976	282.38
284.207	284.38
284.439	302.38
284.67	295.38
284.901	298.38
285.132	288.38
285.364	287.38
285.595	280.38
285.826	294.38
286.057	292.38
286.288	286.38
286.52	280.38
286.751	294.38
286.982	302.38
287.213	296.38
287.444	301.38
287.675	284.38
287.906	295.38
288.138	308.38
288.369	312.38
288.6	314.38
288.831	298.38
289.062	305.38
289.293	298.38
289.524	298.38
289.755	308.38
289.986	296.38
290.217	287.38
290.448	288.38
290.679	301.38
290.91	286.38
291.141	292.38
291.371	296.38
291.602	292.38
291.833	323.38
292.064	298.38
292.295	292.38
292.526	300.38
292.757	310.38
292.987	292.38
293.218	293.38
293.449	307.38
293.68	313.38
293.91	309.38
294.141	309.38
294.372	318.38
294.603	295.38
294.833	312.38
295.064	289.38
295.295	308.38
295.525	316.38
295.756	310.38
295.987	307.38
296.217	321.38
296.448	322.38
296.679	318.38
296.909	318.38
297.14	324.38
297.37	311.38
297.601	319.38
297.831	315.38
298.062	328.38
298.292	317.38
298.523	326.38
298.753	334.38
298.984	318.38
299.214	313.38
299.445	317.38
299.675	325.38
299.905	330.38
300.136	338.38
300.366	317.38
300.597	323.38
300.827	323.38
301.057	328.38
301.288	342.38
301.518	340.38
301.748	344.38
301.979	358.38
302.209	315.38
302.439	326.38
302.669	352.38
302.9	321.38
303.13	346.38
303.36	335.38
303.59	341.38
303.82	340.38
304.051	326.38
304.281	324.38
304.511	342.38
304.741	325.38
304.971	325.38
305.201	337.38
305.431	321.38
305.661	318.38
305.891	346.38
306.121	322.38
306.352	335.38
306.582	351.38
306.812	329.38
307.042	346.38
307.272	340.38
307.502	344.38
307.731	346.38
307.961	338.38
308.191	345.38
308.421	343.38
308.651	334.38
308.881	327.38
309.111	342.38
309.341	355.38
309.571	353.38
309.8	370.38
310.03	358.38
310.26	365.38
310.49	356.38
310.72	370.38
310.949	371.38
311.179	361.38
311.409	372.38
311.639	366.38
311.868	382.38
312.098	372.38
312.328	371.38
312.557	392.38
312.787	392.38
313.017	356.38
313.246	372.38
313.476	350.38
313.706	382.38
313.935	370.38
314.165	361.38
314.394	361.38
314.624	391.38
314.853	384.38
315.083	368.38
315.312	374.38
315.542	382.38
315.771	355.38
316.001	370.38
316.23	355.38
316.46	368.38
316.689	374.38
316.919	383.38
317.148	395.38
317.377	395.38
317.607	392.38
317.836	376.38
318.065	374.38
318.295	371.38
318.524	377.38
318.753	382.38
318.983	391.38
319.212	401.38
319.441	380.38
319.67	391.38
319.9	365.38
320.129	379.38
320.358	394.38
320.587	392.38
320.816	379.38
321.046	382.38
321.275	394.38
321.504	383.38
321.733	392.38
321.962	402.38
322.191	386.38
322.42	407.38
322.649	410.38
322.878	430.38
323.108	393.38
323.337	426.38
323.566	437.38
323.795	427.38
324.024	470.38
324.253	544.38
324.482	712.38
324.71	1007.38
324.939	1378.38
325.168	1160.38
325.397	676.38
325.626	484.38
325.855	460.38
326.084	420.38
326.313	428.38
326.542	464.38
326.77	469.38
326.999	558.38
327.228	664.38
327.457	896.38
327.686	1044.38
327.914	713.38
328.143	558.38
328.372	492.38
328.6	468.38
328.829	473.38
329.058	475.38
329.287	462.38
329.515	469.38
329.744	450.38
329.972	468.38
330.201	470.38
330.43	481.38
330.658	508.38
330.887	510.38
331.115	506.38
331.344	433.38
331.572	436.38
331.801	430.38
332.03	424.38
332.258	438.38
332.486	443.38
332.715	439.38
332.943	464.38
333.172	457.38
333.4	461.38
333.629	469.38
333.857	457.38
334.085	472.38
334.314	498.38
334.542	510.38
334.771	494.38
334.999	470.38
335.227	467.38
335.455	448.38
335.684	453.38
335.912	456.38
336.14	454.38
336.369	451.38
336.597	453.38
336.825	437.38
337.053	431.38
337.281	433.38
337.51	434.38
337.738	440.38
337.966	416.38
338.194	432.38
338.422	425.38
338.65	432.38
338.878	422.38
339.106	422.38
339.334	421.38
339.562	409.38
339.79	423.38
340.018	418.38
340.246	413.38
340.474	419.38
340.702	417.38
340.93	406.38
341.158	412.38
341.386	427.38
341.614	438.38
341.842	416.38
342.07	425.38
342.298	422.38
342.526	405.38
342.754	406.38
342.981	418.38
343.209	426.38
343.437	432.38
343.665	427.38
343.893	435.38
344.12	433.38
344.348	435.38
344.576	415.38
344.804	424.38
345.031	440.38
345.259	422.38
345.487	430.38
345.714	435.38
345.942	411.38
346.17	406.38
346.397	405.38
346.625	396.38
346.853	414.38
347.08	381.38
347.308	379.38
347.535	392.38
347.763	410.38
347.99	412.38
348.218	410.38
348.445	395.38
348.673	393.38
348.9	404.38
349.128	374.38
349.355	386.38
349.583	406.38
349.81	381.38
350.037	389.38
350.265	394.38
350.492	383.38
350.72	385.38
350.947	388.38
351.174	384.38
351.402	378.38
351.629	373.38
351.856	376.38
352.083	405.38
352.311	396.38
352.538	392.38
352.765	400.38
352.992	398.38
353.22	392.38
353.447	392.38
353.674	388.38
353.901	377.38
354.128	382.38
354.355	380.38
354.583	365.38
354.81	376.38
355.037	374.38
355.264	369.38
355.491	359.38
355.718	372.38
355.945	372.38
356.172	348.38
356.399	374.38
356.626	379.38
356.853	366.38
357.08	376.38
357.307	373.38
357.534	376.38
357.761	380.38
357.988	378.38
358.215	405.38
358.441	382.38
358.668	379.38
358.895	370.38
359.122	376.38
359.349	384.38
359.576	375.38
359.802	374.38
360.029	397.38
360.256	414.38
360.483	398.38
360.709	364.38
360.936	402.38
361.163	378.38
361.39	365.38
361.616	360.38
361.843	378.38
362.07	362.38
362.296	388.38
362.523	379.38
362.749	390.38
362.976	372.38
363.203	362.38
363.429	366.38
363.656	372.38
363.882	378.38
364.109	374.38
364.335	376.38
364.562	370.38
364.788	400.38
365.015	407.38
365.241	376.38
365.468	354.38
365.694	382.38
365.92	378.38
366.147	370.38
366.373	380.38
366.599	372.38
366.826	359.38
367.052	372.38
367.278	360.38
367.505	368.38
367.731	362.38
367.957	374.38
368.184	390.38
368.41	379.38
368.636	378.38
368.862	367.38
369.089	390.38
369.315	386.38
369.541	370.38
369.767	359.38
369.993	372.38
370.219	382.38
370.445	365.38
370.672	368.38
370.898	367.38
371.124	362.38
371.35	396.38
371.576	386.38
371.802	372.38
372.028	373.38
372.254	378.38
372.48	381.38
372.706	362.38
372.932	378.38
373.158	388.38
373.384	375.38
373.61	379.38
373.835	391.38
374.061	367.38
374.287	364.38
374.513	383.38
374.739	395.38
374.965	381.38
375.191	394.38
375.416	394.38
375.642	389.38
375.868	385.38
376.094	361.38
376.319	367.38
376.545	365.38
376.771	378.38
376.997	382.38
377.222	388.38
377.448	372.38
377.674	386.38
377.899	348.38
378.125	370.38
378.35	372.38
378.576	366.38
378.802	370.38
379.027	355.38
379.253	365.38
379.478	374.38
379.704	370.38
379.929	387.38
380.155	370.38
380.38	366.38
380.606	371.38
380.831	356.38
381.057	372.38
381.282	383.38
381.507	373.38
381.733	373.38
381.958	389.38
382.184	356.38
382.409	365.38
382.634	375.38
382.86	387.38
383.085	383.38
383.31	382.38
383.535	388.38
383.761	394.38
383.986	384.38
384.211	391.38
384.436	408.38
384.662	377.38
384.887	400.38
385.112	384.38
385.337	396.38
385.562	393.38
385.787	416.38
386.013	384.38
386.238	391.38
386.463	412.38
386.688	394.38
386.913	387.38
387.138	400.38
387.363	398.38
387.588	405.38
387.813	400.38
388.038	401.38
388.263	404.38
388.488	388.38
388.713	417.38
388.938	419.38
389.163	403.38
389.387	399.38
389.612	393.38
389.837	416.38
390.062	395.38
390.287	408.38
390.512	400.38
390.736	406.38
390.961	407.38
391.186	399.38
391.411	408.38
391.636	418.38
391.86	419.38
392.085	409.38
392.31	410.38
392.534	407.38
392.759	397.38
392.984	412.38
393.208	398.38
393.433	410.38
393.658	426.38
393.882	395.38
394.107	414.38
394.331	402.38
394.556	385.38
394.78	408.38
395.005	409.38
395.229	395.38
395.454	430.38
395.678	415.38
395.903	424.38
396.127	431.38
396.352	426.38
396.576	408.38
396.801	395.38
397.025	427.38
397.249	413.38
397.474	438.38
397.698	426.38
397.922	460.38
398.147	435.38
398.371	439.38
398.595	445.38
398.82	466.38
399.044	459.38
399.268	472.38
399.492	532.38
399.717	555.38
399.941	576.38
400.165	549.38
400.389	573.38
400.613	501.38
400.837	487.38
401.062	472.38
401.286	466.38
401.51	465.38
401.734	467.38
401.958	464.38
402.182	444.38
402.406	468.38
402.63	444.38
402.854	477.38
403.078	466.38
403.302	462.38
403.526	476.38
403.75	466.38
403.974	469.38
404.198	453.38
404.422	468.38
404.645	474.38
404.869	488.38
405.093	517.38
405.317	526.38
405.541	532.38
405.765	532.38
405.988	477.38
406.212	493.38
406.436	495.38
406.66	492.38
406.883	477.38
407.107	515.38
407.331	549.38
407.555	577.38
407.778	594.38
408.002	548.38
408.226	542.38
408.449	535.38
408.673	524.38
408.896	524.38
409.12	550.38
409.344	514.38
409.567	470.38
409.791	483.38
410.014	468.38
410.238	462.38
410.461	462.38
410.685	455.38
410.908	459.38
411.132	520.38
411.355	515.38
411.578	494.38
411.802	466.38
412.025	448.38
412.249	483.38
412.472	473.38
412.695	518.38
412.919	527.38
413.142	467.38
413.365	457.38
413.589	469.38
413.812	442.38
414.035	440.38
414.258	439.38
414.482	450.38
414.705	434.38
414.928	454.38
415.151	445.38
415.374	440.38
415.597	424.38
415.821	447.38
416.044	444.38
416.267	438.38
416.49	410.38
416.713	427.38
416.936	440.38
417.159	438.38
417.382	444.38
417.605	446.38
417.828	445.38
418.051	450.38
418.274	433.38
418.497	444.38
418.72	432.38
418.943	461.38
419.166	440.38
419.389	460.38
419.611	455.38
419.834	464.38
420.057	439.38
420.28	441.38
420.503	444.38
420.726	439.38
420.948	466.38
421.171	462.38
421.394	490.38
421.617	460.38
421.839	444.38
422.062	431.38
422.285	448.38
422.507	486.38
422.73	524.38
422.953	520.38
423.175	489.38
423.398	452.38
423.621	455.38
423.843	443.38
424.066	481.38
424.288	473.38
424.511	474.38
424.733	519.38
424.956	582.38
425.178	555.38
425.401	531.38
425.623	546.38
425.846	470.38
426.068	449.38
426.291	446.38
426.513	446.38
426.735	473.38
426.958	489.38
427.18	529.38
427.402	645.38
427.625	676.38
427.847	565.38
428.069	514.38
428.292	482.38
428.514	452.38
428.736	439.38
428.958	428.38
429.181	415.38
429.403	439.38
429.625	430.38
429.847	432.38
430.069	476.38
430.292	480.38
430.514	429.38
430.736	426.38
430.958	407.38
431.18	400.38
431.402	407.38
431.624	412.38
431.846	415.38
432.068	408.38
432.29	422.38
432.512	407.38
432.734	412.38
432.956	415.38
433.178	443.38
433.4	419.38
433.622	401.38
433.844	405.38
434.066	403.38
434.287	430.38
434.509	434.38
434.731	412.38
434.953	426.38
435.175	438.38
435.397	459.38
435.618	427.38
435.84	472.38
436.062	534.38
436.284	570.38
436.505	483.38
436.727	451.38
436.949	452.38
437.17	420.38
437.392	416.38
437.614	440.38
437.835	441.38
438.057	494.38
438.278	539.38
438.5	546.38
438.721	611.38
438.943	570.38
439.165	477.38
439.386	457.38
439.608	454.38
439.829	444.38
440.05	480.38
440.272	497.38
440.493	448.38
440.715	445.38
440.936	414.38
441.158	410.38
441.379	414.38
441.6	457.38
441.822	455.38
442.043	483.38
442.264	533.38
442.486	534.38
442.707	471.38
442.928	469.38
443.149	467.38
443.371	489.38
443.592	494.38
443.813	565.38
444.034	601.38
444.255	520.38
444.476	459.38
444.698	470.38
444.919	450.38
445.14	568.38
445.361	538.38
445.582	483.38
445.803	511.38
446.024	567.38
446.245	586.38
446.466	536.38
446.687	459.38
446.908	449.38
447.129	422.38
447.35	422.38
447.571	389.38
447.792	428.38
448.013	432.38
448.234	403.38
448.455	460.38
448.675	508.38
448.896	592.38
449.117	522.38
449.338	507.38
449.559	567.38
449.779	644.38
450	515.38
450.221	446.38
450.442	415.38
450.662	384.38
450.883	410.38
451.104	412.38
451.324	397.38
451.545	388.38
451.766	399.38
451.986	394.38
452.207	381.38
452.428	372.38
452.648	359.38
452.869	370.38
453.089	379.38
453.31	392.38
453.53	379.38
453.751	367.38
453.971	397.38
454.192	386.38
454.412	366.38
454.633	364.38
454.853	366.38
455.073	360.38
455.294	376.38
455.514	430.38
455.734	404.38
455.955	378.38
456.175	374.38
456.395	360.38
456.616	356.38
456.836	347.38
457.056	360.38
457.276	330.38
457.497	350.38
457.717	356.38
457.937	363.38
458.157	357.38
458.377	358.38
458.598	377.38
458.818	409.38
459.038	427.38
459.258	472.38
459.478	427.38
459.698	396.38
459.918	424.38
460.138	406.38
460.358	416.38
460.578	424.38
460.798	408.38
461.018	439.38
461.238	426.38
461.458	407.38
461.678	421.38
461.898	445.38
462.118	429.38
462.338	435.38
462.558	431.38
462.777	450.38
462.997	466.38
463.217	484.38
463.437	492.38
463.657	472.38
463.876	431.38
464.096	464.38
464.316	461.38
464.536	474.38
464.755	458.38
464.975	456.38
465.195	458.38
465.414	486.38
465.634	431.38
465.854	415.38
466.073	400.38
466.293	400.38
466.512	378.38
466.732	391.38
466.951	388.38
467.171	382.38
467.391	391.38
467.61	376.38
467.829	388.38
468.049	397.38
468.268	384.38
468.488	382.38
468.707	376.38
468.927	363.38
469.146	380.38
469.365	388.38
469.585	379.38
469.804	384.38
470.023	394.38
470.243	383.38
470.462	407.38
470.681	405.38
470.901	411.38
471.12	390.38
471.339	388.38
471.558	380.38
471.777	393.38
471.997	388.38
472.216	396.38
472.435	395.38
472.654	387.38
472.873	398.38
473.092	385.38
473.311	391.38
473.53	391.38
473.749	391.38
473.968	418.38
474.187	480.38
474.406	504.38
474.625	404.38
474.844	416.38
475.063	409.38
475.282	377.38
475.501	391.38
475.72	390.38
475.939	407.38
476.158	426.38
476.377	410.38
476.596	392.38
476.814	412.38
477.033	403.38
477.252	410.38
477.471	419.38
477.69	415.38
477.908	415.38
478.127	451.38
478.346	431.38
478.564	419.38
478.783	436.38
479.002	438.38
479.22	440.38
479.439	462.38
479.658	453.38
479.876	466.38
480.095	464.38
480.313	499.38
480.532	493.38
480.751	491.38
480.969	486.38
481.188	516.38
481.406	498.38
481.624	476.38
481.843	464.38
482.061	459.38
482.28	464.38
482.498	440.38
482.717	439.38
482.935	450.38
483.153	459.38
483.372	445.38
483.59	445.38
483.808	459.38
484.027	456.38
484.245	450.38
484.463	446.38
484.681	450.38
484.9	450.38
485.118	454.38
485.336	447.38
485.554	459.38
485.772	467.38
485.99	465.38
486.209	464.38
486.427	466.38
486.645	478.38
486.863	481.38
487.081	469.38
487.299	489.38
487.517	472.38
487.735	482.38
487.953	472.38
488.171	464.38
488.389	474.38
488.607	477.38
488.825	461.38
489.043	478.38
489.261	481.38
489.479	492.38
489.696	487.38
489.914	494.38
490.132	500.38
490.35	508.38
490.568	487.38
490.786	504.38
491.003	523.38
491.221	517.38
491.439	507.38
491.657	509.38
491.874	519.38
492.092	532.38
492.31	510.38
492.527	534.38
492.745	516.38
492.963	514.38
493.18	521.38
493.398	530.38
493.615	584.38
493.833	537.38
494.05	555.38
494.268	552.38
494.485	531.38
494.703	544.38
494.92	554.38
495.138	524.38
495.355	518.38
495.573	541.38
495.79	542.38
496.008	535.38
496.225	562.38
496.442	542.38
496.66	554.38
496.877	552.38
497.094	566.38
497.312	564.38
497.529	592.38
497.746	569.38
497.963	586.38
498.181	594.38
498.398	631.38
498.615	619.38
498.832	628.38
499.049	668.38
499.267	663.38
499.484	716.38
499.701	744.38
499.918	775.38
500.135	799.38
500.352	848.38
500.569	844.38
500.786	874.38
501.003	851.38
501.22	826.38
501.437	796.38
501.654	762.38
501.871	716.38
502.088	696.38
502.305	674.38
502.522	648.38
502.739	639.38
502.956	600.38
503.172	580.38
503.389	606.38
503.606	568.38
503.823	575.38
504.04	568.38
504.256	571.38
504.473	567.38
504.69	560.38
504.907	566.38
505.123	526.38
505.34	538.38
505.557	532.38
505.773	526.38
505.99	518.38
506.207	518.38
506.423	490.38
506.64	506.38
506.856	495.38
507.073	504.38
507.289	480.38
507.506	482.38
507.722	487.38
507.939	507.38
508.155	489.38
508.372	482.38
508.588	487.38
508.805	486.38
509.021	494.38
509.238	503.38
509.454	501.38
509.67	480.38
509.887	475.38
510.103	464.38
510.319	459.38
510.536	520.38
510.752	700.38
510.968	604.38
511.184	464.38
511.401	463.38
511.617	468.38
511.833	471.38
512.049	455.38
512.265	461.38
512.481	484.38
512.698	457.38
512.914	471.38
513.13	454.38
513.346	436.38
513.562	448.38
513.778	487.38
513.994	454.38
514.21	457.38
514.426	468.38
514.642	484.38
514.858	489.38
515.074	503.38
515.29	535.38
515.506	703.38
515.721	584.38
515.937	503.38
516.153	489.38
516.369	465.38
516.585	491.38
516.801	487.38
517.016	481.38
517.232	489.38
517.448	495.38
517.664	499.38
517.879	482.38
518.095	494.38
518.311	483.38
518.527	487.38
518.742	479.38
518.958	489.38
519.173	481.38
519.389	467.38
519.605	472.38
519.82	463.38
520.036	463.38
520.251	484.38
520.467	483.38
520.682	483.38
520.898	478.38
521.113	475.38
521.329	499.38
521.544	504.38
521.76	598.38
521.975	826.38
522.19	784.38
522.406	520.38
522.621	453.38
522.836	452.38
523.052	447.38
523.267	431.38
523.482	424.38
523.698	394.38
523.913	410.38
524.128	416.38
524.343	412.38
524.559	404.38
524.774	413.38
524.989	396.38
525.204	427.38
525.419	419.38
525.634	382.38
525.849	396.38
526.064	390.38
526.28	380.38
526.495	390.38
526.71	400.38
526.925	383.38
527.14	399.38
527.355	396.38
527.57	389.38
527.785	396.38
527.999	405.38
528.214	373.38
528.429	397.38
528.644	373.38
528.859	391.38
529.074	420.38
529.289	388.38
529.503	415.38
529.718	406.38
529.933	420.38
530.148	393.38
530.363	373.38
530.577	396.38
530.792	376.38
531.007	383.38
531.221	365.38
531.436	361.38
531.651	370.38
531.865	386.38
532.08	386.38
532.295	379.38
532.509	381.38
532.724	374.38
532.938	379.38
533.153	371.38
533.367	375.38
533.582	404.38
533.796	374.38
534.011	372.38
534.225	383.38
534.44	354.38
534.654	376.38
534.868	362.38
535.083	375.38
535.297	366.38
535.511	384.38
535.726	380.38
535.94	376.38
536.154	382.38
536.369	365.38
536.583	355.38
536.797	351.38
537.011	366.38
537.225	351.38
537.44	364.38
537.654	348.38
537.868	346.38
538.082	357.38
538.296	375.38
538.51	364.38
538.724	363.38
538.938	343.38
539.153	353.38
539.367	357.38
539.581	358.38
539.795	361.38
540.009	360.38
540.222	361.38
540.436	365.38
540.65	342.38
540.864	364.38
541.078	379.38
541.292	359.38
541.506	351.38
541.72	361.38
541.934	327.38
542.147	361.38
542.361	352.38
542.575	370.38
542.789	358.38
543.002	344.38
543.216	373.38
543.43	347.38
543.644	347.38
543.857	358.38
544.071	350.38
544.285	355.38
544.498	345.38
544.712	361.38
544.925	361.38
545.139	353.38
545.352	352.38
545.566	346.38
545.779	349.38
545.993	363.38
546.206	361.38
546.42	353.38
546.633	343.38
546.847	345.38
547.06	369.38
547.274	355.38
547.487	348.38
547.7	355.38
547.914	357.38
548.127	348.38
548.34	322.38
548.554	355.38
548.767	357.38
548.98	352.38
549.193	340.38
549.407	335.38
549.62	357.38
549.833	350.38
550.046	352.38
550.259	339.38
550.473	354.38
550.686	353.38
550.899	345.38
551.112	358.38
551.325	361.38
551.538	349.38
551.751	356.38
551.964	347.38
552.177	347.38
552.39	356.38
552.603	333.38
552.816	343.38
553.029	362.38
553.242	360.38
553.455	364.38
553.667	373.38
553.88	365.38
554.093	354.38
554.306	359.38
554.519	340.38
554.732	339.38
554.944	350.38
555.157	318.38
555.37	336.38
555.583	318.38
555.795	337.38
556.008	350.38
556.221	335.38
556.433	319.38
556.646	333.38
556.859	322.38
557.071	310.38
557.284	340.38
557.496	326.38
557.709	313.38
557.921	318.38
558.134	316.38
558.346	312.38
558.559	307.38
558.771	308.38
558.984	307.38
559.196	310.38
559.409	302.38
559.621	295.38
559.833	296.38
560.046	306.38
560.258	316.38
560.47	314.38
560.683	290.38
560.895	288.38
561.107	307.38
561.32	315.38
561.532	321.38
561.744	309.38
561.956	301.38
562.168	318.38
562.381	315.38
562.593	325.38
562.805	316.38
563.017	310.38
563.229	322.38
563.441	310.38
563.653	322.38
563.865	326.38
564.077	329.38
564.289	329.38
564.501	316.38
564.713	350.38
564.925	335.38
565.137	346.38
565.349	337.38
565.561	351.38
565.773	340.38
565.985	349.38
566.197	367.38
566.408	364.38
566.62	360.38
566.832	375.38
567.044	380.38
567.255	400.38
567.467	422.38
567.679	422.38
567.891	404.38
568.102	416.38
568.314	424.38
568.526	381.38
568.737	375.38
568.949	362.38
569.161	346.38
569.372	348.38
569.584	331.38
569.795	336.38
570.007	320.38
570.218	314.38
570.43	314.38
570.641	305.38
570.853	314.38
571.064	311.38
571.276	288.38
571.487	303.38
571.698	309.38
571.91	299.38
572.121	280.38
572.333	276.38
572.544	296.38
572.755	281.38
572.966	278.38
573.178	279.38
573.389	267.38
573.6	287.38
573.811	283.38
574.023	286.38
574.234	290.38
574.445	257.38
574.656	280.38
574.867	272.38
575.078	284.38
575.289	284.38
575.501	261.38
575.712	276.38
575.923	253.38
576.134	259.38
576.345	274.38
576.556	261.38
576.767	244.38
576.978	267.38
577.188	280.38
577.399	262.38
577.61	262.38
577.821	268.38
578.032	271.38
578.243	279.38
578.454	332.38
578.665	292.38
578.875	262.38
579.086	264.38
579.297	246.38
579.508	267.38
579.718	240.38
579.929	238.38
580.14	253.38
580.35	246.38
580.561	244.38
580.772	243.38
580.982	244.38
581.193	252.38
581.403	248.38
581.614	246.38
581.825	255.38
582.035	248.38
582.246	241.38
582.456	233.38
582.667	229.38
582.877	257.38
583.087	252.38
583.298	230.38
583.508	242.38
583.719	238.38
583.929	248.38
584.139	246.38
584.35	254.38
584.56	235.38
584.77	234.38
584.981	252.38
585.191	268.38
585.401	223.38
585.611	238.38
585.821	239.38
586.032	245.38
586.242	243.38
586.452	232.38
586.662	260.38
586.872	235.38
587.082	225.38
587.292	224.38
587.502	252.38
587.713	246.38
587.923	227.38
588.133	247.38
588.343	221.38
588.553	234.38
588.762	243.38
588.972	236.38
589.182	276.38
589.392	267.38
589.602	242.38
589.812	234.38
590.022	268.38
590.232	248.38
590.441	219.38
590.651	238.38
590.861	236.38
591.071	254.38
591.281	253.38
591.49	237.38
591.7	269.38
591.91	269.38
592.119	244.38
592.329	245.38
592.539	270.38
592.748	262.38
592.958	274.38
593.167	247.38
593.377	259.38
593.587	275.38
593.796	248.38
594.006	263.38
594.215	235.38
594.424	264.38
594.634	261.38
594.843	260.38
595.053	243.38
595.262	263.38
595.472	252.38
595.681	238.38
595.89	238.38
596.1	231.38
596.309	227.38
596.518	221.38
596.727	222.38
596.937	218.38
597.146	220.38
597.355	236.38
597.564	215.38
597.774	225.38
597.983	234.38
598.192	219.38
598.401	222.38
598.61	229.38
598.819	208.38
599.028	208.38
599.237	216.38
599.446	215.38
599.655	220.38
599.864	218.38
600.073	224.38
600.282	222.38
600.491	228.38
600.7	218.38
600.909	199.38
601.118	210.38
601.327	212.38
601.536	221.38
601.745	190.38
601.953	204.38
602.162	208.38
602.371	211.38
602.58	212.38
602.789	219.38
602.997	219.38
603.206	199.38
603.415	205.38
603.623	203.38
603.832	205.38
604.041	207.38
604.249	196.38
604.458	213.38
604.666	207.38
604.875	199.38
605.084	208.38
605.292	202.38
605.501	206.38
605.709	219.38
605.918	207.38
606.126	204.38
606.334	195.38
606.543	199.38
606.751	195.38
606.96	214.38
607.168	204.38
607.376	201.38
607.585	208.38
607.793	181.38
608.001	194.38
608.21	196.38
608.418	202.38
608.626	193.38
608.834	198.38
609.043	187.38
609.251	204.38
609.459	197.38
609.667	203.38
609.875	192.38
610.083	190.38
610.291	203.38
610.499	225.38
610.707	202.38
610.916	212.38
611.124	206.38
611.332	194.38
611.54	206.38
611.748	216.38
611.955	210.38
612.163	194.38
612.371	193.38
612.579	191.38
612.787	199.38
612.995	197.38
613.203	204.38
613.411	192.38
613.618	180.38
613.826	211.38
614.034	189.38
614.242	194.38
614.449	191.38
614.657	191.38
614.865	184.38
615.072	191.38
615.28	197.38
615.488	191.38
615.695	199.38
615.903	188.38
616.111	186.38
616.318	208.38
616.526	188.38
616.733	190.38
616.941	195.38
617.148	182.38
617.356	196.38
617.563	174.38
617.771	196.38
617.978	194.38
618.185	180.38
618.393	190.38
618.6	190.38
618.807	198.38
619.015	190.38
619.222	186.38
619.429	197.38
619.637	196.38
619.844	195.38
620.051	188.38
620.258	200.38
620.466	175.38
620.673	190.38
620.88	172.38
621.087	192.38
621.294	180.38
621.501	176.38
621.708	188.38
621.915	182.38
622.122	183.38
622.329	177.38
622.536	194.38
622.743	190.38
622.95	171.38
623.157	197.38
623.364	190.38
623.571	183.38
623.778	205.38
623.985	176.38
624.192	199.38
624.399	172.38
624.606	191.38
624.812	170.38
625.019	178.38
625.226	174.38
625.433	165.38
625.639	178.38
625.846	182.38
626.053	171.38
626.259	178.38
626.466	178.38
626.673	166.38
626.879	174.38
627.086	178.38
627.293	173.38
627.499	173.38
627.706	187.38
627.912	174.38
628.119	164.38
628.325	187.38
628.532	166.38
628.738	173.38
628.945	157.38
629.151	158.38
629.357	156.38
629.564	154.38
629.77	167.38
629.976	179.38
630.183	153.38
630.389	152.38
630.595	155.38
630.802	155.38
631.008	153.38
631.214	169.38
631.42	168.38
631.627	185.38
631.833	163.38
632.039	138.38
632.245	168.38
632.451	159.38
632.657	164.38
632.863	179.38
633.069	158.38
633.275	142.38
633.481	155.38
633.688	152.38
633.893	157.38
634.099	146.38
634.305	159.38
634.511	158.38
634.717	148.38
634.923	160.38
635.129	160.38
635.335	153.38
635.541	153.38
635.747	145.38
635.952	138.38
636.158	152.38
636.364	154.38
636.57	159.38
636.775	165.38
636.981	169.38
637.187	170.38
637.392	148.38
637.598	154.38
637.804	141.38
638.009	150.38
638.215	153.38
638.421	145.38
638.626	149.38
638.832	158.38
639.037	153.38
639.243	139.38
639.448	148.38
639.654	163.38
639.859	156.38
640.065	144.38
640.27	139.38
640.475	143.38
640.681	150.38
640.886	141.38
641.091	154.38
641.297	142.38
641.502	144.38
641.707	142.38
641.913	151.38
642.118	140.38
642.323	150.38
642.528	151.38
642.733	141.38
642.939	151.38
643.144	152.38
643.349	149.38
643.554	141.38
643.759	160.38
643.964	162.38
644.169	154.38
644.374	144.38
644.579	155.38
644.784	133.38
644.989	152.38
645.194	142.38
645.399	149.38
645.604	144.38
645.809	159.38
646.014	138.38
646.219	152.38
646.423	151.38
646.628	144.38
646.833	154.38
647.038	163.38
647.243	145.38
647.447	151.38
647.652	170.38
647.857	156.38
648.062	162.38
648.266	151.38
648.471	154.38
648.676	155.38
648.88	146.38
649.085	147.38
649.289	150.38
649.494	138.38
649.698	161.38
649.903	156.38
650.107	154.38
650.312	153.38
650.516	134.38
650.721	134.38
650.925	140.38
651.13	142.38
651.334	140.38
651.539	109.38
651.743	120.38
651.947	140.38
652.152	150.38
652.356	139.38
652.56	134.38
652.764	140.38
652.969	136.38
653.173	142.38
653.377	136.38
653.581	128.38
653.785	118.38
653.99	127.38
654.194	127.38
654.398	126.38
654.602	122.38
654.806	126.38
655.01	120.38
655.214	124.38
655.418	127.38
655.622	130.38
655.826	122.38
656.03	123.38
656.234	128.38
656.438	135.38
656.642	126.38
656.846	126.38
657.049	137.38
657.253	132.38
657.457	123.38
657.661	120.38
657.865	117.38
658.068	116.38
658.272	102.38
658.476	100.38
658.68	105.38
658.883	90.38
659.087	94.38
659.291	98.38
659.494	100.38
659.698	99.38
659.901	112.38
660.105	103.38
660.309	104.38
660.512	86.38
660.716	104.38
660.919	95.38
661.123	92.38
661.326	96.38
661.53	90.38
661.733	99.38
661.936	99.38
662.14	96.38
662.343	81.38
662.546	89.38
662.75	100.38
662.953	92.38
663.156	99.38
663.36	78.38
663.563	82.38
663.766	91.38
663.969	86.38
664.173	70.38
664.376	78.38
664.579	86.38
664.782	90.38
664.985	79.38
665.188	90.38
665.391	93.38
665.594	94.38
665.797	88.38
666	77.38
666.203	81.38
666.406	85.38
666.609	75.38
666.812	87.38
667.015	102.38
667.218	86.38
667.421	79.38
667.624	85.38
667.827	89.38
668.03	90.38
668.232	74.38
668.435	85.38
668.638	94.38
668.841	84.38
669.043	82.38
669.246	78.38
669.449	78.38
669.651	76.38
669.854	91.38
670.057	86.38
670.259	83.38
670.462	100.38
670.665	92.38
670.867	88.38
671.07	87.38
671.272	86.38
671.475	79.38
671.677	90.38
671.88	82.38
672.082	84.38
672.284	87.38
672.487	83.38
672.689	74.38
672.892	87.38
