Data from 1964.PennyLincolnUp.Lamp.En5.5.200Scan.071719.P1._HRD10591_14-04-51-909.txt Node
Date: Thu Jul 18 14:04:51 EDT 2019
User: cochatt
Spectrometer: HR+D1059
Trigger mode: 1
Integration Time (sec): 1.000000E-1
Scans to average: 1
Electric dark correction enabled: true
Nonlinearity correction enabled: false
Boxcar width: 0
XAxis mode: Wavelengths
Number of Pixels in Spectrum: 2048
>>>>>Begin Spectral Data<<<<<
223.165	-32.12
223.4	-32.12
223.635	-32.12
223.869	-29.12
224.104	-3.12
224.338	-9.12
224.573	-17.12
224.808	-28.12
225.042	4.88
225.277	-10.12
225.511	4.88
225.746	-2.12
225.98	16.88
226.215	14.88
226.449	8.88
226.683	16.88
226.918	31.88
227.152	31.88
227.387	47.88
227.621	47.88
227.856	33.88
228.09	44.88
228.324	42.88
228.559	61.88
228.793	86.88
229.027	85.88
229.262	97.88
229.496	99.88
229.73	116.88
229.964	120.88
230.199	111.88
230.433	100.88
230.667	108.88
230.901	106.88
231.136	106.88
231.37	104.88
231.604	119.88
231.838	110.88
232.072	122.88
232.306	112.88
232.541	96.88
232.775	111.88
233.009	93.88
233.243	105.88
233.477	108.88
233.711	101.88
233.945	117.88
234.179	107.88
234.413	109.88
234.647	100.88
234.881	122.88
235.115	105.88
235.349	121.88
235.583	130.88
235.817	119.88
236.051	123.88
236.285	121.88
236.519	115.88
236.753	127.88
236.987	133.88
237.221	153.88
237.455	206.88
237.689	164.88
237.922	140.88
238.156	111.88
238.39	139.88
238.624	112.88
238.858	124.88
239.091	126.88
239.325	104.88
239.559	114.88
239.793	128.88
240.027	117.88
240.26	131.88
240.494	134.88
240.728	140.88
240.961	133.88
241.195	158.88
241.429	138.88
241.662	122.88
241.896	126.88
242.13	141.88
242.363	128.88
242.597	125.88
242.83	119.88
243.064	142.88
243.298	140.88
243.531	125.88
243.765	137.88
243.998	141.88
244.232	139.88
244.465	134.88
244.699	140.88
244.932	145.88
245.166	142.88
245.399	154.88
245.633	163.88
245.866	138.88
246.099	155.88
246.333	167.88
246.566	136.88
246.8	147.88
247.033	156.88
247.266	168.88
247.5	178.88
247.733	167.88
247.966	155.88
248.2	168.88
248.433	173.88
248.666	168.88
248.899	174.88
249.133	188.88
249.366	176.88
249.599	195.88
249.832	165.88
250.066	182.88
250.299	171.88
250.532	187.88
250.765	192.88
250.998	197.88
251.231	213.88
251.465	204.88
251.698	188.88
251.931	185.88
252.164	193.88
252.397	212.88
252.63	192.88
252.863	201.88
253.096	190.88
253.329	198.88
253.562	203.88
253.795	211.88
254.028	220.88
254.261	215.88
254.494	218.88
254.727	243.88
254.96	259.88
255.193	239.88
255.426	224.88
255.659	219.88
255.892	226.88
256.124	227.88
256.357	231.88
256.59	227.88
256.823	211.88
257.056	223.88
257.289	213.88
257.521	212.88
257.754	219.88
257.987	209.88
258.22	219.88
258.452	204.88
258.685	210.88
258.918	200.88
259.151	209.88
259.383	207.88
259.616	210.88
259.849	217.88
260.081	221.88
260.314	228.88
260.547	237.88
260.779	229.88
261.012	224.88
261.244	227.88
261.477	223.88
261.71	233.88
261.942	232.88
262.175	222.88
262.407	226.88
262.64	207.88
262.872	217.88
263.105	235.88
263.337	231.88
263.57	224.88
263.802	221.88
264.035	211.88
264.267	214.88
264.499	226.88
264.732	219.88
264.964	232.88
265.197	216.88
265.429	216.88
265.661	226.88
265.894	215.88
266.126	227.88
266.358	225.88
266.591	227.88
266.823	248.88
267.055	224.88
267.287	229.88
267.52	230.88
267.752	226.88
267.984	217.88
268.216	239.88
268.448	234.88
268.681	265.88
268.913	247.88
269.145	273.88
269.377	264.88
269.609	283.88
269.841	263.88
270.073	278.88
270.306	298.88
270.538	307.88
270.77	300.88
271.002	276.88
271.234	288.88
271.466	292.88
271.698	303.88
271.93	310.88
272.162	288.88
272.394	307.88
272.626	301.88
272.858	288.88
273.09	302.88
273.322	267.88
273.553	272.88
273.785	285.88
274.017	284.88
274.249	284.88
274.481	278.88
274.713	285.88
274.945	290.88
275.176	282.88
275.408	283.88
275.64	270.88
275.872	266.88
276.104	278.88
276.335	274.88
276.567	275.88
276.799	272.88
277.031	308.88
277.262	321.88
277.494	324.88
277.726	310.88
277.957	307.88
278.189	283.88
278.421	287.88
278.652	271.88
278.884	292.88
279.115	283.88
279.347	277.88
279.579	291.88
279.81	286.88
280.042	280.88
280.273	284.88
280.505	290.88
280.736	280.88
280.968	299.88
281.199	282.88
281.431	297.88
281.662	290.88
281.894	277.88
282.125	278.88
282.356	307.88
282.588	306.88
282.819	303.88
283.051	293.88
283.282	294.88
283.513	284.88
283.745	305.88
283.976	315.88
284.207	306.88
284.439	299.88
284.67	296.88
284.901	292.88
285.132	310.88
285.364	293.88
285.595	305.88
285.826	284.88
286.057	322.88
286.288	315.88
286.52	312.88
286.751	289.88
286.982	298.88
287.213	327.88
287.444	306.88
287.675	313.88
287.906	313.88
288.138	314.88
288.369	320.88
288.6	320.88
288.831	312.88
289.062	284.88
289.293	321.88
289.524	308.88
289.755	320.88
289.986	309.88
290.217	319.88
290.448	313.88
290.679	324.88
290.91	321.88
291.141	306.88
291.371	299.88
291.602	301.88
291.833	295.88
292.064	317.88
292.295	314.88
292.526	311.88
292.757	318.88
292.987	316.88
293.218	299.88
293.449	312.88
293.68	318.88
293.91	321.88
294.141	328.88
294.372	306.88
294.603	295.88
294.833	326.88
295.064	316.88
295.295	332.88
295.525	335.88
295.756	335.88
295.987	334.88
296.217	338.88
296.448	334.88
296.679	322.88
296.909	336.88
297.14	333.88
297.37	327.88
297.601	347.88
297.831	342.88
298.062	327.88
298.292	319.88
298.523	335.88
298.753	319.88
298.984	333.88
299.214	335.88
299.445	330.88
299.675	347.88
299.905	333.88
300.136	315.88
300.366	328.88
300.597	326.88
300.827	358.88
301.057	334.88
301.288	333.88
301.518	336.88
301.748	367.88
301.979	359.88
302.209	364.88
302.439	351.88
302.669	349.88
302.9	347.88
303.13	356.88
303.36	362.88
303.59	365.88
303.82	352.88
304.051	356.88
304.281	363.88
304.511	360.88
304.741	374.88
304.971	348.88
305.201	348.88
305.431	352.88
305.661	351.88
305.891	351.88
306.121	363.88
306.352	366.88
306.582	370.88
306.812	356.88
307.042	367.88
307.272	364.88
307.502	357.88
307.731	347.88
307.961	349.88
308.191	362.88
308.421	350.88
308.651	346.88
308.881	367.88
309.111	370.88
309.341	358.88
309.571	367.88
309.8	382.88
310.03	378.88
310.26	387.88
310.49	395.88
310.72	373.88
310.949	392.88
311.179	390.88
311.409	398.88
311.639	388.88
311.868	392.88
312.098	370.88
312.328	384.88
312.557	399.88
312.787	394.88
313.017	406.88
313.246	391.88
313.476	378.88
313.706	376.88
313.935	391.88
314.165	404.88
314.394	420.88
314.624	401.88
314.853	414.88
315.083	390.88
315.312	394.88
315.542	400.88
315.771	386.88
316.001	386.88
316.23	394.88
316.46	376.88
316.689	405.88
316.919	400.88
317.148	384.88
317.377	412.88
317.607	397.88
317.836	408.88
318.065	395.88
318.295	388.88
318.524	395.88
318.753	391.88
318.983	403.88
319.212	396.88
319.441	397.88
319.67	399.88
319.9	404.88
320.129	380.88
320.358	390.88
320.587	394.88
320.816	400.88
321.046	413.88
321.275	386.88
321.504	407.88
321.733	414.88
321.962	427.88
322.191	421.88
322.42	433.88
322.649	452.88
322.878	420.88
323.108	434.88
323.337	452.88
323.566	475.88
323.795	467.88
324.024	506.88
324.253	573.88
324.482	785.88
324.71	1107.88
324.939	1488.88
325.168	1224.88
325.397	714.88
325.626	537.88
325.855	472.88
326.084	470.88
326.313	460.88
326.542	465.88
326.77	501.88
326.999	555.88
327.228	711.88
327.457	987.88
327.686	1114.88
327.914	777.88
328.143	570.88
328.372	523.88
328.6	495.88
328.829	493.88
329.058	498.88
329.287	494.88
329.515	484.88
329.744	469.88
329.972	480.88
330.201	478.88
330.43	492.88
330.658	534.88
330.887	548.88
331.115	515.88
331.344	486.88
331.572	463.88
331.801	487.88
332.03	483.88
332.258	492.88
332.486	467.88
332.715	468.88
332.943	472.88
333.172	480.88
333.4	467.88
333.629	479.88
333.857	478.88
334.085	518.88
334.314	529.88
334.542	542.88
334.771	516.88
334.999	487.88
335.227	487.88
335.455	464.88
335.684	469.88
335.912	463.88
336.14	480.88
336.369	465.88
336.597	473.88
336.825	464.88
337.053	459.88
337.281	469.88
337.51	479.88
337.738	458.88
337.966	450.88
338.194	468.88
338.422	472.88
338.65	426.88
338.878	456.88
339.106	419.88
339.334	450.88
339.562	456.88
339.79	437.88
340.018	454.88
340.246	453.88
340.474	447.88
340.702	447.88
340.93	441.88
341.158	453.88
341.386	442.88
341.614	443.88
341.842	454.88
342.07	434.88
342.298	427.88
342.526	436.88
342.754	425.88
342.981	408.88
343.209	430.88
343.437	446.88
343.665	430.88
343.893	487.88
344.12	469.88
344.348	464.88
344.576	468.88
344.804	455.88
345.031	436.88
345.259	436.88
345.487	453.88
345.714	436.88
345.942	435.88
346.17	439.88
346.397	405.88
346.625	410.88
346.853	420.88
347.08	388.88
347.308	418.88
347.535	419.88
347.763	426.88
347.99	419.88
348.218	430.88
348.445	436.88
348.673	411.88
348.9	411.88
349.128	403.88
349.355	398.88
349.583	406.88
349.81	402.88
350.037	418.88
350.265	411.88
350.492	412.88
350.72	424.88
350.947	414.88
351.174	418.88
351.402	392.88
351.629	400.88
351.856	411.88
352.083	420.88
352.311	406.88
352.538	408.88
352.765	407.88
352.992	422.88
353.22	392.88
353.447	396.88
353.674	396.88
353.901	388.88
354.128	388.88
354.355	392.88
354.583	398.88
354.81	394.88
355.037	402.88
355.264	402.88
355.491	372.88
355.718	377.88
355.945	408.88
356.172	417.88
356.399	388.88
356.626	399.88
356.853	398.88
357.08	390.88
357.307	405.88
357.534	399.88
357.761	394.88
357.988	397.88
358.215	393.88
358.441	385.88
358.668	400.88
358.895	402.88
359.122	395.88
359.349	416.88
359.576	411.88
359.802	410.88
360.029	431.88
360.256	428.88
360.483	398.88
360.709	408.88
360.936	403.88
361.163	395.88
361.39	400.88
361.616	392.88
361.843	382.88
362.07	413.88
362.296	419.88
362.523	403.88
362.749	420.88
362.976	400.88
363.203	385.88
363.429	386.88
363.656	407.88
363.882	383.88
364.109	400.88
364.335	415.88
364.562	391.88
364.788	382.88
365.015	380.88
365.241	398.88
365.468	394.88
365.694	392.88
365.92	400.88
366.147	386.88
366.373	390.88
366.599	383.88
366.826	383.88
367.052	376.88
367.278	406.88
367.505	391.88
367.731	399.88
367.957	385.88
368.184	392.88
368.41	399.88
368.636	406.88
368.862	397.88
369.089	389.88
369.315	384.88
369.541	397.88
369.767	388.88
369.993	381.88
370.219	385.88
370.445	396.88
370.672	395.88
370.898	379.88
371.124	411.88
371.35	398.88
371.576	395.88
371.802	371.88
372.028	416.88
372.254	387.88
372.48	380.88
372.706	386.88
372.932	379.88
373.158	395.88
373.384	383.88
373.61	399.88
373.835	388.88
374.061	385.88
374.287	381.88
374.513	384.88
374.739	393.88
374.965	406.88
375.191	412.88
375.416	402.88
375.642	399.88
375.868	397.88
376.094	384.88
376.319	391.88
376.545	390.88
376.771	404.88
376.997	386.88
377.222	378.88
377.448	384.88
377.674	390.88
377.899	374.88
378.125	372.88
378.35	379.88
378.576	390.88
378.802	400.88
379.027	382.88
379.253	391.88
379.478	395.88
379.704	382.88
379.929	391.88
380.155	373.88
380.38	362.88
380.606	375.88
380.831	398.88
381.057	393.88
381.282	394.88
381.507	399.88
381.733	377.88
381.958	388.88
382.184	395.88
382.409	388.88
382.634	388.88
382.86	385.88
383.085	399.88
383.31	400.88
383.535	410.88
383.761	403.88
383.986	404.88
384.211	396.88
384.436	390.88
384.662	401.88
384.887	407.88
385.112	434.88
385.337	421.88
385.562	417.88
385.787	419.88
386.013	429.88
386.238	406.88
386.463	413.88
386.688	424.88
386.913	401.88
387.138	426.88
387.363	414.88
387.588	435.88
387.813	432.88
388.038	432.88
388.263	429.88
388.488	431.88
388.713	423.88
388.938	420.88
389.163	422.88
389.387	425.88
389.612	426.88
389.837	429.88
390.062	411.88
390.287	408.88
390.512	428.88
390.736	411.88
390.961	419.88
391.186	400.88
391.411	434.88
391.636	420.88
391.86	454.88
392.085	440.88
392.31	443.88
392.534	443.88
392.759	424.88
392.984	441.88
393.208	427.88
393.433	435.88
393.658	424.88
393.882	430.88
394.107	438.88
394.331	415.88
394.556	410.88
394.78	431.88
395.005	416.88
395.229	449.88
395.454	431.88
395.678	452.88
395.903	464.88
396.127	461.88
396.352	462.88
396.576	444.88
396.801	446.88
397.025	440.88
397.249	445.88
397.474	447.88
397.698	443.88
397.922	444.88
398.147	453.88
398.371	478.88
398.595	465.88
398.82	474.88
399.044	486.88
399.268	504.88
399.492	543.88
399.717	560.88
399.941	597.88
400.165	580.88
400.389	557.88
400.613	523.88
400.837	506.88
401.062	505.88
401.286	499.88
401.51	469.88
401.734	463.88
401.958	490.88
402.182	464.88
402.406	476.88
402.63	486.88
402.854	462.88
403.078	486.88
403.302	486.88
403.526	490.88
403.75	486.88
403.974	529.88
404.198	504.88
404.422	521.88
404.645	517.88
404.869	505.88
405.093	530.88
405.317	549.88
405.541	564.88
405.765	529.88
405.988	528.88
406.212	522.88
406.436	526.88
406.66	545.88
406.883	518.88
407.107	544.88
407.331	567.88
407.555	587.88
407.778	636.88
408.002	557.88
408.226	536.88
408.449	514.88
408.673	553.88
408.896	548.88
409.12	558.88
409.344	542.88
409.567	509.88
409.791	522.88
410.014	487.88
410.238	489.88
410.461	493.88
410.685	482.88
410.908	487.88
411.132	537.88
411.355	535.88
411.578	532.88
411.802	501.88
412.025	477.88
412.249	484.88
412.472	518.88
412.695	554.88
412.919	526.88
413.142	500.88
413.365	462.88
413.589	485.88
413.812	469.88
414.035	464.88
414.258	456.88
414.482	462.88
414.705	462.88
414.928	464.88
415.151	465.88
415.374	438.88
415.597	461.88
415.821	448.88
416.044	453.88
416.267	435.88
416.49	454.88
416.713	444.88
416.936	459.88
417.159	445.88
417.382	436.88
417.605	464.88
417.828	474.88
418.051	471.88
418.274	469.88
418.497	460.88
418.72	476.88
418.943	433.88
419.166	471.88
419.389	490.88
419.611	490.88
419.834	457.88
420.057	475.88
420.28	476.88
420.503	476.88
420.726	490.88
420.948	473.88
421.171	500.88
421.394	528.88
421.617	489.88
421.839	474.88
422.062	443.88
422.285	464.88
422.507	534.88
422.73	578.88
422.953	528.88
423.175	487.88
423.398	482.88
423.621	491.88
423.843	485.88
424.066	507.88
424.288	490.88
424.511	514.88
424.733	517.88
424.956	607.88
425.178	580.88
425.401	575.88
425.623	564.88
425.846	519.88
426.068	462.88
426.291	462.88
426.513	503.88
426.735	481.88
426.958	534.88
427.18	574.88
427.402	676.88
427.625	712.88
427.847	617.88
428.069	568.88
428.292	513.88
428.514	481.88
428.736	460.88
428.958	446.88
429.181	460.88
429.403	437.88
429.625	466.88
429.847	468.88
430.069	502.88
430.292	517.88
430.514	467.88
430.736	439.88
430.958	439.88
431.18	428.88
431.402	434.88
431.624	424.88
431.846	429.88
432.068	423.88
432.29	415.88
432.512	427.88
432.734	420.88
432.956	431.88
433.178	426.88
433.4	432.88
433.622	424.88
433.844	428.88
434.066	448.88
434.287	455.88
434.509	447.88
434.731	455.88
434.953	438.88
435.175	450.88
435.397	465.88
435.618	459.88
435.84	536.88
436.062	581.88
436.284	611.88
436.505	528.88
436.727	470.88
436.949	466.88
437.17	443.88
437.392	447.88
437.614	460.88
437.835	480.88
438.057	534.88
438.278	584.88
438.5	600.88
438.721	636.88
438.943	611.88
439.165	528.88
439.386	461.88
439.608	454.88
439.829	453.88
440.05	496.88
440.272	500.88
440.493	474.88
440.715	457.88
440.936	454.88
441.158	436.88
441.379	451.88
441.6	442.88
441.822	475.88
442.043	477.88
442.264	563.88
442.486	592.88
442.707	509.88
442.928	485.88
443.149	476.88
443.371	484.88
443.592	544.88
443.813	586.88
444.034	606.88
444.255	549.88
444.476	500.88
444.698	477.88
444.919	484.88
445.14	610.88
445.361	538.88
445.582	518.88
445.803	553.88
446.024	622.88
446.245	611.88
446.466	562.88
446.687	490.88
446.908	453.88
447.129	437.88
447.35	436.88
447.571	450.88
447.792	412.88
448.013	419.88
448.234	428.88
448.455	483.88
448.675	560.88
448.896	622.88
449.117	541.88
449.338	505.88
449.559	606.88
449.779	668.88
450	531.88
450.221	441.88
450.442	411.88
450.662	423.88
450.883	414.88
451.104	402.88
451.324	407.88
451.545	405.88
451.766	389.88
451.986	404.88
452.207	408.88
452.428	375.88
452.648	410.88
452.869	384.88
453.089	386.88
453.31	412.88
453.53	392.88
453.751	389.88
453.971	388.88
454.192	415.88
454.412	404.88
454.633	384.88
454.853	373.88
455.073	381.88
455.294	399.88
455.514	423.88
455.734	440.88
455.955	408.88
456.175	374.88
456.395	372.88
456.616	375.88
456.836	364.88
457.056	388.88
457.276	367.88
457.497	366.88
457.717	368.88
457.937	394.88
458.157	396.88
458.377	380.88
458.598	405.88
458.818	405.88
459.038	486.88
459.258	491.88
459.478	421.88
459.698	424.88
459.918	426.88
460.138	426.88
460.358	446.88
460.578	439.88
460.798	440.88
461.018	419.88
461.238	438.88
461.458	424.88
461.678	436.88
461.898	418.88
462.118	443.88
462.338	452.88
462.558	481.88
462.777	478.88
462.997	476.88
463.217	509.88
463.437	508.88
463.657	475.88
463.876	462.88
464.096	468.88
464.316	470.88
464.536	466.88
464.755	480.88
464.975	456.88
465.195	474.88
465.414	494.88
465.634	453.88
465.854	434.88
466.073	412.88
466.293	388.88
466.512	401.88
466.732	419.88
466.951	410.88
467.171	392.88
467.391	393.88
467.61	407.88
467.829	416.88
468.049	404.88
468.268	413.88
468.488	418.88
468.707	381.88
468.927	401.88
469.146	387.88
469.365	380.88
469.585	394.88
469.804	399.88
470.023	399.88
470.243	396.88
470.462	402.88
470.681	405.88
470.901	422.88
471.12	402.88
471.339	408.88
471.558	419.88
471.777	402.88
471.997	411.88
472.216	423.88
472.435	401.88
472.654	428.88
472.873	412.88
473.092	384.88
473.311	400.88
473.53	408.88
473.749	416.88
473.968	448.88
474.187	521.88
474.406	511.88
474.625	447.88
474.844	435.88
475.063	402.88
475.282	404.88
475.501	400.88
475.72	422.88
475.939	426.88
476.158	423.88
476.377	424.88
476.596	408.88
476.814	442.88
477.033	437.88
477.252	419.88
477.471	445.88
477.69	427.88
477.908	446.88
478.127	448.88
478.346	451.88
478.564	458.88
478.783	470.88
479.002	470.88
479.22	455.88
479.439	477.88
479.658	500.88
479.876	465.88
480.095	478.88
480.313	515.88
480.532	498.88
480.751	517.88
480.969	508.88
481.188	542.88
481.406	560.88
481.624	514.88
481.843	483.88
482.061	468.88
482.28	452.88
482.498	482.88
482.717	472.88
482.935	453.88
483.153	448.88
483.372	474.88
483.59	483.88
483.808	472.88
484.027	466.88
484.245	472.88
484.463	470.88
484.681	467.88
484.9	470.88
485.118	476.88
485.336	463.88
485.554	474.88
485.772	489.88
485.99	477.88
486.209	499.88
486.427	500.88
486.645	493.88
486.863	491.88
487.081	490.88
487.299	498.88
487.517	503.88
487.735	483.88
487.953	510.88
488.171	480.88
488.389	495.88
488.607	486.88
488.825	464.88
489.043	493.88
489.261	495.88
489.479	500.88
489.696	500.88
489.914	509.88
490.132	509.88
490.35	529.88
490.568	509.88
490.786	502.88
491.003	525.88
491.221	572.88
491.439	542.88
491.657	546.88
491.874	538.88
492.092	556.88
492.31	551.88
492.527	559.88
492.745	568.88
492.963	583.88
493.18	562.88
493.398	533.88
493.615	568.88
493.833	556.88
494.05	566.88
494.268	575.88
494.485	570.88
494.703	553.88
494.92	552.88
495.138	556.88
495.355	569.88
495.573	571.88
495.79	558.88
496.008	581.88
496.225	566.88
496.442	584.88
496.66	580.88
496.877	589.88
497.094	594.88
497.312	598.88
497.529	619.88
497.746	605.88
497.963	596.88
498.181	632.88
498.398	620.88
498.615	621.88
498.832	686.88
499.049	682.88
499.267	705.88
499.484	731.88
499.701	797.88
499.918	800.88
500.135	870.88
500.352	905.88
500.569	877.88
500.786	902.88
501.003	877.88
501.22	866.88
501.437	814.88
501.654	784.88
501.871	747.88
502.088	720.88
502.305	720.88
502.522	675.88
502.739	650.88
502.956	630.88
503.172	630.88
503.389	619.88
503.606	620.88
503.823	613.88
504.04	608.88
504.256	573.88
504.473	579.88
504.69	580.88
504.907	597.88
505.123	593.88
505.34	568.88
505.557	559.88
505.773	549.88
505.99	549.88
506.207	535.88
506.423	558.88
506.64	542.88
506.856	551.88
507.073	520.88
507.289	542.88
507.506	523.88
507.722	518.88
507.939	539.88
508.155	514.88
508.372	503.88
508.588	516.88
508.805	495.88
509.021	519.88
509.238	514.88
509.454	522.88
509.67	507.88
509.887	500.88
510.103	499.88
510.319	513.88
510.536	578.88
510.752	743.88
510.968	633.88
511.184	491.88
511.401	463.88
511.617	495.88
511.833	508.88
512.049	487.88
512.265	470.88
512.481	468.88
512.698	484.88
512.914	476.88
513.13	476.88
513.346	492.88
513.562	482.88
513.778	479.88
513.994	481.88
514.21	457.88
514.426	473.88
514.642	468.88
514.858	499.88
515.074	538.88
515.29	592.88
515.506	749.88
515.721	634.88
515.937	529.88
516.153	519.88
516.369	512.88
516.585	505.88
516.801	506.88
517.016	512.88
517.232	532.88
517.448	523.88
517.664	512.88
517.879	518.88
518.095	507.88
518.311	528.88
518.527	516.88
518.742	499.88
518.958	491.88
519.173	481.88
519.389	483.88
519.605	486.88
519.82	490.88
520.036	484.88
520.251	470.88
520.467	486.88
520.682	487.88
520.898	487.88
521.113	507.88
521.329	523.88
521.544	534.88
521.76	638.88
521.975	904.88
522.19	830.88
522.406	572.88
522.621	477.88
522.836	440.88
523.052	469.88
523.267	468.88
523.482	441.88
523.698	437.88
523.913	432.88
524.128	431.88
524.343	445.88
524.559	423.88
524.774	414.88
524.989	419.88
525.204	435.88
525.419	408.88
525.634	430.88
525.849	416.88
526.064	401.88
526.28	404.88
526.495	412.88
526.71	397.88
526.925	414.88
527.14	411.88
527.355	415.88
527.57	415.88
527.785	409.88
527.999	396.88
528.214	389.88
528.429	404.88
528.644	395.88
528.859	416.88
529.074	414.88
529.289	417.88
529.503	440.88
529.718	438.88
529.933	405.88
530.148	412.88
530.363	397.88
530.577	413.88
530.792	403.88
531.007	397.88
531.221	399.88
531.436	399.88
531.651	393.88
531.865	392.88
532.08	401.88
532.295	385.88
532.509	395.88
532.724	391.88
532.938	389.88
533.153	375.88
533.367	416.88
533.582	383.88
533.796	389.88
534.011	385.88
534.225	379.88
534.44	358.88
534.654	386.88
534.868	368.88
535.083	394.88
535.297	392.88
535.511	387.88
535.726	389.88
535.94	391.88
536.154	371.88
536.369	382.88
536.583	380.88
536.797	390.88
537.011	380.88
537.225	356.88
537.44	360.88
537.654	362.88
537.868	374.88
538.082	386.88
538.296	392.88
538.51	399.88
538.724	378.88
538.938	379.88
539.153	369.88
539.367	367.88
539.581	382.88
539.795	385.88
540.009	376.88
540.222	376.88
540.436	375.88
540.65	372.88
540.864	366.88
541.078	392.88
541.292	384.88
541.506	381.88
541.72	367.88
541.934	371.88
542.147	371.88
542.361	362.88
542.575	370.88
542.789	353.88
543.002	384.88
543.216	370.88
543.43	380.88
543.644	394.88
543.857	360.88
544.071	379.88
544.285	379.88
544.498	381.88
544.712	356.88
544.925	362.88
545.139	357.88
545.352	365.88
545.566	354.88
545.779	380.88
545.993	384.88
546.206	379.88
546.42	361.88
546.633	360.88
546.847	358.88
547.06	373.88
547.274	361.88
547.487	357.88
547.7	357.88
547.914	358.88
548.127	358.88
548.34	376.88
548.554	355.88
548.767	369.88
548.98	368.88
549.193	359.88
549.407	361.88
549.62	352.88
549.833	378.88
550.046	351.88
550.259	359.88
550.473	365.88
550.686	380.88
550.899	360.88
551.112	353.88
551.325	370.88
551.538	350.88
551.751	363.88
551.964	370.88
552.177	362.88
552.39	363.88
552.603	364.88
552.816	358.88
553.029	378.88
553.242	380.88
553.455	368.88
553.667	374.88
553.88	376.88
554.093	359.88
554.306	372.88
554.519	373.88
554.732	351.88
554.944	355.88
555.157	357.88
555.37	347.88
555.583	331.88
555.795	342.88
556.008	356.88
556.221	345.88
556.433	343.88
556.646	334.88
556.859	320.88
557.071	332.88
557.284	332.88
557.496	318.88
557.709	316.88
557.921	324.88
558.134	330.88
558.346	319.88
558.559	337.88
558.771	322.88
558.984	348.88
559.196	326.88
559.409	328.88
559.621	340.88
559.833	318.88
560.046	335.88
560.258	308.88
560.47	314.88
560.683	325.88
560.895	335.88
561.107	325.88
561.32	317.88
561.532	318.88
561.744	329.88
561.956	322.88
562.168	320.88
562.381	314.88
562.593	339.88
562.805	338.88
563.017	322.88
563.229	313.88
563.441	337.88
563.653	330.88
563.865	326.88
564.077	327.88
564.289	327.88
564.501	329.88
564.713	334.88
564.925	352.88
565.137	347.88
565.349	360.88
565.561	363.88
565.773	360.88
565.985	382.88
566.197	382.88
566.408	402.88
566.62	414.88
566.832	411.88
567.044	411.88
567.255	426.88
567.467	422.88
567.679	423.88
567.891	424.88
568.102	436.88
568.314	430.88
568.526	410.88
568.737	381.88
568.949	382.88
569.161	367.88
569.372	355.88
569.584	341.88
569.795	351.88
570.007	348.88
570.218	350.88
570.43	343.88
570.641	322.88
570.853	320.88
571.064	318.88
571.276	319.88
571.487	304.88
571.698	314.88
571.91	304.88
572.121	314.88
572.333	289.88
572.544	278.88
572.755	296.88
572.966	302.88
573.178	286.88
573.389	284.88
573.6	297.88
573.811	271.88
574.023	295.88
574.234	289.88
574.445	268.88
574.656	286.88
574.867	287.88
575.078	275.88
575.289	281.88
575.501	279.88
575.712	260.88
575.923	269.88
576.134	262.88
576.345	270.88
576.556	259.88
576.767	271.88
576.978	273.88
577.188	272.88
577.399	276.88
577.61	282.88
577.821	276.88
578.032	281.88
578.243	281.88
578.454	360.88
578.665	312.88
578.875	272.88
579.086	245.88
579.297	262.88
579.508	261.88
579.718	275.88
579.929	259.88
580.14	276.88
580.35	263.88
580.561	246.88
580.772	269.88
580.982	251.88
581.193	254.88
581.403	243.88
581.614	262.88
581.825	256.88
582.035	264.88
582.246	250.88
582.456	255.88
582.667	254.88
582.877	246.88
583.087	272.88
583.298	236.88
583.508	239.88
583.719	261.88
583.929	261.88
584.139	269.88
584.35	246.88
584.56	251.88
584.77	249.88
584.981	240.88
585.191	236.88
585.401	251.88
585.611	252.88
585.821	255.88
586.032	262.88
586.242	275.88
586.452	239.88
586.662	242.88
586.872	249.88
587.082	243.88
587.292	235.88
587.502	233.88
587.713	223.88
587.923	242.88
588.133	243.88
588.343	263.88
588.553	246.88
588.762	263.88
588.972	265.88
589.182	258.88
589.392	250.88
589.602	250.88
589.812	260.88
590.022	251.88
590.232	250.88
590.441	251.88
590.651	230.88
590.861	244.88
591.071	239.88
591.281	242.88
591.49	248.88
591.7	255.88
591.91	240.88
592.119	259.88
592.329	238.88
592.539	252.88
592.748	261.88
592.958	263.88
593.167	277.88
593.377	283.88
593.587	280.88
593.796	281.88
594.006	254.88
594.215	275.88
594.424	276.88
594.634	261.88
594.843	260.88
595.053	266.88
595.262	251.88
595.472	270.88
595.681	258.88
595.89	235.88
596.1	240.88
596.309	248.88
596.518	239.88
596.727	236.88
596.937	245.88
597.146	244.88
597.355	231.88
597.564	244.88
597.774	235.88
597.983	219.88
598.192	240.88
598.401	217.88
598.61	227.88
598.819	239.88
599.028	218.88
599.237	206.88
599.446	235.88
599.655	222.88
599.864	226.88
600.073	222.88
600.282	222.88
600.491	220.88
600.7	218.88
600.909	214.88
601.118	228.88
601.327	225.88
601.536	226.88
601.745	207.88
601.953	203.88
602.162	217.88
602.371	216.88
602.58	223.88
602.789	221.88
602.997	220.88
603.206	215.88
603.415	197.88
603.623	228.88
603.832	202.88
604.041	218.88
604.249	209.88
604.458	195.88
604.666	211.88
604.875	212.88
605.084	222.88
605.292	194.88
605.501	198.88
605.709	209.88
605.918	207.88
606.126	218.88
606.334	217.88
606.543	223.88
606.751	216.88
606.96	191.88
607.168	218.88
607.376	203.88
607.585	213.88
607.793	202.88
608.001	194.88
608.21	193.88
608.418	208.88
608.626	211.88
608.834	209.88
609.043	197.88
609.251	209.88
609.459	207.88
609.667	198.88
609.875	208.88
610.083	206.88
610.291	193.88
610.499	203.88
610.707	187.88
610.916	196.88
611.124	215.88
611.332	213.88
611.54	218.88
611.748	212.88
611.955	208.88
612.163	207.88
612.371	201.88
612.579	216.88
612.787	190.88
612.995	188.88
613.203	210.88
613.411	188.88
613.618	192.88
613.826	200.88
614.034	188.88
614.242	184.88
614.449	181.88
614.657	208.88
614.865	209.88
615.072	217.88
615.28	198.88
615.488	214.88
615.695	205.88
615.903	188.88
616.111	211.88
616.318	193.88
616.526	194.88
616.733	179.88
616.941	189.88
617.148	199.88
617.356	208.88
617.563	204.88
617.771	202.88
617.978	204.88
618.185	183.88
618.393	214.88
618.6	208.88
618.807	211.88
619.015	196.88
619.222	187.88
619.429	202.88
619.637	201.88
619.844	203.88
620.051	203.88
620.258	191.88
620.466	203.88
620.673	195.88
620.88	179.88
621.087	181.88
621.294	186.88
621.501	186.88
621.708	169.88
621.915	197.88
622.122	189.88
622.329	182.88
622.536	194.88
622.743	191.88
622.95	197.88
623.157	181.88
623.364	188.88
623.571	166.88
623.778	180.88
623.985	198.88
624.192	187.88
624.399	184.88
624.606	186.88
624.812	173.88
625.019	184.88
625.226	176.88
625.433	187.88
625.639	180.88
625.846	183.88
626.053	169.88
626.259	184.88
626.466	163.88
626.673	188.88
626.879	174.88
627.086	174.88
627.293	190.88
627.499	192.88
627.706	177.88
627.912	183.88
628.119	154.88
628.325	174.88
628.532	167.88
628.738	173.88
628.945	176.88
629.151	165.88
629.357	178.88
629.564	162.88
629.77	189.88
629.976	168.88
630.183	168.88
630.389	162.88
630.595	162.88
630.802	168.88
631.008	178.88
631.214	158.88
631.42	164.88
631.627	174.88
631.833	157.88
632.039	165.88
632.245	166.88
632.451	162.88
632.657	171.88
632.863	173.88
633.069	167.88
633.275	172.88
633.481	159.88
633.688	145.88
633.893	176.88
634.099	154.88
634.305	176.88
634.511	157.88
634.717	159.88
634.923	165.88
635.129	150.88
635.335	165.88
635.541	155.88
635.747	158.88
635.952	157.88
636.158	157.88
636.364	152.88
636.57	155.88
636.775	158.88
636.981	155.88
637.187	172.88
637.392	173.88
637.598	158.88
637.804	148.88
638.009	156.88
638.215	160.88
638.421	159.88
638.626	154.88
638.832	158.88
639.037	160.88
639.243	163.88
639.448	144.88
639.654	168.88
639.859	147.88
640.065	139.88
640.27	142.88
640.475	167.88
640.681	158.88
640.886	156.88
641.091	148.88
641.297	149.88
641.502	166.88
641.707	145.88
641.913	148.88
642.118	141.88
642.323	136.88
642.528	138.88
642.733	143.88
642.939	153.88
643.144	136.88
643.349	134.88
643.554	129.88
643.759	146.88
643.964	163.88
644.169	166.88
644.374	126.88
644.579	142.88
644.784	143.88
644.989	158.88
645.194	152.88
645.399	144.88
645.604	138.88
645.809	154.88
646.014	137.88
646.219	146.88
646.423	158.88
646.628	154.88
646.833	151.88
647.038	143.88
647.243	168.88
647.447	152.88
647.652	143.88
647.857	142.88
648.062	160.88
648.266	147.88
648.471	140.88
648.676	152.88
648.88	160.88
649.085	153.88
649.289	149.88
649.494	147.88
649.698	157.88
649.903	165.88
650.107	152.88
650.312	150.88
650.516	159.88
650.721	138.88
650.925	150.88
651.13	132.88
651.334	130.88
651.539	138.88
651.743	143.88
651.947	141.88
652.152	144.88
652.356	138.88
652.56	137.88
652.764	136.88
652.969	132.88
653.173	135.88
653.377	148.88
653.581	139.88
653.785	131.88
653.99	131.88
654.194	127.88
654.398	138.88
654.602	123.88
654.806	127.88
655.01	142.88
655.214	129.88
655.418	138.88
655.622	135.88
655.826	130.88
656.03	133.88
656.234	125.88
656.438	125.88
656.642	116.88
656.846	131.88
657.049	108.88
657.253	130.88
657.457	117.88
657.661	116.88
657.865	111.88
658.068	110.88
658.272	123.88
658.476	100.88
658.68	108.88
658.883	103.88
659.087	93.88
659.291	98.88
659.494	114.88
659.698	114.88
659.901	98.88
660.105	97.88
660.309	81.88
660.512	107.88
660.716	114.88
660.919	98.88
661.123	100.88
661.326	93.88
661.53	93.88
661.733	84.88
661.936	108.88
662.14	92.88
662.343	90.88
662.546	72.88
662.75	95.88
662.953	77.88
663.156	86.88
663.36	84.88
663.563	90.88
663.766	77.88
663.969	83.88
664.173	105.88
664.376	90.88
664.579	85.88
664.782	79.88
664.985	74.88
665.188	79.88
665.391	94.88
665.594	87.88
665.797	83.88
666	88.88
666.203	89.88
666.406	85.88
666.609	86.88
666.812	71.88
667.015	65.88
667.218	77.88
667.421	95.88
667.624	94.88
667.827	94.88
668.03	78.88
668.232	91.88
668.435	88.88
668.638	80.88
668.841	90.88
669.043	91.88
669.246	81.88
669.449	89.88
669.651	96.88
669.854	71.88
670.057	70.88
670.259	91.88
670.462	80.88
670.665	86.88
670.867	78.88
671.07	75.88
671.272	86.88
671.475	85.88
671.677	77.88
671.88	90.88
672.082	71.88
672.284	91.88
672.487	81.88
672.689	89.88
672.892	78.88
