Data from 1964.PennyLincolnUp.Lamp.En5.5.200Scan.071719.P1._HRD10591_14-04-47-909.txt Node
Date: Thu Jul 18 14:04:47 EDT 2019
User: cochatt
Spectrometer: HR+D1059
Trigger mode: 1
Integration Time (sec): 1.000000E-1
Scans to average: 1
Electric dark correction enabled: true
Nonlinearity correction enabled: false
Boxcar width: 0
XAxis mode: Wavelengths
Number of Pixels in Spectrum: 2048
>>>>>Begin Spectral Data<<<<<
223.165	-12.12
223.4	-12.12
223.635	-12.12
223.869	-19.12
224.104	-20.12
224.338	-16.12
224.573	-19.12
224.808	-8.12
225.042	-4.12
225.277	-4.12
225.511	-8.12
225.746	5.88
225.98	3.88
226.215	13.88
226.449	21.88
226.683	11.88
226.918	21.88
227.152	31.88
227.387	44.88
227.621	35.88
227.856	46.88
228.09	47.88
228.324	46.88
228.559	52.88
228.793	44.88
229.027	95.88
229.262	104.88
229.496	113.88
229.73	108.88
229.964	133.88
230.199	110.88
230.433	104.88
230.667	119.88
230.901	98.88
231.136	115.88
231.37	120.88
231.604	108.88
231.838	102.88
232.072	102.88
232.306	114.88
232.541	91.88
232.775	120.88
233.009	119.88
233.243	111.88
233.477	105.88
233.711	106.88
233.945	113.88
234.179	103.88
234.413	123.88
234.647	111.88
234.881	121.88
235.115	119.88
235.349	121.88
235.583	116.88
235.817	103.88
236.051	119.88
236.285	117.88
236.519	116.88
236.753	128.88
236.987	133.88
237.221	155.88
237.455	179.88
237.689	153.88
237.922	131.88
238.156	127.88
238.39	120.88
238.624	130.88
238.858	123.88
239.091	125.88
239.325	110.88
239.559	131.88
239.793	131.88
240.027	134.88
240.26	122.88
240.494	139.88
240.728	138.88
240.961	140.88
241.195	132.88
241.429	123.88
241.662	126.88
241.896	128.88
242.13	130.88
242.363	142.88
242.597	137.88
242.83	131.88
243.064	125.88
243.298	130.88
243.531	129.88
243.765	146.88
243.998	121.88
244.232	144.88
244.465	135.88
244.699	131.88
244.932	141.88
245.166	142.88
245.399	149.88
245.633	155.88
245.866	155.88
246.099	166.88
246.333	151.88
246.566	158.88
246.8	141.88
247.033	152.88
247.266	162.88
247.5	164.88
247.733	157.88
247.966	152.88
248.2	163.88
248.433	166.88
248.666	179.88
248.899	167.88
249.133	171.88
249.366	193.88
249.599	189.88
249.832	173.88
250.066	193.88
250.299	187.88
250.532	193.88
250.765	189.88
250.998	200.88
251.231	225.88
251.465	207.88
251.698	184.88
251.931	192.88
252.164	190.88
252.397	190.88
252.63	193.88
252.863	201.88
253.096	200.88
253.329	226.88
253.562	221.88
253.795	217.88
254.028	216.88
254.261	207.88
254.494	219.88
254.727	230.88
254.96	255.88
255.193	250.88
255.426	242.88
255.659	232.88
255.892	235.88
256.124	219.88
256.357	242.88
256.59	231.88
256.823	232.88
257.056	196.88
257.289	225.88
257.521	195.88
257.754	222.88
257.987	217.88
258.22	221.88
258.452	201.88
258.685	221.88
258.918	215.88
259.151	207.88
259.383	203.88
259.616	214.88
259.849	226.88
260.081	251.88
260.314	245.88
260.547	253.88
260.779	234.88
261.012	233.88
261.244	228.88
261.477	229.88
261.71	235.88
261.942	231.88
262.175	217.88
262.407	215.88
262.64	202.88
262.872	229.88
263.105	217.88
263.337	205.88
263.57	219.88
263.802	226.88
264.035	213.88
264.267	242.88
264.499	232.88
264.732	232.88
264.964	213.88
265.197	229.88
265.429	230.88
265.661	230.88
265.894	228.88
266.126	232.88
266.358	234.88
266.591	227.88
266.823	238.88
267.055	249.88
267.287	240.88
267.52	241.88
267.752	226.88
267.984	235.88
268.216	236.88
268.448	244.88
268.681	255.88
268.913	264.88
269.145	259.88
269.377	287.88
269.609	278.88
269.841	271.88
270.073	276.88
270.306	287.88
270.538	313.88
270.77	326.88
271.002	298.88
271.234	305.88
271.466	310.88
271.698	290.88
271.93	300.88
272.162	312.88
272.394	315.88
272.626	301.88
272.858	291.88
273.09	292.88
273.322	292.88
273.553	279.88
273.785	273.88
274.017	289.88
274.249	293.88
274.481	280.88
274.713	277.88
274.945	264.88
275.176	285.88
275.408	263.88
275.64	269.88
275.872	306.88
276.104	289.88
276.335	272.88
276.567	293.88
276.799	279.88
277.031	307.88
277.262	310.88
277.494	340.88
277.726	306.88
277.957	305.88
278.189	286.88
278.421	289.88
278.652	308.88
278.884	280.88
279.115	293.88
279.347	302.88
279.579	276.88
279.81	295.88
280.042	290.88
280.273	278.88
280.505	291.88
280.736	308.88
280.968	302.88
281.199	295.88
281.431	287.88
281.662	316.88
281.894	295.88
282.125	290.88
282.356	293.88
282.588	302.88
282.819	319.88
283.051	291.88
283.282	293.88
283.513	282.88
283.745	301.88
283.976	302.88
284.207	296.88
284.439	317.88
284.67	293.88
284.901	305.88
285.132	317.88
285.364	323.88
285.595	314.88
285.826	308.88
286.057	319.88
286.288	300.88
286.52	319.88
286.751	309.88
286.982	310.88
287.213	322.88
287.444	309.88
287.675	317.88
287.906	319.88
288.138	338.88
288.369	329.88
288.6	329.88
288.831	310.88
289.062	326.88
289.293	339.88
289.524	302.88
289.755	329.88
289.986	313.88
290.217	322.88
290.448	306.88
290.679	330.88
290.91	334.88
291.141	341.88
291.371	314.88
291.602	316.88
291.833	317.88
292.064	327.88
292.295	329.88
292.526	316.88
292.757	320.88
292.987	329.88
293.218	339.88
293.449	325.88
293.68	321.88
293.91	334.88
294.141	322.88
294.372	322.88
294.603	334.88
294.833	324.88
295.064	331.88
295.295	346.88
295.525	330.88
295.756	323.88
295.987	337.88
296.217	329.88
296.448	355.88
296.679	332.88
296.909	341.88
297.14	322.88
297.37	343.88
297.601	334.88
297.831	333.88
298.062	333.88
298.292	337.88
298.523	342.88
298.753	338.88
298.984	348.88
299.214	350.88
299.445	343.88
299.675	339.88
299.905	349.88
300.136	330.88
300.366	336.88
300.597	349.88
300.827	361.88
301.057	358.88
301.288	367.88
301.518	341.88
301.748	363.88
301.979	370.88
302.209	382.88
302.439	369.88
302.669	369.88
302.9	349.88
303.13	358.88
303.36	373.88
303.59	363.88
303.82	374.88
304.051	358.88
304.281	364.88
304.511	359.88
304.741	350.88
304.971	369.88
305.201	357.88
305.431	343.88
305.661	369.88
305.891	352.88
306.121	365.88
306.352	356.88
306.582	370.88
306.812	370.88
307.042	367.88
307.272	362.88
307.502	353.88
307.731	360.88
307.961	378.88
308.191	355.88
308.421	368.88
308.651	374.88
308.881	366.88
309.111	348.88
309.341	371.88
309.571	369.88
309.8	403.88
310.03	394.88
310.26	374.88
310.49	384.88
310.72	399.88
310.949	398.88
311.179	414.88
311.409	396.88
311.639	395.88
311.868	383.88
312.098	412.88
312.328	402.88
312.557	400.88
312.787	426.88
313.017	403.88
313.246	398.88
313.476	393.88
313.706	420.88
313.935	403.88
314.165	417.88
314.394	404.88
314.624	408.88
314.853	412.88
315.083	412.88
315.312	430.88
315.542	413.88
315.771	389.88
316.001	401.88
316.23	405.88
316.46	418.88
316.689	407.88
316.919	404.88
317.148	414.88
317.377	418.88
317.607	398.88
317.836	390.88
318.065	384.88
318.295	413.88
318.524	398.88
318.753	405.88
318.983	405.88
319.212	388.88
319.441	385.88
319.67	416.88
319.9	419.88
320.129	396.88
320.358	414.88
320.587	420.88
320.816	409.88
321.046	394.88
321.275	413.88
321.504	414.88
321.733	423.88
321.962	390.88
322.191	430.88
322.42	445.88
322.649	446.88
322.878	450.88
323.108	453.88
323.337	460.88
323.566	472.88
323.795	485.88
324.024	517.88
324.253	600.88
324.482	781.88
324.71	1113.88
324.939	1512.88
325.168	1275.88
325.397	738.88
325.626	531.88
325.855	502.88
326.084	475.88
326.313	476.88
326.542	488.88
326.77	523.88
326.999	574.88
327.228	726.88
327.457	1017.88
327.686	1153.88
327.914	795.88
328.143	586.88
328.372	546.88
328.6	531.88
328.829	507.88
329.058	505.88
329.287	522.88
329.515	512.88
329.744	476.88
329.972	496.88
330.201	499.88
330.43	536.88
330.658	549.88
330.887	541.88
331.115	527.88
331.344	508.88
331.572	478.88
331.801	477.88
332.03	486.88
332.258	493.88
332.486	491.88
332.715	472.88
332.943	492.88
333.172	497.88
333.4	521.88
333.629	522.88
333.857	516.88
334.085	533.88
334.314	521.88
334.542	543.88
334.771	546.88
334.999	545.88
335.227	502.88
335.455	488.88
335.684	497.88
335.912	477.88
336.14	493.88
336.369	472.88
336.597	484.88
336.825	476.88
337.053	454.88
337.281	464.88
337.51	458.88
337.738	465.88
337.966	458.88
338.194	472.88
338.422	465.88
338.65	452.88
338.878	477.88
339.106	450.88
339.334	471.88
339.562	469.88
339.79	446.88
340.018	453.88
340.246	466.88
340.474	447.88
340.702	438.88
340.93	470.88
341.158	449.88
341.386	439.88
341.614	436.88
341.842	449.88
342.07	433.88
342.298	464.88
342.526	437.88
342.754	443.88
342.981	438.88
343.209	437.88
343.437	459.88
343.665	462.88
343.893	456.88
344.12	467.88
344.348	499.88
344.576	463.88
344.804	450.88
345.031	464.88
345.259	463.88
345.487	452.88
345.714	441.88
345.942	444.88
346.17	431.88
346.397	437.88
346.625	426.88
346.853	427.88
347.08	422.88
347.308	451.88
347.535	441.88
347.763	419.88
347.99	445.88
348.218	423.88
348.445	441.88
348.673	410.88
348.9	444.88
349.128	414.88
349.355	432.88
349.583	412.88
349.81	418.88
350.037	429.88
350.265	416.88
350.492	418.88
350.72	410.88
350.947	439.88
351.174	416.88
351.402	443.88
351.629	419.88
351.856	421.88
352.083	431.88
352.311	437.88
352.538	438.88
352.765	421.88
352.992	398.88
353.22	415.88
353.447	414.88
353.674	411.88
353.901	389.88
354.128	392.88
354.355	417.88
354.583	411.88
354.81	391.88
355.037	402.88
355.264	393.88
355.491	391.88
355.718	378.88
355.945	398.88
356.172	400.88
356.399	394.88
356.626	410.88
356.853	413.88
357.08	403.88
357.307	393.88
357.534	388.88
357.761	387.88
357.988	417.88
358.215	390.88
358.441	402.88
358.668	405.88
358.895	415.88
359.122	404.88
359.349	405.88
359.576	439.88
359.802	399.88
360.029	426.88
360.256	446.88
360.483	429.88
360.709	398.88
360.936	417.88
361.163	430.88
361.39	411.88
361.616	379.88
361.843	420.88
362.07	399.88
362.296	407.88
362.523	391.88
362.749	411.88
362.976	394.88
363.203	408.88
363.429	400.88
363.656	409.88
363.882	420.88
364.109	393.88
364.335	396.88
364.562	399.88
364.788	399.88
365.015	412.88
365.241	387.88
365.468	398.88
365.694	425.88
365.92	406.88
366.147	384.88
366.373	411.88
366.599	420.88
366.826	406.88
367.052	390.88
367.278	393.88
367.505	398.88
367.731	395.88
367.957	384.88
368.184	389.88
368.41	399.88
368.636	404.88
368.862	415.88
369.089	407.88
369.315	412.88
369.541	391.88
369.767	400.88
369.993	407.88
370.219	411.88
370.445	401.88
370.672	392.88
370.898	389.88
371.124	387.88
371.35	412.88
371.576	415.88
371.802	408.88
372.028	379.88
372.254	407.88
372.48	390.88
372.706	409.88
372.932	421.88
373.158	387.88
373.384	409.88
373.61	407.88
373.835	431.88
374.061	411.88
374.287	414.88
374.513	417.88
374.739	417.88
374.965	410.88
375.191	405.88
375.416	410.88
375.642	406.88
375.868	413.88
376.094	411.88
376.319	407.88
376.545	392.88
376.771	390.88
376.997	395.88
377.222	393.88
377.448	415.88
377.674	399.88
377.899	396.88
378.125	394.88
378.35	406.88
378.576	397.88
378.802	403.88
379.027	393.88
379.253	392.88
379.478	397.88
379.704	395.88
379.929	402.88
380.155	376.88
380.38	378.88
380.606	411.88
380.831	401.88
381.057	415.88
381.282	406.88
381.507	394.88
381.733	407.88
381.958	409.88
382.184	387.88
382.409	418.88
382.634	403.88
382.86	412.88
383.085	395.88
383.31	383.88
383.535	408.88
383.761	418.88
383.986	411.88
384.211	427.88
384.436	409.88
384.662	411.88
384.887	430.88
385.112	421.88
385.337	417.88
385.562	429.88
385.787	427.88
386.013	438.88
386.238	455.88
386.463	434.88
386.688	433.88
386.913	445.88
387.138	428.88
387.363	430.88
387.588	443.88
387.813	443.88
388.038	424.88
388.263	420.88
388.488	413.88
388.713	414.88
388.938	440.88
389.163	450.88
389.387	433.88
389.612	430.88
389.837	457.88
390.062	425.88
390.287	436.88
390.512	436.88
390.736	430.88
390.961	425.88
391.186	437.88
391.411	445.88
391.636	439.88
391.86	441.88
392.085	443.88
392.31	431.88
392.534	444.88
392.759	450.88
392.984	444.88
393.208	434.88
393.433	462.88
393.658	419.88
393.882	429.88
394.107	453.88
394.331	433.88
394.556	435.88
394.78	433.88
395.005	445.88
395.229	455.88
395.454	451.88
395.678	468.88
395.903	461.88
396.127	459.88
396.352	478.88
396.576	449.88
396.801	460.88
397.025	473.88
397.249	459.88
397.474	453.88
397.698	447.88
397.922	446.88
398.147	472.88
398.371	490.88
398.595	481.88
398.82	485.88
399.044	507.88
399.268	504.88
399.492	566.88
399.717	608.88
399.941	620.88
400.165	611.88
400.389	606.88
400.613	571.88
400.837	515.88
401.062	511.88
401.286	496.88
401.51	509.88
401.734	481.88
401.958	483.88
402.182	500.88
402.406	494.88
402.63	494.88
402.854	493.88
403.078	507.88
403.302	515.88
403.526	492.88
403.75	504.88
403.974	498.88
404.198	527.88
404.422	501.88
404.645	517.88
404.869	531.88
405.093	551.88
405.317	586.88
405.541	593.88
405.765	553.88
405.988	521.88
406.212	547.88
406.436	517.88
406.66	533.88
406.883	541.88
407.107	553.88
407.331	580.88
407.555	660.88
407.778	643.88
408.002	592.88
408.226	542.88
408.449	546.88
408.673	525.88
408.896	567.88
409.12	584.88
409.344	577.88
409.567	515.88
409.791	498.88
410.014	510.88
410.238	490.88
410.461	501.88
410.685	499.88
410.908	505.88
411.132	507.88
411.355	546.88
411.578	542.88
411.802	497.88
412.025	486.88
412.249	501.88
412.472	524.88
412.695	539.88
412.919	527.88
413.142	505.88
413.365	478.88
413.589	479.88
413.812	476.88
414.035	482.88
414.258	473.88
414.482	486.88
414.705	484.88
414.928	474.88
415.151	489.88
415.374	474.88
415.597	469.88
415.821	469.88
416.044	469.88
416.267	487.88
416.49	516.88
416.713	464.88
416.936	455.88
417.159	460.88
417.382	464.88
417.605	471.88
417.828	464.88
418.051	484.88
418.274	459.88
418.497	464.88
418.72	469.88
418.943	461.88
419.166	486.88
419.389	493.88
419.611	492.88
419.834	484.88
420.057	485.88
420.28	481.88
420.503	493.88
420.726	477.88
420.948	484.88
421.171	502.88
421.394	517.88
421.617	496.88
421.839	475.88
422.062	475.88
422.285	489.88
422.507	538.88
422.73	559.88
422.953	584.88
423.175	495.88
423.398	490.88
423.621	516.88
423.843	510.88
424.066	535.88
424.288	515.88
424.511	529.88
424.733	542.88
424.956	627.88
425.178	578.88
425.401	573.88
425.623	605.88
425.846	519.88
426.068	501.88
426.291	481.88
426.513	459.88
426.735	486.88
426.958	524.88
427.18	585.88
427.402	665.88
427.625	741.88
427.847	631.88
428.069	562.88
428.292	480.88
428.514	489.88
428.736	480.88
428.958	455.88
429.181	450.88
429.403	462.88
429.625	455.88
429.847	489.88
430.069	553.88
430.292	514.88
430.514	465.88
430.736	453.88
430.958	475.88
431.18	425.88
431.402	434.88
431.624	454.88
431.846	441.88
432.068	451.88
432.29	433.88
432.512	421.88
432.734	456.88
432.956	440.88
433.178	447.88
433.4	447.88
433.622	457.88
433.844	447.88
434.066	433.88
434.287	437.88
434.509	450.88
434.731	454.88
434.953	451.88
435.175	479.88
435.397	476.88
435.618	502.88
435.84	523.88
436.062	580.88
436.284	648.88
436.505	541.88
436.727	499.88
436.949	463.88
437.17	454.88
437.392	460.88
437.614	485.88
437.835	476.88
438.057	525.88
438.278	615.88
438.5	625.88
438.721	665.88
438.943	644.88
439.165	510.88
439.386	498.88
439.608	486.88
439.829	468.88
440.05	489.88
440.272	509.88
440.493	492.88
440.715	475.88
440.936	459.88
441.158	458.88
441.379	468.88
441.6	482.88
441.822	498.88
442.043	515.88
442.264	574.88
442.486	591.88
442.707	523.88
442.928	495.88
443.149	476.88
443.371	509.88
443.592	527.88
443.813	590.88
444.034	641.88
444.255	569.88
444.476	527.88
444.698	523.88
444.919	515.88
445.14	642.88
445.361	547.88
445.582	535.88
445.803	545.88
446.024	643.88
446.245	626.88
446.466	585.88
446.687	501.88
446.908	466.88
447.129	457.88
447.35	424.88
447.571	436.88
447.792	436.88
448.013	464.88
448.234	469.88
448.455	497.88
448.675	555.88
448.896	676.88
449.117	555.88
449.338	553.88
449.559	620.88
449.779	675.88
450	567.88
450.221	461.88
450.442	455.88
450.662	424.88
450.883	457.88
451.104	439.88
451.324	415.88
451.545	397.88
451.766	433.88
451.986	394.88
452.207	406.88
452.428	371.88
452.648	402.88
452.869	393.88
453.089	409.88
453.31	395.88
453.53	415.88
453.751	400.88
453.971	414.88
454.192	413.88
454.412	394.88
454.633	413.88
454.853	391.88
455.073	388.88
455.294	435.88
455.514	443.88
455.734	463.88
455.955	412.88
456.175	381.88
456.395	373.88
456.616	373.88
456.836	391.88
457.056	380.88
457.276	398.88
457.497	374.88
457.717	386.88
457.937	390.88
458.157	413.88
458.377	400.88
458.598	428.88
458.818	433.88
459.038	503.88
459.258	511.88
459.478	467.88
459.698	421.88
459.918	426.88
460.138	458.88
460.358	449.88
460.578	447.88
460.798	449.88
461.018	461.88
461.238	443.88
461.458	461.88
461.678	454.88
461.898	469.88
462.118	460.88
462.338	481.88
462.558	459.88
462.777	484.88
462.997	489.88
463.217	506.88
463.437	503.88
463.657	502.88
463.876	490.88
464.096	513.88
464.316	477.88
464.536	506.88
464.755	494.88
464.975	476.88
465.195	483.88
465.414	493.88
465.634	477.88
465.854	446.88
466.073	434.88
466.293	447.88
466.512	422.88
466.732	413.88
466.951	426.88
467.171	434.88
467.391	419.88
467.61	421.88
467.829	429.88
468.049	410.88
468.268	410.88
468.488	409.88
468.707	409.88
468.927	424.88
469.146	403.88
469.365	392.88
469.585	419.88
469.804	403.88
470.023	414.88
470.243	417.88
470.462	453.88
470.681	428.88
470.901	419.88
471.12	412.88
471.339	419.88
471.558	434.88
471.777	423.88
471.997	419.88
472.216	422.88
472.435	443.88
472.654	427.88
472.873	437.88
473.092	403.88
473.311	407.88
473.53	430.88
473.749	401.88
473.968	458.88
474.187	542.88
474.406	531.88
474.625	451.88
474.844	456.88
475.063	430.88
475.282	437.88
475.501	420.88
475.72	430.88
475.939	431.88
476.158	415.88
476.377	405.88
476.596	417.88
476.814	430.88
477.033	425.88
477.252	444.88
477.471	439.88
477.69	439.88
477.908	470.88
478.127	463.88
478.346	475.88
478.564	449.88
478.783	459.88
479.002	472.88
479.22	489.88
479.439	490.88
479.658	463.88
479.876	491.88
480.095	494.88
480.313	523.88
480.532	534.88
480.751	505.88
480.969	529.88
481.188	538.88
481.406	566.88
481.624	537.88
481.843	498.88
482.061	492.88
482.28	495.88
482.498	507.88
482.717	489.88
482.935	487.88
483.153	485.88
483.372	475.88
483.59	472.88
483.808	485.88
484.027	477.88
484.245	487.88
484.463	480.88
484.681	485.88
484.9	476.88
485.118	505.88
485.336	494.88
485.554	483.88
485.772	492.88
485.99	470.88
486.209	520.88
486.427	476.88
486.645	499.88
486.863	523.88
487.081	515.88
487.299	506.88
487.517	513.88
487.735	497.88
487.953	506.88
488.171	509.88
488.389	524.88
488.607	519.88
488.825	514.88
489.043	524.88
489.261	548.88
489.479	529.88
489.696	499.88
489.914	510.88
490.132	527.88
490.35	539.88
490.568	537.88
490.786	527.88
491.003	537.88
491.221	531.88
491.439	566.88
491.657	565.88
491.874	567.88
492.092	569.88
492.31	566.88
492.527	594.88
492.745	578.88
492.963	589.88
493.18	558.88
493.398	600.88
493.615	570.88
493.833	586.88
494.05	587.88
494.268	594.88
494.485	581.88
494.703	585.88
494.92	575.88
495.138	589.88
495.355	598.88
495.573	588.88
495.79	609.88
496.008	586.88
496.225	597.88
496.442	582.88
496.66	598.88
496.877	603.88
497.094	615.88
497.312	623.88
497.529	609.88
497.746	629.88
497.963	657.88
498.181	676.88
498.398	645.88
498.615	676.88
498.832	701.88
499.049	728.88
499.267	755.88
499.484	773.88
499.701	791.88
499.918	823.88
500.135	843.88
500.352	933.88
500.569	926.88
500.786	966.88
501.003	912.88
501.22	885.88
501.437	825.88
501.654	821.88
501.871	778.88
502.088	742.88
502.305	722.88
502.522	710.88
502.739	670.88
502.956	657.88
503.172	630.88
503.389	621.88
503.606	647.88
503.823	602.88
504.04	615.88
504.256	617.88
504.473	600.88
504.69	615.88
504.907	609.88
505.123	587.88
505.34	585.88
505.557	564.88
505.773	574.88
505.99	575.88
506.207	562.88
506.423	554.88
506.64	558.88
506.856	554.88
507.073	550.88
507.289	536.88
507.506	542.88
507.722	535.88
507.939	541.88
508.155	526.88
508.372	535.88
508.588	531.88
508.805	523.88
509.021	515.88
509.238	546.88
509.454	548.88
509.67	547.88
509.887	526.88
510.103	517.88
510.319	525.88
510.536	559.88
510.752	771.88
510.968	640.88
511.184	524.88
511.401	501.88
511.617	520.88
511.833	501.88
512.049	499.88
512.265	494.88
512.481	505.88
512.698	500.88
512.914	494.88
513.13	494.88
513.346	490.88
513.562	487.88
513.778	492.88
513.994	475.88
514.21	493.88
514.426	503.88
514.642	506.88
514.858	529.88
515.074	541.88
515.29	609.88
515.506	766.88
515.721	673.88
515.937	556.88
516.153	511.88
516.369	534.88
516.585	517.88
516.801	537.88
517.016	528.88
517.232	531.88
517.448	524.88
517.664	552.88
517.879	521.88
518.095	529.88
518.311	532.88
518.527	515.88
518.742	531.88
518.958	506.88
519.173	513.88
519.389	519.88
519.605	483.88
519.82	488.88
520.036	480.88
520.251	476.88
520.467	509.88
520.682	529.88
520.898	519.88
521.113	504.88
521.329	523.88
521.544	532.88
521.76	630.88
521.975	890.88
522.19	859.88
522.406	572.88
522.621	517.88
522.836	468.88
523.052	459.88
523.267	459.88
523.482	449.88
523.698	417.88
523.913	435.88
524.128	423.88
524.343	437.88
524.559	430.88
524.774	422.88
524.989	431.88
525.204	438.88
525.419	437.88
525.634	418.88
525.849	420.88
526.064	419.88
526.28	425.88
526.495	438.88
526.71	443.88
526.925	398.88
527.14	407.88
527.355	393.88
527.57	417.88
527.785	420.88
527.999	410.88
528.214	414.88
528.429	404.88
528.644	401.88
528.859	414.88
529.074	419.88
529.289	443.88
529.503	469.88
529.718	449.88
529.933	433.88
530.148	424.88
530.363	427.88
530.577	419.88
530.792	402.88
531.007	405.88
531.221	407.88
531.436	414.88
531.651	391.88
531.865	382.88
532.08	406.88
532.295	422.88
532.509	397.88
532.724	380.88
532.938	411.88
533.153	385.88
533.367	399.88
533.582	404.88
533.796	421.88
534.011	414.88
534.225	404.88
534.44	408.88
534.654	394.88
534.868	398.88
535.083	392.88
535.297	397.88
535.511	405.88
535.726	396.88
535.94	389.88
536.154	393.88
536.369	372.88
536.583	385.88
536.797	393.88
537.011	388.88
537.225	382.88
537.44	377.88
537.654	395.88
537.868	387.88
538.082	377.88
538.296	390.88
538.51	362.88
538.724	388.88
538.938	386.88
539.153	382.88
539.367	395.88
539.581	408.88
539.795	396.88
540.009	380.88
540.222	388.88
540.436	364.88
540.65	377.88
540.864	398.88
541.078	403.88
541.292	380.88
541.506	378.88
541.72	376.88
541.934	388.88
542.147	381.88
542.361	383.88
542.575	370.88
542.789	376.88
543.002	370.88
543.216	380.88
543.43	394.88
543.644	389.88
543.857	385.88
544.071	386.88
544.285	381.88
544.498	369.88
544.712	378.88
544.925	366.88
545.139	353.88
545.352	364.88
545.566	386.88
545.779	407.88
545.993	377.88
546.206	390.88
546.42	371.88
546.633	373.88
546.847	373.88
547.06	369.88
547.274	368.88
547.487	382.88
547.7	379.88
547.914	358.88
548.127	371.88
548.34	373.88
548.554	370.88
548.767	374.88
548.98	393.88
549.193	363.88
549.407	373.88
549.62	375.88
549.833	370.88
550.046	356.88
550.259	360.88
550.473	364.88
550.686	374.88
550.899	345.88
551.112	371.88
551.325	373.88
551.538	356.88
551.751	379.88
551.964	373.88
552.177	367.88
552.39	355.88
552.603	369.88
552.816	391.88
553.029	373.88
553.242	370.88
553.455	369.88
553.667	376.88
553.88	381.88
554.093	389.88
554.306	392.88
554.519	361.88
554.732	369.88
554.944	385.88
555.157	373.88
555.37	359.88
555.583	369.88
555.795	350.88
556.008	341.88
556.221	361.88
556.433	344.88
556.646	334.88
556.859	333.88
557.071	337.88
557.284	313.88
557.496	323.88
557.709	334.88
557.921	343.88
558.134	343.88
558.346	315.88
558.559	339.88
558.771	329.88
558.984	319.88
559.196	321.88
559.409	326.88
559.621	315.88
559.833	346.88
560.046	323.88
560.258	327.88
560.47	338.88
560.683	338.88
560.895	335.88
561.107	329.88
561.32	334.88
561.532	335.88
561.744	326.88
561.956	321.88
562.168	302.88
562.381	317.88
562.593	331.88
562.805	348.88
563.017	321.88
563.229	338.88
563.441	347.88
563.653	334.88
563.865	345.88
564.077	305.88
564.289	348.88
564.501	344.88
564.713	342.88
564.925	367.88
565.137	355.88
565.349	344.88
565.561	346.88
565.773	371.88
565.985	382.88
566.197	388.88
566.408	388.88
566.62	406.88
566.832	433.88
567.044	437.88
567.255	425.88
567.467	461.88
567.679	436.88
567.891	453.88
568.102	448.88
568.314	426.88
568.526	400.88
568.737	384.88
568.949	388.88
569.161	384.88
569.372	365.88
569.584	334.88
569.795	350.88
570.007	351.88
570.218	379.88
570.43	353.88
570.641	329.88
570.853	339.88
571.064	334.88
571.276	325.88
571.487	315.88
571.698	326.88
571.91	309.88
572.121	303.88
572.333	321.88
572.544	305.88
572.755	297.88
572.966	305.88
573.178	309.88
573.389	307.88
573.6	302.88
573.811	285.88
574.023	278.88
574.234	273.88
574.445	298.88
574.656	277.88
574.867	288.88
575.078	283.88
575.289	266.88
575.501	284.88
575.712	281.88
575.923	258.88
576.134	278.88
576.345	279.88
576.556	288.88
576.767	290.88
576.978	283.88
577.188	277.88
577.399	269.88
577.61	270.88
577.821	270.88
578.032	278.88
578.243	294.88
578.454	359.88
578.665	315.88
578.875	278.88
579.086	265.88
579.297	279.88
579.508	293.88
579.718	278.88
579.929	266.88
580.14	275.88
580.35	265.88
580.561	287.88
580.772	255.88
580.982	276.88
581.193	259.88
581.403	270.88
581.614	252.88
581.825	257.88
582.035	267.88
582.246	274.88
582.456	235.88
582.667	284.88
582.877	269.88
583.087	250.88
583.298	243.88
583.508	260.88
583.719	265.88
583.929	251.88
584.139	251.88
584.35	267.88
584.56	279.88
584.77	257.88
584.981	262.88
585.191	258.88
585.401	263.88
585.611	260.88
585.821	253.88
586.032	255.88
586.242	251.88
586.452	239.88
586.662	259.88
586.872	249.88
587.082	261.88
587.292	260.88
587.502	264.88
587.713	260.88
587.923	260.88
588.133	255.88
588.343	248.88
588.553	241.88
588.762	249.88
588.972	236.88
589.182	273.88
589.392	268.88
589.602	258.88
589.812	269.88
590.022	249.88
590.232	251.88
590.441	254.88
590.651	241.88
590.861	255.88
591.071	245.88
591.281	256.88
591.49	259.88
591.7	265.88
591.91	263.88
592.119	262.88
592.329	284.88
592.539	269.88
592.748	262.88
592.958	272.88
593.167	257.88
593.377	289.88
593.587	276.88
593.796	263.88
594.006	278.88
594.215	284.88
594.424	274.88
594.634	252.88
594.843	261.88
595.053	257.88
595.262	275.88
595.472	260.88
595.681	243.88
595.89	254.88
596.1	262.88
596.309	243.88
596.518	258.88
596.727	244.88
596.937	236.88
597.146	233.88
597.355	232.88
597.564	246.88
597.774	227.88
597.983	246.88
598.192	236.88
598.401	233.88
598.61	226.88
598.819	242.88
599.028	237.88
599.237	222.88
599.446	230.88
599.655	224.88
599.864	217.88
600.073	226.88
600.282	214.88
600.491	221.88
600.7	222.88
600.909	225.88
601.118	222.88
601.327	221.88
601.536	208.88
601.745	225.88
601.953	220.88
602.162	223.88
602.371	227.88
602.58	223.88
602.789	215.88
602.997	206.88
603.206	220.88
603.415	199.88
603.623	209.88
603.832	213.88
604.041	217.88
604.249	212.88
604.458	212.88
604.666	210.88
604.875	219.88
605.084	225.88
605.292	202.88
605.501	209.88
605.709	207.88
605.918	193.88
606.126	216.88
606.334	210.88
606.543	201.88
606.751	193.88
606.96	209.88
607.168	206.88
607.376	205.88
607.585	215.88
607.793	226.88
608.001	219.88
608.21	201.88
608.418	202.88
608.626	192.88
608.834	217.88
609.043	203.88
609.251	204.88
609.459	225.88
609.667	213.88
609.875	196.88
610.083	205.88
610.291	220.88
610.499	208.88
610.707	223.88
610.916	206.88
611.124	208.88
611.332	197.88
611.54	213.88
611.748	191.88
611.955	207.88
612.163	189.88
612.371	220.88
612.579	215.88
612.787	200.88
612.995	198.88
613.203	208.88
613.411	211.88
613.618	194.88
613.826	200.88
614.034	185.88
614.242	197.88
614.449	201.88
614.657	214.88
614.865	192.88
615.072	206.88
615.28	211.88
615.488	197.88
615.695	208.88
615.903	198.88
616.111	213.88
616.318	207.88
616.526	198.88
616.733	193.88
616.941	200.88
617.148	197.88
617.356	197.88
617.563	205.88
617.771	204.88
617.978	203.88
618.185	202.88
618.393	209.88
618.6	191.88
618.807	198.88
619.015	204.88
619.222	210.88
619.429	217.88
619.637	204.88
619.844	186.88
620.051	177.88
620.258	188.88
620.466	204.88
620.673	190.88
620.88	177.88
621.087	196.88
621.294	180.88
621.501	195.88
621.708	175.88
621.915	181.88
622.122	189.88
622.329	191.88
622.536	190.88
622.743	193.88
622.95	193.88
623.157	188.88
623.364	186.88
623.571	193.88
623.778	196.88
623.985	194.88
624.192	170.88
624.399	185.88
624.606	200.88
624.812	195.88
625.019	196.88
625.226	171.88
625.433	164.88
625.639	171.88
625.846	167.88
626.053	165.88
626.259	184.88
626.466	176.88
626.673	170.88
626.879	177.88
627.086	195.88
627.293	189.88
627.499	179.88
627.706	171.88
627.912	173.88
628.119	181.88
628.325	177.88
628.532	181.88
628.738	155.88
628.945	171.88
629.151	173.88
629.357	188.88
629.564	174.88
629.77	174.88
629.976	178.88
630.183	164.88
630.389	165.88
630.595	164.88
630.802	169.88
631.008	165.88
631.214	161.88
631.42	164.88
631.627	170.88
631.833	160.88
632.039	179.88
632.245	156.88
632.451	160.88
632.657	173.88
632.863	143.88
633.069	166.88
633.275	155.88
633.481	159.88
633.688	172.88
633.893	172.88
634.099	178.88
634.305	165.88
634.511	169.88
634.717	171.88
634.923	155.88
635.129	154.88
635.335	167.88
635.541	173.88
635.747	165.88
635.952	162.88
636.158	152.88
636.364	162.88
636.57	159.88
636.775	162.88
636.981	186.88
637.187	163.88
637.392	143.88
637.598	165.88
637.804	169.88
638.009	168.88
638.215	157.88
638.421	155.88
638.626	168.88
638.832	159.88
639.037	162.88
639.243	161.88
639.448	154.88
639.654	155.88
639.859	150.88
640.065	154.88
640.27	151.88
640.475	143.88
640.681	145.88
640.886	136.88
641.091	146.88
641.297	176.88
641.502	142.88
641.707	149.88
641.913	142.88
642.118	145.88
642.323	171.88
642.528	159.88
642.733	138.88
642.939	150.88
643.144	159.88
643.349	148.88
643.554	163.88
643.759	134.88
643.964	152.88
644.169	154.88
644.374	139.88
644.579	150.88
644.784	147.88
644.989	157.88
645.194	143.88
645.399	147.88
645.604	146.88
645.809	154.88
646.014	164.88
646.219	150.88
646.423	142.88
646.628	154.88
646.833	153.88
647.038	155.88
647.243	150.88
647.447	153.88
647.652	164.88
647.857	145.88
648.062	137.88
648.266	147.88
648.471	157.88
648.676	148.88
648.88	149.88
649.085	161.88
649.289	153.88
649.494	165.88
649.698	167.88
649.903	166.88
650.107	162.88
650.312	141.88
650.516	139.88
650.721	132.88
650.925	135.88
651.13	129.88
651.334	131.88
651.539	146.88
651.743	127.88
651.947	132.88
652.152	143.88
652.356	135.88
652.56	130.88
652.764	131.88
652.969	136.88
653.173	143.88
653.377	135.88
653.581	137.88
653.785	131.88
653.99	139.88
654.194	123.88
654.398	131.88
654.602	133.88
654.806	141.88
655.01	141.88
655.214	134.88
655.418	115.88
655.622	121.88
655.826	115.88
656.03	141.88
656.234	125.88
656.438	126.88
656.642	123.88
656.846	135.88
657.049	129.88
657.253	123.88
657.457	120.88
657.661	116.88
657.865	119.88
658.068	116.88
658.272	124.88
658.476	106.88
658.68	103.88
658.883	99.88
659.087	96.88
659.291	96.88
659.494	101.88
659.698	89.88
659.901	106.88
660.105	86.88
660.309	89.88
660.512	92.88
660.716	79.88
660.919	108.88
661.123	77.88
661.326	95.88
661.53	101.88
661.733	96.88
661.936	78.88
662.14	81.88
662.343	69.88
662.546	78.88
662.75	76.88
662.953	85.88
663.156	79.88
663.36	92.88
663.563	87.88
663.766	94.88
663.969	92.88
664.173	87.88
664.376	84.88
664.579	86.88
664.782	89.88
664.985	80.88
665.188	77.88
665.391	85.88
665.594	93.88
665.797	85.88
666	78.88
666.203	82.88
666.406	82.88
666.609	83.88
666.812	94.88
667.015	79.88
667.218	91.88
667.421	83.88
667.624	84.88
667.827	84.88
668.03	69.88
668.232	82.88
668.435	77.88
668.638	82.88
668.841	95.88
669.043	88.88
669.246	85.88
669.449	79.88
669.651	65.88
669.854	83.88
670.057	77.88
670.259	77.88
670.462	79.88
670.665	82.88
670.867	86.88
671.07	73.88
671.272	71.88
671.475	83.88
671.677	92.88
671.88	77.88
672.082	87.88
672.284	82.88
672.487	81.88
672.689	73.88
672.892	66.88
