Data from 1964.PennyLincolnUp.Lamp.En5.5.200Scan.071719.P1._HRD10591_14-06-34-911.txt Node
Date: Thu Jul 18 14:06:34 EDT 2019
User: cochatt
Spectrometer: HR+D1059
Trigger mode: 1
Integration Time (sec): 1.000000E-1
Scans to average: 1
Electric dark correction enabled: true
Nonlinearity correction enabled: false
Boxcar width: 0
XAxis mode: Wavelengths
Number of Pixels in Spectrum: 2048
>>>>>Begin Spectral Data<<<<<
223.165	-24.19
223.4	-24.19
223.635	-24.19
223.869	-19.19
224.104	-27.19
224.338	-0.19
224.573	-6.19
224.808	-6.19
225.042	-10.19
225.277	-2.19
225.511	-6.19
225.746	8.81
225.98	1.81
226.215	3.81
226.449	16.81
226.683	18.81
226.918	27.81
227.152	23.81
227.387	30.81
227.621	42.81
227.856	28.81
228.09	54.81
228.324	38.81
228.559	63.81
228.793	67.81
229.027	82.81
229.262	99.81
229.496	91.81
229.73	107.81
229.964	135.81
230.199	106.81
230.433	113.81
230.667	121.81
230.901	114.81
231.136	112.81
231.37	101.81
231.604	108.81
231.838	102.81
232.072	110.81
232.306	113.81
232.541	99.81
232.775	110.81
233.009	99.81
233.243	105.81
233.477	120.81
233.711	114.81
233.945	112.81
234.179	136.81
234.413	115.81
234.647	120.81
234.881	102.81
235.115	105.81
235.349	114.81
235.583	99.81
235.817	123.81
236.051	122.81
236.285	123.81
236.519	121.81
236.753	127.81
236.987	129.81
237.221	168.81
237.455	175.81
237.689	163.81
237.922	129.81
238.156	133.81
238.39	122.81
238.624	117.81
238.858	123.81
239.091	116.81
239.325	128.81
239.559	112.81
239.793	130.81
240.027	130.81
240.26	162.81
240.494	152.81
240.728	141.81
240.961	148.81
241.195	138.81
241.429	153.81
241.662	141.81
241.896	127.81
242.13	146.81
242.363	135.81
242.597	122.81
242.83	128.81
243.064	130.81
243.298	135.81
243.531	131.81
243.765	138.81
243.998	135.81
244.232	140.81
244.465	152.81
244.699	144.81
244.932	143.81
245.166	145.81
245.399	142.81
245.633	146.81
245.866	150.81
246.099	140.81
246.333	144.81
246.566	141.81
246.8	157.81
247.033	152.81
247.266	167.81
247.5	161.81
247.733	170.81
247.966	170.81
248.2	170.81
248.433	173.81
248.666	177.81
248.899	159.81
249.133	180.81
249.366	216.81
249.599	189.81
249.832	182.81
250.066	185.81
250.299	173.81
250.532	183.81
250.765	205.81
250.998	217.81
251.231	229.81
251.465	217.81
251.698	202.81
251.931	192.81
252.164	202.81
252.397	202.81
252.63	210.81
252.863	220.81
253.096	217.81
253.329	222.81
253.562	232.81
253.795	213.81
254.028	218.81
254.261	218.81
254.494	217.81
254.727	269.81
254.96	280.81
255.193	256.81
255.426	253.81
255.659	226.81
255.892	226.81
256.124	220.81
256.357	229.81
256.59	215.81
256.823	227.81
257.056	215.81
257.289	216.81
257.521	215.81
257.754	225.81
257.987	214.81
258.22	226.81
258.452	190.81
258.685	212.81
258.918	196.81
259.151	209.81
259.383	231.81
259.616	219.81
259.849	230.81
260.081	246.81
260.314	258.81
260.547	265.81
260.779	257.81
261.012	239.81
261.244	241.81
261.477	257.81
261.71	221.81
261.942	229.81
262.175	236.81
262.407	230.81
262.64	239.81
262.872	221.81
263.105	224.81
263.337	236.81
263.57	238.81
263.802	211.81
264.035	230.81
264.267	233.81
264.499	235.81
264.732	234.81
264.964	221.81
265.197	212.81
265.429	224.81
265.661	213.81
265.894	232.81
266.126	213.81
266.358	234.81
266.591	222.81
266.823	239.81
267.055	232.81
267.287	243.81
267.52	253.81
267.752	233.81
267.984	247.81
268.216	250.81
268.448	252.81
268.681	251.81
268.913	254.81
269.145	282.81
269.377	301.81
269.609	288.81
269.841	282.81
270.073	292.81
270.306	309.81
270.538	323.81
270.77	337.81
271.002	295.81
271.234	311.81
271.466	315.81
271.698	322.81
271.93	323.81
272.162	313.81
272.394	328.81
272.626	303.81
272.858	295.81
273.09	283.81
273.322	278.81
273.553	287.81
273.785	275.81
274.017	292.81
274.249	273.81
274.481	279.81
274.713	294.81
274.945	285.81
275.176	288.81
275.408	296.81
275.64	288.81
275.872	267.81
276.104	298.81
276.335	287.81
276.567	297.81
276.799	298.81
277.031	328.81
277.262	315.81
277.494	329.81
277.726	316.81
277.957	308.81
278.189	291.81
278.421	297.81
278.652	296.81
278.884	300.81
279.115	289.81
279.347	310.81
279.579	299.81
279.81	311.81
280.042	292.81
280.273	293.81
280.505	312.81
280.736	307.81
280.968	287.81
281.199	279.81
281.431	299.81
281.662	296.81
281.894	317.81
282.125	296.81
282.356	308.81
282.588	332.81
282.819	333.81
283.051	310.81
283.282	307.81
283.513	293.81
283.745	304.81
283.976	311.81
284.207	325.81
284.439	315.81
284.67	336.81
284.901	333.81
285.132	308.81
285.364	316.81
285.595	305.81
285.826	300.81
286.057	315.81
286.288	324.81
286.52	319.81
286.751	306.81
286.982	321.81
287.213	323.81
287.444	313.81
287.675	292.81
287.906	332.81
288.138	337.81
288.369	332.81
288.6	346.81
288.831	345.81
289.062	338.81
289.293	323.81
289.524	340.81
289.755	332.81
289.986	343.81
290.217	321.81
290.448	334.81
290.679	342.81
290.91	333.81
291.141	316.81
291.371	332.81
291.602	327.81
291.833	316.81
292.064	321.81
292.295	314.81
292.526	307.81
292.757	335.81
292.987	328.81
293.218	326.81
293.449	329.81
293.68	324.81
293.91	333.81
294.141	337.81
294.372	326.81
294.603	342.81
294.833	339.81
295.064	332.81
295.295	335.81
295.525	348.81
295.756	317.81
295.987	343.81
296.217	357.81
296.448	358.81
296.679	346.81
296.909	319.81
297.14	332.81
297.37	347.81
297.601	348.81
297.831	316.81
298.062	357.81
298.292	362.81
298.523	346.81
298.753	330.81
298.984	363.81
299.214	341.81
299.445	341.81
299.675	353.81
299.905	361.81
300.136	349.81
300.366	344.81
300.597	339.81
300.827	366.81
301.057	348.81
301.288	379.81
301.518	380.81
301.748	370.81
301.979	362.81
302.209	364.81
302.439	377.81
302.669	380.81
302.9	373.81
303.13	350.81
303.36	386.81
303.59	396.81
303.82	385.81
304.051	376.81
304.281	348.81
304.511	373.81
304.741	372.81
304.971	348.81
305.201	382.81
305.431	385.81
305.661	369.81
305.891	351.81
306.121	356.81
306.352	376.81
306.582	375.81
306.812	373.81
307.042	364.81
307.272	388.81
307.502	377.81
307.731	362.81
307.961	381.81
308.191	387.81
308.421	392.81
308.651	373.81
308.881	374.81
309.111	389.81
309.341	355.81
309.571	366.81
309.8	401.81
310.03	409.81
310.26	411.81
310.49	383.81
310.72	414.81
310.949	401.81
311.179	411.81
311.409	393.81
311.639	407.81
311.868	409.81
312.098	422.81
312.328	373.81
312.557	413.81
312.787	429.81
313.017	400.81
313.246	418.81
313.476	405.81
313.706	432.81
313.935	441.81
314.165	449.81
314.394	425.81
314.624	447.81
314.853	407.81
315.083	410.81
315.312	401.81
315.542	415.81
315.771	400.81
316.001	421.81
316.23	407.81
316.46	415.81
316.689	407.81
316.919	411.81
317.148	409.81
317.377	423.81
317.607	438.81
317.836	403.81
318.065	423.81
318.295	426.81
318.524	421.81
318.753	424.81
318.983	411.81
319.212	419.81
319.441	427.81
319.67	419.81
319.9	423.81
320.129	424.81
320.358	415.81
320.587	421.81
320.816	431.81
321.046	441.81
321.275	419.81
321.504	438.81
321.733	439.81
321.962	434.81
322.191	436.81
322.42	452.81
322.649	449.81
322.878	458.81
323.108	487.81
323.337	486.81
323.566	472.81
323.795	518.81
324.024	549.81
324.253	630.81
324.482	866.81
324.71	1294.81
324.939	1759.81
325.168	1487.81
325.397	796.81
325.626	593.81
325.855	525.81
326.084	490.81
326.313	515.81
326.542	516.81
326.77	549.81
326.999	632.81
327.228	829.81
327.457	1151.81
327.686	1339.81
327.914	945.81
328.143	647.81
328.372	599.81
328.6	569.81
328.829	551.81
329.058	559.81
329.287	562.81
329.515	541.81
329.744	523.81
329.972	502.81
330.201	540.81
330.43	548.81
330.658	578.81
330.887	585.81
331.115	573.81
331.344	513.81
331.572	499.81
331.801	509.81
332.03	502.81
332.258	497.81
332.486	501.81
332.715	498.81
332.943	503.81
333.172	482.81
333.4	482.81
333.629	509.81
333.857	536.81
334.085	537.81
334.314	566.81
334.542	559.81
334.771	585.81
334.999	549.81
335.227	521.81
335.455	498.81
335.684	509.81
335.912	498.81
336.14	481.81
336.369	498.81
336.597	487.81
336.825	511.81
337.053	460.81
337.281	478.81
337.51	474.81
337.738	483.81
337.966	465.81
338.194	468.81
338.422	442.81
338.65	473.81
338.878	482.81
339.106	473.81
339.334	445.81
339.562	470.81
339.79	466.81
340.018	446.81
340.246	470.81
340.474	443.81
340.702	474.81
340.93	450.81
341.158	459.81
341.386	461.81
341.614	460.81
341.842	455.81
342.07	457.81
342.298	437.81
342.526	460.81
342.754	428.81
342.981	436.81
343.209	439.81
343.437	448.81
343.665	457.81
343.893	459.81
344.12	480.81
344.348	478.81
344.576	467.81
344.804	462.81
345.031	472.81
345.259	456.81
345.487	470.81
345.714	460.81
345.942	456.81
346.17	437.81
346.397	453.81
346.625	431.81
346.853	433.81
347.08	437.81
347.308	443.81
347.535	447.81
347.763	444.81
347.99	437.81
348.218	446.81
348.445	455.81
348.673	442.81
348.9	448.81
349.128	431.81
349.355	408.81
349.583	415.81
349.81	424.81
350.037	409.81
350.265	424.81
350.492	427.81
350.72	407.81
350.947	403.81
351.174	433.81
351.402	439.81
351.629	433.81
351.856	426.81
352.083	467.81
352.311	448.81
352.538	452.81
352.765	446.81
352.992	436.81
353.22	419.81
353.447	429.81
353.674	410.81
353.901	418.81
354.128	408.81
354.355	425.81
354.583	421.81
354.81	408.81
355.037	396.81
355.264	404.81
355.491	413.81
355.718	386.81
355.945	398.81
356.172	385.81
356.399	416.81
356.626	407.81
356.853	394.81
357.08	416.81
357.307	383.81
357.534	415.81
357.761	422.81
357.988	405.81
358.215	393.81
358.441	415.81
358.668	410.81
358.895	404.81
359.122	396.81
359.349	417.81
359.576	396.81
359.802	435.81
360.029	451.81
360.256	458.81
360.483	453.81
360.709	421.81
360.936	422.81
361.163	443.81
361.39	417.81
361.616	422.81
361.843	429.81
362.07	411.81
362.296	400.81
362.523	410.81
362.749	420.81
362.976	388.81
363.203	405.81
363.429	416.81
363.656	407.81
363.882	399.81
364.109	418.81
364.335	409.81
364.562	418.81
364.788	411.81
365.015	426.81
365.241	384.81
365.468	393.81
365.694	403.81
365.92	402.81
366.147	416.81
366.373	397.81
366.599	396.81
366.826	424.81
367.052	401.81
367.278	403.81
367.505	409.81
367.731	411.81
367.957	393.81
368.184	401.81
368.41	411.81
368.636	427.81
368.862	393.81
369.089	415.81
369.315	396.81
369.541	404.81
369.767	413.81
369.993	403.81
370.219	390.81
370.445	398.81
370.672	397.81
370.898	406.81
371.124	395.81
371.35	403.81
371.576	404.81
371.802	419.81
372.028	412.81
372.254	409.81
372.48	421.81
372.706	400.81
372.932	403.81
373.158	396.81
373.384	411.81
373.61	405.81
373.835	404.81
374.061	413.81
374.287	407.81
374.513	416.81
374.739	406.81
374.965	420.81
375.191	395.81
375.416	407.81
375.642	391.81
375.868	416.81
376.094	409.81
376.319	403.81
376.545	416.81
376.771	402.81
376.997	384.81
377.222	389.81
377.448	387.81
377.674	387.81
377.899	416.81
378.125	404.81
378.35	393.81
378.576	383.81
378.802	384.81
379.027	396.81
379.253	416.81
379.478	383.81
379.704	404.81
379.929	384.81
380.155	387.81
380.38	396.81
380.606	393.81
380.831	383.81
381.057	397.81
381.282	376.81
381.507	387.81
381.733	405.81
381.958	383.81
382.184	401.81
382.409	416.81
382.634	397.81
382.86	410.81
383.085	417.81
383.31	401.81
383.535	427.81
383.761	424.81
383.986	414.81
384.211	416.81
384.436	406.81
384.662	408.81
384.887	428.81
385.112	428.81
385.337	420.81
385.562	442.81
385.787	425.81
386.013	441.81
386.238	456.81
386.463	432.81
386.688	443.81
386.913	432.81
387.138	421.81
387.363	429.81
387.588	448.81
387.813	433.81
388.038	425.81
388.263	432.81
388.488	440.81
388.713	425.81
388.938	412.81
389.163	434.81
389.387	421.81
389.612	432.81
389.837	429.81
390.062	426.81
390.287	422.81
390.512	436.81
390.736	414.81
390.961	441.81
391.186	444.81
391.411	448.81
391.636	456.81
391.86	449.81
392.085	444.81
392.31	434.81
392.534	438.81
392.759	432.81
392.984	424.81
393.208	436.81
393.433	445.81
393.658	437.81
393.882	443.81
394.107	437.81
394.331	448.81
394.556	442.81
394.78	430.81
395.005	447.81
395.229	453.81
395.454	453.81
395.678	438.81
395.903	454.81
396.127	474.81
396.352	500.81
396.576	448.81
396.801	457.81
397.025	453.81
397.249	456.81
397.474	451.81
397.698	464.81
397.922	475.81
398.147	484.81
398.371	492.81
398.595	475.81
398.82	477.81
399.044	501.81
399.268	525.81
399.492	571.81
399.717	585.81
399.941	625.81
400.165	611.81
400.389	630.81
400.613	567.81
400.837	531.81
401.062	507.81
401.286	506.81
401.51	470.81
401.734	474.81
401.958	504.81
402.182	494.81
402.406	496.81
402.63	498.81
402.854	506.81
403.078	507.81
403.302	515.81
403.526	513.81
403.75	525.81
403.974	491.81
404.198	499.81
404.422	514.81
404.645	502.81
404.869	528.81
405.093	520.81
405.317	533.81
405.541	599.81
405.765	548.81
405.988	545.81
406.212	560.81
406.436	539.81
406.66	553.81
406.883	538.81
407.107	546.81
407.331	596.81
407.555	658.81
407.778	637.81
408.002	577.81
408.226	579.81
408.449	563.81
408.673	558.81
408.896	571.81
409.12	590.81
409.344	555.81
409.567	516.81
409.791	526.81
410.014	495.81
410.238	521.81
410.461	523.81
410.685	484.81
410.908	519.81
411.132	553.81
411.355	567.81
411.578	516.81
411.802	489.81
412.025	511.81
412.249	516.81
412.472	526.81
412.695	549.81
412.919	535.81
413.142	496.81
413.365	512.81
413.589	499.81
413.812	469.81
414.035	466.81
414.258	479.81
414.482	471.81
414.705	461.81
414.928	460.81
415.151	446.81
415.374	459.81
415.597	447.81
415.821	481.81
416.044	456.81
416.267	496.81
416.49	473.81
416.713	457.81
416.936	453.81
417.159	473.81
417.382	459.81
417.605	485.81
417.828	483.81
418.051	506.81
418.274	480.81
418.497	471.81
418.72	457.81
418.943	477.81
419.166	490.81
419.389	524.81
419.611	513.81
419.834	504.81
420.057	477.81
420.28	511.81
420.503	491.81
420.726	476.81
420.948	505.81
421.171	520.81
421.394	548.81
421.617	487.81
421.839	500.81
422.062	491.81
422.285	481.81
422.507	535.81
422.73	585.81
422.953	590.81
423.175	545.81
423.398	528.81
423.621	490.81
423.843	532.81
424.066	520.81
424.288	504.81
424.511	523.81
424.733	572.81
424.956	616.81
425.178	612.81
425.401	614.81
425.623	601.81
425.846	530.81
426.068	496.81
426.291	515.81
426.513	493.81
426.735	524.81
426.958	536.81
427.18	603.81
427.402	695.81
427.625	771.81
427.847	655.81
428.069	594.81
428.292	532.81
428.514	495.81
428.736	467.81
428.958	488.81
429.181	439.81
429.403	463.81
429.625	474.81
429.847	513.81
430.069	553.81
430.292	539.81
430.514	476.81
430.736	459.81
430.958	468.81
431.18	452.81
431.402	462.81
431.624	439.81
431.846	449.81
432.068	434.81
432.29	428.81
432.512	442.81
432.734	453.81
432.956	458.81
433.178	458.81
433.4	450.81
433.622	450.81
433.844	442.81
434.066	444.81
434.287	449.81
434.509	456.81
434.731	480.81
434.953	456.81
435.175	484.81
435.397	484.81
435.618	489.81
435.84	539.81
436.062	606.81
436.284	652.81
436.505	547.81
436.727	484.81
436.949	469.81
437.17	454.81
437.392	464.81
437.614	477.81
437.835	497.81
438.057	571.81
438.278	647.81
438.5	649.81
438.721	685.81
438.943	678.81
439.165	539.81
439.386	488.81
439.608	520.81
439.829	509.81
440.05	505.81
440.272	551.81
440.493	506.81
440.715	493.81
440.936	475.81
441.158	468.81
441.379	458.81
441.6	484.81
441.822	484.81
442.043	528.81
442.264	571.81
442.486	637.81
442.707	562.81
442.928	513.81
443.149	507.81
443.371	521.81
443.592	564.81
443.813	602.81
444.034	653.81
444.255	574.81
444.476	520.81
444.698	505.81
444.919	501.81
445.14	592.81
445.361	540.81
445.582	525.81
445.803	564.81
446.024	652.81
446.245	654.81
446.466	619.81
446.687	517.81
446.908	497.81
447.129	455.81
447.35	439.81
447.571	462.81
447.792	467.81
448.013	443.81
448.234	458.81
448.455	511.81
448.675	597.81
448.896	661.81
449.117	582.81
449.338	547.81
449.559	656.81
449.779	712.81
450	572.81
450.221	463.81
450.442	452.81
450.662	424.81
450.883	464.81
451.104	441.81
451.324	429.81
451.545	437.81
451.766	432.81
451.986	407.81
452.207	400.81
452.428	399.81
452.648	416.81
452.869	404.81
453.089	400.81
453.31	417.81
453.53	415.81
453.751	412.81
453.971	399.81
454.192	424.81
454.412	400.81
454.633	399.81
454.853	394.81
455.073	398.81
455.294	438.81
455.514	481.81
455.734	455.81
455.955	407.81
456.175	407.81
456.395	362.81
456.616	387.81
456.836	373.81
457.056	384.81
457.276	396.81
457.497	402.81
457.717	389.81
457.937	417.81
458.157	388.81
458.377	407.81
458.598	395.81
458.818	452.81
459.038	505.81
459.258	545.81
459.478	470.81
459.698	437.81
459.918	442.81
460.138	435.81
460.358	442.81
460.578	435.81
460.798	450.81
461.018	434.81
461.238	441.81
461.458	469.81
461.678	438.81
461.898	435.81
462.118	444.81
462.338	485.81
462.558	468.81
462.777	485.81
462.997	490.81
463.217	521.81
463.437	513.81
463.657	495.81
463.876	490.81
464.096	500.81
464.316	495.81
464.536	460.81
464.755	497.81
464.975	495.81
465.195	505.81
465.414	523.81
465.634	474.81
465.854	440.81
466.073	461.81
466.293	421.81
466.512	410.81
466.732	432.81
466.951	410.81
467.171	415.81
467.391	428.81
467.61	421.81
467.829	413.81
468.049	413.81
468.268	422.81
468.488	415.81
468.707	403.81
468.927	393.81
469.146	373.81
469.365	411.81
469.585	422.81
469.804	407.81
470.023	439.81
470.243	428.81
470.462	444.81
470.681	452.81
470.901	424.81
471.12	418.81
471.339	418.81
471.558	426.81
471.777	450.81
471.997	420.81
472.216	419.81
472.435	452.81
472.654	451.81
472.873	413.81
473.092	411.81
473.311	388.81
473.53	414.81
473.749	439.81
473.968	460.81
474.187	531.81
474.406	570.81
474.625	467.81
474.844	440.81
475.063	432.81
475.282	422.81
475.501	417.81
475.72	425.81
475.939	432.81
476.158	431.81
476.377	427.81
476.596	407.81
476.814	420.81
477.033	428.81
477.252	441.81
477.471	439.81
477.69	427.81
477.908	466.81
478.127	474.81
478.346	468.81
478.564	467.81
478.783	464.81
479.002	451.81
479.22	488.81
479.439	509.81
479.658	519.81
479.876	488.81
480.095	511.81
480.313	551.81
480.532	524.81
480.751	520.81
480.969	504.81
481.188	563.81
481.406	604.81
481.624	525.81
481.843	508.81
482.061	512.81
482.28	505.81
482.498	489.81
482.717	480.81
482.935	492.81
483.153	468.81
483.372	500.81
483.59	470.81
483.808	484.81
484.027	475.81
484.245	471.81
484.463	480.81
484.681	479.81
484.9	485.81
485.118	485.81
485.336	478.81
485.554	499.81
485.772	506.81
485.99	480.81
486.209	473.81
486.427	499.81
486.645	506.81
486.863	526.81
487.081	497.81
487.299	501.81
487.517	509.81
487.735	511.81
487.953	526.81
488.171	531.81
488.389	516.81
488.607	529.81
488.825	521.81
489.043	512.81
489.261	543.81
489.479	514.81
489.696	524.81
489.914	514.81
490.132	541.81
490.35	522.81
490.568	534.81
490.786	546.81
491.003	552.81
491.221	562.81
491.439	564.81
491.657	583.81
491.874	550.81
492.092	597.81
492.31	579.81
492.527	577.81
492.745	580.81
492.963	570.81
493.18	595.81
493.398	569.81
493.615	588.81
493.833	598.81
494.05	603.81
494.268	591.81
494.485	580.81
494.703	576.81
494.92	585.81
495.138	629.81
495.355	603.81
495.573	603.81
495.79	596.81
496.008	603.81
496.225	618.81
496.442	605.81
496.66	602.81
496.877	597.81
497.094	608.81
497.312	629.81
497.529	623.81
497.746	625.81
497.963	646.81
498.181	665.81
498.398	683.81
498.615	677.81
498.832	697.81
499.049	709.81
499.267	778.81
499.484	784.81
499.701	840.81
499.918	825.81
500.135	879.81
500.352	900.81
500.569	933.81
500.786	935.81
501.003	913.81
501.22	882.81
501.437	855.81
501.654	801.81
501.871	810.81
502.088	763.81
502.305	732.81
502.522	739.81
502.739	679.81
502.956	660.81
503.172	635.81
503.389	665.81
503.606	648.81
503.823	625.81
504.04	620.81
504.256	626.81
504.473	618.81
504.69	629.81
504.907	615.81
505.123	609.81
505.34	594.81
505.557	584.81
505.773	589.81
505.99	593.81
506.207	583.81
506.423	575.81
506.64	565.81
506.856	588.81
507.073	529.81
507.289	553.81
507.506	568.81
507.722	559.81
507.939	582.81
508.155	551.81
508.372	538.81
508.588	524.81
508.805	527.81
509.021	525.81
509.238	555.81
509.454	560.81
509.67	559.81
509.887	524.81
510.103	525.81
510.319	547.81
510.536	585.81
510.752	826.81
510.968	673.81
511.184	515.81
511.401	501.81
511.617	492.81
511.833	519.81
512.049	485.81
512.265	527.81
512.481	495.81
512.698	501.81
512.914	517.81
513.13	499.81
513.346	479.81
513.562	500.81
513.778	523.81
513.994	480.81
514.21	537.81
514.426	519.81
514.642	564.81
514.858	563.81
515.074	595.81
515.29	651.81
515.506	822.81
515.721	689.81
515.937	584.81
516.153	526.81
516.369	532.81
516.585	513.81
516.801	510.81
517.016	522.81
517.232	532.81
517.448	523.81
517.664	519.81
517.879	568.81
518.095	537.81
518.311	536.81
518.527	512.81
518.742	510.81
518.958	520.81
519.173	506.81
519.389	508.81
519.605	490.81
519.82	494.81
520.036	497.81
520.251	526.81
520.467	515.81
520.682	562.81
520.898	520.81
521.113	538.81
521.329	539.81
521.544	576.81
521.76	697.81
521.975	963.81
522.19	951.81
522.406	616.81
522.621	506.81
522.836	488.81
523.052	472.81
523.267	476.81
523.482	465.81
523.698	474.81
523.913	448.81
524.128	457.81
524.343	438.81
524.559	449.81
524.774	436.81
524.989	428.81
525.204	465.81
525.419	449.81
525.634	443.81
525.849	450.81
526.064	415.81
526.28	423.81
526.495	405.81
526.71	417.81
526.925	413.81
527.14	410.81
527.355	410.81
527.57	406.81
527.785	418.81
527.999	419.81
528.214	406.81
528.429	418.81
528.644	416.81
528.859	424.81
529.074	443.81
529.289	435.81
529.503	451.81
529.718	444.81
529.933	441.81
530.148	447.81
530.363	420.81
530.577	436.81
530.792	396.81
531.007	415.81
531.221	420.81
531.436	399.81
531.651	405.81
531.865	399.81
532.08	402.81
532.295	417.81
532.509	402.81
532.724	387.81
532.938	384.81
533.153	399.81
533.367	412.81
533.582	395.81
533.796	403.81
534.011	418.81
534.225	390.81
534.44	391.81
534.654	414.81
534.868	389.81
535.083	380.81
535.297	392.81
535.511	407.81
535.726	398.81
535.94	401.81
536.154	395.81
536.369	387.81
536.583	364.81
536.797	396.81
537.011	388.81
537.225	391.81
537.44	356.81
537.654	369.81
537.868	402.81
538.082	379.81
538.296	390.81
538.51	397.81
538.724	399.81
538.938	403.81
539.153	394.81
539.367	384.81
539.581	392.81
539.795	375.81
540.009	388.81
540.222	383.81
540.436	383.81
540.65	384.81
540.864	392.81
541.078	402.81
541.292	381.81
541.506	375.81
541.72	390.81
541.934	391.81
542.147	400.81
542.361	388.81
542.575	397.81
542.789	382.81
543.002	389.81
543.216	371.81
543.43	410.81
543.644	378.81
543.857	397.81
544.071	379.81
544.285	396.81
544.498	382.81
544.712	380.81
544.925	368.81
545.139	377.81
545.352	377.81
545.566	374.81
545.779	387.81
545.993	386.81
546.206	387.81
546.42	368.81
546.633	380.81
546.847	371.81
547.06	376.81
547.274	371.81
547.487	364.81
547.7	373.81
547.914	372.81
548.127	382.81
548.34	356.81
548.554	363.81
548.767	385.81
548.98	370.81
549.193	387.81
549.407	364.81
549.62	376.81
549.833	388.81
550.046	374.81
550.259	362.81
550.473	348.81
550.686	360.81
550.899	379.81
551.112	379.81
551.325	374.81
551.538	375.81
551.751	376.81
551.964	359.81
552.177	361.81
552.39	393.81
552.603	367.81
552.816	362.81
553.029	361.81
553.242	373.81
553.455	374.81
553.667	383.81
553.88	392.81
554.093	380.81
554.306	368.81
554.519	385.81
554.732	369.81
554.944	359.81
555.157	358.81
555.37	367.81
555.583	356.81
555.795	352.81
556.008	357.81
556.221	372.81
556.433	356.81
556.646	336.81
556.859	337.81
557.071	339.81
557.284	322.81
557.496	315.81
557.709	333.81
557.921	345.81
558.134	343.81
558.346	330.81
558.559	326.81
558.771	338.81
558.984	344.81
559.196	356.81
559.409	332.81
559.621	328.81
559.833	329.81
560.046	325.81
560.258	341.81
560.47	337.81
560.683	333.81
560.895	332.81
561.107	331.81
561.32	324.81
561.532	362.81
561.744	332.81
561.956	313.81
562.168	332.81
562.381	336.81
562.593	344.81
562.805	328.81
563.017	333.81
563.229	333.81
563.441	327.81
563.653	328.81
563.865	334.81
564.077	348.81
564.289	329.81
564.501	330.81
564.713	361.81
564.925	350.81
565.137	369.81
565.349	349.81
565.561	359.81
565.773	377.81
565.985	376.81
566.197	374.81
566.408	388.81
566.62	401.81
566.832	407.81
567.044	416.81
567.255	419.81
567.467	423.81
567.679	435.81
567.891	462.81
568.102	468.81
568.314	439.81
568.526	407.81
568.737	394.81
568.949	387.81
569.161	365.81
569.372	361.81
569.584	356.81
569.795	346.81
570.007	333.81
570.218	360.81
570.43	343.81
570.641	320.81
570.853	318.81
571.064	315.81
571.276	342.81
571.487	307.81
571.698	317.81
571.91	310.81
572.121	319.81
572.333	297.81
572.544	311.81
572.755	311.81
572.966	315.81
573.178	305.81
573.389	297.81
573.6	290.81
573.811	277.81
574.023	290.81
574.234	283.81
574.445	299.81
574.656	301.81
574.867	281.81
575.078	292.81
575.289	277.81
575.501	293.81
575.712	282.81
575.923	268.81
576.134	266.81
576.345	271.81
576.556	264.81
576.767	269.81
576.978	286.81
577.188	287.81
577.399	273.81
577.61	256.81
577.821	279.81
578.032	275.81
578.243	296.81
578.454	368.81
578.665	319.81
578.875	286.81
579.086	288.81
579.297	269.81
579.508	261.81
579.718	264.81
579.929	269.81
580.14	253.81
580.35	260.81
580.561	256.81
580.772	264.81
580.982	240.81
581.193	279.81
581.403	267.81
581.614	263.81
581.825	276.81
582.035	252.81
582.246	265.81
582.456	243.81
582.667	263.81
582.877	271.81
583.087	245.81
583.298	237.81
583.508	259.81
583.719	259.81
583.929	257.81
584.139	262.81
584.35	257.81
584.56	248.81
584.77	239.81
584.981	267.81
585.191	279.81
585.401	256.81
585.611	257.81
585.821	246.81
586.032	250.81
586.242	260.81
586.452	259.81
586.662	253.81
586.872	258.81
587.082	251.81
587.292	261.81
587.502	231.81
587.713	243.81
587.923	260.81
588.133	248.81
588.343	256.81
588.553	239.81
588.762	249.81
588.972	256.81
589.182	251.81
589.392	248.81
589.602	256.81
589.812	246.81
590.022	251.81
590.232	236.81
590.441	261.81
590.651	261.81
590.861	267.81
591.071	243.81
591.281	249.81
591.49	259.81
591.7	255.81
591.91	249.81
592.119	259.81
592.329	260.81
592.539	250.81
592.748	289.81
592.958	281.81
593.167	262.81
593.377	263.81
593.587	278.81
593.796	291.81
594.006	272.81
594.215	273.81
594.424	276.81
594.634	276.81
594.843	264.81
595.053	268.81
595.262	260.81
595.472	268.81
595.681	256.81
595.89	248.81
596.1	249.81
596.309	252.81
596.518	234.81
596.727	244.81
596.937	225.81
597.146	229.81
597.355	239.81
597.564	237.81
597.774	220.81
597.983	225.81
598.192	223.81
598.401	213.81
598.61	217.81
598.819	223.81
599.028	222.81
599.237	235.81
599.446	211.81
599.655	235.81
599.864	230.81
600.073	225.81
600.282	224.81
600.491	213.81
600.7	222.81
600.909	205.81
601.118	215.81
601.327	227.81
601.536	228.81
601.745	228.81
601.953	221.81
602.162	222.81
602.371	226.81
602.58	207.81
602.789	224.81
602.997	220.81
603.206	213.81
603.415	212.81
603.623	215.81
603.832	231.81
604.041	222.81
604.249	209.81
604.458	200.81
604.666	201.81
604.875	200.81
605.084	207.81
605.292	201.81
605.501	213.81
605.709	211.81
605.918	212.81
606.126	216.81
606.334	204.81
606.543	196.81
606.751	219.81
606.96	208.81
607.168	217.81
607.376	209.81
607.585	203.81
607.793	221.81
608.001	218.81
608.21	205.81
608.418	223.81
608.626	188.81
608.834	208.81
609.043	213.81
609.251	205.81
609.459	204.81
609.667	209.81
609.875	215.81
610.083	216.81
610.291	209.81
610.499	214.81
610.707	224.81
610.916	215.81
611.124	200.81
611.332	204.81
611.54	208.81
611.748	210.81
611.955	205.81
612.163	193.81
612.371	212.81
612.579	185.81
612.787	226.81
612.995	201.81
613.203	206.81
613.411	199.81
613.618	208.81
613.826	203.81
614.034	206.81
614.242	203.81
614.449	209.81
614.657	208.81
614.865	220.81
615.072	228.81
615.28	207.81
615.488	194.81
615.695	207.81
615.903	204.81
616.111	205.81
616.318	199.81
616.526	189.81
616.733	200.81
616.941	213.81
617.148	202.81
617.356	204.81
617.563	187.81
617.771	211.81
617.978	189.81
618.185	201.81
618.393	201.81
618.6	188.81
618.807	177.81
619.015	191.81
619.222	209.81
619.429	211.81
619.637	188.81
619.844	177.81
620.051	201.81
620.258	185.81
620.466	190.81
620.673	193.81
620.88	191.81
621.087	194.81
621.294	191.81
621.501	189.81
621.708	182.81
621.915	193.81
622.122	197.81
622.329	182.81
622.536	187.81
622.743	179.81
622.95	185.81
623.157	187.81
623.364	195.81
623.571	204.81
623.778	193.81
623.985	193.81
624.192	192.81
624.399	163.81
624.606	179.81
624.812	184.81
625.019	204.81
625.226	177.81
625.433	194.81
625.639	178.81
625.846	181.81
626.053	181.81
626.259	184.81
626.466	181.81
626.673	166.81
626.879	178.81
627.086	181.81
627.293	177.81
627.499	186.81
627.706	200.81
627.912	169.81
628.119	176.81
628.325	196.81
628.532	175.81
628.738	160.81
628.945	166.81
629.151	170.81
629.357	175.81
629.564	178.81
629.77	197.81
629.976	175.81
630.183	187.81
630.389	161.81
630.595	171.81
630.802	160.81
631.008	172.81
631.214	172.81
631.42	162.81
631.627	164.81
631.833	155.81
632.039	165.81
632.245	166.81
632.451	145.81
632.657	170.81
632.863	155.81
633.069	141.81
633.275	184.81
633.481	163.81
633.688	177.81
633.893	169.81
634.099	161.81
634.305	156.81
634.511	178.81
634.717	154.81
634.923	147.81
635.129	164.81
635.335	155.81
635.541	163.81
635.747	149.81
635.952	157.81
636.158	146.81
636.364	163.81
636.57	164.81
636.775	173.81
636.981	165.81
637.187	159.81
637.392	145.81
637.598	143.81
637.804	169.81
638.009	149.81
638.215	168.81
638.421	163.81
638.626	156.81
638.832	168.81
639.037	143.81
639.243	154.81
639.448	141.81
639.654	156.81
639.859	137.81
640.065	153.81
640.27	166.81
640.475	145.81
640.681	145.81
640.886	155.81
641.091	160.81
641.297	151.81
641.502	146.81
641.707	171.81
641.913	151.81
642.118	162.81
642.323	142.81
642.528	154.81
642.733	155.81
642.939	153.81
643.144	144.81
643.349	161.81
643.554	154.81
643.759	154.81
643.964	153.81
644.169	149.81
644.374	157.81
644.579	144.81
644.784	158.81
644.989	141.81
645.194	137.81
645.399	154.81
645.604	135.81
645.809	147.81
646.014	140.81
646.219	141.81
646.423	161.81
646.628	155.81
646.833	147.81
647.038	148.81
647.243	158.81
647.447	148.81
647.652	166.81
647.857	140.81
648.062	159.81
648.266	157.81
648.471	150.81
648.676	150.81
648.88	150.81
649.085	138.81
649.289	141.81
649.494	149.81
649.698	176.81
649.903	176.81
650.107	141.81
650.312	143.81
650.516	149.81
650.721	144.81
650.925	147.81
651.13	142.81
651.334	129.81
651.539	131.81
651.743	139.81
651.947	139.81
652.152	138.81
652.356	137.81
652.56	140.81
652.764	135.81
652.969	136.81
653.173	122.81
653.377	120.81
653.581	117.81
653.785	123.81
653.99	128.81
654.194	135.81
654.398	136.81
654.602	128.81
654.806	126.81
655.01	126.81
655.214	123.81
655.418	127.81
655.622	130.81
655.826	114.81
656.03	130.81
656.234	119.81
656.438	118.81
656.642	131.81
656.846	124.81
657.049	118.81
657.253	123.81
657.457	100.81
657.661	103.81
657.865	120.81
658.068	97.81
658.272	100.81
658.476	99.81
658.68	94.81
658.883	103.81
659.087	93.81
659.291	104.81
659.494	98.81
659.698	99.81
659.901	101.81
660.105	100.81
660.309	102.81
660.512	87.81
660.716	97.81
660.919	86.81
661.123	81.81
661.326	96.81
661.53	91.81
661.733	95.81
661.936	97.81
662.14	72.81
662.343	94.81
662.546	85.81
662.75	87.81
662.953	68.81
663.156	95.81
663.36	76.81
663.563	67.81
663.766	80.81
663.969	93.81
664.173	81.81
664.376	79.81
664.579	81.81
664.782	80.81
664.985	87.81
665.188	79.81
665.391	91.81
665.594	89.81
665.797	75.81
666	83.81
666.203	81.81
666.406	84.81
666.609	90.81
666.812	80.81
667.015	88.81
667.218	88.81
667.421	80.81
667.624	92.81
667.827	85.81
668.03	73.81
668.232	86.81
668.435	77.81
668.638	76.81
668.841	82.81
669.043	71.81
669.246	69.81
669.449	70.81
669.651	79.81
669.854	82.81
670.057	83.81
670.259	72.81
670.462	83.81
670.665	85.81
670.867	83.81
671.07	90.81
671.272	89.81
671.475	76.81
671.677	88.81
671.88	71.81
672.082	82.81
672.284	73.81
672.487	88.81
672.689	84.81
672.892	90.81
