Data from 1964.PennyLincolnUp.Lamp.En5.5.200Scan.071719.P1._HRD10591_14-03-27-908.txt Node
Date: Thu Jul 18 14:03:27 EDT 2019
User: cochatt
Spectrometer: HR+D1059
Trigger mode: 1
Integration Time (sec): 1.000000E-1
Scans to average: 1
Electric dark correction enabled: true
Nonlinearity correction enabled: false
Boxcar width: 0
XAxis mode: Wavelengths
Number of Pixels in Spectrum: 2048
>>>>>Begin Spectral Data<<<<<
223.165	-20.94
223.4	-20.94
223.635	-20.94
223.869	-9.94
224.104	-5.94
224.338	-12.94
224.573	-33.94
224.808	-4.94
225.042	-6.94
225.277	-7.94
225.511	-8.94
225.746	5.06
225.98	-0.94
226.215	15.06
226.449	21.06
226.683	19.06
226.918	24.06
227.152	29.06
227.387	22.06
227.621	43.06
227.856	35.06
228.09	46.06
228.324	53.06
228.559	49.06
228.793	66.06
229.027	67.06
229.262	79.06
229.496	99.06
229.73	111.06
229.964	104.06
230.199	113.06
230.433	103.06
230.667	102.06
230.901	102.06
231.136	102.06
231.37	89.06
231.604	103.06
231.838	96.06
232.072	97.06
232.306	121.06
232.541	99.06
232.775	108.06
233.009	116.06
233.243	117.06
233.477	111.06
233.711	115.06
233.945	113.06
234.179	123.06
234.413	108.06
234.647	127.06
234.881	106.06
235.115	118.06
235.349	95.06
235.583	125.06
235.817	114.06
236.051	121.06
236.285	128.06
236.519	103.06
236.753	117.06
236.987	123.06
237.221	151.06
237.455	162.06
237.689	140.06
237.922	113.06
238.156	118.06
238.39	137.06
238.624	108.06
238.858	111.06
239.091	122.06
239.325	103.06
239.559	121.06
239.793	123.06
240.027	124.06
240.26	137.06
240.494	149.06
240.728	124.06
240.961	133.06
241.195	137.06
241.429	124.06
241.662	139.06
241.896	117.06
242.13	131.06
242.363	134.06
242.597	120.06
242.83	124.06
243.064	129.06
243.298	133.06
243.531	123.06
243.765	120.06
243.998	125.06
244.232	125.06
244.465	129.06
244.699	144.06
244.932	150.06
245.166	146.06
245.399	153.06
245.633	141.06
245.866	140.06
246.099	141.06
246.333	135.06
246.566	124.06
246.8	153.06
247.033	152.06
247.266	159.06
247.5	150.06
247.733	157.06
247.966	166.06
248.2	170.06
248.433	157.06
248.666	161.06
248.899	158.06
249.133	170.06
249.366	173.06
249.599	162.06
249.832	171.06
250.066	168.06
250.299	162.06
250.532	185.06
250.765	159.06
250.998	188.06
251.231	219.06
251.465	187.06
251.698	189.06
251.931	183.06
252.164	186.06
252.397	186.06
252.63	185.06
252.863	190.06
253.096	191.06
253.329	196.06
253.562	190.06
253.795	180.06
254.028	186.06
254.261	190.06
254.494	192.06
254.727	225.06
254.96	247.06
255.193	224.06
255.426	195.06
255.659	220.06
255.892	204.06
256.124	203.06
256.357	196.06
256.59	195.06
256.823	200.06
257.056	174.06
257.289	186.06
257.521	201.06
257.754	212.06
257.987	188.06
258.22	201.06
258.452	182.06
258.685	205.06
258.918	189.06
259.151	216.06
259.383	211.06
259.616	191.06
259.849	200.06
260.081	201.06
260.314	220.06
260.547	227.06
260.779	222.06
261.012	218.06
261.244	224.06
261.477	200.06
261.71	216.06
261.942	209.06
262.175	198.06
262.407	216.06
262.64	198.06
262.872	207.06
263.105	208.06
263.337	197.06
263.57	206.06
263.802	218.06
264.035	195.06
264.267	214.06
264.499	216.06
264.732	215.06
264.964	206.06
265.197	195.06
265.429	215.06
265.661	225.06
265.894	204.06
266.126	203.06
266.358	217.06
266.591	207.06
266.823	208.06
267.055	211.06
267.287	230.06
267.52	226.06
267.752	228.06
267.984	218.06
268.216	212.06
268.448	226.06
268.681	207.06
268.913	236.06
269.145	237.06
269.377	265.06
269.609	252.06
269.841	260.06
270.073	257.06
270.306	267.06
270.538	275.06
270.77	265.06
271.002	280.06
271.234	257.06
271.466	249.06
271.698	274.06
271.93	275.06
272.162	282.06
272.394	292.06
272.626	256.06
272.858	268.06
273.09	260.06
273.322	244.06
273.553	261.06
273.785	247.06
274.017	254.06
274.249	261.06
274.481	266.06
274.713	245.06
274.945	263.06
275.176	270.06
275.408	257.06
275.64	266.06
275.872	258.06
276.104	258.06
276.335	263.06
276.567	243.06
276.799	262.06
277.031	285.06
277.262	297.06
277.494	285.06
277.726	284.06
277.957	270.06
278.189	255.06
278.421	274.06
278.652	250.06
278.884	278.06
279.115	271.06
279.347	250.06
279.579	270.06
279.81	275.06
280.042	266.06
280.273	261.06
280.505	269.06
280.736	250.06
280.968	271.06
281.199	267.06
281.431	276.06
281.662	278.06
281.894	273.06
282.125	272.06
282.356	295.06
282.588	292.06
282.819	299.06
283.051	287.06
283.282	277.06
283.513	286.06
283.745	280.06
283.976	289.06
284.207	271.06
284.439	293.06
284.67	294.06
284.901	298.06
285.132	301.06
285.364	274.06
285.595	281.06
285.826	290.06
286.057	275.06
286.288	292.06
286.52	294.06
286.751	289.06
286.982	296.06
287.213	289.06
287.444	297.06
287.675	295.06
287.906	300.06
288.138	295.06
288.369	301.06
288.6	304.06
288.831	289.06
289.062	317.06
289.293	313.06
289.524	284.06
289.755	293.06
289.986	305.06
290.217	295.06
290.448	295.06
290.679	309.06
290.91	308.06
291.141	306.06
291.371	300.06
291.602	299.06
291.833	300.06
292.064	300.06
292.295	310.06
292.526	295.06
292.757	292.06
292.987	295.06
293.218	297.06
293.449	307.06
293.68	308.06
293.91	300.06
294.141	289.06
294.372	298.06
294.603	301.06
294.833	298.06
295.064	307.06
295.295	309.06
295.525	310.06
295.756	315.06
295.987	305.06
296.217	318.06
296.448	321.06
296.679	309.06
296.909	319.06
297.14	320.06
297.37	322.06
297.601	312.06
297.831	314.06
298.062	305.06
298.292	312.06
298.523	328.06
298.753	317.06
298.984	318.06
299.214	316.06
299.445	319.06
299.675	313.06
299.905	328.06
300.136	329.06
300.366	330.06
300.597	333.06
300.827	320.06
301.057	318.06
301.288	323.06
301.518	327.06
301.748	329.06
301.979	331.06
302.209	332.06
302.439	344.06
302.669	329.06
302.9	342.06
303.13	330.06
303.36	331.06
303.59	322.06
303.82	336.06
304.051	339.06
304.281	333.06
304.511	342.06
304.741	317.06
304.971	327.06
305.201	330.06
305.431	316.06
305.661	345.06
305.891	344.06
306.121	357.06
306.352	337.06
306.582	334.06
306.812	341.06
307.042	338.06
307.272	339.06
307.502	350.06
307.731	347.06
307.961	327.06
308.191	328.06
308.421	335.06
308.651	352.06
308.881	337.06
309.111	341.06
309.341	347.06
309.571	339.06
309.8	346.06
310.03	357.06
310.26	371.06
310.49	347.06
310.72	354.06
310.949	353.06
311.179	359.06
311.409	355.06
311.639	363.06
311.868	361.06
312.098	373.06
312.328	357.06
312.557	376.06
312.787	385.06
313.017	369.06
313.246	375.06
313.476	380.06
313.706	376.06
313.935	367.06
314.165	377.06
314.394	373.06
314.624	366.06
314.853	364.06
315.083	359.06
315.312	374.06
315.542	359.06
315.771	375.06
316.001	371.06
316.23	374.06
316.46	347.06
316.689	349.06
316.919	369.06
317.148	392.06
317.377	395.06
317.607	379.06
317.836	364.06
318.065	379.06
318.295	383.06
318.524	378.06
318.753	373.06
318.983	367.06
319.212	360.06
319.441	371.06
319.67	371.06
319.9	390.06
320.129	381.06
320.358	401.06
320.587	366.06
320.816	379.06
321.046	385.06
321.275	387.06
321.504	362.06
321.733	385.06
321.962	401.06
322.191	395.06
322.42	411.06
322.649	406.06
322.878	400.06
323.108	407.06
323.337	427.06
323.566	431.06
323.795	434.06
324.024	458.06
324.253	529.06
324.482	668.06
324.71	965.06
324.939	1295.06
325.168	1096.06
325.397	624.06
325.626	472.06
325.855	434.06
326.084	425.06
326.313	412.06
326.542	444.06
326.77	458.06
326.999	483.06
327.228	641.06
327.457	881.06
327.686	984.06
327.914	714.06
328.143	521.06
328.372	470.06
328.6	451.06
328.829	437.06
329.058	455.06
329.287	448.06
329.515	435.06
329.744	432.06
329.972	440.06
330.201	448.06
330.43	445.06
330.658	480.06
330.887	469.06
331.115	466.06
331.344	430.06
331.572	456.06
331.801	450.06
332.03	443.06
332.258	424.06
332.486	460.06
332.715	445.06
332.943	435.06
333.172	442.06
333.4	447.06
333.629	461.06
333.857	469.06
334.085	467.06
334.314	450.06
334.542	490.06
334.771	458.06
334.999	461.06
335.227	469.06
335.455	441.06
335.684	433.06
335.912	431.06
336.14	431.06
336.369	454.06
336.597	442.06
336.825	424.06
337.053	447.06
337.281	425.06
337.51	415.06
337.738	425.06
337.966	419.06
338.194	426.06
338.422	426.06
338.65	406.06
338.878	437.06
339.106	414.06
339.334	407.06
339.562	425.06
339.79	425.06
340.018	421.06
340.246	413.06
340.474	421.06
340.702	424.06
340.93	407.06
341.158	391.06
341.386	428.06
341.614	412.06
341.842	414.06
342.07	400.06
342.298	404.06
342.526	397.06
342.754	404.06
342.981	399.06
343.209	417.06
343.437	426.06
343.665	436.06
343.893	429.06
344.12	437.06
344.348	443.06
344.576	420.06
344.804	433.06
345.031	419.06
345.259	425.06
345.487	397.06
345.714	421.06
345.942	400.06
346.17	396.06
346.397	409.06
346.625	381.06
346.853	409.06
347.08	371.06
347.308	389.06
347.535	390.06
347.763	398.06
347.99	387.06
348.218	399.06
348.445	396.06
348.673	391.06
348.9	398.06
349.128	403.06
349.355	374.06
349.583	403.06
349.81	381.06
350.037	377.06
350.265	372.06
350.492	374.06
350.72	399.06
350.947	383.06
351.174	383.06
351.402	394.06
351.629	399.06
351.856	405.06
352.083	396.06
352.311	385.06
352.538	367.06
352.765	374.06
352.992	387.06
353.22	374.06
353.447	397.06
353.674	358.06
353.901	395.06
354.128	381.06
354.355	374.06
354.583	357.06
354.81	383.06
355.037	371.06
355.264	358.06
355.491	381.06
355.718	390.06
355.945	375.06
356.172	402.06
356.399	362.06
356.626	355.06
356.853	374.06
357.08	363.06
357.307	377.06
357.534	365.06
357.761	369.06
357.988	357.06
358.215	371.06
358.441	361.06
358.668	373.06
358.895	359.06
359.122	360.06
359.349	378.06
359.576	391.06
359.802	394.06
360.029	390.06
360.256	382.06
360.483	394.06
360.709	377.06
360.936	379.06
361.163	379.06
361.39	402.06
361.616	384.06
361.843	375.06
362.07	383.06
362.296	370.06
362.523	356.06
362.749	374.06
362.976	377.06
363.203	377.06
363.429	390.06
363.656	378.06
363.882	370.06
364.109	358.06
364.335	363.06
364.562	363.06
364.788	356.06
365.015	361.06
365.241	358.06
365.468	364.06
365.694	378.06
365.92	379.06
366.147	377.06
366.373	381.06
366.599	353.06
366.826	350.06
367.052	333.06
367.278	357.06
367.505	360.06
367.731	343.06
367.957	361.06
368.184	359.06
368.41	375.06
368.636	361.06
368.862	381.06
369.089	377.06
369.315	373.06
369.541	373.06
369.767	390.06
369.993	366.06
370.219	338.06
370.445	366.06
370.672	377.06
370.898	384.06
371.124	349.06
371.35	375.06
371.576	366.06
371.802	381.06
372.028	355.06
372.254	377.06
372.48	369.06
372.706	374.06
372.932	391.06
373.158	389.06
373.384	387.06
373.61	379.06
373.835	382.06
374.061	366.06
374.287	379.06
374.513	376.06
374.739	377.06
374.965	382.06
375.191	385.06
375.416	370.06
375.642	384.06
375.868	375.06
376.094	370.06
376.319	366.06
376.545	368.06
376.771	365.06
376.997	367.06
377.222	388.06
377.448	350.06
377.674	361.06
377.899	354.06
378.125	355.06
378.35	347.06
378.576	355.06
378.802	377.06
379.027	345.06
379.253	363.06
379.478	367.06
379.704	352.06
379.929	362.06
380.155	358.06
380.38	381.06
380.606	360.06
380.831	359.06
381.057	371.06
381.282	375.06
381.507	364.06
381.733	376.06
381.958	379.06
382.184	373.06
382.409	370.06
382.634	375.06
382.86	389.06
383.085	374.06
383.31	374.06
383.535	390.06
383.761	381.06
383.986	379.06
384.211	405.06
384.436	389.06
384.662	407.06
384.887	406.06
385.112	377.06
385.337	403.06
385.562	407.06
385.787	391.06
386.013	405.06
386.238	408.06
386.463	423.06
386.688	415.06
386.913	390.06
387.138	392.06
387.363	410.06
387.588	399.06
387.813	375.06
388.038	426.06
388.263	410.06
388.488	419.06
388.713	414.06
388.938	408.06
389.163	406.06
389.387	399.06
389.612	390.06
389.837	389.06
390.062	412.06
390.287	407.06
390.512	393.06
390.736	413.06
390.961	397.06
391.186	410.06
391.411	419.06
391.636	412.06
391.86	427.06
392.085	396.06
392.31	429.06
392.534	426.06
392.759	411.06
392.984	408.06
393.208	414.06
393.433	405.06
393.658	431.06
393.882	413.06
394.107	403.06
394.331	383.06
394.556	400.06
394.78	389.06
395.005	415.06
395.229	400.06
395.454	403.06
395.678	393.06
395.903	425.06
396.127	431.06
396.352	445.06
396.576	407.06
396.801	405.06
397.025	435.06
397.249	413.06
397.474	412.06
397.698	413.06
397.922	425.06
398.147	448.06
398.371	460.06
398.595	442.06
398.82	436.06
399.044	458.06
399.268	476.06
399.492	521.06
399.717	555.06
399.941	548.06
400.165	549.06
400.389	563.06
400.613	511.06
400.837	482.06
401.062	475.06
401.286	448.06
401.51	459.06
401.734	451.06
401.958	452.06
402.182	433.06
402.406	434.06
402.63	447.06
402.854	446.06
403.078	450.06
403.302	464.06
403.526	465.06
403.75	479.06
403.974	474.06
404.198	467.06
404.422	481.06
404.645	485.06
404.869	469.06
405.093	498.06
405.317	543.06
405.541	518.06
405.765	514.06
405.988	475.06
406.212	463.06
406.436	493.06
406.66	525.06
406.883	486.06
407.107	512.06
407.331	541.06
407.555	578.06
407.778	587.06
408.002	539.06
408.226	524.06
408.449	494.06
408.673	484.06
408.896	503.06
409.12	541.06
409.344	530.06
409.567	483.06
409.791	464.06
410.014	484.06
410.238	459.06
410.461	454.06
410.685	471.06
410.908	483.06
411.132	503.06
411.355	505.06
411.578	486.06
411.802	457.06
412.025	451.06
412.249	470.06
412.472	487.06
412.695	502.06
412.919	497.06
413.142	445.06
413.365	463.06
413.589	465.06
413.812	437.06
414.035	446.06
414.258	434.06
414.482	430.06
414.705	435.06
414.928	441.06
415.151	434.06
415.374	436.06
415.597	439.06
415.821	414.06
416.044	437.06
416.267	420.06
416.49	431.06
416.713	411.06
416.936	431.06
417.159	397.06
417.382	417.06
417.605	425.06
417.828	437.06
418.051	430.06
418.274	436.06
418.497	421.06
418.72	437.06
418.943	426.06
419.166	439.06
419.389	460.06
419.611	462.06
419.834	469.06
420.057	446.06
420.28	437.06
420.503	445.06
420.726	448.06
420.948	465.06
421.171	471.06
421.394	472.06
421.617	437.06
421.839	434.06
422.062	452.06
422.285	456.06
422.507	493.06
422.73	564.06
422.953	495.06
423.175	454.06
423.398	453.06
423.621	438.06
423.843	455.06
424.066	463.06
424.288	464.06
424.511	466.06
424.733	507.06
424.956	554.06
425.178	536.06
425.401	536.06
425.623	552.06
425.846	476.06
426.068	439.06
426.291	437.06
426.513	456.06
426.735	456.06
426.958	501.06
427.18	527.06
427.402	625.06
427.625	646.06
427.847	585.06
428.069	505.06
428.292	459.06
428.514	445.06
428.736	415.06
428.958	421.06
429.181	412.06
429.403	413.06
429.625	435.06
429.847	437.06
430.069	497.06
430.292	466.06
430.514	407.06
430.736	424.06
430.958	413.06
431.18	416.06
431.402	408.06
431.624	402.06
431.846	403.06
432.068	393.06
432.29	407.06
432.512	404.06
432.734	396.06
432.956	417.06
433.178	398.06
433.4	397.06
433.622	411.06
433.844	417.06
434.066	421.06
434.287	428.06
434.509	424.06
434.731	414.06
434.953	403.06
435.175	429.06
435.397	446.06
435.618	446.06
435.84	472.06
436.062	548.06
436.284	567.06
436.505	476.06
436.727	459.06
436.949	418.06
437.17	406.06
437.392	422.06
437.614	442.06
437.835	417.06
438.057	495.06
438.278	572.06
438.5	549.06
438.721	589.06
438.943	586.06
439.165	477.06
439.386	439.06
439.608	444.06
439.829	424.06
440.05	461.06
440.272	487.06
440.493	449.06
440.715	438.06
440.936	417.06
441.158	413.06
441.379	436.06
441.6	423.06
441.822	412.06
442.043	461.06
442.264	525.06
442.486	540.06
442.707	481.06
442.928	460.06
443.149	469.06
443.371	462.06
443.592	497.06
443.813	549.06
444.034	579.06
444.255	519.06
444.476	498.06
444.698	467.06
444.919	471.06
445.14	563.06
445.361	507.06
445.582	470.06
445.803	515.06
446.024	562.06
446.245	571.06
446.466	509.06
446.687	436.06
446.908	432.06
447.129	402.06
447.35	413.06
447.571	419.06
447.792	394.06
448.013	403.06
448.234	409.06
448.455	440.06
448.675	514.06
448.896	581.06
449.117	474.06
449.338	499.06
449.559	547.06
449.779	635.06
450	515.06
450.221	450.06
450.442	389.06
450.662	380.06
450.883	402.06
451.104	377.06
451.324	370.06
451.545	381.06
451.766	373.06
451.986	372.06
452.207	347.06
452.428	367.06
452.648	361.06
452.869	358.06
453.089	389.06
453.31	371.06
453.53	365.06
453.751	382.06
453.971	365.06
454.192	369.06
454.412	364.06
454.633	361.06
454.853	365.06
455.073	359.06
455.294	346.06
455.514	417.06
455.734	411.06
455.955	362.06
456.175	364.06
456.395	346.06
456.616	345.06
456.836	353.06
457.056	361.06
457.276	333.06
457.497	357.06
457.717	348.06
457.937	341.06
458.157	371.06
458.377	373.06
458.598	366.06
458.818	393.06
459.038	436.06
459.258	440.06
459.478	404.06
459.698	377.06
459.918	373.06
460.138	394.06
460.358	427.06
460.578	405.06
460.798	419.06
461.018	397.06
461.238	413.06
461.458	413.06
461.678	431.06
461.898	427.06
462.118	427.06
462.338	439.06
462.558	425.06
462.777	441.06
462.997	476.06
463.217	454.06
463.437	469.06
463.657	461.06
463.876	459.06
464.096	455.06
464.316	436.06
464.536	434.06
464.755	451.06
464.975	453.06
465.195	463.06
465.414	462.06
465.634	410.06
465.854	422.06
466.073	393.06
466.293	379.06
466.512	382.06
466.732	383.06
466.951	394.06
467.171	368.06
467.391	366.06
467.61	399.06
467.829	409.06
468.049	375.06
468.268	381.06
468.488	370.06
468.707	363.06
468.927	375.06
469.146	369.06
469.365	376.06
469.585	378.06
469.804	382.06
470.023	388.06
470.243	385.06
470.462	386.06
470.681	407.06
470.901	408.06
471.12	379.06
471.339	400.06
471.558	401.06
471.777	396.06
471.997	383.06
472.216	387.06
472.435	381.06
472.654	380.06
472.873	391.06
473.092	401.06
473.311	386.06
473.53	387.06
473.749	378.06
473.968	405.06
474.187	478.06
474.406	470.06
474.625	425.06
474.844	391.06
475.063	385.06
475.282	381.06
475.501	387.06
475.72	391.06
475.939	387.06
476.158	386.06
476.377	401.06
476.596	406.06
476.814	415.06
477.033	413.06
477.252	410.06
477.471	415.06
477.69	386.06
477.908	418.06
478.127	413.06
478.346	416.06
478.564	438.06
478.783	435.06
479.002	448.06
479.22	437.06
479.439	426.06
479.658	450.06
479.876	474.06
480.095	446.06
480.313	469.06
480.532	469.06
480.751	494.06
480.969	467.06
481.188	479.06
481.406	506.06
481.624	489.06
481.843	462.06
482.061	445.06
482.28	459.06
482.498	475.06
482.717	443.06
482.935	448.06
483.153	449.06
483.372	433.06
483.59	455.06
483.808	436.06
484.027	437.06
484.245	449.06
484.463	466.06
484.681	458.06
484.9	461.06
485.118	437.06
485.336	447.06
485.554	442.06
485.772	478.06
485.99	459.06
486.209	471.06
486.427	462.06
486.645	481.06
486.863	491.06
487.081	461.06
487.299	469.06
487.517	466.06
487.735	457.06
487.953	464.06
488.171	487.06
488.389	485.06
488.607	477.06
488.825	472.06
489.043	460.06
489.261	477.06
489.479	477.06
489.696	506.06
489.914	484.06
490.132	489.06
490.35	468.06
490.568	482.06
490.786	481.06
491.003	512.06
491.221	514.06
491.439	517.06
491.657	513.06
491.874	511.06
492.092	526.06
492.31	515.06
492.527	524.06
492.745	509.06
492.963	522.06
493.18	550.06
493.398	537.06
493.615	519.06
493.833	516.06
494.05	497.06
494.268	524.06
494.485	525.06
494.703	534.06
494.92	514.06
495.138	527.06
495.355	542.06
495.573	531.06
495.79	564.06
496.008	530.06
496.225	518.06
496.442	542.06
496.66	549.06
496.877	548.06
497.094	568.06
497.312	558.06
497.529	559.06
497.746	556.06
497.963	572.06
498.181	600.06
498.398	616.06
498.615	649.06
498.832	656.06
499.049	635.06
499.267	695.06
499.484	706.06
499.701	744.06
499.918	757.06
500.135	814.06
500.352	855.06
500.569	862.06
500.786	863.06
501.003	827.06
501.22	823.06
501.437	774.06
501.654	719.06
501.871	700.06
502.088	691.06
502.305	652.06
502.522	649.06
502.739	618.06
502.956	612.06
503.172	606.06
503.389	582.06
503.606	569.06
503.823	574.06
504.04	557.06
504.256	582.06
504.473	568.06
504.69	554.06
504.907	553.06
505.123	528.06
505.34	535.06
505.557	521.06
505.773	505.06
505.99	490.06
506.207	511.06
506.423	508.06
506.64	504.06
506.856	486.06
507.073	498.06
507.289	503.06
507.506	510.06
507.722	493.06
507.939	489.06
508.155	492.06
508.372	478.06
508.588	466.06
508.805	463.06
509.021	469.06
509.238	485.06
509.454	495.06
509.67	504.06
509.887	457.06
510.103	471.06
510.319	470.06
510.536	497.06
510.752	639.06
510.968	557.06
511.184	450.06
511.401	441.06
511.617	448.06
511.833	452.06
512.049	451.06
512.265	447.06
512.481	439.06
512.698	436.06
512.914	438.06
513.13	453.06
513.346	444.06
513.562	450.06
513.778	430.06
513.994	446.06
514.21	458.06
514.426	466.06
514.642	457.06
514.858	490.06
515.074	501.06
515.29	545.06
515.506	626.06
515.721	578.06
515.937	490.06
516.153	464.06
516.369	473.06
516.585	481.06
516.801	476.06
517.016	477.06
517.232	498.06
517.448	484.06
517.664	476.06
517.879	462.06
518.095	477.06
518.311	481.06
518.527	483.06
518.742	474.06
518.958	466.06
519.173	445.06
519.389	469.06
519.605	453.06
519.82	459.06
520.036	456.06
520.251	438.06
520.467	462.06
520.682	461.06
520.898	461.06
521.113	473.06
521.329	478.06
521.544	481.06
521.76	525.06
521.975	713.06
522.19	695.06
522.406	503.06
522.621	454.06
522.836	420.06
523.052	419.06
523.267	403.06
523.482	387.06
523.698	413.06
523.913	421.06
524.128	402.06
524.343	404.06
524.559	408.06
524.774	399.06
524.989	406.06
525.204	401.06
525.419	403.06
525.634	397.06
525.849	380.06
526.064	381.06
526.28	386.06
526.495	387.06
526.71	372.06
526.925	390.06
527.14	365.06
527.355	369.06
527.57	380.06
527.785	372.06
527.999	372.06
528.214	383.06
528.429	349.06
528.644	385.06
528.859	385.06
529.074	377.06
529.289	399.06
529.503	411.06
529.718	419.06
529.933	378.06
530.148	386.06
530.363	378.06
530.577	374.06
530.792	372.06
531.007	386.06
531.221	374.06
531.436	370.06
531.651	379.06
531.865	365.06
532.08	399.06
532.295	377.06
532.509	379.06
532.724	379.06
532.938	364.06
533.153	363.06
533.367	367.06
533.582	371.06
533.796	361.06
534.011	383.06
534.225	362.06
534.44	369.06
534.654	363.06
534.868	369.06
535.083	381.06
535.297	365.06
535.511	364.06
535.726	379.06
535.94	369.06
536.154	382.06
536.369	385.06
536.583	359.06
536.797	353.06
537.011	355.06
537.225	382.06
537.44	351.06
537.654	374.06
537.868	366.06
538.082	364.06
538.296	350.06
538.51	355.06
538.724	359.06
538.938	355.06
539.153	343.06
539.367	360.06
539.581	381.06
539.795	349.06
540.009	363.06
540.222	350.06
540.436	340.06
540.65	341.06
540.864	357.06
541.078	358.06
541.292	345.06
541.506	359.06
541.72	347.06
541.934	375.06
542.147	362.06
542.361	358.06
542.575	354.06
542.789	371.06
543.002	346.06
543.216	358.06
543.43	370.06
543.644	369.06
543.857	353.06
544.071	361.06
544.285	347.06
544.498	346.06
544.712	341.06
544.925	349.06
545.139	347.06
545.352	357.06
545.566	342.06
545.779	338.06
545.993	358.06
546.206	357.06
546.42	348.06
546.633	353.06
546.847	365.06
547.06	361.06
547.274	336.06
547.487	342.06
547.7	348.06
547.914	342.06
548.127	344.06
548.34	361.06
548.554	347.06
548.767	343.06
548.98	345.06
549.193	341.06
549.407	335.06
549.62	342.06
549.833	351.06
550.046	353.06
550.259	341.06
550.473	337.06
550.686	329.06
550.899	342.06
551.112	341.06
551.325	343.06
551.538	344.06
551.751	334.06
551.964	338.06
552.177	343.06
552.39	349.06
552.603	359.06
552.816	364.06
553.029	358.06
553.242	358.06
553.455	372.06
553.667	381.06
553.88	381.06
554.093	354.06
554.306	352.06
554.519	342.06
554.732	366.06
554.944	347.06
555.157	356.06
555.37	334.06
555.583	334.06
555.795	316.06
556.008	321.06
556.221	309.06
556.433	329.06
556.646	341.06
556.859	334.06
557.071	321.06
557.284	319.06
557.496	314.06
557.709	326.06
557.921	319.06
558.134	296.06
558.346	319.06
558.559	307.06
558.771	326.06
558.984	324.06
559.196	325.06
559.409	310.06
559.621	318.06
559.833	310.06
560.046	305.06
560.258	299.06
560.47	302.06
560.683	302.06
560.895	300.06
561.107	314.06
561.32	315.06
561.532	301.06
561.744	307.06
561.956	313.06
562.168	314.06
562.381	300.06
562.593	309.06
562.805	313.06
563.017	308.06
563.229	310.06
563.441	325.06
563.653	318.06
563.865	327.06
564.077	328.06
564.289	306.06
564.501	335.06
564.713	328.06
564.925	332.06
565.137	349.06
565.349	343.06
565.561	334.06
565.773	353.06
565.985	365.06
566.197	362.06
566.408	379.06
566.62	373.06
566.832	393.06
567.044	397.06
567.255	423.06
567.467	407.06
567.679	414.06
567.891	420.06
568.102	423.06
568.314	410.06
568.526	410.06
568.737	405.06
568.949	372.06
569.161	354.06
569.372	332.06
569.584	334.06
569.795	349.06
570.007	327.06
570.218	329.06
570.43	329.06
570.641	324.06
570.853	307.06
571.064	311.06
571.276	314.06
571.487	315.06
571.698	314.06
571.91	300.06
572.121	296.06
572.333	297.06
572.544	277.06
572.755	291.06
572.966	282.06
573.178	279.06
573.389	283.06
573.6	272.06
573.811	279.06
574.023	286.06
574.234	285.06
574.445	282.06
574.656	264.06
574.867	277.06
575.078	286.06
575.289	276.06
575.501	269.06
575.712	278.06
575.923	276.06
576.134	271.06
576.345	260.06
576.556	258.06
576.767	266.06
576.978	263.06
577.188	269.06
577.399	268.06
577.61	251.06
577.821	274.06
578.032	269.06
578.243	291.06
578.454	329.06
578.665	280.06
578.875	261.06
579.086	244.06
579.297	266.06
579.508	266.06
579.718	258.06
579.929	271.06
580.14	257.06
580.35	249.06
580.561	242.06
580.772	253.06
580.982	233.06
581.193	250.06
581.403	240.06
581.614	244.06
581.825	234.06
582.035	255.06
582.246	259.06
582.456	256.06
582.667	261.06
582.877	260.06
583.087	256.06
583.298	248.06
583.508	234.06
583.719	234.06
583.929	260.06
584.139	237.06
584.35	248.06
584.56	228.06
584.77	237.06
584.981	234.06
585.191	254.06
585.401	243.06
585.611	256.06
585.821	237.06
586.032	259.06
586.242	242.06
586.452	255.06
586.662	233.06
586.872	234.06
587.082	230.06
587.292	239.06
587.502	261.06
587.713	244.06
587.923	230.06
588.133	241.06
588.343	252.06
588.553	233.06
588.762	251.06
588.972	263.06
589.182	284.06
589.392	291.06
589.602	244.06
589.812	269.06
590.022	253.06
590.232	258.06
590.441	249.06
590.651	227.06
590.861	249.06
591.071	253.06
591.281	254.06
591.49	245.06
591.7	247.06
591.91	262.06
592.119	255.06
592.329	236.06
592.539	257.06
592.748	269.06
592.958	265.06
593.167	255.06
593.377	266.06
593.587	273.06
593.796	288.06
594.006	259.06
594.215	276.06
594.424	275.06
594.634	275.06
594.843	266.06
595.053	265.06
595.262	257.06
595.472	266.06
595.681	245.06
595.89	245.06
596.1	235.06
596.309	248.06
596.518	245.06
596.727	262.06
596.937	226.06
597.146	230.06
597.355	229.06
597.564	226.06
597.774	231.06
597.983	228.06
598.192	242.06
598.401	217.06
598.61	225.06
598.819	213.06
599.028	214.06
599.237	220.06
599.446	228.06
599.655	230.06
599.864	219.06
600.073	216.06
600.282	207.06
600.491	229.06
600.7	212.06
600.909	220.06
601.118	219.06
601.327	211.06
601.536	200.06
601.745	217.06
601.953	225.06
602.162	214.06
602.371	225.06
602.58	207.06
602.789	215.06
602.997	208.06
603.206	227.06
603.415	216.06
603.623	212.06
603.832	216.06
604.041	219.06
604.249	214.06
604.458	195.06
604.666	227.06
604.875	230.06
605.084	221.06
605.292	190.06
605.501	202.06
605.709	212.06
605.918	218.06
606.126	226.06
606.334	199.06
606.543	196.06
606.751	211.06
606.96	193.06
607.168	207.06
607.376	190.06
607.585	198.06
607.793	201.06
608.001	203.06
608.21	204.06
608.418	206.06
608.626	216.06
608.834	214.06
609.043	211.06
609.251	214.06
609.459	213.06
609.667	216.06
609.875	201.06
610.083	222.06
610.291	212.06
610.499	194.06
610.707	195.06
610.916	213.06
611.124	202.06
611.332	221.06
611.54	207.06
611.748	218.06
611.955	213.06
612.163	202.06
612.371	197.06
612.579	192.06
612.787	210.06
612.995	222.06
613.203	222.06
613.411	217.06
613.618	199.06
613.826	192.06
614.034	197.06
614.242	191.06
614.449	194.06
614.657	211.06
614.865	194.06
615.072	206.06
615.28	217.06
615.488	207.06
615.695	202.06
615.903	195.06
616.111	223.06
616.318	215.06
616.526	211.06
616.733	202.06
616.941	193.06
617.148	197.06
617.356	195.06
617.563	187.06
617.771	189.06
617.978	187.06
618.185	194.06
618.393	194.06
618.6	207.06
618.807	197.06
619.015	188.06
619.222	192.06
619.429	194.06
619.637	182.06
619.844	189.06
620.051	197.06
620.258	200.06
620.466	188.06
620.673	182.06
620.88	191.06
621.087	196.06
621.294	192.06
621.501	188.06
621.708	190.06
621.915	188.06
622.122	178.06
622.329	188.06
622.536	188.06
622.743	190.06
622.95	181.06
623.157	191.06
623.364	184.06
623.571	194.06
623.778	177.06
623.985	189.06
624.192	155.06
624.399	183.06
624.606	202.06
624.812	182.06
625.019	177.06
625.226	173.06
625.433	161.06
625.639	181.06
625.846	171.06
626.053	174.06
626.259	179.06
626.466	185.06
626.673	179.06
626.879	173.06
627.086	161.06
627.293	183.06
627.499	189.06
627.706	171.06
627.912	172.06
628.119	171.06
628.325	174.06
628.532	161.06
628.738	188.06
628.945	163.06
629.151	152.06
629.357	174.06
629.564	169.06
629.77	177.06
629.976	165.06
630.183	154.06
630.389	162.06
630.595	160.06
630.802	164.06
631.008	156.06
631.214	163.06
631.42	181.06
631.627	172.06
631.833	174.06
632.039	171.06
632.245	174.06
632.451	161.06
632.657	174.06
632.863	181.06
633.069	174.06
633.275	174.06
633.481	153.06
633.688	151.06
633.893	161.06
634.099	168.06
634.305	158.06
634.511	170.06
634.717	169.06
634.923	157.06
635.129	152.06
635.335	157.06
635.541	166.06
635.747	172.06
635.952	152.06
636.158	156.06
636.364	147.06
636.57	169.06
636.775	153.06
636.981	163.06
637.187	146.06
637.392	162.06
637.598	162.06
637.804	169.06
638.009	156.06
638.215	150.06
638.421	142.06
638.626	162.06
638.832	156.06
639.037	152.06
639.243	164.06
639.448	165.06
639.654	147.06
639.859	155.06
640.065	167.06
640.27	161.06
640.475	148.06
640.681	156.06
640.886	169.06
641.091	142.06
641.297	148.06
641.502	147.06
641.707	152.06
641.913	159.06
642.118	143.06
642.323	139.06
642.528	167.06
642.733	153.06
642.939	154.06
643.144	162.06
643.349	141.06
643.554	137.06
643.759	158.06
643.964	163.06
644.169	147.06
644.374	137.06
644.579	146.06
644.784	155.06
644.989	152.06
645.194	144.06
645.399	138.06
645.604	130.06
645.809	160.06
646.014	144.06
646.219	130.06
646.423	142.06
646.628	139.06
646.833	147.06
647.038	151.06
647.243	146.06
647.447	147.06
647.652	157.06
647.857	143.06
648.062	163.06
648.266	158.06
648.471	155.06
648.676	168.06
648.88	157.06
649.085	149.06
649.289	146.06
649.494	155.06
649.698	169.06
649.903	180.06
650.107	141.06
650.312	131.06
650.516	140.06
650.721	143.06
650.925	154.06
651.13	142.06
651.334	139.06
651.539	125.06
651.743	138.06
651.947	138.06
652.152	133.06
652.356	133.06
652.56	130.06
652.764	125.06
652.969	121.06
653.173	122.06
653.377	139.06
653.581	133.06
653.785	137.06
653.99	133.06
654.194	131.06
654.398	130.06
654.602	129.06
654.806	113.06
655.01	155.06
655.214	138.06
655.418	133.06
655.622	140.06
655.826	155.06
656.03	135.06
656.234	137.06
656.438	129.06
656.642	125.06
656.846	139.06
657.049	136.06
657.253	137.06
657.457	125.06
657.661	133.06
657.865	129.06
658.068	127.06
658.272	116.06
658.476	108.06
658.68	100.06
658.883	103.06
659.087	107.06
659.291	116.06
659.494	114.06
659.698	100.06
659.901	102.06
660.105	102.06
660.309	92.06
660.512	94.06
660.716	82.06
660.919	99.06
661.123	86.06
661.326	84.06
661.53	91.06
661.733	93.06
661.936	99.06
662.14	95.06
662.343	104.06
662.546	78.06
662.75	86.06
662.953	78.06
663.156	81.06
663.36	86.06
663.563	76.06
663.766	80.06
663.969	92.06
664.173	70.06
664.376	78.06
664.579	81.06
664.782	78.06
664.985	81.06
665.188	86.06
665.391	80.06
665.594	71.06
665.797	79.06
666	81.06
666.203	77.06
666.406	81.06
666.609	66.06
666.812	87.06
667.015	89.06
667.218	99.06
667.421	92.06
667.624	71.06
667.827	80.06
668.03	79.06
668.232	83.06
668.435	75.06
668.638	84.06
668.841	75.06
669.043	82.06
669.246	83.06
669.449	83.06
669.651	83.06
669.854	90.06
670.057	96.06
670.259	100.06
670.462	75.06
670.665	90.06
670.867	77.06
671.07	105.06
671.272	81.06
671.475	76.06
671.677	83.06
671.88	72.06
672.082	72.06
672.284	87.06
672.487	76.06
672.689	82.06
672.892	83.06
