Data from 1964.PennyLincolnUp.Lamp.En5.5.200Scan.071719.P1._HRD10591_14-04-18-910.txt Node
Date: Thu Jul 18 14:04:18 EDT 2019
User: cochatt
Spectrometer: HR+D1059
Trigger mode: 1
Integration Time (sec): 1.000000E-1
Scans to average: 1
Electric dark correction enabled: true
Nonlinearity correction enabled: false
Boxcar width: 0
XAxis mode: Wavelengths
Number of Pixels in Spectrum: 2048
>>>>>Begin Spectral Data<<<<<
223.165	-9.12
223.4	-9.12
223.635	-9.12
223.869	-9.12
224.104	-15.12
224.338	-10.12
224.573	-23.12
224.808	-16.12
225.042	-16.12
225.277	-6.12
225.511	4.88
225.746	-3.12
225.98	15.88
226.215	27.88
226.449	7.88
226.683	11.88
226.918	10.88
227.152	28.88
227.387	23.88
227.621	51.88
227.856	28.88
228.09	54.88
228.324	41.88
228.559	56.88
228.793	60.88
229.027	91.88
229.262	76.88
229.496	96.88
229.73	113.88
229.964	114.88
230.199	109.88
230.433	98.88
230.667	105.88
230.901	92.88
231.136	91.88
231.37	113.88
231.604	119.88
231.838	115.88
232.072	107.88
232.306	115.88
232.541	129.88
232.775	104.88
233.009	102.88
233.243	111.88
233.477	98.88
233.711	109.88
233.945	123.88
234.179	121.88
234.413	114.88
234.647	116.88
234.881	117.88
235.115	120.88
235.349	117.88
235.583	107.88
235.817	125.88
236.051	126.88
236.285	120.88
236.519	111.88
236.753	115.88
236.987	130.88
237.221	139.88
237.455	179.88
237.689	152.88
237.922	123.88
238.156	134.88
238.39	127.88
238.624	123.88
238.858	96.88
239.091	109.88
239.325	121.88
239.559	131.88
239.793	111.88
240.027	118.88
240.26	138.88
240.494	117.88
240.728	132.88
240.961	131.88
241.195	124.88
241.429	123.88
241.662	123.88
241.896	127.88
242.13	123.88
242.363	113.88
242.597	124.88
242.83	139.88
243.064	137.88
243.298	124.88
243.531	141.88
243.765	136.88
243.998	153.88
244.232	136.88
244.465	139.88
244.699	144.88
244.932	133.88
245.166	132.88
245.399	160.88
245.633	133.88
245.866	165.88
246.099	132.88
246.333	156.88
246.566	142.88
246.8	147.88
247.033	151.88
247.266	154.88
247.5	152.88
247.733	153.88
247.966	164.88
248.2	152.88
248.433	161.88
248.666	167.88
248.899	177.88
249.133	179.88
249.366	197.88
249.599	180.88
249.832	171.88
250.066	169.88
250.299	174.88
250.532	184.88
250.765	191.88
250.998	216.88
251.231	202.88
251.465	182.88
251.698	197.88
251.931	179.88
252.164	191.88
252.397	195.88
252.63	201.88
252.863	195.88
253.096	203.88
253.329	210.88
253.562	202.88
253.795	205.88
254.028	185.88
254.261	213.88
254.494	207.88
254.727	223.88
254.96	225.88
255.193	243.88
255.426	227.88
255.659	231.88
255.892	242.88
256.124	217.88
256.357	220.88
256.59	215.88
256.823	227.88
257.056	215.88
257.289	199.88
257.521	215.88
257.754	203.88
257.987	197.88
258.22	210.88
258.452	186.88
258.685	198.88
258.918	204.88
259.151	212.88
259.383	213.88
259.616	204.88
259.849	216.88
260.081	213.88
260.314	231.88
260.547	236.88
260.779	231.88
261.012	230.88
261.244	210.88
261.477	213.88
261.71	213.88
261.942	221.88
262.175	218.88
262.407	219.88
262.64	208.88
262.872	205.88
263.105	208.88
263.337	213.88
263.57	201.88
263.802	215.88
264.035	215.88
264.267	204.88
264.499	210.88
264.732	205.88
264.964	207.88
265.197	233.88
265.429	224.88
265.661	216.88
265.894	207.88
266.126	216.88
266.358	221.88
266.591	228.88
266.823	216.88
267.055	224.88
267.287	226.88
267.52	244.88
267.752	229.88
267.984	244.88
268.216	226.88
268.448	244.88
268.681	254.88
268.913	223.88
269.145	233.88
269.377	258.88
269.609	267.88
269.841	253.88
270.073	241.88
270.306	273.88
270.538	283.88
270.77	303.88
271.002	279.88
271.234	277.88
271.466	284.88
271.698	297.88
271.93	311.88
272.162	317.88
272.394	296.88
272.626	288.88
272.858	275.88
273.09	265.88
273.322	291.88
273.553	262.88
273.785	265.88
274.017	273.88
274.249	242.88
274.481	280.88
274.713	278.88
274.945	275.88
275.176	254.88
275.408	272.88
275.64	273.88
275.872	269.88
276.104	269.88
276.335	283.88
276.567	283.88
276.799	269.88
277.031	306.88
277.262	295.88
277.494	305.88
277.726	318.88
277.957	308.88
278.189	283.88
278.421	279.88
278.652	282.88
278.884	293.88
279.115	280.88
279.347	264.88
279.579	280.88
279.81	267.88
280.042	259.88
280.273	270.88
280.505	287.88
280.736	276.88
280.968	286.88
281.199	291.88
281.431	294.88
281.662	296.88
281.894	283.88
282.125	273.88
282.356	284.88
282.588	291.88
282.819	311.88
283.051	305.88
283.282	282.88
283.513	274.88
283.745	288.88
283.976	283.88
284.207	299.88
284.439	307.88
284.67	302.88
284.901	298.88
285.132	295.88
285.364	292.88
285.595	289.88
285.826	294.88
286.057	286.88
286.288	288.88
286.52	301.88
286.751	293.88
286.982	293.88
287.213	307.88
287.444	282.88
287.675	304.88
287.906	321.88
288.138	320.88
288.369	325.88
288.6	325.88
288.831	307.88
289.062	317.88
289.293	319.88
289.524	292.88
289.755	306.88
289.986	299.88
290.217	305.88
290.448	307.88
290.679	303.88
290.91	312.88
291.141	283.88
291.371	311.88
291.602	315.88
291.833	316.88
292.064	311.88
292.295	315.88
292.526	312.88
292.757	305.88
292.987	315.88
293.218	303.88
293.449	298.88
293.68	323.88
293.91	299.88
294.141	300.88
294.372	305.88
294.603	311.88
294.833	309.88
295.064	322.88
295.295	322.88
295.525	325.88
295.756	315.88
295.987	332.88
296.217	343.88
296.448	324.88
296.679	329.88
296.909	303.88
297.14	305.88
297.37	334.88
297.601	322.88
297.831	332.88
298.062	327.88
298.292	349.88
298.523	331.88
298.753	336.88
298.984	338.88
299.214	326.88
299.445	332.88
299.675	313.88
299.905	331.88
300.136	322.88
300.366	344.88
300.597	341.88
300.827	360.88
301.057	329.88
301.288	335.88
301.518	338.88
301.748	343.88
301.979	339.88
302.209	319.88
302.439	356.88
302.669	359.88
302.9	339.88
303.13	351.88
303.36	335.88
303.59	356.88
303.82	357.88
304.051	353.88
304.281	364.88
304.511	336.88
304.741	332.88
304.971	347.88
305.201	341.88
305.431	342.88
305.661	356.88
305.891	349.88
306.121	349.88
306.352	332.88
306.582	334.88
306.812	350.88
307.042	353.88
307.272	339.88
307.502	351.88
307.731	361.88
307.961	340.88
308.191	343.88
308.421	363.88
308.651	371.88
308.881	367.88
309.111	336.88
309.341	358.88
309.571	368.88
309.8	378.88
310.03	375.88
310.26	379.88
310.49	378.88
310.72	378.88
310.949	379.88
311.179	412.88
311.409	385.88
311.639	393.88
311.868	363.88
312.098	391.88
312.328	370.88
312.557	376.88
312.787	405.88
313.017	397.88
313.246	400.88
313.476	389.88
313.706	391.88
313.935	395.88
314.165	398.88
314.394	393.88
314.624	415.88
314.853	394.88
315.083	383.88
315.312	384.88
315.542	382.88
315.771	388.88
316.001	377.88
316.23	383.88
316.46	380.88
316.689	410.88
316.919	378.88
317.148	398.88
317.377	393.88
317.607	395.88
317.836	376.88
318.065	392.88
318.295	383.88
318.524	373.88
318.753	401.88
318.983	373.88
319.212	388.88
319.441	396.88
319.67	389.88
319.9	394.88
320.129	399.88
320.358	397.88
320.587	401.88
320.816	389.88
321.046	408.88
321.275	398.88
321.504	385.88
321.733	377.88
321.962	407.88
322.191	419.88
322.42	427.88
322.649	419.88
322.878	435.88
323.108	438.88
323.337	441.88
323.566	441.88
323.795	482.88
324.024	493.88
324.253	566.88
324.482	753.88
324.71	1079.88
324.939	1434.88
325.168	1223.88
325.397	716.88
325.626	534.88
325.855	465.88
326.084	437.88
326.313	453.88
326.542	446.88
326.77	491.88
326.999	522.88
327.228	704.88
327.457	961.88
327.686	1119.88
327.914	759.88
328.143	581.88
328.372	529.88
328.6	507.88
328.829	482.88
329.058	484.88
329.287	482.88
329.515	455.88
329.744	469.88
329.972	464.88
330.201	490.88
330.43	512.88
330.658	504.88
330.887	521.88
331.115	488.88
331.344	479.88
331.572	458.88
331.801	472.88
332.03	476.88
332.258	449.88
332.486	462.88
332.715	469.88
332.943	462.88
333.172	472.88
333.4	497.88
333.629	462.88
333.857	532.88
334.085	483.88
334.314	525.88
334.542	531.88
334.771	530.88
334.999	498.88
335.227	490.88
335.455	480.88
335.684	462.88
335.912	472.88
336.14	444.88
336.369	464.88
336.597	443.88
336.825	451.88
337.053	454.88
337.281	453.88
337.51	446.88
337.738	458.88
337.966	444.88
338.194	443.88
338.422	448.88
338.65	443.88
338.878	432.88
339.106	424.88
339.334	458.88
339.562	442.88
339.79	432.88
340.018	466.88
340.246	452.88
340.474	423.88
340.702	443.88
340.93	454.88
341.158	440.88
341.386	437.88
341.614	433.88
341.842	426.88
342.07	436.88
342.298	431.88
342.526	416.88
342.754	414.88
342.981	413.88
343.209	429.88
343.437	455.88
343.665	429.88
343.893	435.88
344.12	465.88
344.348	435.88
344.576	451.88
344.804	457.88
345.031	430.88
345.259	430.88
345.487	426.88
345.714	418.88
345.942	433.88
346.17	429.88
346.397	412.88
346.625	392.88
346.853	398.88
347.08	414.88
347.308	418.88
347.535	416.88
347.763	411.88
347.99	412.88
348.218	436.88
348.445	415.88
348.673	409.88
348.9	410.88
349.128	400.88
349.355	385.88
349.583	402.88
349.81	421.88
350.037	382.88
350.265	408.88
350.492	406.88
350.72	380.88
350.947	412.88
351.174	404.88
351.402	406.88
351.629	399.88
351.856	402.88
352.083	404.88
352.311	412.88
352.538	386.88
352.765	403.88
352.992	409.88
353.22	388.88
353.447	390.88
353.674	393.88
353.901	377.88
354.128	387.88
354.355	385.88
354.583	380.88
354.81	364.88
355.037	372.88
355.264	387.88
355.491	396.88
355.718	403.88
355.945	387.88
356.172	380.88
356.399	375.88
356.626	380.88
356.853	403.88
357.08	389.88
357.307	377.88
357.534	386.88
357.761	368.88
357.988	383.88
358.215	379.88
358.441	373.88
358.668	394.88
358.895	407.88
359.122	397.88
359.349	386.88
359.576	400.88
359.802	397.88
360.029	424.88
360.256	419.88
360.483	407.88
360.709	362.88
360.936	389.88
361.163	388.88
361.39	398.88
361.616	381.88
361.843	382.88
362.07	388.88
362.296	395.88
362.523	380.88
362.749	384.88
362.976	391.88
363.203	384.88
363.429	384.88
363.656	383.88
363.882	384.88
364.109	392.88
364.335	402.88
364.562	378.88
364.788	365.88
365.015	373.88
365.241	391.88
365.468	375.88
365.694	394.88
365.92	398.88
366.147	375.88
366.373	376.88
366.599	363.88
366.826	373.88
367.052	384.88
367.278	385.88
367.505	386.88
367.731	379.88
367.957	377.88
368.184	384.88
368.41	374.88
368.636	385.88
368.862	372.88
369.089	383.88
369.315	390.88
369.541	380.88
369.767	375.88
369.993	397.88
370.219	374.88
370.445	371.88
370.672	394.88
370.898	379.88
371.124	401.88
371.35	398.88
371.576	400.88
371.802	394.88
372.028	369.88
372.254	393.88
372.48	389.88
372.706	384.88
372.932	371.88
373.158	377.88
373.384	395.88
373.61	411.88
373.835	407.88
374.061	382.88
374.287	375.88
374.513	386.88
374.739	396.88
374.965	371.88
375.191	381.88
375.416	395.88
375.642	380.88
375.868	385.88
376.094	380.88
376.319	399.88
376.545	379.88
376.771	383.88
376.997	375.88
377.222	375.88
377.448	396.88
377.674	375.88
377.899	372.88
378.125	388.88
378.35	376.88
378.576	376.88
378.802	369.88
379.027	359.88
379.253	373.88
379.478	375.88
379.704	389.88
379.929	381.88
380.155	383.88
380.38	379.88
380.606	375.88
380.831	380.88
381.057	376.88
381.282	389.88
381.507	387.88
381.733	375.88
381.958	373.88
382.184	371.88
382.409	398.88
382.634	386.88
382.86	390.88
383.085	377.88
383.31	393.88
383.535	410.88
383.761	407.88
383.986	407.88
384.211	391.88
384.436	408.88
384.662	401.88
384.887	418.88
385.112	410.88
385.337	438.88
385.562	412.88
385.787	411.88
386.013	440.88
386.238	413.88
386.463	409.88
386.688	424.88
386.913	411.88
387.138	397.88
387.363	413.88
387.588	429.88
387.813	415.88
388.038	412.88
388.263	402.88
388.488	419.88
388.713	408.88
388.938	423.88
389.163	408.88
389.387	413.88
389.612	386.88
389.837	391.88
390.062	397.88
390.287	435.88
390.512	418.88
390.736	412.88
390.961	401.88
391.186	415.88
391.411	410.88
391.636	444.88
391.86	410.88
392.085	410.88
392.31	421.88
392.534	435.88
392.759	427.88
392.984	434.88
393.208	406.88
393.433	421.88
393.658	411.88
393.882	399.88
394.107	420.88
394.331	438.88
394.556	427.88
394.78	413.88
395.005	421.88
395.229	401.88
395.454	424.88
395.678	443.88
395.903	418.88
396.127	435.88
396.352	435.88
396.576	417.88
396.801	432.88
397.025	444.88
397.249	432.88
397.474	428.88
397.698	439.88
397.922	435.88
398.147	466.88
398.371	463.88
398.595	472.88
398.82	465.88
399.044	469.88
399.268	515.88
399.492	518.88
399.717	565.88
399.941	594.88
400.165	588.88
400.389	564.88
400.613	529.88
400.837	505.88
401.062	485.88
401.286	467.88
401.51	486.88
401.734	465.88
401.958	487.88
402.182	469.88
402.406	481.88
402.63	469.88
402.854	476.88
403.078	479.88
403.302	471.88
403.526	495.88
403.75	484.88
403.974	486.88
404.198	468.88
404.422	473.88
404.645	500.88
404.869	489.88
405.093	516.88
405.317	543.88
405.541	567.88
405.765	529.88
405.988	516.88
406.212	501.88
406.436	514.88
406.66	516.88
406.883	501.88
407.107	549.88
407.331	556.88
407.555	621.88
407.778	608.88
408.002	561.88
408.226	536.88
408.449	540.88
408.673	517.88
408.896	549.88
409.12	556.88
409.344	532.88
409.567	484.88
409.791	485.88
410.014	490.88
410.238	478.88
410.461	479.88
410.685	476.88
410.908	476.88
411.132	515.88
411.355	545.88
411.578	520.88
411.802	465.88
412.025	471.88
412.249	461.88
412.472	489.88
412.695	534.88
412.919	508.88
413.142	483.88
413.365	483.88
413.589	457.88
413.812	458.88
414.035	445.88
414.258	475.88
414.482	439.88
414.705	460.88
414.928	450.88
415.151	445.88
415.374	432.88
415.597	461.88
415.821	445.88
416.044	457.88
416.267	455.88
416.49	456.88
416.713	460.88
416.936	454.88
417.159	441.88
417.382	419.88
417.605	442.88
417.828	436.88
418.051	468.88
418.274	442.88
418.497	463.88
418.72	449.88
418.943	436.88
419.166	455.88
419.389	475.88
419.611	464.88
419.834	486.88
420.057	480.88
420.28	451.88
420.503	477.88
420.726	456.88
420.948	487.88
421.171	498.88
421.394	522.88
421.617	474.88
421.839	445.88
422.062	437.88
422.285	462.88
422.507	505.88
422.73	550.88
422.953	515.88
423.175	488.88
423.398	481.88
423.621	481.88
423.843	484.88
424.066	492.88
424.288	471.88
424.511	485.88
424.733	513.88
424.956	585.88
425.178	564.88
425.401	530.88
425.623	562.88
425.846	505.88
426.068	483.88
426.291	469.88
426.513	469.88
426.735	469.88
426.958	512.88
427.18	545.88
427.402	658.88
427.625	682.88
427.847	590.88
428.069	541.88
428.292	500.88
428.514	458.88
428.736	466.88
428.958	463.88
429.181	443.88
429.403	440.88
429.625	424.88
429.847	475.88
430.069	505.88
430.292	491.88
430.514	439.88
430.736	436.88
430.958	445.88
431.18	409.88
431.402	403.88
431.624	407.88
431.846	395.88
432.068	418.88
432.29	420.88
432.512	416.88
432.734	433.88
432.956	417.88
433.178	428.88
433.4	428.88
433.622	416.88
433.844	425.88
434.066	420.88
434.287	433.88
434.509	432.88
434.731	438.88
434.953	441.88
435.175	470.88
435.397	469.88
435.618	474.88
435.84	485.88
436.062	545.88
436.284	599.88
436.505	513.88
436.727	479.88
436.949	445.88
437.17	441.88
437.392	429.88
437.614	453.88
437.835	462.88
438.057	538.88
438.278	567.88
438.5	585.88
438.721	635.88
438.943	603.88
439.165	505.88
439.386	476.88
439.608	456.88
439.829	455.88
440.05	468.88
440.272	494.88
440.493	477.88
440.715	431.88
440.936	444.88
441.158	441.88
441.379	435.88
441.6	451.88
441.822	454.88
442.043	470.88
442.264	541.88
442.486	580.88
442.707	521.88
442.928	473.88
443.149	467.88
443.371	503.88
443.592	513.88
443.813	602.88
444.034	620.88
444.255	557.88
444.476	479.88
444.698	476.88
444.919	497.88
445.14	599.88
445.361	553.88
445.582	509.88
445.803	519.88
446.024	612.88
446.245	607.88
446.466	548.88
446.687	469.88
446.908	467.88
447.129	434.88
447.35	443.88
447.571	429.88
447.792	404.88
448.013	442.88
448.234	442.88
448.455	444.88
448.675	536.88
448.896	610.88
449.117	539.88
449.338	526.88
449.559	596.88
449.779	657.88
450	531.88
450.221	472.88
450.442	408.88
450.662	413.88
450.883	410.88
451.104	418.88
451.324	408.88
451.545	399.88
451.766	379.88
451.986	385.88
452.207	369.88
452.428	378.88
452.648	393.88
452.869	387.88
453.089	403.88
453.31	390.88
453.53	394.88
453.751	379.88
453.971	380.88
454.192	393.88
454.412	392.88
454.633	374.88
454.853	379.88
455.073	374.88
455.294	394.88
455.514	433.88
455.734	428.88
455.955	373.88
456.175	389.88
456.395	359.88
456.616	373.88
456.836	385.88
457.056	367.88
457.276	356.88
457.497	389.88
457.717	377.88
457.937	387.88
458.157	414.88
458.377	387.88
458.598	397.88
458.818	437.88
459.038	453.88
459.258	466.88
459.478	407.88
459.698	403.88
459.918	413.88
460.138	408.88
460.358	423.88
460.578	428.88
460.798	435.88
461.018	424.88
461.238	428.88
461.458	425.88
461.678	414.88
461.898	444.88
462.118	450.88
462.338	460.88
462.558	453.88
462.777	455.88
462.997	462.88
463.217	506.88
463.437	493.88
463.657	468.88
463.876	473.88
464.096	478.88
464.316	482.88
464.536	472.88
464.755	458.88
464.975	468.88
465.195	490.88
465.414	488.88
465.634	439.88
465.854	433.88
466.073	397.88
466.293	409.88
466.512	416.88
466.732	393.88
466.951	399.88
467.171	379.88
467.391	400.88
467.61	412.88
467.829	415.88
468.049	392.88
468.268	403.88
468.488	392.88
468.707	386.88
468.927	379.88
469.146	378.88
469.365	384.88
469.585	364.88
469.804	385.88
470.023	393.88
470.243	394.88
470.462	393.88
470.681	411.88
470.901	416.88
471.12	402.88
471.339	403.88
471.558	420.88
471.777	401.88
471.997	389.88
472.216	420.88
472.435	409.88
472.654	418.88
472.873	401.88
473.092	395.88
473.311	403.88
473.53	378.88
473.749	404.88
473.968	443.88
474.187	502.88
474.406	507.88
474.625	423.88
474.844	409.88
475.063	397.88
475.282	402.88
475.501	393.88
475.72	408.88
475.939	408.88
476.158	410.88
476.377	388.88
476.596	383.88
476.814	425.88
477.033	409.88
477.252	423.88
477.471	431.88
477.69	419.88
477.908	431.88
478.127	437.88
478.346	442.88
478.564	461.88
478.783	465.88
479.002	474.88
479.22	459.88
479.439	476.88
479.658	464.88
479.876	474.88
480.095	492.88
480.313	528.88
480.532	493.88
480.751	503.88
480.969	492.88
481.188	505.88
481.406	531.88
481.624	465.88
481.843	487.88
482.061	460.88
482.28	457.88
482.498	454.88
482.717	449.88
482.935	465.88
483.153	446.88
483.372	462.88
483.59	457.88
483.808	477.88
484.027	467.88
484.245	466.88
484.463	436.88
484.681	471.88
484.9	462.88
485.118	483.88
485.336	470.88
485.554	485.88
485.772	487.88
485.99	469.88
486.209	458.88
486.427	469.88
486.645	463.88
486.863	472.88
487.081	485.88
487.299	487.88
487.517	473.88
487.735	473.88
487.953	472.88
488.171	461.88
488.389	467.88
488.607	480.88
488.825	506.88
489.043	483.88
489.261	486.88
489.479	499.88
489.696	473.88
489.914	476.88
490.132	496.88
490.35	516.88
490.568	504.88
490.786	515.88
491.003	518.88
491.221	513.88
491.439	525.88
491.657	530.88
491.874	548.88
492.092	555.88
492.31	570.88
492.527	551.88
492.745	546.88
492.963	542.88
493.18	549.88
493.398	557.88
493.615	542.88
493.833	546.88
494.05	560.88
494.268	552.88
494.485	536.88
494.703	564.88
494.92	564.88
495.138	540.88
495.355	550.88
495.573	572.88
495.79	567.88
496.008	581.88
496.225	547.88
496.442	550.88
496.66	561.88
496.877	571.88
497.094	571.88
497.312	586.88
497.529	568.88
497.746	619.88
497.963	592.88
498.181	614.88
498.398	630.88
498.615	663.88
498.832	652.88
499.049	673.88
499.267	700.88
499.484	712.88
499.701	757.88
499.918	797.88
500.135	832.88
500.352	879.88
500.569	891.88
500.786	874.88
501.003	866.88
501.22	859.88
501.437	804.88
501.654	778.88
501.871	736.88
502.088	740.88
502.305	692.88
502.522	677.88
502.739	664.88
502.956	623.88
503.172	612.88
503.389	608.88
503.606	610.88
503.823	589.88
504.04	596.88
504.256	584.88
504.473	573.88
504.69	586.88
504.907	568.88
505.123	548.88
505.34	545.88
505.557	542.88
505.773	534.88
505.99	537.88
506.207	524.88
506.423	535.88
506.64	515.88
506.856	514.88
507.073	534.88
507.289	502.88
507.506	499.88
507.722	512.88
507.939	509.88
508.155	509.88
508.372	495.88
508.588	485.88
508.805	500.88
509.021	482.88
509.238	499.88
509.454	517.88
509.67	522.88
509.887	497.88
510.103	501.88
510.319	488.88
510.536	533.88
510.752	723.88
510.968	632.88
511.184	476.88
511.401	479.88
511.617	476.88
511.833	467.88
512.049	458.88
512.265	463.88
512.481	490.88
512.698	484.88
512.914	473.88
513.13	472.88
513.346	466.88
513.562	462.88
513.778	475.88
513.994	459.88
514.21	466.88
514.426	466.88
514.642	488.88
514.858	505.88
515.074	528.88
515.29	573.88
515.506	730.88
515.721	643.88
515.937	512.88
516.153	483.88
516.369	491.88
516.585	475.88
516.801	493.88
517.016	501.88
517.232	499.88
517.448	505.88
517.664	508.88
517.879	500.88
518.095	544.88
518.311	517.88
518.527	516.88
518.742	500.88
518.958	490.88
519.173	493.88
519.389	459.88
519.605	469.88
519.82	461.88
520.036	466.88
520.251	480.88
520.467	482.88
520.682	493.88
520.898	484.88
521.113	486.88
521.329	521.88
521.544	511.88
521.76	636.88
521.975	887.88
522.19	815.88
522.406	550.88
522.621	481.88
522.836	457.88
523.052	439.88
523.267	424.88
523.482	445.88
523.698	409.88
523.913	413.88
524.128	436.88
524.343	420.88
524.559	423.88
524.774	419.88
524.989	391.88
525.204	398.88
525.419	439.88
525.634	407.88
525.849	404.88
526.064	406.88
526.28	409.88
526.495	419.88
526.71	396.88
526.925	421.88
527.14	389.88
527.355	407.88
527.57	387.88
527.785	394.88
527.999	383.88
528.214	404.88
528.429	371.88
528.644	383.88
528.859	408.88
529.074	400.88
529.289	397.88
529.503	427.88
529.718	441.88
529.933	401.88
530.148	389.88
530.363	395.88
530.577	395.88
530.792	382.88
531.007	385.88
531.221	389.88
531.436	385.88
531.651	383.88
531.865	397.88
532.08	386.88
532.295	394.88
532.509	388.88
532.724	364.88
532.938	396.88
533.153	383.88
533.367	369.88
533.582	379.88
533.796	383.88
534.011	371.88
534.225	381.88
534.44	387.88
534.654	380.88
534.868	373.88
535.083	376.88
535.297	371.88
535.511	391.88
535.726	385.88
535.94	369.88
536.154	373.88
536.369	378.88
536.583	368.88
536.797	379.88
537.011	383.88
537.225	362.88
537.44	364.88
537.654	379.88
537.868	377.88
538.082	369.88
538.296	355.88
538.51	371.88
538.724	368.88
538.938	359.88
539.153	376.88
539.367	376.88
539.581	370.88
539.795	368.88
540.009	358.88
540.222	374.88
540.436	355.88
540.65	383.88
540.864	367.88
541.078	370.88
541.292	381.88
541.506	369.88
541.72	362.88
541.934	352.88
542.147	352.88
542.361	364.88
542.575	342.88
542.789	354.88
543.002	380.88
543.216	357.88
543.43	379.88
543.644	373.88
543.857	353.88
544.071	371.88
544.285	380.88
544.498	366.88
544.712	356.88
544.925	349.88
545.139	363.88
545.352	368.88
545.566	367.88
545.779	375.88
545.993	364.88
546.206	370.88
546.42	360.88
546.633	369.88
546.847	362.88
547.06	351.88
547.274	370.88
547.487	343.88
547.7	358.88
547.914	371.88
548.127	351.88
548.34	365.88
548.554	356.88
548.767	351.88
548.98	356.88
549.193	356.88
549.407	375.88
549.62	367.88
549.833	358.88
550.046	343.88
550.259	338.88
550.473	356.88
550.686	340.88
550.899	368.88
551.112	322.88
551.325	346.88
551.538	329.88
551.751	343.88
551.964	354.88
552.177	354.88
552.39	341.88
552.603	356.88
552.816	364.88
553.029	359.88
553.242	381.88
553.455	376.88
553.667	361.88
553.88	369.88
554.093	387.88
554.306	362.88
554.519	359.88
554.732	356.88
554.944	345.88
555.157	342.88
555.37	354.88
555.583	338.88
555.795	337.88
556.008	334.88
556.221	321.88
556.433	327.88
556.646	340.88
556.859	328.88
557.071	314.88
557.284	321.88
557.496	344.88
557.709	327.88
557.921	331.88
558.134	322.88
558.346	311.88
558.559	309.88
558.771	304.88
558.984	309.88
559.196	326.88
559.409	325.88
559.621	312.88
559.833	304.88
560.046	320.88
560.258	331.88
560.47	308.88
560.683	313.88
560.895	321.88
561.107	316.88
561.32	323.88
561.532	295.88
561.744	314.88
561.956	331.88
562.168	315.88
562.381	323.88
562.593	312.88
562.805	328.88
563.017	306.88
563.229	312.88
563.441	314.88
563.653	316.88
563.865	306.88
564.077	309.88
564.289	343.88
564.501	320.88
564.713	315.88
564.925	340.88
565.137	345.88
565.349	340.88
565.561	327.88
565.773	340.88
565.985	365.88
566.197	375.88
566.408	387.88
566.62	397.88
566.832	393.88
567.044	408.88
567.255	418.88
567.467	427.88
567.679	408.88
567.891	445.88
568.102	421.88
568.314	417.88
568.526	403.88
568.737	400.88
568.949	368.88
569.161	361.88
569.372	337.88
569.584	321.88
569.795	346.88
570.007	336.88
570.218	357.88
570.43	372.88
570.641	324.88
570.853	295.88
571.064	321.88
571.276	330.88
571.487	311.88
571.698	320.88
571.91	310.88
572.121	296.88
572.333	323.88
572.544	287.88
572.755	288.88
572.966	311.88
573.178	309.88
573.389	297.88
573.6	280.88
573.811	290.88
574.023	279.88
574.234	293.88
574.445	263.88
574.656	295.88
574.867	288.88
575.078	276.88
575.289	269.88
575.501	274.88
575.712	265.88
575.923	293.88
576.134	278.88
576.345	282.88
576.556	289.88
576.767	262.88
576.978	271.88
577.188	270.88
577.399	254.88
577.61	261.88
577.821	257.88
578.032	243.88
578.243	292.88
578.454	351.88
578.665	287.88
578.875	251.88
579.086	254.88
579.297	255.88
579.508	258.88
579.718	258.88
579.929	268.88
580.14	252.88
580.35	260.88
580.561	247.88
580.772	260.88
580.982	255.88
581.193	237.88
581.403	242.88
581.614	245.88
581.825	265.88
582.035	271.88
582.246	248.88
582.456	244.88
582.667	243.88
582.877	251.88
583.087	227.88
583.298	258.88
583.508	242.88
583.719	241.88
583.929	270.88
584.139	243.88
584.35	246.88
584.56	261.88
584.77	247.88
584.981	243.88
585.191	252.88
585.401	235.88
585.611	260.88
585.821	245.88
586.032	240.88
586.242	240.88
586.452	242.88
586.662	263.88
586.872	229.88
587.082	247.88
587.292	243.88
587.502	235.88
587.713	259.88
587.923	255.88
588.133	233.88
588.343	240.88
588.553	244.88
588.762	238.88
588.972	242.88
589.182	270.88
589.392	251.88
589.602	227.88
589.812	252.88
590.022	263.88
590.232	236.88
590.441	244.88
590.651	236.88
590.861	229.88
591.071	237.88
591.281	245.88
591.49	243.88
591.7	249.88
591.91	253.88
592.119	267.88
592.329	263.88
592.539	261.88
592.748	267.88
592.958	275.88
593.167	263.88
593.377	264.88
593.587	281.88
593.796	281.88
594.006	270.88
594.215	264.88
594.424	260.88
594.634	260.88
594.843	257.88
595.053	271.88
595.262	259.88
595.472	245.88
595.681	255.88
595.89	230.88
596.1	242.88
596.309	243.88
596.518	243.88
596.727	221.88
596.937	231.88
597.146	212.88
597.355	218.88
597.564	221.88
597.774	229.88
597.983	210.88
598.192	223.88
598.401	214.88
598.61	219.88
598.819	215.88
599.028	223.88
599.237	215.88
599.446	219.88
599.655	218.88
599.864	220.88
600.073	220.88
600.282	205.88
600.491	232.88
600.7	201.88
600.909	224.88
601.118	210.88
601.327	228.88
601.536	193.88
601.745	221.88
601.953	208.88
602.162	203.88
602.371	210.88
602.58	218.88
602.789	207.88
602.997	186.88
603.206	205.88
603.415	201.88
603.623	197.88
603.832	204.88
604.041	225.88
604.249	214.88
604.458	185.88
604.666	201.88
604.875	194.88
605.084	207.88
605.292	208.88
605.501	211.88
605.709	214.88
605.918	223.88
606.126	198.88
606.334	188.88
606.543	202.88
606.751	215.88
606.96	210.88
607.168	209.88
607.376	181.88
607.585	189.88
607.793	187.88
608.001	201.88
608.21	211.88
608.418	194.88
608.626	196.88
608.834	200.88
609.043	195.88
609.251	198.88
609.459	209.88
609.667	200.88
609.875	197.88
610.083	201.88
610.291	193.88
610.499	194.88
610.707	205.88
610.916	211.88
611.124	212.88
611.332	209.88
611.54	193.88
611.748	205.88
611.955	203.88
612.163	202.88
612.371	205.88
612.579	184.88
612.787	208.88
612.995	193.88
613.203	195.88
613.411	204.88
613.618	193.88
613.826	198.88
614.034	202.88
614.242	201.88
614.449	192.88
614.657	201.88
614.865	207.88
615.072	183.88
615.28	193.88
615.488	187.88
615.695	179.88
615.903	186.88
616.111	185.88
616.318	213.88
616.526	201.88
616.733	211.88
616.941	197.88
617.148	202.88
617.356	188.88
617.563	182.88
617.771	181.88
617.978	184.88
618.185	184.88
618.393	189.88
618.6	187.88
618.807	203.88
619.015	198.88
619.222	195.88
619.429	182.88
619.637	182.88
619.844	203.88
620.051	187.88
620.258	202.88
620.466	187.88
620.673	189.88
620.88	178.88
621.087	193.88
621.294	185.88
621.501	185.88
621.708	180.88
621.915	178.88
622.122	184.88
622.329	181.88
622.536	184.88
622.743	172.88
622.95	182.88
623.157	177.88
623.364	186.88
623.571	185.88
623.778	190.88
623.985	182.88
624.192	180.88
624.399	171.88
624.606	185.88
624.812	178.88
625.019	176.88
625.226	172.88
625.433	179.88
625.639	177.88
625.846	195.88
626.053	167.88
626.259	171.88
626.466	191.88
626.673	170.88
626.879	178.88
627.086	165.88
627.293	167.88
627.499	171.88
627.706	177.88
627.912	159.88
628.119	154.88
628.325	171.88
628.532	156.88
628.738	186.88
628.945	159.88
629.151	173.88
629.357	164.88
629.564	155.88
629.77	173.88
629.976	185.88
630.183	167.88
630.389	169.88
630.595	152.88
630.802	166.88
631.008	158.88
631.214	181.88
631.42	179.88
631.627	176.88
631.833	162.88
632.039	164.88
632.245	158.88
632.451	160.88
632.657	177.88
632.863	145.88
633.069	156.88
633.275	159.88
633.481	165.88
633.688	162.88
633.893	160.88
634.099	156.88
634.305	157.88
634.511	163.88
634.717	161.88
634.923	156.88
635.129	145.88
635.335	146.88
635.541	148.88
635.747	155.88
635.952	154.88
636.158	159.88
636.364	148.88
636.57	146.88
636.775	148.88
636.981	149.88
637.187	145.88
637.392	146.88
637.598	163.88
637.804	155.88
638.009	160.88
638.215	157.88
638.421	145.88
638.626	151.88
638.832	147.88
639.037	139.88
639.243	145.88
639.448	157.88
639.654	153.88
639.859	155.88
640.065	146.88
640.27	160.88
640.475	149.88
640.681	147.88
640.886	151.88
641.091	156.88
641.297	145.88
641.502	152.88
641.707	154.88
641.913	158.88
642.118	144.88
642.323	144.88
642.528	163.88
642.733	149.88
642.939	145.88
643.144	141.88
643.349	146.88
643.554	147.88
643.759	135.88
643.964	147.88
644.169	126.88
644.374	128.88
644.579	148.88
644.784	145.88
644.989	149.88
645.194	138.88
645.399	142.88
645.604	132.88
645.809	133.88
646.014	147.88
646.219	149.88
646.423	142.88
646.628	148.88
646.833	159.88
647.038	132.88
647.243	157.88
647.447	158.88
647.652	145.88
647.857	160.88
648.062	140.88
648.266	148.88
648.471	132.88
648.676	151.88
648.88	127.88
649.085	144.88
649.289	143.88
649.494	159.88
649.698	152.88
649.903	151.88
650.107	163.88
650.312	152.88
650.516	149.88
650.721	135.88
650.925	135.88
651.13	139.88
651.334	124.88
651.539	131.88
651.743	132.88
651.947	140.88
652.152	129.88
652.356	131.88
652.56	130.88
652.764	130.88
652.969	137.88
653.173	121.88
653.377	127.88
653.581	132.88
653.785	127.88
653.99	128.88
654.194	141.88
654.398	125.88
654.602	124.88
654.806	118.88
655.01	117.88
655.214	122.88
655.418	121.88
655.622	114.88
655.826	107.88
656.03	131.88
656.234	113.88
656.438	133.88
656.642	130.88
656.846	124.88
657.049	106.88
657.253	119.88
657.457	123.88
657.661	127.88
657.865	108.88
658.068	107.88
658.272	101.88
658.476	108.88
658.68	101.88
658.883	98.88
659.087	95.88
659.291	89.88
659.494	96.88
659.698	99.88
659.901	97.88
660.105	95.88
660.309	99.88
660.512	88.88
660.716	83.88
660.919	85.88
661.123	89.88
661.326	87.88
661.53	88.88
661.733	83.88
661.936	80.88
662.14	88.88
662.343	91.88
662.546	69.88
662.75	70.88
662.953	83.88
663.156	79.88
663.36	73.88
663.563	87.88
663.766	80.88
663.969	104.88
664.173	70.88
664.376	83.88
664.579	82.88
664.782	90.88
664.985	80.88
665.188	90.88
665.391	88.88
665.594	85.88
665.797	77.88
666	82.88
666.203	90.88
666.406	77.88
666.609	66.88
666.812	101.88
667.015	83.88
667.218	91.88
667.421	82.88
667.624	72.88
667.827	72.88
668.03	83.88
668.232	87.88
668.435	83.88
668.638	83.88
668.841	76.88
669.043	76.88
669.246	89.88
669.449	87.88
669.651	82.88
669.854	77.88
670.057	87.88
670.259	82.88
670.462	71.88
670.665	91.88
670.867	76.88
671.07	82.88
671.272	78.88
671.475	93.88
671.677	81.88
671.88	81.88
672.082	83.88
672.284	90.88
672.487	84.88
672.689	81.88
672.892	81.88
