Data from 1964.PennyLincolnUp.Lamp.En5.5.200Scan.071719.P1._HRD10591_14-04-42-908.txt Node
Date: Thu Jul 18 14:04:42 EDT 2019
User: cochatt
Spectrometer: HR+D1059
Trigger mode: 1
Integration Time (sec): 1.000000E-1
Scans to average: 1
Electric dark correction enabled: true
Nonlinearity correction enabled: false
Boxcar width: 0
XAxis mode: Wavelengths
Number of Pixels in Spectrum: 2048
>>>>>Begin Spectral Data<<<<<
223.165	-19.25
223.4	-19.25
223.635	-19.25
223.869	-22.25
224.104	-19.25
224.338	-20.25
224.573	-19.25
224.808	-8.25
225.042	-8.25
225.277	-11.25
225.511	-15.25
225.746	2.75
225.98	8.75
226.215	17.75
226.449	7.75
226.683	29.75
226.918	29.75
227.152	46.75
227.387	44.75
227.621	23.75
227.856	50.75
228.09	58.75
228.324	44.75
228.559	62.75
228.793	58.75
229.027	70.75
229.262	95.75
229.496	104.75
229.73	111.75
229.964	125.75
230.199	103.75
230.433	104.75
230.667	98.75
230.901	111.75
231.136	96.75
231.37	107.75
231.604	115.75
231.838	99.75
232.072	108.75
232.306	105.75
232.541	117.75
232.775	110.75
233.009	108.75
233.243	110.75
233.477	122.75
233.711	120.75
233.945	119.75
234.179	108.75
234.413	98.75
234.647	109.75
234.881	102.75
235.115	110.75
235.349	118.75
235.583	104.75
235.817	109.75
236.051	99.75
236.285	120.75
236.519	118.75
236.753	118.75
236.987	126.75
237.221	167.75
237.455	188.75
237.689	146.75
237.922	121.75
238.156	129.75
238.39	122.75
238.624	123.75
238.858	122.75
239.091	134.75
239.325	119.75
239.559	124.75
239.793	126.75
240.027	137.75
240.26	140.75
240.494	142.75
240.728	138.75
240.961	143.75
241.195	130.75
241.429	121.75
241.662	120.75
241.896	134.75
242.13	127.75
242.363	116.75
242.597	134.75
242.83	142.75
243.064	133.75
243.298	138.75
243.531	128.75
243.765	157.75
243.998	139.75
244.232	136.75
244.465	148.75
244.699	134.75
244.932	140.75
245.166	139.75
245.399	145.75
245.633	144.75
245.866	150.75
246.099	158.75
246.333	160.75
246.566	143.75
246.8	146.75
247.033	148.75
247.266	145.75
247.5	171.75
247.733	159.75
247.966	160.75
248.2	166.75
248.433	172.75
248.666	173.75
248.899	187.75
249.133	188.75
249.366	187.75
249.599	193.75
249.832	178.75
250.066	170.75
250.299	183.75
250.532	172.75
250.765	176.75
250.998	207.75
251.231	213.75
251.465	206.75
251.698	191.75
251.931	201.75
252.164	183.75
252.397	191.75
252.63	183.75
252.863	187.75
253.096	191.75
253.329	199.75
253.562	222.75
253.795	213.75
254.028	207.75
254.261	203.75
254.494	204.75
254.727	238.75
254.96	259.75
255.193	236.75
255.426	226.75
255.659	230.75
255.892	223.75
256.124	227.75
256.357	229.75
256.59	218.75
256.823	205.75
257.056	230.75
257.289	215.75
257.521	207.75
257.754	200.75
257.987	207.75
258.22	206.75
258.452	219.75
258.685	221.75
258.918	202.75
259.151	211.75
259.383	206.75
259.616	210.75
259.849	219.75
260.081	216.75
260.314	237.75
260.547	240.75
260.779	237.75
261.012	215.75
261.244	205.75
261.477	222.75
261.71	219.75
261.942	217.75
262.175	222.75
262.407	220.75
262.64	219.75
262.872	214.75
263.105	226.75
263.337	195.75
263.57	205.75
263.802	213.75
264.035	198.75
264.267	223.75
264.499	216.75
264.732	222.75
264.964	220.75
265.197	212.75
265.429	218.75
265.661	221.75
265.894	223.75
266.126	228.75
266.358	216.75
266.591	236.75
266.823	214.75
267.055	234.75
267.287	255.75
267.52	246.75
267.752	228.75
267.984	235.75
268.216	231.75
268.448	234.75
268.681	242.75
268.913	260.75
269.145	266.75
269.377	284.75
269.609	263.75
269.841	274.75
270.073	276.75
270.306	270.75
270.538	280.75
270.77	314.75
271.002	310.75
271.234	290.75
271.466	285.75
271.698	293.75
271.93	315.75
272.162	284.75
272.394	310.75
272.626	287.75
272.858	281.75
273.09	280.75
273.322	273.75
273.553	262.75
273.785	277.75
274.017	267.75
274.249	267.75
274.481	266.75
274.713	267.75
274.945	252.75
275.176	267.75
275.408	268.75
275.64	275.75
275.872	268.75
276.104	274.75
276.335	283.75
276.567	278.75
276.799	276.75
277.031	302.75
277.262	281.75
277.494	301.75
277.726	322.75
277.957	302.75
278.189	301.75
278.421	286.75
278.652	290.75
278.884	290.75
279.115	281.75
279.347	278.75
279.579	265.75
279.81	281.75
280.042	292.75
280.273	288.75
280.505	284.75
280.736	286.75
280.968	281.75
281.199	295.75
281.431	288.75
281.662	269.75
281.894	296.75
282.125	311.75
282.356	309.75
282.588	305.75
282.819	295.75
283.051	279.75
283.282	287.75
283.513	275.75
283.745	292.75
283.976	272.75
284.207	297.75
284.439	290.75
284.67	280.75
284.901	298.75
285.132	292.75
285.364	311.75
285.595	311.75
285.826	288.75
286.057	300.75
286.288	303.75
286.52	305.75
286.751	308.75
286.982	309.75
287.213	280.75
287.444	295.75
287.675	308.75
287.906	314.75
288.138	313.75
288.369	318.75
288.6	315.75
288.831	308.75
289.062	315.75
289.293	310.75
289.524	303.75
289.755	314.75
289.986	297.75
290.217	306.75
290.448	309.75
290.679	314.75
290.91	320.75
291.141	308.75
291.371	319.75
291.602	313.75
291.833	307.75
292.064	320.75
292.295	310.75
292.526	293.75
292.757	323.75
292.987	313.75
293.218	316.75
293.449	333.75
293.68	332.75
293.91	310.75
294.141	291.75
294.372	307.75
294.603	297.75
294.833	330.75
295.064	313.75
295.295	303.75
295.525	312.75
295.756	312.75
295.987	330.75
296.217	336.75
296.448	346.75
296.679	321.75
296.909	323.75
297.14	316.75
297.37	330.75
297.601	334.75
297.831	313.75
298.062	338.75
298.292	334.75
298.523	330.75
298.753	315.75
298.984	318.75
299.214	333.75
299.445	327.75
299.675	342.75
299.905	342.75
300.136	334.75
300.366	344.75
300.597	336.75
300.827	316.75
301.057	346.75
301.288	345.75
301.518	339.75
301.748	351.75
301.979	328.75
302.209	360.75
302.439	359.75
302.669	365.75
302.9	340.75
303.13	349.75
303.36	336.75
303.59	372.75
303.82	350.75
304.051	347.75
304.281	339.75
304.511	361.75
304.741	341.75
304.971	354.75
305.201	356.75
305.431	358.75
305.661	361.75
305.891	350.75
306.121	359.75
306.352	354.75
306.582	346.75
306.812	355.75
307.042	338.75
307.272	338.75
307.502	350.75
307.731	362.75
307.961	358.75
308.191	361.75
308.421	355.75
308.651	352.75
308.881	349.75
309.111	362.75
309.341	362.75
309.571	375.75
309.8	354.75
310.03	386.75
310.26	367.75
310.49	378.75
310.72	374.75
310.949	396.75
311.179	395.75
311.409	372.75
311.639	378.75
311.868	391.75
312.098	388.75
312.328	398.75
312.557	399.75
312.787	399.75
313.017	389.75
313.246	385.75
313.476	367.75
313.706	382.75
313.935	388.75
314.165	408.75
314.394	399.75
314.624	425.75
314.853	380.75
315.083	406.75
315.312	403.75
315.542	393.75
315.771	406.75
316.001	379.75
316.23	407.75
316.46	407.75
316.689	384.75
316.919	378.75
317.148	406.75
317.377	377.75
317.607	416.75
317.836	397.75
318.065	402.75
318.295	414.75
318.524	391.75
318.753	406.75
318.983	384.75
319.212	410.75
319.441	410.75
319.67	393.75
319.9	394.75
320.129	400.75
320.358	402.75
320.587	413.75
320.816	400.75
321.046	408.75
321.275	409.75
321.504	394.75
321.733	396.75
321.962	391.75
322.191	413.75
322.42	412.75
322.649	444.75
322.878	438.75
323.108	436.75
323.337	443.75
323.566	450.75
323.795	470.75
324.024	492.75
324.253	582.75
324.482	760.75
324.71	1092.75
324.939	1447.75
325.168	1218.75
325.397	694.75
325.626	520.75
325.855	472.75
326.084	482.75
326.313	448.75
326.542	474.75
326.77	490.75
326.999	567.75
327.228	719.75
327.457	961.75
327.686	1108.75
327.914	769.75
328.143	574.75
328.372	528.75
328.6	511.75
328.829	490.75
329.058	518.75
329.287	523.75
329.515	490.75
329.744	487.75
329.972	479.75
330.201	487.75
330.43	506.75
330.658	535.75
330.887	518.75
331.115	509.75
331.344	470.75
331.572	470.75
331.801	470.75
332.03	472.75
332.258	448.75
332.486	463.75
332.715	466.75
332.943	470.75
333.172	482.75
333.4	468.75
333.629	478.75
333.857	496.75
334.085	488.75
334.314	534.75
334.542	540.75
334.771	528.75
334.999	506.75
335.227	481.75
335.455	458.75
335.684	497.75
335.912	467.75
336.14	436.75
336.369	436.75
336.597	451.75
336.825	480.75
337.053	451.75
337.281	445.75
337.51	432.75
337.738	451.75
337.966	453.75
338.194	453.75
338.422	460.75
338.65	447.75
338.878	436.75
339.106	440.75
339.334	457.75
339.562	452.75
339.79	427.75
340.018	436.75
340.246	428.75
340.474	454.75
340.702	435.75
340.93	431.75
341.158	434.75
341.386	431.75
341.614	444.75
341.842	428.75
342.07	420.75
342.298	431.75
342.526	421.75
342.754	406.75
342.981	429.75
343.209	415.75
343.437	426.75
343.665	433.75
343.893	446.75
344.12	472.75
344.348	445.75
344.576	447.75
344.804	446.75
345.031	455.75
345.259	446.75
345.487	436.75
345.714	418.75
345.942	418.75
346.17	415.75
346.397	426.75
346.625	431.75
346.853	414.75
347.08	404.75
347.308	433.75
347.535	414.75
347.763	418.75
347.99	408.75
348.218	424.75
348.445	421.75
348.673	423.75
348.9	404.75
349.128	400.75
349.355	407.75
349.583	389.75
349.81	378.75
350.037	404.75
350.265	419.75
350.492	416.75
350.72	402.75
350.947	415.75
351.174	405.75
351.402	406.75
351.629	393.75
351.856	402.75
352.083	402.75
352.311	412.75
352.538	406.75
352.765	410.75
352.992	401.75
353.22	396.75
353.447	386.75
353.674	411.75
353.901	400.75
354.128	392.75
354.355	385.75
354.583	387.75
354.81	390.75
355.037	384.75
355.264	385.75
355.491	387.75
355.718	374.75
355.945	380.75
356.172	384.75
356.399	376.75
356.626	386.75
356.853	383.75
357.08	397.75
357.307	378.75
357.534	394.75
357.761	388.75
357.988	383.75
358.215	388.75
358.441	384.75
358.668	392.75
358.895	375.75
359.122	396.75
359.349	402.75
359.576	415.75
359.802	419.75
360.029	417.75
360.256	411.75
360.483	424.75
360.709	400.75
360.936	424.75
361.163	381.75
361.39	415.75
361.616	379.75
361.843	390.75
362.07	406.75
362.296	394.75
362.523	399.75
362.749	402.75
362.976	402.75
363.203	364.75
363.429	378.75
363.656	393.75
363.882	380.75
364.109	410.75
364.335	385.75
364.562	400.75
364.788	377.75
365.015	379.75
365.241	377.75
365.468	377.75
365.694	391.75
365.92	394.75
366.147	384.75
366.373	398.75
366.599	375.75
366.826	395.75
367.052	379.75
367.278	375.75
367.505	384.75
367.731	351.75
367.957	369.75
368.184	377.75
368.41	389.75
368.636	396.75
368.862	395.75
369.089	380.75
369.315	376.75
369.541	384.75
369.767	393.75
369.993	373.75
370.219	388.75
370.445	382.75
370.672	380.75
370.898	379.75
371.124	395.75
371.35	393.75
371.576	376.75
371.802	383.75
372.028	385.75
372.254	389.75
372.48	384.75
372.706	380.75
372.932	378.75
373.158	398.75
373.384	380.75
373.61	398.75
373.835	368.75
374.061	390.75
374.287	402.75
374.513	382.75
374.739	378.75
374.965	385.75
375.191	396.75
375.416	390.75
375.642	400.75
375.868	382.75
376.094	371.75
376.319	361.75
376.545	382.75
376.771	382.75
376.997	370.75
377.222	384.75
377.448	390.75
377.674	374.75
377.899	396.75
378.125	392.75
378.35	376.75
378.576	367.75
378.802	376.75
379.027	380.75
379.253	370.75
379.478	362.75
379.704	380.75
379.929	380.75
380.155	380.75
380.38	381.75
380.606	396.75
380.831	372.75
381.057	396.75
381.282	370.75
381.507	383.75
381.733	390.75
381.958	384.75
382.184	395.75
382.409	398.75
382.634	390.75
382.86	383.75
383.085	387.75
383.31	378.75
383.535	379.75
383.761	394.75
383.986	414.75
384.211	422.75
384.436	398.75
384.662	405.75
384.887	418.75
385.112	407.75
385.337	430.75
385.562	409.75
385.787	422.75
386.013	410.75
386.238	409.75
386.463	425.75
386.688	427.75
386.913	406.75
387.138	415.75
387.363	412.75
387.588	425.75
387.813	415.75
388.038	428.75
388.263	395.75
388.488	435.75
388.713	401.75
388.938	423.75
389.163	419.75
389.387	408.75
389.612	408.75
389.837	411.75
390.062	410.75
390.287	398.75
390.512	407.75
390.736	416.75
390.961	414.75
391.186	402.75
391.411	436.75
391.636	426.75
391.86	428.75
392.085	423.75
392.31	437.75
392.534	429.75
392.759	446.75
392.984	430.75
393.208	429.75
393.433	406.75
393.658	421.75
393.882	421.75
394.107	438.75
394.331	425.75
394.556	430.75
394.78	448.75
395.005	416.75
395.229	424.75
395.454	450.75
395.678	435.75
395.903	455.75
396.127	467.75
396.352	431.75
396.576	433.75
396.801	425.75
397.025	431.75
397.249	439.75
397.474	446.75
397.698	458.75
397.922	444.75
398.147	458.75
398.371	458.75
398.595	462.75
398.82	460.75
399.044	474.75
399.268	482.75
399.492	564.75
399.717	583.75
399.941	598.75
400.165	587.75
400.389	586.75
400.613	513.75
400.837	502.75
401.062	491.75
401.286	471.75
401.51	464.75
401.734	473.75
401.958	483.75
402.182	475.75
402.406	493.75
402.63	480.75
402.854	490.75
403.078	481.75
403.302	478.75
403.526	488.75
403.75	499.75
403.974	487.75
404.198	489.75
404.422	495.75
404.645	492.75
404.869	486.75
405.093	530.75
405.317	544.75
405.541	574.75
405.765	516.75
405.988	504.75
406.212	493.75
406.436	509.75
406.66	496.75
406.883	512.75
407.107	540.75
407.331	568.75
407.555	616.75
407.778	617.75
408.002	564.75
408.226	520.75
408.449	542.75
408.673	542.75
408.896	537.75
409.12	566.75
409.344	524.75
409.567	500.75
409.791	486.75
410.014	467.75
410.238	474.75
410.461	490.75
410.685	499.75
410.908	492.75
411.132	508.75
411.355	542.75
411.578	495.75
411.802	486.75
412.025	459.75
412.249	487.75
412.472	510.75
412.695	526.75
412.919	513.75
413.142	475.75
413.365	486.75
413.589	479.75
413.812	455.75
414.035	452.75
414.258	460.75
414.482	467.75
414.705	451.75
414.928	449.75
415.151	449.75
415.374	436.75
415.597	446.75
415.821	447.75
416.044	467.75
416.267	443.75
416.49	440.75
416.713	436.75
416.936	446.75
417.159	468.75
417.382	431.75
417.605	450.75
417.828	462.75
418.051	462.75
418.274	460.75
418.497	454.75
418.72	456.75
418.943	440.75
419.166	463.75
419.389	485.75
419.611	479.75
419.834	473.75
420.057	480.75
420.28	461.75
420.503	450.75
420.726	469.75
420.948	470.75
421.171	505.75
421.394	536.75
421.617	466.75
421.839	452.75
422.062	474.75
422.285	475.75
422.507	503.75
422.73	558.75
422.953	547.75
423.175	470.75
423.398	476.75
423.621	475.75
423.843	495.75
424.066	498.75
424.288	488.75
424.511	510.75
424.733	534.75
424.956	574.75
425.178	573.75
425.401	569.75
425.623	587.75
425.846	500.75
426.068	468.75
426.291	473.75
426.513	479.75
426.735	482.75
426.958	501.75
427.18	576.75
427.402	656.75
427.625	668.75
427.847	606.75
428.069	540.75
428.292	484.75
428.514	468.75
428.736	461.75
428.958	452.75
429.181	452.75
429.403	442.75
429.625	452.75
429.847	462.75
430.069	514.75
430.292	506.75
430.514	459.75
430.736	436.75
430.958	415.75
431.18	426.75
431.402	430.75
431.624	406.75
431.846	432.75
432.068	428.75
432.29	420.75
432.512	432.75
432.734	432.75
432.956	431.75
433.178	426.75
433.4	445.75
433.622	434.75
433.844	404.75
434.066	418.75
434.287	436.75
434.509	446.75
434.731	444.75
434.953	442.75
435.175	442.75
435.397	486.75
435.618	472.75
435.84	500.75
436.062	548.75
436.284	620.75
436.505	509.75
436.727	460.75
436.949	450.75
437.17	436.75
437.392	426.75
437.614	452.75
437.835	480.75
438.057	521.75
438.278	589.75
438.5	598.75
438.721	660.75
438.943	616.75
439.165	495.75
439.386	475.75
439.608	463.75
439.829	474.75
440.05	489.75
440.272	488.75
440.493	460.75
440.715	461.75
440.936	432.75
441.158	436.75
441.379	457.75
441.6	459.75
441.822	459.75
442.043	498.75
442.264	550.75
442.486	603.75
442.707	512.75
442.928	477.75
443.149	505.75
443.371	491.75
443.592	540.75
443.813	605.75
444.034	634.75
444.255	519.75
444.476	504.75
444.698	504.75
444.919	506.75
445.14	611.75
445.361	544.75
445.582	523.75
445.803	539.75
446.024	580.75
446.245	591.75
446.466	538.75
446.687	502.75
446.908	461.75
447.129	444.75
447.35	426.75
447.571	407.75
447.792	403.75
448.013	407.75
448.234	449.75
448.455	491.75
448.675	563.75
448.896	636.75
449.117	546.75
449.338	516.75
449.559	602.75
449.779	640.75
450	541.75
450.221	461.75
450.442	436.75
450.662	415.75
450.883	403.75
451.104	411.75
451.324	388.75
451.545	396.75
451.766	381.75
451.986	369.75
452.207	394.75
452.428	381.75
452.648	381.75
452.869	382.75
453.089	393.75
453.31	407.75
453.53	404.75
453.751	380.75
453.971	381.75
454.192	381.75
454.412	379.75
454.633	365.75
454.853	399.75
455.073	388.75
455.294	396.75
455.514	445.75
455.734	449.75
455.955	389.75
456.175	376.75
456.395	368.75
456.616	370.75
456.836	374.75
457.056	371.75
457.276	362.75
457.497	372.75
457.717	375.75
457.937	373.75
458.157	373.75
458.377	362.75
458.598	398.75
458.818	426.75
459.038	472.75
459.258	502.75
459.478	435.75
459.698	436.75
459.918	428.75
460.138	431.75
460.358	434.75
460.578	424.75
460.798	431.75
461.018	450.75
461.238	449.75
461.458	436.75
461.678	435.75
461.898	454.75
462.118	449.75
462.338	449.75
462.558	438.75
462.777	450.75
462.997	482.75
463.217	488.75
463.437	489.75
463.657	474.75
463.876	466.75
464.096	456.75
464.316	440.75
464.536	500.75
464.755	492.75
464.975	457.75
465.195	464.75
465.414	493.75
465.634	460.75
465.854	448.75
466.073	411.75
466.293	392.75
466.512	412.75
466.732	406.75
466.951	374.75
467.171	406.75
467.391	400.75
467.61	399.75
467.829	404.75
468.049	403.75
468.268	413.75
468.488	392.75
468.707	375.75
468.927	364.75
469.146	380.75
469.365	382.75
469.585	377.75
469.804	390.75
470.023	389.75
470.243	375.75
470.462	399.75
470.681	403.75
470.901	406.75
471.12	404.75
471.339	416.75
471.558	399.75
471.777	410.75
471.997	406.75
472.216	387.75
472.435	430.75
472.654	420.75
472.873	398.75
473.092	395.75
473.311	423.75
473.53	411.75
473.749	401.75
473.968	419.75
474.187	491.75
474.406	502.75
474.625	446.75
474.844	435.75
475.063	385.75
475.282	387.75
475.501	404.75
475.72	430.75
475.939	410.75
476.158	439.75
476.377	416.75
476.596	416.75
476.814	415.75
477.033	412.75
477.252	420.75
477.471	424.75
477.69	410.75
477.908	430.75
478.127	438.75
478.346	474.75
478.564	437.75
478.783	439.75
479.002	487.75
479.22	467.75
479.439	469.75
479.658	476.75
479.876	463.75
480.095	482.75
480.313	488.75
480.532	503.75
480.751	512.75
480.969	492.75
481.188	540.75
481.406	540.75
481.624	483.75
481.843	490.75
482.061	466.75
482.28	472.75
482.498	449.75
482.717	456.75
482.935	463.75
483.153	447.75
483.372	479.75
483.59	478.75
483.808	449.75
484.027	454.75
484.245	462.75
484.463	461.75
484.681	471.75
484.9	484.75
485.118	455.75
485.336	455.75
485.554	474.75
485.772	474.75
485.99	488.75
486.209	473.75
486.427	466.75
486.645	482.75
486.863	485.75
487.081	487.75
487.299	490.75
487.517	480.75
487.735	469.75
487.953	484.75
488.171	500.75
488.389	488.75
488.607	473.75
488.825	474.75
489.043	489.75
489.261	478.75
489.479	476.75
489.696	493.75
489.914	505.75
490.132	509.75
490.35	518.75
490.568	498.75
490.786	502.75
491.003	524.75
491.221	531.75
491.439	546.75
491.657	541.75
491.874	549.75
492.092	543.75
492.31	550.75
492.527	536.75
492.745	550.75
492.963	519.75
493.18	557.75
493.398	543.75
493.615	569.75
493.833	564.75
494.05	558.75
494.268	545.75
494.485	552.75
494.703	587.75
494.92	575.75
495.138	587.75
495.355	576.75
495.573	558.75
495.79	570.75
496.008	586.75
496.225	556.75
496.442	576.75
496.66	567.75
496.877	581.75
497.094	596.75
497.312	563.75
497.529	588.75
497.746	628.75
497.963	622.75
498.181	648.75
498.398	635.75
498.615	656.75
498.832	633.75
499.049	694.75
499.267	708.75
499.484	719.75
499.701	780.75
499.918	805.75
500.135	855.75
500.352	884.75
500.569	888.75
500.786	874.75
501.003	873.75
501.22	840.75
501.437	800.75
501.654	766.75
501.871	738.75
502.088	742.75
502.305	691.75
502.522	660.75
502.739	656.75
502.956	618.75
503.172	622.75
503.389	627.75
503.606	596.75
503.823	594.75
504.04	581.75
504.256	580.75
504.473	590.75
504.69	608.75
504.907	595.75
505.123	600.75
505.34	543.75
505.557	580.75
505.773	561.75
505.99	553.75
506.207	574.75
506.423	543.75
506.64	535.75
506.856	501.75
507.073	541.75
507.289	532.75
507.506	516.75
507.722	536.75
507.939	521.75
508.155	515.75
508.372	494.75
508.588	510.75
508.805	519.75
509.021	514.75
509.238	499.75
509.454	519.75
509.67	505.75
509.887	502.75
510.103	503.75
510.319	485.75
510.536	544.75
510.752	708.75
510.968	603.75
511.184	488.75
511.401	489.75
511.617	474.75
511.833	478.75
512.049	491.75
512.265	501.75
512.481	468.75
512.698	437.75
512.914	478.75
513.13	467.75
513.346	472.75
513.562	485.75
513.778	459.75
513.994	470.75
514.21	476.75
514.426	498.75
514.642	508.75
514.858	517.75
515.074	542.75
515.29	581.75
515.506	733.75
515.721	655.75
515.937	512.75
516.153	520.75
516.369	486.75
516.585	505.75
516.801	495.75
517.016	486.75
517.232	499.75
517.448	507.75
517.664	500.75
517.879	516.75
518.095	507.75
518.311	514.75
518.527	506.75
518.742	507.75
518.958	478.75
519.173	487.75
519.389	482.75
519.605	476.75
519.82	492.75
520.036	488.75
520.251	486.75
520.467	494.75
520.682	467.75
520.898	495.75
521.113	524.75
521.329	534.75
521.544	542.75
521.76	623.75
521.975	865.75
522.19	822.75
522.406	547.75
522.621	506.75
522.836	462.75
523.052	455.75
523.267	450.75
523.482	434.75
523.698	431.75
523.913	422.75
524.128	419.75
524.343	428.75
524.559	419.75
524.774	424.75
524.989	403.75
525.204	408.75
525.419	427.75
525.634	415.75
525.849	415.75
526.064	411.75
526.28	400.75
526.495	397.75
526.71	387.75
526.925	394.75
527.14	409.75
527.355	395.75
527.57	388.75
527.785	409.75
527.999	406.75
528.214	395.75
528.429	386.75
528.644	393.75
528.859	402.75
529.074	416.75
529.289	411.75
529.503	429.75
529.718	455.75
529.933	405.75
530.148	390.75
530.363	412.75
530.577	400.75
530.792	399.75
531.007	397.75
531.221	406.75
531.436	381.75
531.651	383.75
531.865	411.75
532.08	382.75
532.295	398.75
532.509	392.75
532.724	389.75
532.938	390.75
533.153	377.75
533.367	380.75
533.582	378.75
533.796	381.75
534.011	396.75
534.225	394.75
534.44	369.75
534.654	384.75
534.868	386.75
535.083	381.75
535.297	388.75
535.511	382.75
535.726	388.75
535.94	388.75
536.154	393.75
536.369	375.75
536.583	366.75
536.797	378.75
537.011	384.75
537.225	364.75
537.44	384.75
537.654	371.75
537.868	373.75
538.082	390.75
538.296	377.75
538.51	390.75
538.724	393.75
538.938	372.75
539.153	418.75
539.367	400.75
539.581	360.75
539.795	365.75
540.009	358.75
540.222	359.75
540.436	386.75
540.65	364.75
540.864	360.75
541.078	377.75
541.292	382.75
541.506	368.75
541.72	381.75
541.934	364.75
542.147	380.75
542.361	389.75
542.575	371.75
542.789	370.75
543.002	369.75
543.216	375.75
543.43	365.75
543.644	372.75
543.857	374.75
544.071	370.75
544.285	390.75
544.498	372.75
544.712	366.75
544.925	382.75
545.139	370.75
545.352	377.75
545.566	353.75
545.779	354.75
545.993	373.75
546.206	390.75
546.42	367.75
546.633	360.75
546.847	351.75
547.06	359.75
547.274	370.75
547.487	360.75
547.7	372.75
547.914	353.75
548.127	370.75
548.34	372.75
548.554	357.75
548.767	357.75
548.98	338.75
549.193	359.75
549.407	358.75
549.62	371.75
549.833	381.75
550.046	356.75
550.259	354.75
550.473	362.75
550.686	356.75
550.899	374.75
551.112	338.75
551.325	348.75
551.538	355.75
551.751	358.75
551.964	348.75
552.177	347.75
552.39	357.75
552.603	395.75
552.816	367.75
553.029	358.75
553.242	360.75
553.455	376.75
553.667	374.75
553.88	382.75
554.093	392.75
554.306	381.75
554.519	360.75
554.732	358.75
554.944	355.75
555.157	351.75
555.37	338.75
555.583	332.75
555.795	335.75
556.008	330.75
556.221	337.75
556.433	342.75
556.646	345.75
556.859	339.75
557.071	327.75
557.284	335.75
557.496	324.75
557.709	332.75
557.921	320.75
558.134	338.75
558.346	337.75
558.559	331.75
558.771	325.75
558.984	318.75
559.196	314.75
559.409	314.75
559.621	317.75
559.833	317.75
560.046	296.75
560.258	314.75
560.47	304.75
560.683	317.75
560.895	316.75
561.107	323.75
561.32	313.75
561.532	303.75
561.744	307.75
561.956	333.75
562.168	328.75
562.381	317.75
562.593	310.75
562.805	329.75
563.017	306.75
563.229	315.75
563.441	343.75
563.653	309.75
563.865	317.75
564.077	336.75
564.289	326.75
564.501	334.75
564.713	335.75
564.925	344.75
565.137	357.75
565.349	348.75
565.561	342.75
565.773	350.75
565.985	350.75
566.197	366.75
566.408	373.75
566.62	396.75
566.832	413.75
567.044	418.75
567.255	423.75
567.467	418.75
567.679	416.75
567.891	426.75
568.102	431.75
568.314	431.75
568.526	406.75
568.737	401.75
568.949	391.75
569.161	374.75
569.372	376.75
569.584	334.75
569.795	340.75
570.007	352.75
570.218	360.75
570.43	350.75
570.641	329.75
570.853	341.75
571.064	331.75
571.276	326.75
571.487	303.75
571.698	304.75
571.91	316.75
572.121	281.75
572.333	278.75
572.544	278.75
572.755	277.75
572.966	276.75
573.178	294.75
573.389	288.75
573.6	296.75
573.811	277.75
574.023	268.75
574.234	294.75
574.445	281.75
574.656	276.75
574.867	301.75
575.078	272.75
575.289	288.75
575.501	272.75
575.712	247.75
575.923	267.75
576.134	275.75
576.345	269.75
576.556	285.75
576.767	275.75
576.978	291.75
577.188	279.75
577.399	283.75
577.61	264.75
577.821	292.75
578.032	271.75
578.243	295.75
578.454	364.75
578.665	301.75
578.875	285.75
579.086	265.75
579.297	269.75
579.508	265.75
579.718	269.75
579.929	248.75
580.14	250.75
580.35	261.75
580.561	273.75
580.772	254.75
580.982	258.75
581.193	256.75
581.403	246.75
581.614	259.75
581.825	246.75
582.035	262.75
582.246	258.75
582.456	255.75
582.667	251.75
582.877	267.75
583.087	253.75
583.298	245.75
583.508	249.75
583.719	246.75
583.929	259.75
584.139	262.75
584.35	239.75
584.56	256.75
584.77	237.75
584.981	248.75
585.191	262.75
585.401	249.75
585.611	254.75
585.821	231.75
586.032	252.75
586.242	246.75
586.452	247.75
586.662	254.75
586.872	241.75
587.082	248.75
587.292	253.75
587.502	249.75
587.713	254.75
587.923	239.75
588.133	259.75
588.343	245.75
588.553	239.75
588.762	265.75
588.972	246.75
589.182	262.75
589.392	253.75
589.602	247.75
589.812	262.75
590.022	272.75
590.232	258.75
590.441	257.75
590.651	245.75
590.861	235.75
591.071	238.75
591.281	246.75
591.49	247.75
591.7	256.75
591.91	256.75
592.119	256.75
592.329	258.75
592.539	253.75
592.748	279.75
592.958	263.75
593.167	265.75
593.377	284.75
593.587	288.75
593.796	263.75
594.006	267.75
594.215	266.75
594.424	265.75
594.634	254.75
594.843	264.75
595.053	248.75
595.262	262.75
595.472	242.75
595.681	238.75
595.89	261.75
596.1	243.75
596.309	237.75
596.518	256.75
596.727	238.75
596.937	244.75
597.146	267.75
597.355	231.75
597.564	236.75
597.774	214.75
597.983	217.75
598.192	218.75
598.401	224.75
598.61	225.75
598.819	223.75
599.028	221.75
599.237	230.75
599.446	225.75
599.655	230.75
599.864	225.75
600.073	227.75
600.282	220.75
600.491	208.75
600.7	218.75
600.909	210.75
601.118	202.75
601.327	227.75
601.536	226.75
601.745	223.75
601.953	235.75
602.162	200.75
602.371	225.75
602.58	209.75
602.789	233.75
602.997	202.75
603.206	206.75
603.415	217.75
603.623	219.75
603.832	213.75
604.041	217.75
604.249	199.75
604.458	225.75
604.666	215.75
604.875	218.75
605.084	218.75
605.292	219.75
605.501	214.75
605.709	216.75
605.918	222.75
606.126	212.75
606.334	219.75
606.543	213.75
606.751	209.75
606.96	210.75
607.168	205.75
607.376	208.75
607.585	208.75
607.793	205.75
608.001	212.75
608.21	203.75
608.418	219.75
608.626	209.75
608.834	220.75
609.043	203.75
609.251	190.75
609.459	207.75
609.667	198.75
609.875	206.75
610.083	196.75
610.291	183.75
610.499	214.75
610.707	191.75
610.916	194.75
611.124	209.75
611.332	201.75
611.54	208.75
611.748	202.75
611.955	222.75
612.163	209.75
612.371	192.75
612.579	198.75
612.787	189.75
612.995	199.75
613.203	202.75
613.411	208.75
613.618	204.75
613.826	210.75
614.034	175.75
614.242	186.75
614.449	197.75
614.657	198.75
614.865	188.75
615.072	211.75
615.28	199.75
615.488	202.75
615.695	196.75
615.903	183.75
616.111	205.75
616.318	204.75
616.526	195.75
616.733	191.75
616.941	190.75
617.148	196.75
617.356	203.75
617.563	199.75
617.771	212.75
617.978	181.75
618.185	203.75
618.393	191.75
618.6	199.75
618.807	210.75
619.015	191.75
619.222	187.75
619.429	189.75
619.637	202.75
619.844	191.75
620.051	204.75
620.258	188.75
620.466	194.75
620.673	190.75
620.88	181.75
621.087	197.75
621.294	174.75
621.501	198.75
621.708	182.75
621.915	191.75
622.122	184.75
622.329	213.75
622.536	191.75
622.743	182.75
622.95	197.75
623.157	174.75
623.364	187.75
623.571	169.75
623.778	184.75
623.985	178.75
624.192	180.75
624.399	194.75
624.606	175.75
624.812	176.75
625.019	168.75
625.226	176.75
625.433	175.75
625.639	184.75
625.846	178.75
626.053	183.75
626.259	165.75
626.466	178.75
626.673	162.75
626.879	152.75
627.086	180.75
627.293	184.75
627.499	170.75
627.706	182.75
627.912	169.75
628.119	171.75
628.325	174.75
628.532	186.75
628.738	175.75
628.945	169.75
629.151	184.75
629.357	168.75
629.564	174.75
629.77	173.75
629.976	162.75
630.183	178.75
630.389	156.75
630.595	178.75
630.802	168.75
631.008	172.75
631.214	172.75
631.42	164.75
631.627	167.75
631.833	168.75
632.039	162.75
632.245	172.75
632.451	174.75
632.657	159.75
632.863	171.75
633.069	166.75
633.275	150.75
633.481	174.75
633.688	164.75
633.893	158.75
634.099	168.75
634.305	161.75
634.511	160.75
634.717	170.75
634.923	166.75
635.129	156.75
635.335	164.75
635.541	151.75
635.747	153.75
635.952	164.75
636.158	155.75
636.364	168.75
636.57	185.75
636.775	150.75
636.981	184.75
637.187	157.75
637.392	148.75
637.598	152.75
637.804	158.75
638.009	167.75
638.215	156.75
638.421	163.75
638.626	155.75
638.832	159.75
639.037	155.75
639.243	141.75
639.448	156.75
639.654	152.75
639.859	168.75
640.065	144.75
640.27	150.75
640.475	145.75
640.681	150.75
640.886	133.75
641.091	141.75
641.297	159.75
641.502	148.75
641.707	152.75
641.913	155.75
642.118	154.75
642.323	144.75
642.528	150.75
642.733	158.75
642.939	140.75
643.144	136.75
643.349	154.75
643.554	145.75
643.759	150.75
643.964	148.75
644.169	133.75
644.374	150.75
644.579	132.75
644.784	156.75
644.989	156.75
645.194	148.75
645.399	143.75
645.604	134.75
645.809	135.75
646.014	155.75
646.219	145.75
646.423	131.75
646.628	135.75
646.833	138.75
647.038	138.75
647.243	145.75
647.447	137.75
647.652	161.75
647.857	138.75
648.062	144.75
648.266	152.75
648.471	156.75
648.676	158.75
648.88	158.75
649.085	157.75
649.289	153.75
649.494	147.75
649.698	160.75
649.903	158.75
650.107	164.75
650.312	156.75
650.516	138.75
650.721	154.75
650.925	141.75
651.13	154.75
651.334	138.75
651.539	133.75
651.743	146.75
651.947	150.75
652.152	131.75
652.356	136.75
652.56	128.75
652.764	120.75
652.969	147.75
653.173	125.75
653.377	134.75
653.581	126.75
653.785	130.75
653.99	141.75
654.194	129.75
654.398	126.75
654.602	144.75
654.806	141.75
655.01	135.75
655.214	129.75
655.418	134.75
655.622	125.75
655.826	134.75
656.03	129.75
656.234	131.75
656.438	132.75
656.642	140.75
656.846	124.75
657.049	129.75
657.253	143.75
657.457	118.75
657.661	123.75
657.865	117.75
658.068	107.75
658.272	124.75
658.476	105.75
658.68	97.75
658.883	95.75
659.087	102.75
659.291	96.75
659.494	105.75
659.698	98.75
659.901	95.75
660.105	87.75
660.309	95.75
660.512	96.75
660.716	91.75
660.919	92.75
661.123	84.75
661.326	95.75
661.53	91.75
661.733	79.75
661.936	81.75
662.14	90.75
662.343	95.75
662.546	90.75
662.75	103.75
662.953	77.75
663.156	73.75
663.36	89.75
663.563	90.75
663.766	89.75
663.969	82.75
664.173	85.75
664.376	78.75
664.579	78.75
664.782	80.75
664.985	77.75
665.188	79.75
665.391	74.75
665.594	84.75
665.797	86.75
666	79.75
666.203	80.75
666.406	85.75
666.609	64.75
666.812	85.75
667.015	93.75
667.218	74.75
667.421	94.75
667.624	83.75
667.827	82.75
668.03	90.75
668.232	78.75
668.435	88.75
668.638	72.75
668.841	80.75
669.043	72.75
669.246	86.75
669.449	91.75
669.651	81.75
669.854	99.75
670.057	99.75
670.259	69.75
670.462	86.75
670.665	96.75
670.867	86.75
671.07	84.75
671.272	83.75
671.475	91.75
671.677	77.75
671.88	78.75
672.082	89.75
672.284	79.75
672.487	80.75
672.689	79.75
672.892	81.75
