Data from 1964.PennyLincolnUp.Lamp.En5.5.200Scan.071719.P1._HRD10591_14-05-42-910.txt Node
Date: Thu Jul 18 14:05:42 EDT 2019
User: cochatt
Spectrometer: HR+D1059
Trigger mode: 1
Integration Time (sec): 1.000000E-1
Scans to average: 1
Electric dark correction enabled: true
Nonlinearity correction enabled: false
Boxcar width: 0
XAxis mode: Wavelengths
Number of Pixels in Spectrum: 2048
>>>>>Begin Spectral Data<<<<<
223.165	-11.94
223.4	-11.94
223.635	-11.94
223.869	-17.94
224.104	-10.94
224.338	-19.94
224.573	-10.94
224.808	0.06
225.042	-6.94
225.277	-3.94
225.511	-6.94
225.746	5.06
225.98	5.06
226.215	12.06
226.449	20.06
226.683	7.06
226.918	17.06
227.152	23.06
227.387	36.06
227.621	39.06
227.856	39.06
228.09	38.06
228.324	49.06
228.559	58.06
228.793	78.06
229.027	88.06
229.262	110.06
229.496	107.06
229.73	118.06
229.964	145.06
230.199	113.06
230.433	103.06
230.667	93.06
230.901	100.06
231.136	120.06
231.37	109.06
231.604	95.06
231.838	115.06
232.072	118.06
232.306	109.06
232.541	110.06
232.775	127.06
233.009	118.06
233.243	108.06
233.477	116.06
233.711	117.06
233.945	103.06
234.179	112.06
234.413	123.06
234.647	113.06
234.881	119.06
235.115	111.06
235.349	111.06
235.583	116.06
235.817	132.06
236.051	119.06
236.285	123.06
236.519	125.06
236.753	123.06
236.987	134.06
237.221	163.06
237.455	201.06
237.689	157.06
237.922	125.06
238.156	133.06
238.39	127.06
238.624	128.06
238.858	138.06
239.091	136.06
239.325	123.06
239.559	138.06
239.793	126.06
240.027	125.06
240.26	141.06
240.494	142.06
240.728	151.06
240.961	155.06
241.195	157.06
241.429	155.06
241.662	127.06
241.896	140.06
242.13	146.06
242.363	147.06
242.597	126.06
242.83	141.06
243.064	148.06
243.298	132.06
243.531	149.06
243.765	129.06
243.998	133.06
244.232	142.06
244.465	140.06
244.699	157.06
244.932	145.06
245.166	153.06
245.399	139.06
245.633	148.06
245.866	145.06
246.099	133.06
246.333	146.06
246.566	154.06
246.8	153.06
247.033	164.06
247.266	171.06
247.5	190.06
247.733	180.06
247.966	188.06
248.2	159.06
248.433	165.06
248.666	171.06
248.899	179.06
249.133	192.06
249.366	195.06
249.599	204.06
249.832	187.06
250.066	167.06
250.299	185.06
250.532	199.06
250.765	223.06
250.998	233.06
251.231	228.06
251.465	202.06
251.698	207.06
251.931	199.06
252.164	213.06
252.397	214.06
252.63	201.06
252.863	195.06
253.096	224.06
253.329	233.06
253.562	231.06
253.795	231.06
254.028	231.06
254.261	211.06
254.494	237.06
254.727	227.06
254.96	269.06
255.193	266.06
255.426	255.06
255.659	247.06
255.892	246.06
256.124	228.06
256.357	238.06
256.59	234.06
256.823	229.06
257.056	234.06
257.289	229.06
257.521	223.06
257.754	235.06
257.987	214.06
258.22	228.06
258.452	217.06
258.685	231.06
258.918	239.06
259.151	230.06
259.383	218.06
259.616	230.06
259.849	241.06
260.081	249.06
260.314	244.06
260.547	249.06
260.779	260.06
261.012	248.06
261.244	232.06
261.477	221.06
261.71	220.06
261.942	227.06
262.175	240.06
262.407	235.06
262.64	232.06
262.872	223.06
263.105	227.06
263.337	233.06
263.57	229.06
263.802	228.06
264.035	221.06
264.267	219.06
264.499	226.06
264.732	236.06
264.964	232.06
265.197	222.06
265.429	232.06
265.661	243.06
265.894	226.06
266.126	237.06
266.358	247.06
266.591	231.06
266.823	245.06
267.055	257.06
267.287	251.06
267.52	252.06
267.752	248.06
267.984	269.06
268.216	259.06
268.448	247.06
268.681	249.06
268.913	275.06
269.145	267.06
269.377	285.06
269.609	293.06
269.841	298.06
270.073	287.06
270.306	328.06
270.538	317.06
270.77	311.06
271.002	314.06
271.234	311.06
271.466	310.06
271.698	329.06
271.93	333.06
272.162	328.06
272.394	331.06
272.626	310.06
272.858	312.06
273.09	301.06
273.322	315.06
273.553	291.06
273.785	295.06
274.017	289.06
274.249	297.06
274.481	290.06
274.713	307.06
274.945	299.06
275.176	303.06
275.408	297.06
275.64	297.06
275.872	297.06
276.104	271.06
276.335	293.06
276.567	286.06
276.799	311.06
277.031	315.06
277.262	330.06
277.494	333.06
277.726	320.06
277.957	328.06
278.189	301.06
278.421	319.06
278.652	309.06
278.884	294.06
279.115	277.06
279.347	294.06
279.579	288.06
279.81	291.06
280.042	298.06
280.273	303.06
280.505	296.06
280.736	282.06
280.968	284.06
281.199	300.06
281.431	301.06
281.662	320.06
281.894	296.06
282.125	302.06
282.356	308.06
282.588	323.06
282.819	344.06
283.051	313.06
283.282	297.06
283.513	309.06
283.745	327.06
283.976	338.06
284.207	316.06
284.439	316.06
284.67	328.06
284.901	328.06
285.132	315.06
285.364	327.06
285.595	310.06
285.826	300.06
286.057	320.06
286.288	303.06
286.52	339.06
286.751	299.06
286.982	323.06
287.213	304.06
287.444	336.06
287.675	301.06
287.906	343.06
288.138	346.06
288.369	337.06
288.6	318.06
288.831	343.06
289.062	340.06
289.293	327.06
289.524	311.06
289.755	342.06
289.986	335.06
290.217	332.06
290.448	323.06
290.679	320.06
290.91	339.06
291.141	325.06
291.371	337.06
291.602	343.06
291.833	330.06
292.064	343.06
292.295	335.06
292.526	329.06
292.757	322.06
292.987	316.06
293.218	316.06
293.449	327.06
293.68	330.06
293.91	332.06
294.141	334.06
294.372	319.06
294.603	340.06
294.833	334.06
295.064	341.06
295.295	353.06
295.525	338.06
295.756	345.06
295.987	337.06
296.217	363.06
296.448	353.06
296.679	346.06
296.909	349.06
297.14	340.06
297.37	342.06
297.601	358.06
297.831	333.06
298.062	339.06
298.292	351.06
298.523	346.06
298.753	352.06
298.984	362.06
299.214	346.06
299.445	352.06
299.675	370.06
299.905	341.06
300.136	352.06
300.366	359.06
300.597	345.06
300.827	363.06
301.057	368.06
301.288	361.06
301.518	365.06
301.748	338.06
301.979	399.06
302.209	375.06
302.439	391.06
302.669	381.06
302.9	358.06
303.13	376.06
303.36	379.06
303.59	379.06
303.82	388.06
304.051	385.06
304.281	381.06
304.511	381.06
304.741	363.06
304.971	363.06
305.201	375.06
305.431	373.06
305.661	348.06
305.891	376.06
306.121	377.06
306.352	376.06
306.582	373.06
306.812	374.06
307.042	362.06
307.272	367.06
307.502	373.06
307.731	384.06
307.961	384.06
308.191	387.06
308.421	381.06
308.651	386.06
308.881	382.06
309.111	394.06
309.341	382.06
309.571	380.06
309.8	396.06
310.03	398.06
310.26	405.06
310.49	401.06
310.72	411.06
310.949	423.06
311.179	422.06
311.409	403.06
311.639	419.06
311.868	417.06
312.098	417.06
312.328	414.06
312.557	428.06
312.787	437.06
313.017	437.06
313.246	406.06
313.476	399.06
313.706	416.06
313.935	432.06
314.165	408.06
314.394	414.06
314.624	420.06
314.853	424.06
315.083	432.06
315.312	427.06
315.542	415.06
315.771	409.06
316.001	436.06
316.23	427.06
316.46	411.06
316.689	416.06
316.919	422.06
317.148	401.06
317.377	428.06
317.607	413.06
317.836	438.06
318.065	404.06
318.295	419.06
318.524	422.06
318.753	411.06
318.983	405.06
319.212	403.06
319.441	419.06
319.67	420.06
319.9	435.06
320.129	412.06
320.358	415.06
320.587	428.06
320.816	426.06
321.046	414.06
321.275	443.06
321.504	413.06
321.733	419.06
321.962	416.06
322.191	448.06
322.42	424.06
322.649	456.06
322.878	461.06
323.108	464.06
323.337	470.06
323.566	482.06
323.795	513.06
324.024	557.06
324.253	647.06
324.482	873.06
324.71	1234.06
324.939	1745.06
325.168	1436.06
325.397	793.06
325.626	583.06
325.855	520.06
326.084	484.06
326.313	518.06
326.542	515.06
326.77	526.06
326.999	612.06
327.228	790.06
327.457	1132.06
327.686	1263.06
327.914	860.06
328.143	635.06
328.372	575.06
328.6	553.06
328.829	537.06
329.058	545.06
329.287	535.06
329.515	528.06
329.744	505.06
329.972	527.06
330.201	519.06
330.43	560.06
330.658	569.06
330.887	577.06
331.115	542.06
331.344	530.06
331.572	509.06
331.801	495.06
332.03	506.06
332.258	483.06
332.486	488.06
332.715	503.06
332.943	487.06
333.172	499.06
333.4	478.06
333.629	519.06
333.857	539.06
334.085	508.06
334.314	539.06
334.542	553.06
334.771	564.06
334.999	515.06
335.227	514.06
335.455	525.06
335.684	510.06
335.912	510.06
336.14	507.06
336.369	500.06
336.597	515.06
336.825	483.06
337.053	462.06
337.281	469.06
337.51	471.06
337.738	476.06
337.966	486.06
338.194	473.06
338.422	466.06
338.65	484.06
338.878	469.06
339.106	472.06
339.334	458.06
339.562	467.06
339.79	451.06
340.018	466.06
340.246	456.06
340.474	473.06
340.702	479.06
340.93	455.06
341.158	451.06
341.386	456.06
341.614	447.06
341.842	436.06
342.07	455.06
342.298	470.06
342.526	440.06
342.754	429.06
342.981	431.06
343.209	441.06
343.437	461.06
343.665	475.06
343.893	455.06
344.12	479.06
344.348	491.06
344.576	478.06
344.804	481.06
345.031	482.06
345.259	461.06
345.487	468.06
345.714	477.06
345.942	453.06
346.17	451.06
346.397	452.06
346.625	451.06
346.853	431.06
347.08	436.06
347.308	441.06
347.535	409.06
347.763	443.06
347.99	422.06
348.218	435.06
348.445	431.06
348.673	451.06
348.9	441.06
349.128	433.06
349.355	439.06
349.583	421.06
349.81	442.06
350.037	427.06
350.265	429.06
350.492	417.06
350.72	431.06
350.947	428.06
351.174	429.06
351.402	416.06
351.629	418.06
351.856	432.06
352.083	444.06
352.311	440.06
352.538	442.06
352.765	411.06
352.992	412.06
353.22	435.06
353.447	420.06
353.674	422.06
353.901	411.06
354.128	423.06
354.355	406.06
354.583	409.06
354.81	436.06
355.037	395.06
355.264	416.06
355.491	397.06
355.718	416.06
355.945	418.06
356.172	417.06
356.399	410.06
356.626	410.06
356.853	416.06
357.08	401.06
357.307	404.06
357.534	405.06
357.761	422.06
357.988	418.06
358.215	409.06
358.441	417.06
358.668	407.06
358.895	432.06
359.122	414.06
359.349	421.06
359.576	434.06
359.802	420.06
360.029	444.06
360.256	430.06
360.483	452.06
360.709	427.06
360.936	435.06
361.163	419.06
361.39	439.06
361.616	408.06
361.843	416.06
362.07	410.06
362.296	417.06
362.523	420.06
362.749	417.06
362.976	413.06
363.203	414.06
363.429	419.06
363.656	408.06
363.882	428.06
364.109	393.06
364.335	408.06
364.562	398.06
364.788	422.06
365.015	398.06
365.241	421.06
365.468	424.06
365.694	420.06
365.92	411.06
366.147	428.06
366.373	413.06
366.599	425.06
366.826	396.06
367.052	399.06
367.278	399.06
367.505	407.06
367.731	405.06
367.957	392.06
368.184	423.06
368.41	407.06
368.636	409.06
368.862	413.06
369.089	397.06
369.315	395.06
369.541	392.06
369.767	397.06
369.993	413.06
370.219	401.06
370.445	383.06
370.672	392.06
370.898	406.06
371.124	404.06
371.35	417.06
371.576	388.06
371.802	382.06
372.028	421.06
372.254	398.06
372.48	393.06
372.706	414.06
372.932	395.06
373.158	429.06
373.384	408.06
373.61	389.06
373.835	419.06
374.061	414.06
374.287	420.06
374.513	415.06
374.739	428.06
374.965	424.06
375.191	398.06
375.416	430.06
375.642	409.06
375.868	403.06
376.094	412.06
376.319	387.06
376.545	415.06
376.771	422.06
376.997	411.06
377.222	401.06
377.448	374.06
377.674	398.06
377.899	391.06
378.125	398.06
378.35	398.06
378.576	400.06
378.802	416.06
379.027	394.06
379.253	409.06
379.478	390.06
379.704	401.06
379.929	394.06
380.155	411.06
380.38	393.06
380.606	391.06
380.831	387.06
381.057	406.06
381.282	395.06
381.507	401.06
381.733	399.06
381.958	423.06
382.184	397.06
382.409	407.06
382.634	415.06
382.86	423.06
383.085	406.06
383.31	423.06
383.535	427.06
383.761	420.06
383.986	410.06
384.211	417.06
384.436	439.06
384.662	431.06
384.887	425.06
385.112	421.06
385.337	438.06
385.562	430.06
385.787	439.06
386.013	449.06
386.238	449.06
386.463	435.06
386.688	425.06
386.913	450.06
387.138	414.06
387.363	443.06
387.588	448.06
387.813	453.06
388.038	418.06
388.263	451.06
388.488	463.06
388.713	433.06
388.938	457.06
389.163	429.06
389.387	423.06
389.612	430.06
389.837	433.06
390.062	441.06
390.287	429.06
390.512	419.06
390.736	430.06
390.961	440.06
391.186	431.06
391.411	449.06
391.636	447.06
391.86	451.06
392.085	451.06
392.31	464.06
392.534	450.06
392.759	448.06
392.984	439.06
393.208	434.06
393.433	439.06
393.658	436.06
393.882	439.06
394.107	437.06
394.331	445.06
394.556	424.06
394.78	437.06
395.005	453.06
395.229	441.06
395.454	435.06
395.678	461.06
395.903	451.06
396.127	480.06
396.352	481.06
396.576	460.06
396.801	457.06
397.025	451.06
397.249	434.06
397.474	472.06
397.698	464.06
397.922	484.06
398.147	489.06
398.371	483.06
398.595	495.06
398.82	475.06
399.044	503.06
399.268	536.06
399.492	588.06
399.717	599.06
399.941	613.06
400.165	638.06
400.389	595.06
400.613	571.06
400.837	537.06
401.062	533.06
401.286	512.06
401.51	498.06
401.734	477.06
401.958	480.06
402.182	494.06
402.406	500.06
402.63	501.06
402.854	510.06
403.078	517.06
403.302	490.06
403.526	511.06
403.75	524.06
403.974	550.06
404.198	503.06
404.422	537.06
404.645	517.06
404.869	523.06
405.093	557.06
405.317	569.06
405.541	630.06
405.765	553.06
405.988	540.06
406.212	503.06
406.436	543.06
406.66	555.06
406.883	551.06
407.107	588.06
407.331	604.06
407.555	635.06
407.778	672.06
408.002	602.06
408.226	559.06
408.449	556.06
408.673	555.06
408.896	567.06
409.12	606.06
409.344	584.06
409.567	544.06
409.791	529.06
410.014	521.06
410.238	508.06
410.461	500.06
410.685	507.06
410.908	510.06
411.132	539.06
411.355	562.06
411.578	529.06
411.802	494.06
412.025	475.06
412.249	509.06
412.472	533.06
412.695	557.06
412.919	546.06
413.142	499.06
413.365	515.06
413.589	504.06
413.812	483.06
414.035	475.06
414.258	491.06
414.482	490.06
414.705	486.06
414.928	472.06
415.151	485.06
415.374	463.06
415.597	465.06
415.821	455.06
416.044	476.06
416.267	452.06
416.49	465.06
416.713	480.06
416.936	478.06
417.159	469.06
417.382	470.06
417.605	465.06
417.828	472.06
418.051	477.06
418.274	503.06
418.497	460.06
418.72	474.06
418.943	475.06
419.166	473.06
419.389	509.06
419.611	493.06
419.834	499.06
420.057	483.06
420.28	498.06
420.503	487.06
420.726	480.06
420.948	498.06
421.171	542.06
421.394	563.06
421.617	501.06
421.839	504.06
422.062	478.06
422.285	483.06
422.507	555.06
422.73	595.06
422.953	569.06
423.175	529.06
423.398	521.06
423.621	509.06
423.843	501.06
424.066	523.06
424.288	517.06
424.511	523.06
424.733	590.06
424.956	612.06
425.178	598.06
425.401	599.06
425.623	610.06
425.846	539.06
426.068	491.06
426.291	488.06
426.513	487.06
426.735	516.06
426.958	554.06
427.18	609.06
427.402	703.06
427.625	759.06
427.847	654.06
428.069	569.06
428.292	541.06
428.514	495.06
428.736	487.06
428.958	477.06
429.181	457.06
429.403	455.06
429.625	452.06
429.847	492.06
430.069	552.06
430.292	546.06
430.514	465.06
430.736	450.06
430.958	451.06
431.18	454.06
431.402	446.06
431.624	445.06
431.846	443.06
432.068	435.06
432.29	428.06
432.512	447.06
432.734	461.06
432.956	452.06
433.178	454.06
433.4	466.06
433.622	450.06
433.844	443.06
434.066	420.06
434.287	438.06
434.509	444.06
434.731	455.06
434.953	468.06
435.175	494.06
435.397	509.06
435.618	498.06
435.84	547.06
436.062	625.06
436.284	664.06
436.505	555.06
436.727	504.06
436.949	483.06
437.17	477.06
437.392	460.06
437.614	490.06
437.835	519.06
438.057	557.06
438.278	644.06
438.5	632.06
438.721	685.06
438.943	661.06
439.165	545.06
439.386	498.06
439.608	499.06
439.829	485.06
440.05	527.06
440.272	563.06
440.493	516.06
440.715	491.06
440.936	465.06
441.158	475.06
441.379	459.06
441.6	478.06
441.822	508.06
442.043	525.06
442.264	586.06
442.486	606.06
442.707	541.06
442.928	506.06
443.149	526.06
443.371	528.06
443.592	568.06
443.813	621.06
444.034	672.06
444.255	563.06
444.476	540.06
444.698	513.06
444.919	507.06
445.14	577.06
445.361	569.06
445.582	537.06
445.803	583.06
446.024	638.06
446.245	663.06
446.466	598.06
446.687	531.06
446.908	501.06
447.129	492.06
447.35	449.06
447.571	452.06
447.792	451.06
448.013	445.06
448.234	465.06
448.455	521.06
448.675	578.06
448.896	686.06
449.117	596.06
449.338	555.06
449.559	652.06
449.779	700.06
450	593.06
450.221	496.06
450.442	457.06
450.662	416.06
450.883	426.06
451.104	445.06
451.324	426.06
451.545	426.06
451.766	407.06
451.986	407.06
452.207	419.06
452.428	416.06
452.648	389.06
452.869	398.06
453.089	419.06
453.31	425.06
453.53	412.06
453.751	416.06
453.971	415.06
454.192	426.06
454.412	419.06
454.633	423.06
454.853	421.06
455.073	399.06
455.294	422.06
455.514	475.06
455.734	468.06
455.955	419.06
456.175	410.06
456.395	393.06
456.616	383.06
456.836	394.06
457.056	377.06
457.276	371.06
457.497	390.06
457.717	379.06
457.937	411.06
458.157	430.06
458.377	421.06
458.598	431.06
458.818	454.06
459.038	509.06
459.258	528.06
459.478	463.06
459.698	448.06
459.918	451.06
460.138	430.06
460.358	441.06
460.578	431.06
460.798	452.06
461.018	464.06
461.238	447.06
461.458	465.06
461.678	465.06
461.898	472.06
462.118	443.06
462.338	474.06
462.558	471.06
462.777	500.06
462.997	503.06
463.217	479.06
463.437	526.06
463.657	499.06
463.876	491.06
464.096	477.06
464.316	484.06
464.536	484.06
464.755	488.06
464.975	520.06
465.195	489.06
465.414	527.06
465.634	497.06
465.854	443.06
466.073	440.06
466.293	440.06
466.512	427.06
466.732	426.06
466.951	422.06
467.171	414.06
467.391	401.06
467.61	421.06
467.829	416.06
468.049	406.06
468.268	400.06
468.488	406.06
468.707	427.06
468.927	395.06
469.146	406.06
469.365	411.06
469.585	415.06
469.804	426.06
470.023	403.06
470.243	420.06
470.462	422.06
470.681	449.06
470.901	427.06
471.12	421.06
471.339	432.06
471.558	437.06
471.777	419.06
471.997	425.06
472.216	411.06
472.435	458.06
472.654	448.06
472.873	426.06
473.092	432.06
473.311	436.06
473.53	436.06
473.749	430.06
473.968	480.06
474.187	535.06
474.406	554.06
474.625	483.06
474.844	455.06
475.063	435.06
475.282	415.06
475.501	429.06
475.72	424.06
475.939	435.06
476.158	438.06
476.377	430.06
476.596	423.06
476.814	443.06
477.033	467.06
477.252	437.06
477.471	472.06
477.69	461.06
477.908	451.06
478.127	469.06
478.346	464.06
478.564	467.06
478.783	480.06
479.002	487.06
479.22	501.06
479.439	491.06
479.658	493.06
479.876	486.06
480.095	503.06
480.313	547.06
480.532	544.06
480.751	532.06
480.969	529.06
481.188	579.06
481.406	563.06
481.624	524.06
481.843	485.06
482.061	490.06
482.28	504.06
482.498	504.06
482.717	491.06
482.935	496.06
483.153	495.06
483.372	456.06
483.59	473.06
483.808	487.06
484.027	485.06
484.245	487.06
484.463	483.06
484.681	512.06
484.9	505.06
485.118	488.06
485.336	504.06
485.554	509.06
485.772	481.06
485.99	484.06
486.209	518.06
486.427	519.06
486.645	497.06
486.863	517.06
487.081	527.06
487.299	522.06
487.517	506.06
487.735	523.06
487.953	522.06
488.171	527.06
488.389	515.06
488.607	520.06
488.825	516.06
489.043	529.06
489.261	513.06
489.479	542.06
489.696	521.06
489.914	523.06
490.132	521.06
490.35	539.06
490.568	527.06
490.786	550.06
491.003	544.06
491.221	566.06
491.439	590.06
491.657	557.06
491.874	564.06
492.092	586.06
492.31	592.06
492.527	613.06
492.745	600.06
492.963	580.06
493.18	603.06
493.398	592.06
493.615	602.06
493.833	621.06
494.05	596.06
494.268	598.06
494.485	618.06
494.703	608.06
494.92	589.06
495.138	606.06
495.355	599.06
495.573	601.06
495.79	586.06
496.008	605.06
496.225	617.06
496.442	611.06
496.66	623.06
496.877	609.06
497.094	616.06
497.312	623.06
497.529	633.06
497.746	640.06
497.963	637.06
498.181	654.06
498.398	655.06
498.615	697.06
498.832	712.06
499.049	725.06
499.267	759.06
499.484	757.06
499.701	809.06
499.918	847.06
500.135	869.06
500.352	909.06
500.569	963.06
500.786	953.06
501.003	916.06
501.22	893.06
501.437	861.06
501.654	784.06
501.871	811.06
502.088	765.06
502.305	739.06
502.522	700.06
502.739	699.06
502.956	668.06
503.172	672.06
503.389	628.06
503.606	647.06
503.823	631.06
504.04	622.06
504.256	614.06
504.473	607.06
504.69	611.06
504.907	597.06
505.123	604.06
505.34	598.06
505.557	591.06
505.773	588.06
505.99	589.06
506.207	569.06
506.423	587.06
506.64	564.06
506.856	577.06
507.073	555.06
507.289	554.06
507.506	547.06
507.722	568.06
507.939	535.06
508.155	551.06
508.372	572.06
508.588	527.06
508.805	520.06
509.021	535.06
509.238	543.06
509.454	558.06
509.67	525.06
509.887	522.06
510.103	528.06
510.319	542.06
510.536	580.06
510.752	825.06
510.968	693.06
511.184	520.06
511.401	507.06
511.617	494.06
511.833	508.06
512.049	535.06
512.265	506.06
512.481	502.06
512.698	486.06
512.914	492.06
513.13	503.06
513.346	490.06
513.562	505.06
513.778	486.06
513.994	501.06
514.21	484.06
514.426	531.06
514.642	558.06
514.858	551.06
515.074	577.06
515.29	639.06
515.506	809.06
515.721	701.06
515.937	579.06
516.153	540.06
516.369	528.06
516.585	534.06
516.801	539.06
517.016	529.06
517.232	542.06
517.448	551.06
517.664	537.06
517.879	551.06
518.095	556.06
518.311	544.06
518.527	537.06
518.742	521.06
518.958	544.06
519.173	528.06
519.389	503.06
519.605	493.06
519.82	502.06
520.036	505.06
520.251	529.06
520.467	512.06
520.682	523.06
520.898	535.06
521.113	534.06
521.329	567.06
521.544	568.06
521.76	673.06
521.975	957.06
522.19	907.06
522.406	607.06
522.621	529.06
522.836	489.06
523.052	482.06
523.267	473.06
523.482	453.06
523.698	464.06
523.913	453.06
524.128	443.06
524.343	450.06
524.559	458.06
524.774	452.06
524.989	442.06
525.204	457.06
525.419	459.06
525.634	459.06
525.849	413.06
526.064	410.06
526.28	425.06
526.495	417.06
526.71	407.06
526.925	448.06
527.14	423.06
527.355	433.06
527.57	410.06
527.785	430.06
527.999	425.06
528.214	407.06
528.429	421.06
528.644	421.06
528.859	420.06
529.074	437.06
529.289	432.06
529.503	470.06
529.718	477.06
529.933	448.06
530.148	427.06
530.363	435.06
530.577	419.06
530.792	435.06
531.007	414.06
531.221	421.06
531.436	415.06
531.651	427.06
531.865	420.06
532.08	404.06
532.295	400.06
532.509	403.06
532.724	416.06
532.938	400.06
533.153	374.06
533.367	402.06
533.582	419.06
533.796	406.06
534.011	399.06
534.225	416.06
534.44	387.06
534.654	405.06
534.868	396.06
535.083	391.06
535.297	393.06
535.511	402.06
535.726	412.06
535.94	407.06
536.154	412.06
536.369	387.06
536.583	394.06
536.797	385.06
537.011	368.06
537.225	393.06
537.44	377.06
537.654	387.06
537.868	380.06
538.082	401.06
538.296	399.06
538.51	395.06
538.724	389.06
538.938	407.06
539.153	411.06
539.367	405.06
539.581	387.06
539.795	400.06
540.009	400.06
540.222	387.06
540.436	387.06
540.65	379.06
540.864	385.06
541.078	391.06
541.292	391.06
541.506	397.06
541.72	382.06
541.934	380.06
542.147	398.06
542.361	386.06
542.575	372.06
542.789	387.06
543.002	383.06
543.216	404.06
543.43	391.06
543.644	397.06
543.857	397.06
544.071	374.06
544.285	382.06
544.498	368.06
544.712	375.06
544.925	395.06
545.139	390.06
545.352	359.06
545.566	383.06
545.779	363.06
545.993	387.06
546.206	380.06
546.42	389.06
546.633	370.06
546.847	380.06
547.06	358.06
547.274	391.06
547.487	373.06
547.7	353.06
547.914	355.06
548.127	376.06
548.34	383.06
548.554	380.06
548.767	398.06
548.98	381.06
549.193	386.06
549.407	391.06
549.62	389.06
549.833	377.06
550.046	367.06
550.259	389.06
550.473	373.06
550.686	397.06
550.899	375.06
551.112	372.06
551.325	360.06
551.538	363.06
551.751	377.06
551.964	366.06
552.177	385.06
552.39	365.06
552.603	385.06
552.816	365.06
553.029	399.06
553.242	390.06
553.455	396.06
553.667	384.06
553.88	382.06
554.093	389.06
554.306	384.06
554.519	376.06
554.732	378.06
554.944	368.06
555.157	362.06
555.37	360.06
555.583	368.06
555.795	350.06
556.008	361.06
556.221	358.06
556.433	345.06
556.646	365.06
556.859	341.06
557.071	345.06
557.284	338.06
557.496	341.06
557.709	363.06
557.921	348.06
558.134	337.06
558.346	337.06
558.559	336.06
558.771	327.06
558.984	321.06
559.196	350.06
559.409	343.06
559.621	345.06
559.833	331.06
560.046	336.06
560.258	335.06
560.47	321.06
560.683	319.06
560.895	329.06
561.107	343.06
561.32	321.06
561.532	326.06
561.744	348.06
561.956	347.06
562.168	323.06
562.381	340.06
562.593	347.06
562.805	333.06
563.017	326.06
563.229	326.06
563.441	352.06
563.653	343.06
563.865	332.06
564.077	340.06
564.289	353.06
564.501	370.06
564.713	345.06
564.925	362.06
565.137	366.06
565.349	365.06
565.561	377.06
565.773	373.06
565.985	389.06
566.197	380.06
566.408	399.06
566.62	394.06
566.832	417.06
567.044	410.06
567.255	426.06
567.467	406.06
567.679	445.06
567.891	449.06
568.102	468.06
568.314	449.06
568.526	407.06
568.737	393.06
568.949	390.06
569.161	376.06
569.372	372.06
569.584	347.06
569.795	364.06
570.007	348.06
570.218	353.06
570.43	358.06
570.641	349.06
570.853	350.06
571.064	343.06
571.276	330.06
571.487	317.06
571.698	311.06
571.91	330.06
572.121	293.06
572.333	305.06
572.544	308.06
572.755	284.06
572.966	288.06
573.178	281.06
573.389	296.06
573.6	295.06
573.811	291.06
574.023	285.06
574.234	283.06
574.445	303.06
574.656	277.06
574.867	281.06
575.078	279.06
575.289	289.06
575.501	289.06
575.712	276.06
575.923	286.06
576.134	287.06
576.345	300.06
576.556	296.06
576.767	278.06
576.978	287.06
577.188	257.06
577.399	282.06
577.61	282.06
577.821	267.06
578.032	283.06
578.243	298.06
578.454	391.06
578.665	337.06
578.875	284.06
579.086	268.06
579.297	252.06
579.508	265.06
579.718	278.06
579.929	257.06
580.14	267.06
580.35	256.06
580.561	272.06
580.772	256.06
580.982	264.06
581.193	267.06
581.403	271.06
581.614	253.06
581.825	276.06
582.035	253.06
582.246	260.06
582.456	267.06
582.667	251.06
582.877	282.06
583.087	266.06
583.298	248.06
583.508	265.06
583.719	284.06
583.929	253.06
584.139	247.06
584.35	251.06
584.56	283.06
584.77	261.06
584.981	251.06
585.191	268.06
585.401	282.06
585.611	260.06
585.821	258.06
586.032	272.06
586.242	267.06
586.452	266.06
586.662	277.06
586.872	264.06
587.082	256.06
587.292	246.06
587.502	251.06
587.713	248.06
587.923	267.06
588.133	248.06
588.343	261.06
588.553	261.06
588.762	267.06
588.972	258.06
589.182	259.06
589.392	252.06
589.602	242.06
589.812	246.06
590.022	273.06
590.232	242.06
590.441	243.06
590.651	256.06
590.861	256.06
591.071	271.06
591.281	265.06
591.49	260.06
591.7	261.06
591.91	270.06
592.119	253.06
592.329	256.06
592.539	273.06
592.748	278.06
592.958	278.06
593.167	264.06
593.377	267.06
593.587	293.06
593.796	285.06
594.006	296.06
594.215	302.06
594.424	284.06
594.634	276.06
594.843	282.06
595.053	272.06
595.262	252.06
595.472	263.06
595.681	259.06
595.89	257.06
596.1	285.06
596.309	233.06
596.518	257.06
596.727	236.06
596.937	234.06
597.146	234.06
597.355	254.06
597.564	233.06
597.774	234.06
597.983	230.06
598.192	232.06
598.401	239.06
598.61	234.06
598.819	238.06
599.028	234.06
599.237	227.06
599.446	225.06
599.655	213.06
599.864	260.06
600.073	217.06
600.282	203.06
600.491	209.06
600.7	214.06
600.909	230.06
601.118	204.06
601.327	203.06
601.536	228.06
601.745	216.06
601.953	228.06
602.162	222.06
602.371	216.06
602.58	244.06
602.789	221.06
602.997	216.06
603.206	227.06
603.415	230.06
603.623	220.06
603.832	216.06
604.041	214.06
604.249	213.06
604.458	221.06
604.666	222.06
604.875	211.06
605.084	211.06
605.292	220.06
605.501	207.06
605.709	218.06
605.918	223.06
606.126	205.06
606.334	227.06
606.543	228.06
606.751	214.06
606.96	208.06
607.168	211.06
607.376	219.06
607.585	203.06
607.793	217.06
608.001	216.06
608.21	213.06
608.418	202.06
608.626	199.06
608.834	195.06
609.043	198.06
609.251	204.06
609.459	206.06
609.667	215.06
609.875	207.06
610.083	200.06
610.291	222.06
610.499	210.06
610.707	195.06
610.916	192.06
611.124	190.06
611.332	216.06
611.54	205.06
611.748	211.06
611.955	186.06
612.163	201.06
612.371	201.06
612.579	207.06
612.787	208.06
612.995	205.06
613.203	204.06
613.411	216.06
613.618	219.06
613.826	220.06
614.034	204.06
614.242	207.06
614.449	209.06
614.657	188.06
614.865	210.06
615.072	214.06
615.28	201.06
615.488	189.06
615.695	196.06
615.903	185.06
616.111	199.06
616.318	182.06
616.526	208.06
616.733	205.06
616.941	206.06
617.148	200.06
617.356	206.06
617.563	203.06
617.771	195.06
617.978	208.06
618.185	222.06
618.393	189.06
618.6	215.06
618.807	208.06
619.015	204.06
619.222	190.06
619.429	203.06
619.637	201.06
619.844	193.06
620.051	191.06
620.258	203.06
620.466	191.06
620.673	201.06
620.88	195.06
621.087	188.06
621.294	185.06
621.501	201.06
621.708	195.06
621.915	195.06
622.122	203.06
622.329	212.06
622.536	213.06
622.743	186.06
622.95	176.06
623.157	191.06
623.364	196.06
623.571	193.06
623.778	174.06
623.985	188.06
624.192	183.06
624.399	192.06
624.606	190.06
624.812	193.06
625.019	182.06
625.226	186.06
625.433	183.06
625.639	195.06
625.846	176.06
626.053	171.06
626.259	182.06
626.466	180.06
626.673	185.06
626.879	194.06
627.086	181.06
627.293	177.06
627.499	185.06
627.706	175.06
627.912	180.06
628.119	173.06
628.325	183.06
628.532	178.06
628.738	181.06
628.945	188.06
629.151	185.06
629.357	200.06
629.564	183.06
629.77	193.06
629.976	168.06
630.183	165.06
630.389	160.06
630.595	172.06
630.802	158.06
631.008	175.06
631.214	180.06
631.42	189.06
631.627	182.06
631.833	174.06
632.039	169.06
632.245	166.06
632.451	179.06
632.657	179.06
632.863	180.06
633.069	168.06
633.275	173.06
633.481	149.06
633.688	175.06
633.893	171.06
634.099	173.06
634.305	163.06
634.511	149.06
634.717	163.06
634.923	165.06
635.129	164.06
635.335	170.06
635.541	164.06
635.747	153.06
635.952	181.06
636.158	179.06
636.364	149.06
636.57	174.06
636.775	155.06
636.981	158.06
637.187	164.06
637.392	168.06
637.598	164.06
637.804	144.06
638.009	167.06
638.215	152.06
638.421	157.06
638.626	163.06
638.832	161.06
639.037	150.06
639.243	151.06
639.448	166.06
639.654	166.06
639.859	157.06
640.065	165.06
640.27	162.06
640.475	172.06
640.681	181.06
640.886	160.06
641.091	155.06
641.297	165.06
641.502	151.06
641.707	151.06
641.913	157.06
642.118	163.06
642.323	147.06
642.528	153.06
642.733	149.06
642.939	162.06
643.144	153.06
643.349	153.06
643.554	169.06
643.759	161.06
643.964	160.06
644.169	156.06
644.374	139.06
644.579	153.06
644.784	147.06
644.989	139.06
645.194	157.06
645.399	144.06
645.604	153.06
645.809	160.06
646.014	156.06
646.219	147.06
646.423	136.06
646.628	127.06
646.833	140.06
647.038	167.06
647.243	149.06
647.447	146.06
647.652	158.06
647.857	149.06
648.062	150.06
648.266	163.06
648.471	147.06
648.676	156.06
648.88	154.06
649.085	156.06
649.289	163.06
649.494	159.06
649.698	162.06
649.903	161.06
650.107	149.06
650.312	157.06
650.516	148.06
650.721	154.06
650.925	133.06
651.13	140.06
651.334	139.06
651.539	149.06
651.743	142.06
651.947	155.06
652.152	132.06
652.356	144.06
652.56	131.06
652.764	134.06
652.969	141.06
653.173	124.06
653.377	143.06
653.581	123.06
653.785	132.06
653.99	141.06
654.194	139.06
654.398	138.06
654.602	130.06
654.806	130.06
655.01	135.06
655.214	128.06
655.418	119.06
655.622	137.06
655.826	127.06
656.03	140.06
656.234	123.06
656.438	117.06
656.642	134.06
656.846	134.06
657.049	131.06
657.253	127.06
657.457	131.06
657.661	117.06
657.865	120.06
658.068	103.06
658.272	114.06
658.476	107.06
658.68	107.06
658.883	108.06
659.087	88.06
659.291	95.06
659.494	99.06
659.698	101.06
659.901	102.06
660.105	95.06
660.309	88.06
660.512	101.06
660.716	95.06
660.919	90.06
661.123	93.06
661.326	104.06
661.53	85.06
661.733	100.06
661.936	89.06
662.14	94.06
662.343	90.06
662.546	81.06
662.75	72.06
662.953	74.06
663.156	85.06
663.36	74.06
663.563	82.06
663.766	86.06
663.969	85.06
664.173	97.06
664.376	95.06
664.579	85.06
664.782	101.06
664.985	80.06
665.188	94.06
665.391	89.06
665.594	86.06
665.797	97.06
666	85.06
666.203	86.06
666.406	88.06
666.609	93.06
666.812	88.06
667.015	95.06
667.218	82.06
667.421	81.06
667.624	76.06
667.827	83.06
668.03	88.06
668.232	90.06
668.435	87.06
668.638	68.06
668.841	91.06
669.043	81.06
669.246	78.06
669.449	80.06
669.651	91.06
669.854	89.06
670.057	78.06
670.259	77.06
670.462	85.06
670.665	103.06
670.867	90.06
671.07	87.06
671.272	90.06
671.475	89.06
671.677	67.06
671.88	91.06
672.082	76.06
672.284	95.06
672.487	90.06
672.689	78.06
672.892	85.06
