Data from 1964.PennyLincolnUp.Lamp.En5.5.200Scan.071719.P1._HRD10591_14-05-29-909.txt Node
Date: Thu Jul 18 14:05:29 EDT 2019
User: cochatt
Spectrometer: HR+D1059
Trigger mode: 1
Integration Time (sec): 1.000000E-1
Scans to average: 1
Electric dark correction enabled: true
Nonlinearity correction enabled: false
Boxcar width: 0
XAxis mode: Wavelengths
Number of Pixels in Spectrum: 2048
>>>>>Begin Spectral Data<<<<<
223.165	-28.31
223.4	-28.31
223.635	-28.31
223.869	-21.31
224.104	-23.31
224.338	-4.31
224.573	-16.31
224.808	4.69
225.042	-3.31
225.277	-5.31
225.511	1.69
225.746	-9.31
225.98	9.69
226.215	16.69
226.449	-7.31
226.683	16.69
226.918	31.69
227.152	37.69
227.387	47.69
227.621	39.69
227.856	34.69
228.09	52.69
228.324	38.69
228.559	62.69
228.793	69.69
229.027	90.69
229.262	103.69
229.496	106.69
229.73	126.69
229.964	140.69
230.199	111.69
230.433	124.69
230.667	109.69
230.901	101.69
231.136	112.69
231.37	103.69
231.604	106.69
231.838	124.69
232.072	104.69
232.306	101.69
232.541	115.69
232.775	106.69
233.009	124.69
233.243	115.69
233.477	121.69
233.711	106.69
233.945	122.69
234.179	115.69
234.413	119.69
234.647	112.69
234.881	126.69
235.115	120.69
235.349	117.69
235.583	122.69
235.817	123.69
236.051	111.69
236.285	131.69
236.519	111.69
236.753	146.69
236.987	126.69
237.221	170.69
237.455	221.69
237.689	164.69
237.922	131.69
238.156	126.69
238.39	118.69
238.624	114.69
238.858	127.69
239.091	132.69
239.325	130.69
239.559	131.69
239.793	138.69
240.027	126.69
240.26	127.69
240.494	134.69
240.728	163.69
240.961	150.69
241.195	157.69
241.429	140.69
241.662	142.69
241.896	139.69
242.13	134.69
242.363	141.69
242.597	137.69
242.83	133.69
243.064	130.69
243.298	152.69
243.531	149.69
243.765	142.69
243.998	132.69
244.232	162.69
244.465	150.69
244.699	150.69
244.932	139.69
245.166	156.69
245.399	138.69
245.633	156.69
245.866	147.69
246.099	151.69
246.333	181.69
246.566	143.69
246.8	159.69
247.033	159.69
247.266	163.69
247.5	179.69
247.733	170.69
247.966	175.69
248.2	170.69
248.433	166.69
248.666	168.69
248.899	181.69
249.133	213.69
249.366	211.69
249.599	187.69
249.832	191.69
250.066	197.69
250.299	184.69
250.532	203.69
250.765	203.69
250.998	214.69
251.231	218.69
251.465	217.69
251.698	201.69
251.931	192.69
252.164	208.69
252.397	203.69
252.63	210.69
252.863	202.69
253.096	213.69
253.329	230.69
253.562	212.69
253.795	233.69
254.028	221.69
254.261	214.69
254.494	211.69
254.727	246.69
254.96	263.69
255.193	254.69
255.426	240.69
255.659	258.69
255.892	231.69
256.124	227.69
256.357	252.69
256.59	245.69
256.823	243.69
257.056	211.69
257.289	213.69
257.521	196.69
257.754	223.69
257.987	210.69
258.22	229.69
258.452	222.69
258.685	214.69
258.918	218.69
259.151	218.69
259.383	240.69
259.616	249.69
259.849	231.69
260.081	252.69
260.314	260.69
260.547	285.69
260.779	250.69
261.012	244.69
261.244	230.69
261.477	232.69
261.71	224.69
261.942	220.69
262.175	234.69
262.407	227.69
262.64	222.69
262.872	232.69
263.105	226.69
263.337	232.69
263.57	251.69
263.802	229.69
264.035	239.69
264.267	221.69
264.499	234.69
264.732	242.69
264.964	234.69
265.197	225.69
265.429	226.69
265.661	228.69
265.894	243.69
266.126	238.69
266.358	232.69
266.591	228.69
266.823	247.69
267.055	250.69
267.287	237.69
267.52	253.69
267.752	254.69
267.984	248.69
268.216	255.69
268.448	232.69
268.681	248.69
268.913	264.69
269.145	264.69
269.377	304.69
269.609	292.69
269.841	286.69
270.073	285.69
270.306	318.69
270.538	302.69
270.77	314.69
271.002	303.69
271.234	299.69
271.466	331.69
271.698	325.69
271.93	331.69
272.162	344.69
272.394	333.69
272.626	314.69
272.858	304.69
273.09	278.69
273.322	299.69
273.553	290.69
273.785	294.69
274.017	295.69
274.249	284.69
274.481	286.69
274.713	296.69
274.945	291.69
275.176	310.69
275.408	289.69
275.64	303.69
275.872	287.69
276.104	303.69
276.335	300.69
276.567	304.69
276.799	304.69
277.031	319.69
277.262	326.69
277.494	326.69
277.726	324.69
277.957	307.69
278.189	329.69
278.421	321.69
278.652	290.69
278.884	313.69
279.115	284.69
279.347	293.69
279.579	311.69
279.81	278.69
280.042	299.69
280.273	294.69
280.505	295.69
280.736	289.69
280.968	292.69
281.199	296.69
281.431	266.69
281.662	314.69
281.894	287.69
282.125	312.69
282.356	314.69
282.588	310.69
282.819	301.69
283.051	302.69
283.282	306.69
283.513	303.69
283.745	293.69
283.976	307.69
284.207	316.69
284.439	320.69
284.67	320.69
284.901	317.69
285.132	320.69
285.364	317.69
285.595	329.69
285.826	309.69
286.057	325.69
286.288	314.69
286.52	316.69
286.751	329.69
286.982	324.69
287.213	315.69
287.444	335.69
287.675	334.69
287.906	330.69
288.138	329.69
288.369	333.69
288.6	338.69
288.831	332.69
289.062	345.69
289.293	319.69
289.524	331.69
289.755	342.69
289.986	325.69
290.217	329.69
290.448	317.69
290.679	315.69
290.91	330.69
291.141	316.69
291.371	320.69
291.602	323.69
291.833	342.69
292.064	334.69
292.295	332.69
292.526	330.69
292.757	327.69
292.987	312.69
293.218	315.69
293.449	326.69
293.68	333.69
293.91	340.69
294.141	347.69
294.372	326.69
294.603	336.69
294.833	340.69
295.064	328.69
295.295	336.69
295.525	340.69
295.756	325.69
295.987	348.69
296.217	346.69
296.448	375.69
296.679	346.69
296.909	325.69
297.14	325.69
297.37	330.69
297.601	349.69
297.831	337.69
298.062	338.69
298.292	344.69
298.523	362.69
298.753	343.69
298.984	363.69
299.214	351.69
299.445	326.69
299.675	370.69
299.905	344.69
300.136	358.69
300.366	354.69
300.597	368.69
300.827	354.69
301.057	375.69
301.288	372.69
301.518	370.69
301.748	365.69
301.979	346.69
302.209	365.69
302.439	359.69
302.669	382.69
302.9	380.69
303.13	370.69
303.36	367.69
303.59	372.69
303.82	396.69
304.051	380.69
304.281	376.69
304.511	380.69
304.741	386.69
304.971	360.69
305.201	370.69
305.431	383.69
305.661	380.69
305.891	372.69
306.121	367.69
306.352	374.69
306.582	378.69
306.812	358.69
307.042	374.69
307.272	374.69
307.502	352.69
307.731	382.69
307.961	369.69
308.191	380.69
308.421	400.69
308.651	377.69
308.881	375.69
309.111	361.69
309.341	388.69
309.571	386.69
309.8	391.69
310.03	392.69
310.26	395.69
310.49	401.69
310.72	402.69
310.949	395.69
311.179	415.69
311.409	375.69
311.639	418.69
311.868	402.69
312.098	412.69
312.328	418.69
312.557	431.69
312.787	430.69
313.017	439.69
313.246	420.69
313.476	429.69
313.706	433.69
313.935	420.69
314.165	406.69
314.394	417.69
314.624	432.69
314.853	426.69
315.083	414.69
315.312	399.69
315.542	398.69
315.771	407.69
316.001	420.69
316.23	412.69
316.46	417.69
316.689	407.69
316.919	422.69
317.148	418.69
317.377	429.69
317.607	413.69
317.836	419.69
318.065	415.69
318.295	407.69
318.524	412.69
318.753	424.69
318.983	428.69
319.212	418.69
319.441	427.69
319.67	438.69
319.9	424.69
320.129	415.69
320.358	407.69
320.587	411.69
320.816	419.69
321.046	420.69
321.275	439.69
321.504	425.69
321.733	467.69
321.962	436.69
322.191	440.69
322.42	451.69
322.649	448.69
322.878	447.69
323.108	468.69
323.337	481.69
323.566	485.69
323.795	490.69
324.024	523.69
324.253	626.69
324.482	828.69
324.71	1226.69
324.939	1653.69
325.168	1395.69
325.397	783.69
325.626	579.69
325.855	524.69
326.084	510.69
326.313	474.69
326.542	485.69
326.77	527.69
326.999	596.69
327.228	771.69
327.457	1079.69
327.686	1237.69
327.914	838.69
328.143	614.69
328.372	567.69
328.6	560.69
328.829	527.69
329.058	559.69
329.287	558.69
329.515	517.69
329.744	517.69
329.972	517.69
330.201	517.69
330.43	550.69
330.658	546.69
330.887	571.69
331.115	567.69
331.344	523.69
331.572	498.69
331.801	518.69
332.03	483.69
332.258	500.69
332.486	480.69
332.715	490.69
332.943	491.69
333.172	496.69
333.4	511.69
333.629	500.69
333.857	531.69
334.085	540.69
334.314	554.69
334.542	575.69
334.771	564.69
334.999	510.69
335.227	522.69
335.455	487.69
335.684	506.69
335.912	495.69
336.14	461.69
336.369	518.69
336.597	491.69
336.825	484.69
337.053	483.69
337.281	488.69
337.51	476.69
337.738	476.69
337.966	471.69
338.194	484.69
338.422	457.69
338.65	451.69
338.878	461.69
339.106	463.69
339.334	476.69
339.562	471.69
339.79	472.69
340.018	469.69
340.246	446.69
340.474	469.69
340.702	465.69
340.93	446.69
341.158	446.69
341.386	460.69
341.614	456.69
341.842	460.69
342.07	456.69
342.298	448.69
342.526	456.69
342.754	427.69
342.981	452.69
343.209	442.69
343.437	464.69
343.665	491.69
343.893	469.69
344.12	492.69
344.348	519.69
344.576	475.69
344.804	483.69
345.031	455.69
345.259	458.69
345.487	461.69
345.714	467.69
345.942	450.69
346.17	440.69
346.397	432.69
346.625	429.69
346.853	449.69
347.08	432.69
347.308	407.69
347.535	447.69
347.763	439.69
347.99	439.69
348.218	448.69
348.445	432.69
348.673	431.69
348.9	428.69
349.128	429.69
349.355	416.69
349.583	440.69
349.81	417.69
350.037	416.69
350.265	413.69
350.492	418.69
350.72	426.69
350.947	425.69
351.174	440.69
351.402	429.69
351.629	442.69
351.856	430.69
352.083	430.69
352.311	434.69
352.538	442.69
352.765	445.69
352.992	418.69
353.22	440.69
353.447	430.69
353.674	397.69
353.901	412.69
354.128	413.69
354.355	422.69
354.583	401.69
354.81	422.69
355.037	405.69
355.264	402.69
355.491	418.69
355.718	415.69
355.945	423.69
356.172	414.69
356.399	410.69
356.626	420.69
356.853	411.69
357.08	392.69
357.307	405.69
357.534	407.69
357.761	397.69
357.988	419.69
358.215	413.69
358.441	411.69
358.668	398.69
358.895	393.69
359.122	418.69
359.349	411.69
359.576	428.69
359.802	432.69
360.029	441.69
360.256	444.69
360.483	446.69
360.709	424.69
360.936	424.69
361.163	419.69
361.39	428.69
361.616	426.69
361.843	415.69
362.07	408.69
362.296	437.69
362.523	412.69
362.749	419.69
362.976	408.69
363.203	399.69
363.429	389.69
363.656	410.69
363.882	421.69
364.109	399.69
364.335	410.69
364.562	414.69
364.788	396.69
365.015	402.69
365.241	410.69
365.468	395.69
365.694	410.69
365.92	398.69
366.147	406.69
366.373	404.69
366.599	397.69
366.826	392.69
367.052	375.69
367.278	409.69
367.505	396.69
367.731	427.69
367.957	403.69
368.184	414.69
368.41	412.69
368.636	407.69
368.862	406.69
369.089	423.69
369.315	407.69
369.541	402.69
369.767	399.69
369.993	416.69
370.219	422.69
370.445	405.69
370.672	395.69
370.898	393.69
371.124	414.69
371.35	380.69
371.576	417.69
371.802	399.69
372.028	396.69
372.254	414.69
372.48	403.69
372.706	411.69
372.932	401.69
373.158	414.69
373.384	422.69
373.61	400.69
373.835	416.69
374.061	408.69
374.287	431.69
374.513	439.69
374.739	422.69
374.965	424.69
375.191	434.69
375.416	418.69
375.642	410.69
375.868	425.69
376.094	417.69
376.319	408.69
376.545	382.69
376.771	401.69
376.997	405.69
377.222	414.69
377.448	402.69
377.674	380.69
377.899	412.69
378.125	408.69
378.35	394.69
378.576	410.69
378.802	406.69
379.027	392.69
379.253	390.69
379.478	409.69
379.704	408.69
379.929	391.69
380.155	398.69
380.38	392.69
380.606	411.69
380.831	382.69
381.057	383.69
381.282	398.69
381.507	414.69
381.733	407.69
381.958	409.69
382.184	388.69
382.409	427.69
382.634	402.69
382.86	388.69
383.085	412.69
383.31	423.69
383.535	434.69
383.761	425.69
383.986	418.69
384.211	413.69
384.436	423.69
384.662	432.69
384.887	440.69
385.112	419.69
385.337	442.69
385.562	442.69
385.787	434.69
386.013	442.69
386.238	431.69
386.463	438.69
386.688	446.69
386.913	412.69
387.138	439.69
387.363	440.69
387.588	457.69
387.813	427.69
388.038	446.69
388.263	435.69
388.488	419.69
388.713	431.69
388.938	450.69
389.163	425.69
389.387	438.69
389.612	431.69
389.837	447.69
390.062	411.69
390.287	454.69
390.512	440.69
390.736	447.69
390.961	426.69
391.186	427.69
391.411	428.69
391.636	434.69
391.86	438.69
392.085	448.69
392.31	451.69
392.534	458.69
392.759	451.69
392.984	444.69
393.208	444.69
393.433	450.69
393.658	448.69
393.882	432.69
394.107	436.69
394.331	446.69
394.556	432.69
394.78	458.69
395.005	449.69
395.229	443.69
395.454	446.69
395.678	448.69
395.903	445.69
396.127	475.69
396.352	437.69
396.576	451.69
396.801	476.69
397.025	461.69
397.249	457.69
397.474	471.69
397.698	472.69
397.922	470.69
398.147	501.69
398.371	487.69
398.595	491.69
398.82	502.69
399.044	520.69
399.268	546.69
399.492	562.69
399.717	601.69
399.941	588.69
400.165	621.69
400.389	593.69
400.613	576.69
400.837	527.69
401.062	507.69
401.286	496.69
401.51	503.69
401.734	489.69
401.958	498.69
402.182	476.69
402.406	488.69
402.63	505.69
402.854	499.69
403.078	484.69
403.302	504.69
403.526	521.69
403.75	496.69
403.974	520.69
404.198	517.69
404.422	515.69
404.645	510.69
404.869	542.69
405.093	539.69
405.317	564.69
405.541	614.69
405.765	570.69
405.988	534.69
406.212	550.69
406.436	554.69
406.66	546.69
406.883	533.69
407.107	571.69
407.331	616.69
407.555	643.69
407.778	668.69
408.002	604.69
408.226	564.69
408.449	537.69
408.673	548.69
408.896	572.69
409.12	592.69
409.344	562.69
409.567	549.69
409.791	518.69
410.014	512.69
410.238	484.69
410.461	491.69
410.685	528.69
410.908	535.69
411.132	538.69
411.355	543.69
411.578	542.69
411.802	504.69
412.025	518.69
412.249	533.69
412.472	520.69
412.695	550.69
412.919	550.69
413.142	515.69
413.365	515.69
413.589	488.69
413.812	501.69
414.035	493.69
414.258	496.69
414.482	467.69
414.705	484.69
414.928	466.69
415.151	496.69
415.374	466.69
415.597	467.69
415.821	469.69
416.044	477.69
416.267	471.69
416.49	478.69
416.713	468.69
416.936	470.69
417.159	468.69
417.382	466.69
417.605	477.69
417.828	492.69
418.051	470.69
418.274	483.69
418.497	470.69
418.72	467.69
418.943	466.69
419.166	482.69
419.389	518.69
419.611	514.69
419.834	493.69
420.057	466.69
420.28	502.69
420.503	487.69
420.726	501.69
420.948	498.69
421.171	505.69
421.394	552.69
421.617	492.69
421.839	500.69
422.062	499.69
422.285	499.69
422.507	531.69
422.73	590.69
422.953	566.69
423.175	523.69
423.398	504.69
423.621	505.69
423.843	537.69
424.066	516.69
424.288	511.69
424.511	505.69
424.733	552.69
424.956	626.69
425.178	599.69
425.401	574.69
425.623	620.69
425.846	531.69
426.068	530.69
426.291	506.69
426.513	497.69
426.735	501.69
426.958	534.69
427.18	610.69
427.402	688.69
427.625	732.69
427.847	649.69
428.069	570.69
428.292	538.69
428.514	502.69
428.736	491.69
428.958	474.69
429.181	483.69
429.403	464.69
429.625	466.69
429.847	492.69
430.069	555.69
430.292	538.69
430.514	484.69
430.736	492.69
430.958	451.69
431.18	447.69
431.402	445.69
431.624	420.69
431.846	428.69
432.068	441.69
432.29	444.69
432.512	451.69
432.734	463.69
432.956	447.69
433.178	462.69
433.4	452.69
433.622	459.69
433.844	446.69
434.066	444.69
434.287	448.69
434.509	459.69
434.731	482.69
434.953	451.69
435.175	488.69
435.397	487.69
435.618	522.69
435.84	524.69
436.062	592.69
436.284	643.69
436.505	544.69
436.727	502.69
436.949	454.69
437.17	459.69
437.392	456.69
437.614	457.69
437.835	493.69
438.057	575.69
438.278	639.69
438.5	639.69
438.721	694.69
438.943	666.69
439.165	532.69
439.386	525.69
439.608	512.69
439.829	513.69
440.05	540.69
440.272	543.69
440.493	529.69
440.715	464.69
440.936	476.69
441.158	468.69
441.379	449.69
441.6	490.69
441.822	479.69
442.043	536.69
442.264	592.69
442.486	605.69
442.707	554.69
442.928	528.69
443.149	517.69
443.371	507.69
443.592	534.69
443.813	632.69
444.034	685.69
444.255	565.69
444.476	516.69
444.698	529.69
444.919	505.69
445.14	592.69
445.361	557.69
445.582	527.69
445.803	578.69
446.024	637.69
446.245	655.69
446.466	597.69
446.687	520.69
446.908	479.69
447.129	459.69
447.35	453.69
447.571	450.69
447.792	446.69
448.013	445.69
448.234	466.69
448.455	510.69
448.675	599.69
448.896	672.69
449.117	572.69
449.338	576.69
449.559	647.69
449.779	716.69
450	574.69
450.221	488.69
450.442	453.69
450.662	445.69
450.883	429.69
451.104	454.69
451.324	431.69
451.545	411.69
451.766	399.69
451.986	408.69
452.207	398.69
452.428	404.69
452.648	425.69
452.869	399.69
453.089	414.69
453.31	415.69
453.53	393.69
453.751	398.69
453.971	397.69
454.192	414.69
454.412	409.69
454.633	419.69
454.853	395.69
455.073	402.69
455.294	444.69
455.514	464.69
455.734	464.69
455.955	417.69
456.175	392.69
456.395	384.69
456.616	377.69
456.836	388.69
457.056	396.69
457.276	400.69
457.497	432.69
457.717	398.69
457.937	389.69
458.157	400.69
458.377	414.69
458.598	422.69
458.818	449.69
459.038	508.69
459.258	529.69
459.478	475.69
459.698	453.69
459.918	429.69
460.138	424.69
460.358	438.69
460.578	452.69
460.798	458.69
461.018	454.69
461.238	462.69
461.458	477.69
461.678	459.69
461.898	475.69
462.118	462.69
462.338	461.69
462.558	491.69
462.777	495.69
462.997	500.69
463.217	500.69
463.437	517.69
463.657	520.69
463.876	492.69
464.096	471.69
464.316	483.69
464.536	503.69
464.755	490.69
464.975	488.69
465.195	491.69
465.414	521.69
465.634	493.69
465.854	451.69
466.073	422.69
466.293	430.69
466.512	414.69
466.732	417.69
466.951	391.69
467.171	416.69
467.391	424.69
467.61	415.69
467.829	440.69
468.049	419.69
468.268	416.69
468.488	423.69
468.707	400.69
468.927	411.69
469.146	392.69
469.365	412.69
469.585	405.69
469.804	413.69
470.023	407.69
470.243	422.69
470.462	430.69
470.681	440.69
470.901	441.69
471.12	439.69
471.339	438.69
471.558	423.69
471.777	407.69
471.997	418.69
472.216	424.69
472.435	451.69
472.654	453.69
472.873	418.69
473.092	420.69
473.311	420.69
473.53	418.69
473.749	427.69
473.968	467.69
474.187	547.69
474.406	550.69
474.625	459.69
474.844	435.69
475.063	411.69
475.282	454.69
475.501	424.69
475.72	457.69
475.939	448.69
476.158	421.69
476.377	447.69
476.596	420.69
476.814	449.69
477.033	447.69
477.252	456.69
477.471	467.69
477.69	454.69
477.908	466.69
478.127	458.69
478.346	451.69
478.564	473.69
478.783	485.69
479.002	495.69
479.22	495.69
479.439	482.69
479.658	507.69
479.876	496.69
480.095	526.69
480.313	554.69
480.532	531.69
480.751	515.69
480.969	539.69
481.188	586.69
481.406	578.69
481.624	535.69
481.843	500.69
482.061	501.69
482.28	470.69
482.498	473.69
482.717	500.69
482.935	491.69
483.153	484.69
483.372	483.69
483.59	488.69
483.808	477.69
484.027	492.69
484.245	463.69
484.463	502.69
484.681	494.69
484.9	490.69
485.118	497.69
485.336	494.69
485.554	490.69
485.772	502.69
485.99	510.69
486.209	495.69
486.427	507.69
486.645	502.69
486.863	522.69
487.081	526.69
487.299	499.69
487.517	530.69
487.735	531.69
487.953	536.69
488.171	495.69
488.389	520.69
488.607	521.69
488.825	528.69
489.043	492.69
489.261	526.69
489.479	525.69
489.696	535.69
489.914	510.69
490.132	574.69
490.35	534.69
490.568	542.69
490.786	538.69
491.003	554.69
491.221	556.69
491.439	564.69
491.657	579.69
491.874	587.69
492.092	575.69
492.31	572.69
492.527	567.69
492.745	572.69
492.963	593.69
493.18	578.69
493.398	605.69
493.615	596.69
493.833	611.69
494.05	585.69
494.268	614.69
494.485	578.69
494.703	609.69
494.92	609.69
495.138	587.69
495.355	619.69
495.573	614.69
495.79	612.69
496.008	606.69
496.225	599.69
496.442	620.69
496.66	598.69
496.877	616.69
497.094	598.69
497.312	623.69
497.529	603.69
497.746	632.69
497.963	644.69
498.181	684.69
498.398	684.69
498.615	679.69
498.832	671.69
499.049	707.69
499.267	731.69
499.484	756.69
499.701	806.69
499.918	807.69
500.135	893.69
500.352	937.69
500.569	953.69
500.786	932.69
501.003	931.69
501.22	871.69
501.437	845.69
501.654	820.69
501.871	807.69
502.088	782.69
502.305	714.69
502.522	735.69
502.739	704.69
502.956	649.69
503.172	638.69
503.389	639.69
503.606	634.69
503.823	620.69
504.04	617.69
504.256	619.69
504.473	628.69
504.69	639.69
504.907	607.69
505.123	607.69
505.34	571.69
505.557	576.69
505.773	589.69
505.99	564.69
506.207	581.69
506.423	587.69
506.64	574.69
506.856	588.69
507.073	548.69
507.289	544.69
507.506	553.69
507.722	542.69
507.939	551.69
508.155	535.69
508.372	530.69
508.588	528.69
508.805	548.69
509.021	550.69
509.238	538.69
509.454	528.69
509.67	543.69
509.887	522.69
510.103	536.69
510.319	534.69
510.536	574.69
510.752	800.69
510.968	666.69
511.184	516.69
511.401	548.69
511.617	500.69
511.833	491.69
512.049	505.69
512.265	479.69
512.481	514.69
512.698	495.69
512.914	496.69
513.13	471.69
513.346	512.69
513.562	524.69
513.778	515.69
513.994	502.69
514.21	501.69
514.426	526.69
514.642	516.69
514.858	552.69
515.074	539.69
515.29	643.69
515.506	804.69
515.721	695.69
515.937	553.69
516.153	530.69
516.369	534.69
516.585	527.69
516.801	544.69
517.016	551.69
517.232	541.69
517.448	564.69
517.664	557.69
517.879	557.69
518.095	556.69
518.311	540.69
518.527	542.69
518.742	530.69
518.958	514.69
519.173	538.69
519.389	532.69
519.605	540.69
519.82	506.69
520.036	489.69
520.251	502.69
520.467	506.69
520.682	523.69
520.898	526.69
521.113	551.69
521.329	545.69
521.544	573.69
521.76	675.69
521.975	946.69
522.19	888.69
522.406	620.69
522.621	531.69
522.836	460.69
523.052	471.69
523.267	460.69
523.482	464.69
523.698	451.69
523.913	463.69
524.128	452.69
524.343	444.69
524.559	442.69
524.774	439.69
524.989	415.69
525.204	440.69
525.419	436.69
525.634	449.69
525.849	434.69
526.064	442.69
526.28	418.69
526.495	440.69
526.71	404.69
526.925	423.69
527.14	409.69
527.355	401.69
527.57	419.69
527.785	428.69
527.999	416.69
528.214	423.69
528.429	416.69
528.644	426.69
528.859	409.69
529.074	414.69
529.289	434.69
529.503	458.69
529.718	438.69
529.933	447.69
530.148	417.69
530.363	414.69
530.577	406.69
530.792	397.69
531.007	414.69
531.221	412.69
531.436	406.69
531.651	410.69
531.865	394.69
532.08	405.69
532.295	404.69
532.509	418.69
532.724	403.69
532.938	396.69
533.153	413.69
533.367	406.69
533.582	412.69
533.796	406.69
534.011	408.69
534.225	409.69
534.44	423.69
534.654	399.69
534.868	416.69
535.083	398.69
535.297	393.69
535.511	389.69
535.726	403.69
535.94	424.69
536.154	379.69
536.369	410.69
536.583	398.69
536.797	395.69
537.011	393.69
537.225	386.69
537.44	378.69
537.654	383.69
537.868	381.69
538.082	387.69
538.296	388.69
538.51	370.69
538.724	394.69
538.938	393.69
539.153	401.69
539.367	408.69
539.581	396.69
539.795	392.69
540.009	409.69
540.222	382.69
540.436	385.69
540.65	383.69
540.864	396.69
541.078	388.69
541.292	406.69
541.506	397.69
541.72	386.69
541.934	371.69
542.147	385.69
542.361	397.69
542.575	373.69
542.789	389.69
543.002	378.69
543.216	409.69
543.43	391.69
543.644	378.69
543.857	388.69
544.071	387.69
544.285	406.69
544.498	381.69
544.712	392.69
544.925	382.69
545.139	380.69
545.352	379.69
545.566	376.69
545.779	376.69
545.993	389.69
546.206	377.69
546.42	408.69
546.633	374.69
546.847	378.69
547.06	381.69
547.274	374.69
547.487	379.69
547.7	379.69
547.914	369.69
548.127	384.69
548.34	384.69
548.554	351.69
548.767	377.69
548.98	372.69
549.193	374.69
549.407	377.69
549.62	370.69
549.833	371.69
550.046	353.69
550.259	378.69
550.473	356.69
550.686	391.69
550.899	380.69
551.112	363.69
551.325	374.69
551.538	365.69
551.751	376.69
551.964	382.69
552.177	381.69
552.39	376.69
552.603	394.69
552.816	402.69
553.029	382.69
553.242	390.69
553.455	379.69
553.667	393.69
553.88	388.69
554.093	394.69
554.306	386.69
554.519	370.69
554.732	369.69
554.944	372.69
555.157	371.69
555.37	367.69
555.583	364.69
555.795	370.69
556.008	355.69
556.221	363.69
556.433	330.69
556.646	332.69
556.859	325.69
557.071	332.69
557.284	344.69
557.496	350.69
557.709	336.69
557.921	338.69
558.134	342.69
558.346	332.69
558.559	318.69
558.771	344.69
558.984	339.69
559.196	366.69
559.409	336.69
559.621	326.69
559.833	317.69
560.046	325.69
560.258	310.69
560.47	329.69
560.683	308.69
560.895	335.69
561.107	321.69
561.32	350.69
561.532	348.69
561.744	337.69
561.956	322.69
562.168	328.69
562.381	336.69
562.593	335.69
562.805	334.69
563.017	349.69
563.229	328.69
563.441	330.69
563.653	350.69
563.865	329.69
564.077	349.69
564.289	359.69
564.501	342.69
564.713	346.69
564.925	365.69
565.137	349.69
565.349	356.69
565.561	357.69
565.773	356.69
565.985	370.69
566.197	386.69
566.408	397.69
566.62	414.69
566.832	422.69
567.044	434.69
567.255	426.69
567.467	437.69
567.679	438.69
567.891	471.69
568.102	442.69
568.314	426.69
568.526	420.69
568.737	418.69
568.949	391.69
569.161	386.69
569.372	351.69
569.584	348.69
569.795	354.69
570.007	344.69
570.218	357.69
570.43	376.69
570.641	334.69
570.853	322.69
571.064	330.69
571.276	336.69
571.487	323.69
571.698	322.69
571.91	322.69
572.121	310.69
572.333	318.69
572.544	310.69
572.755	304.69
572.966	297.69
573.178	294.69
573.389	300.69
573.6	302.69
573.811	302.69
574.023	305.69
574.234	300.69
574.445	295.69
574.656	281.69
574.867	302.69
575.078	284.69
575.289	298.69
575.501	282.69
575.712	285.69
575.923	302.69
576.134	258.69
576.345	270.69
576.556	272.69
576.767	299.69
576.978	291.69
577.188	291.69
577.399	291.69
577.61	281.69
577.821	275.69
578.032	281.69
578.243	308.69
578.454	371.69
578.665	314.69
578.875	268.69
579.086	264.69
579.297	268.69
579.508	281.69
579.718	271.69
579.929	266.69
580.14	272.69
580.35	278.69
580.561	251.69
580.772	282.69
580.982	273.69
581.193	253.69
581.403	247.69
581.614	241.69
581.825	257.69
582.035	256.69
582.246	281.69
582.456	264.69
582.667	264.69
582.877	239.69
583.087	266.69
583.298	273.69
583.508	275.69
583.719	265.69
583.929	256.69
584.139	264.69
584.35	268.69
584.56	263.69
584.77	278.69
584.981	262.69
585.191	258.69
585.401	266.69
585.611	243.69
585.821	251.69
586.032	250.69
586.242	249.69
586.452	261.69
586.662	252.69
586.872	257.69
587.082	253.69
587.292	247.69
587.502	254.69
587.713	254.69
587.923	251.69
588.133	263.69
588.343	262.69
588.553	250.69
588.762	253.69
588.972	251.69
589.182	250.69
589.392	261.69
589.602	260.69
589.812	251.69
590.022	256.69
590.232	242.69
590.441	251.69
590.651	261.69
590.861	266.69
591.071	255.69
591.281	244.69
591.49	271.69
591.7	259.69
591.91	263.69
592.119	277.69
592.329	254.69
592.539	260.69
592.748	274.69
592.958	283.69
593.167	275.69
593.377	273.69
593.587	281.69
593.796	287.69
594.006	279.69
594.215	287.69
594.424	269.69
594.634	277.69
594.843	275.69
595.053	277.69
595.262	255.69
595.472	261.69
595.681	250.69
595.89	266.69
596.1	266.69
596.309	231.69
596.518	248.69
596.727	250.69
596.937	258.69
597.146	234.69
597.355	241.69
597.564	242.69
597.774	237.69
597.983	224.69
598.192	237.69
598.401	218.69
598.61	214.69
598.819	226.69
599.028	240.69
599.237	227.69
599.446	227.69
599.655	221.69
599.864	217.69
600.073	239.69
600.282	238.69
600.491	228.69
600.7	217.69
600.909	220.69
601.118	214.69
601.327	227.69
601.536	236.69
601.745	201.69
601.953	209.69
602.162	219.69
602.371	213.69
602.58	206.69
602.789	203.69
602.997	211.69
603.206	216.69
603.415	219.69
603.623	218.69
603.832	219.69
604.041	203.69
604.249	214.69
604.458	210.69
604.666	204.69
604.875	229.69
605.084	215.69
605.292	228.69
605.501	212.69
605.709	220.69
605.918	200.69
606.126	211.69
606.334	204.69
606.543	210.69
606.751	205.69
606.96	209.69
607.168	197.69
607.376	211.69
607.585	219.69
607.793	223.69
608.001	215.69
608.21	217.69
608.418	211.69
608.626	212.69
608.834	220.69
609.043	202.69
609.251	207.69
609.459	197.69
609.667	226.69
609.875	216.69
610.083	205.69
610.291	215.69
610.499	210.69
610.707	211.69
610.916	208.69
611.124	234.69
611.332	215.69
611.54	226.69
611.748	211.69
611.955	212.69
612.163	206.69
612.371	222.69
612.579	214.69
612.787	189.69
612.995	214.69
613.203	221.69
613.411	221.69
613.618	201.69
613.826	203.69
614.034	202.69
614.242	214.69
614.449	203.69
614.657	203.69
614.865	204.69
615.072	218.69
615.28	200.69
615.488	204.69
615.695	203.69
615.903	195.69
616.111	197.69
616.318	190.69
616.526	228.69
616.733	210.69
616.941	185.69
617.148	211.69
617.356	208.69
617.563	200.69
617.771	204.69
617.978	209.69
618.185	206.69
618.393	197.69
618.6	200.69
618.807	202.69
619.015	209.69
619.222	197.69
619.429	210.69
619.637	203.69
619.844	194.69
620.051	192.69
620.258	185.69
620.466	193.69
620.673	191.69
620.88	180.69
621.087	190.69
621.294	203.69
621.501	179.69
621.708	193.69
621.915	220.69
622.122	194.69
622.329	187.69
622.536	197.69
622.743	188.69
622.95	193.69
623.157	183.69
623.364	185.69
623.571	200.69
623.778	194.69
623.985	181.69
624.192	190.69
624.399	184.69
624.606	179.69
624.812	189.69
625.019	186.69
625.226	172.69
625.433	208.69
625.639	182.69
625.846	195.69
626.053	164.69
626.259	173.69
626.466	186.69
626.673	205.69
626.879	180.69
627.086	202.69
627.293	194.69
627.499	163.69
627.706	186.69
627.912	176.69
628.119	187.69
628.325	192.69
628.532	183.69
628.738	189.69
628.945	178.69
629.151	182.69
629.357	170.69
629.564	196.69
629.77	183.69
629.976	175.69
630.183	171.69
630.389	170.69
630.595	162.69
630.802	174.69
631.008	175.69
631.214	172.69
631.42	152.69
631.627	164.69
631.833	163.69
632.039	183.69
632.245	171.69
632.451	193.69
632.657	173.69
632.863	164.69
633.069	156.69
633.275	167.69
633.481	155.69
633.688	161.69
633.893	157.69
634.099	162.69
634.305	171.69
634.511	160.69
634.717	154.69
634.923	147.69
635.129	171.69
635.335	165.69
635.541	151.69
635.747	163.69
635.952	178.69
636.158	156.69
636.364	162.69
636.57	158.69
636.775	164.69
636.981	160.69
637.187	172.69
637.392	172.69
637.598	178.69
637.804	157.69
638.009	162.69
638.215	182.69
638.421	153.69
638.626	152.69
638.832	157.69
639.037	155.69
639.243	171.69
639.448	154.69
639.654	156.69
639.859	141.69
640.065	152.69
640.27	172.69
640.475	150.69
640.681	173.69
640.886	172.69
641.091	170.69
641.297	167.69
641.502	148.69
641.707	149.69
641.913	153.69
642.118	158.69
642.323	143.69
642.528	154.69
642.733	148.69
642.939	167.69
643.144	147.69
643.349	145.69
643.554	161.69
643.759	158.69
643.964	144.69
644.169	157.69
644.374	150.69
644.579	162.69
644.784	151.69
644.989	154.69
645.194	151.69
645.399	161.69
645.604	147.69
645.809	154.69
646.014	160.69
646.219	153.69
646.423	157.69
646.628	163.69
646.833	153.69
647.038	165.69
647.243	154.69
647.447	162.69
647.652	162.69
647.857	160.69
648.062	152.69
648.266	152.69
648.471	157.69
648.676	163.69
648.88	173.69
649.085	166.69
649.289	172.69
649.494	149.69
649.698	155.69
649.903	155.69
650.107	148.69
650.312	164.69
650.516	150.69
650.721	132.69
650.925	150.69
651.13	142.69
651.334	142.69
651.539	142.69
651.743	142.69
651.947	124.69
652.152	143.69
652.356	148.69
652.56	135.69
652.764	143.69
652.969	133.69
653.173	134.69
653.377	130.69
653.581	125.69
653.785	132.69
653.99	129.69
654.194	127.69
654.398	128.69
654.602	141.69
654.806	134.69
655.01	127.69
655.214	133.69
655.418	139.69
655.622	132.69
655.826	134.69
656.03	127.69
656.234	132.69
656.438	137.69
656.642	121.69
656.846	143.69
657.049	129.69
657.253	128.69
657.457	125.69
657.661	101.69
657.865	123.69
658.068	107.69
658.272	128.69
658.476	112.69
658.68	99.69
658.883	109.69
659.087	96.69
659.291	108.69
659.494	98.69
659.698	98.69
659.901	106.69
660.105	88.69
660.309	105.69
660.512	91.69
660.716	96.69
660.919	95.69
661.123	89.69
661.326	100.69
661.53	99.69
661.733	87.69
661.936	79.69
662.14	93.69
662.343	73.69
662.546	93.69
662.75	92.69
662.953	95.69
663.156	87.69
663.36	78.69
663.563	81.69
663.766	83.69
663.969	84.69
664.173	75.69
664.376	87.69
664.579	86.69
664.782	83.69
664.985	98.69
665.188	80.69
665.391	75.69
665.594	86.69
665.797	72.69
666	67.69
666.203	73.69
666.406	89.69
666.609	84.69
666.812	90.69
667.015	86.69
667.218	73.69
667.421	72.69
667.624	80.69
667.827	82.69
668.03	84.69
668.232	77.69
668.435	92.69
668.638	96.69
668.841	103.69
669.043	95.69
669.246	89.69
669.449	92.69
669.651	93.69
669.854	92.69
670.057	71.69
670.259	89.69
670.462	83.69
670.665	98.69
670.867	94.69
671.07	93.69
671.272	94.69
671.475	86.69
671.677	76.69
671.88	73.69
672.082	89.69
672.284	87.69
672.487	82.69
672.689	82.69
672.892	84.69
