Data from 1964.PennyLincolnUp.Lamp.En5.5.200Scan.071719.P1._HRD10591_14-03-24-909.txt Node
Date: Thu Jul 18 14:03:24 EDT 2019
User: cochatt
Spectrometer: HR+D1059
Trigger mode: 1
Integration Time (sec): 1.000000E-1
Scans to average: 1
Electric dark correction enabled: true
Nonlinearity correction enabled: false
Boxcar width: 0
XAxis mode: Wavelengths
Number of Pixels in Spectrum: 2048
>>>>>Begin Spectral Data<<<<<
223.165	-18.12
223.4	-18.12
223.635	-18.12
223.869	-26.12
224.104	-17.12
224.338	-14.12
224.573	-22.12
224.808	-1.12
225.042	-7.12
225.277	1.88
225.511	8.88
225.746	8.88
225.98	-8.12
226.215	8.88
226.449	9.88
226.683	20.88
226.918	20.88
227.152	33.88
227.387	42.88
227.621	41.88
227.856	44.88
228.09	55.88
228.324	45.88
228.559	66.88
228.793	65.88
229.027	82.88
229.262	95.88
229.496	107.88
229.73	101.88
229.964	117.88
230.199	109.88
230.433	119.88
230.667	116.88
230.901	106.88
231.136	88.88
231.37	107.88
231.604	111.88
231.838	99.88
232.072	104.88
232.306	99.88
232.541	114.88
232.775	118.88
233.009	113.88
233.243	102.88
233.477	123.88
233.711	110.88
233.945	108.88
234.179	107.88
234.413	109.88
234.647	134.88
234.881	92.88
235.115	103.88
235.349	109.88
235.583	113.88
235.817	105.88
236.051	133.88
236.285	122.88
236.519	125.88
236.753	114.88
236.987	112.88
237.221	160.88
237.455	164.88
237.689	147.88
237.922	120.88
238.156	122.88
238.39	122.88
238.624	129.88
238.858	107.88
239.091	116.88
239.325	124.88
239.559	126.88
239.793	126.88
240.027	124.88
240.26	138.88
240.494	125.88
240.728	138.88
240.961	118.88
241.195	128.88
241.429	108.88
241.662	119.88
241.896	134.88
242.13	135.88
242.363	124.88
242.597	136.88
242.83	130.88
243.064	124.88
243.298	120.88
243.531	133.88
243.765	118.88
243.998	135.88
244.232	137.88
244.465	150.88
244.699	137.88
244.932	132.88
245.166	151.88
245.399	137.88
245.633	128.88
245.866	140.88
246.099	146.88
246.333	143.88
246.566	148.88
246.8	133.88
247.033	140.88
247.266	142.88
247.5	153.88
247.733	155.88
247.966	170.88
248.2	157.88
248.433	170.88
248.666	162.88
248.899	176.88
249.133	161.88
249.366	178.88
249.599	171.88
249.832	139.88
250.066	173.88
250.299	146.88
250.532	169.88
250.765	198.88
250.998	198.88
251.231	200.88
251.465	173.88
251.698	170.88
251.931	186.88
252.164	177.88
252.397	176.88
252.63	175.88
252.863	200.88
253.096	193.88
253.329	192.88
253.562	217.88
253.795	195.88
254.028	197.88
254.261	199.88
254.494	203.88
254.727	196.88
254.96	236.88
255.193	224.88
255.426	208.88
255.659	198.88
255.892	204.88
256.124	216.88
256.357	190.88
256.59	199.88
256.823	194.88
257.056	184.88
257.289	183.88
257.521	193.88
257.754	192.88
257.987	209.88
258.22	197.88
258.452	185.88
258.685	213.88
258.918	208.88
259.151	198.88
259.383	213.88
259.616	214.88
259.849	197.88
260.081	215.88
260.314	225.88
260.547	232.88
260.779	227.88
261.012	226.88
261.244	202.88
261.477	211.88
261.71	214.88
261.942	217.88
262.175	238.88
262.407	202.88
262.64	207.88
262.872	218.88
263.105	207.88
263.337	217.88
263.57	200.88
263.802	215.88
264.035	204.88
264.267	204.88
264.499	204.88
264.732	219.88
264.964	203.88
265.197	213.88
265.429	221.88
265.661	212.88
265.894	212.88
266.126	215.88
266.358	213.88
266.591	201.88
266.823	221.88
267.055	216.88
267.287	206.88
267.52	226.88
267.752	223.88
267.984	235.88
268.216	221.88
268.448	221.88
268.681	225.88
268.913	233.88
269.145	261.88
269.377	238.88
269.609	250.88
269.841	240.88
270.073	261.88
270.306	272.88
270.538	267.88
270.77	282.88
271.002	287.88
271.234	257.88
271.466	276.88
271.698	285.88
271.93	287.88
272.162	277.88
272.394	289.88
272.626	269.88
272.858	259.88
273.09	253.88
273.322	268.88
273.553	263.88
273.785	250.88
274.017	270.88
274.249	229.88
274.481	247.88
274.713	260.88
274.945	262.88
275.176	265.88
275.408	263.88
275.64	255.88
275.872	260.88
276.104	264.88
276.335	274.88
276.567	264.88
276.799	271.88
277.031	275.88
277.262	286.88
277.494	288.88
277.726	281.88
277.957	282.88
278.189	268.88
278.421	270.88
278.652	281.88
278.884	273.88
279.115	276.88
279.347	280.88
279.579	277.88
279.81	274.88
280.042	285.88
280.273	282.88
280.505	285.88
280.736	265.88
280.968	258.88
281.199	277.88
281.431	273.88
281.662	281.88
281.894	280.88
282.125	274.88
282.356	311.88
282.588	303.88
282.819	292.88
283.051	282.88
283.282	268.88
283.513	284.88
283.745	284.88
283.976	281.88
284.207	282.88
284.439	271.88
284.67	292.88
284.901	289.88
285.132	297.88
285.364	296.88
285.595	296.88
285.826	274.88
286.057	279.88
286.288	276.88
286.52	308.88
286.751	299.88
286.982	298.88
287.213	290.88
287.444	292.88
287.675	286.88
287.906	303.88
288.138	290.88
288.369	308.88
288.6	314.88
288.831	291.88
289.062	316.88
289.293	288.88
289.524	290.88
289.755	275.88
289.986	289.88
290.217	307.88
290.448	285.88
290.679	311.88
290.91	320.88
291.141	295.88
291.371	286.88
291.602	317.88
291.833	303.88
292.064	306.88
292.295	296.88
292.526	302.88
292.757	298.88
292.987	293.88
293.218	310.88
293.449	296.88
293.68	303.88
293.91	324.88
294.141	308.88
294.372	318.88
294.603	315.88
294.833	304.88
295.064	309.88
295.295	312.88
295.525	285.88
295.756	296.88
295.987	315.88
296.217	316.88
296.448	341.88
296.679	310.88
296.909	316.88
297.14	328.88
297.37	324.88
297.601	311.88
297.831	318.88
298.062	325.88
298.292	318.88
298.523	334.88
298.753	322.88
298.984	306.88
299.214	328.88
299.445	317.88
299.675	321.88
299.905	322.88
300.136	322.88
300.366	316.88
300.597	319.88
300.827	325.88
301.057	333.88
301.288	327.88
301.518	319.88
301.748	329.88
301.979	332.88
302.209	332.88
302.439	342.88
302.669	346.88
302.9	335.88
303.13	321.88
303.36	353.88
303.59	354.88
303.82	343.88
304.051	351.88
304.281	339.88
304.511	345.88
304.741	341.88
304.971	339.88
305.201	317.88
305.431	329.88
305.661	325.88
305.891	335.88
306.121	325.88
306.352	344.88
306.582	339.88
306.812	328.88
307.042	337.88
307.272	331.88
307.502	301.88
307.731	333.88
307.961	330.88
308.191	338.88
308.421	356.88
308.651	351.88
308.881	331.88
309.111	347.88
309.341	352.88
309.571	373.88
309.8	359.88
310.03	354.88
310.26	355.88
310.49	361.88
310.72	362.88
310.949	386.88
311.179	374.88
311.409	344.88
311.639	351.88
311.868	361.88
312.098	366.88
312.328	377.88
312.557	364.88
312.787	374.88
313.017	359.88
313.246	366.88
313.476	376.88
313.706	367.88
313.935	384.88
314.165	367.88
314.394	372.88
314.624	380.88
314.853	368.88
315.083	396.88
315.312	376.88
315.542	377.88
315.771	362.88
316.001	378.88
316.23	377.88
316.46	363.88
316.689	350.88
316.919	377.88
317.148	376.88
317.377	379.88
317.607	366.88
317.836	378.88
318.065	373.88
318.295	388.88
318.524	363.88
318.753	367.88
318.983	369.88
319.212	370.88
319.441	379.88
319.67	373.88
319.9	379.88
320.129	376.88
320.358	384.88
320.587	408.88
320.816	369.88
321.046	378.88
321.275	380.88
321.504	379.88
321.733	385.88
321.962	385.88
322.191	396.88
322.42	406.88
322.649	397.88
322.878	401.88
323.108	401.88
323.337	411.88
323.566	417.88
323.795	431.88
324.024	469.88
324.253	538.88
324.482	696.88
324.71	1006.88
324.939	1350.88
325.168	1156.88
325.397	616.88
325.626	482.88
325.855	436.88
326.084	424.88
326.313	414.88
326.542	414.88
326.77	464.88
326.999	505.88
327.228	629.88
327.457	916.88
327.686	1052.88
327.914	695.88
328.143	522.88
328.372	470.88
328.6	461.88
328.829	428.88
329.058	456.88
329.287	455.88
329.515	461.88
329.744	427.88
329.972	426.88
330.201	432.88
330.43	462.88
330.658	474.88
330.887	492.88
331.115	466.88
331.344	448.88
331.572	440.88
331.801	440.88
332.03	444.88
332.258	438.88
332.486	421.88
332.715	414.88
332.943	427.88
333.172	430.88
333.4	448.88
333.629	480.88
333.857	486.88
334.085	469.88
334.314	500.88
334.542	507.88
334.771	496.88
334.999	478.88
335.227	466.88
335.455	446.88
335.684	448.88
335.912	447.88
336.14	432.88
336.369	443.88
336.597	420.88
336.825	418.88
337.053	434.88
337.281	432.88
337.51	431.88
337.738	430.88
337.966	415.88
338.194	439.88
338.422	442.88
338.65	427.88
338.878	450.88
339.106	422.88
339.334	408.88
339.562	406.88
339.79	420.88
340.018	414.88
340.246	431.88
340.474	410.88
340.702	423.88
340.93	419.88
341.158	405.88
341.386	406.88
341.614	424.88
341.842	426.88
342.07	412.88
342.298	404.88
342.526	400.88
342.754	420.88
342.981	397.88
343.209	408.88
343.437	444.88
343.665	416.88
343.893	417.88
344.12	439.88
344.348	444.88
344.576	444.88
344.804	410.88
345.031	437.88
345.259	433.88
345.487	418.88
345.714	437.88
345.942	395.88
346.17	402.88
346.397	401.88
346.625	381.88
346.853	386.88
347.08	375.88
347.308	397.88
347.535	380.88
347.763	398.88
347.99	401.88
348.218	398.88
348.445	414.88
348.673	393.88
348.9	382.88
349.128	402.88
349.355	384.88
349.583	383.88
349.81	402.88
350.037	387.88
350.265	383.88
350.492	369.88
350.72	385.88
350.947	376.88
351.174	388.88
351.402	391.88
351.629	402.88
351.856	393.88
352.083	383.88
352.311	394.88
352.538	381.88
352.765	382.88
352.992	397.88
353.22	382.88
353.447	380.88
353.674	384.88
353.901	376.88
354.128	375.88
354.355	377.88
354.583	372.88
354.81	372.88
355.037	376.88
355.264	381.88
355.491	365.88
355.718	370.88
355.945	359.88
356.172	354.88
356.399	369.88
356.626	379.88
356.853	358.88
357.08	382.88
357.307	363.88
357.534	355.88
357.761	345.88
357.988	360.88
358.215	370.88
358.441	366.88
358.668	377.88
358.895	372.88
359.122	361.88
359.349	386.88
359.576	371.88
359.802	374.88
360.029	401.88
360.256	389.88
360.483	379.88
360.709	382.88
360.936	385.88
361.163	369.88
361.39	380.88
361.616	394.88
361.843	376.88
362.07	376.88
362.296	373.88
362.523	365.88
362.749	385.88
362.976	376.88
363.203	372.88
363.429	366.88
363.656	388.88
363.882	352.88
364.109	367.88
364.335	371.88
364.562	378.88
364.788	371.88
365.015	372.88
365.241	367.88
365.468	363.88
365.694	368.88
365.92	360.88
366.147	368.88
366.373	374.88
366.599	356.88
366.826	380.88
367.052	365.88
367.278	367.88
367.505	376.88
367.731	355.88
367.957	374.88
368.184	339.88
368.41	372.88
368.636	366.88
368.862	376.88
369.089	363.88
369.315	368.88
369.541	366.88
369.767	380.88
369.993	350.88
370.219	386.88
370.445	367.88
370.672	378.88
370.898	375.88
371.124	380.88
371.35	378.88
371.576	373.88
371.802	377.88
372.028	395.88
372.254	386.88
372.48	379.88
372.706	390.88
372.932	392.88
373.158	358.88
373.384	361.88
373.61	354.88
373.835	372.88
374.061	367.88
374.287	378.88
374.513	374.88
374.739	383.88
374.965	378.88
375.191	368.88
375.416	400.88
375.642	376.88
375.868	385.88
376.094	381.88
376.319	373.88
376.545	363.88
376.771	374.88
376.997	391.88
377.222	357.88
377.448	335.88
377.674	374.88
377.899	374.88
378.125	361.88
378.35	352.88
378.576	369.88
378.802	367.88
379.027	358.88
379.253	363.88
379.478	368.88
379.704	375.88
379.929	376.88
380.155	376.88
380.38	352.88
380.606	381.88
380.831	369.88
381.057	376.88
381.282	388.88
381.507	386.88
381.733	374.88
381.958	380.88
382.184	386.88
382.409	388.88
382.634	366.88
382.86	369.88
383.085	399.88
383.31	366.88
383.535	384.88
383.761	396.88
383.986	388.88
384.211	385.88
384.436	394.88
384.662	384.88
384.887	408.88
385.112	418.88
385.337	407.88
385.562	409.88
385.787	410.88
386.013	402.88
386.238	399.88
386.463	428.88
386.688	409.88
386.913	423.88
387.138	408.88
387.363	399.88
387.588	398.88
387.813	401.88
388.038	412.88
388.263	408.88
388.488	422.88
388.713	413.88
388.938	395.88
389.163	418.88
389.387	415.88
389.612	398.88
389.837	391.88
390.062	393.88
390.287	393.88
390.512	393.88
390.736	377.88
390.961	383.88
391.186	410.88
391.411	390.88
391.636	414.88
391.86	413.88
392.085	429.88
392.31	407.88
392.534	408.88
392.759	424.88
392.984	411.88
393.208	400.88
393.433	439.88
393.658	449.88
393.882	406.88
394.107	414.88
394.331	405.88
394.556	410.88
394.78	403.88
395.005	408.88
395.229	396.88
395.454	410.88
395.678	418.88
395.903	415.88
396.127	451.88
396.352	429.88
396.576	437.88
396.801	434.88
397.025	458.88
397.249	460.88
397.474	427.88
397.698	425.88
397.922	462.88
398.147	447.88
398.371	444.88
398.595	437.88
398.82	450.88
399.044	486.88
399.268	477.88
399.492	510.88
399.717	536.88
399.941	537.88
400.165	548.88
400.389	542.88
400.613	522.88
400.837	484.88
401.062	461.88
401.286	475.88
401.51	452.88
401.734	469.88
401.958	445.88
402.182	472.88
402.406	466.88
402.63	445.88
402.854	479.88
403.078	469.88
403.302	471.88
403.526	476.88
403.75	465.88
403.974	481.88
404.198	456.88
404.422	491.88
404.645	480.88
404.869	481.88
405.093	499.88
405.317	556.88
405.541	524.88
405.765	511.88
405.988	468.88
406.212	482.88
406.436	500.88
406.66	503.88
406.883	515.88
407.107	527.88
407.331	557.88
407.555	581.88
407.778	568.88
408.002	537.88
408.226	517.88
408.449	509.88
408.673	521.88
408.896	519.88
409.12	537.88
409.344	518.88
409.567	498.88
409.791	478.88
410.014	454.88
410.238	455.88
410.461	472.88
410.685	446.88
410.908	473.88
411.132	498.88
411.355	504.88
411.578	504.88
411.802	474.88
412.025	425.88
412.249	450.88
412.472	480.88
412.695	492.88
412.919	477.88
413.142	460.88
413.365	449.88
413.589	455.88
413.812	444.88
414.035	431.88
414.258	447.88
414.482	460.88
414.705	443.88
414.928	438.88
415.151	438.88
415.374	434.88
415.597	431.88
415.821	418.88
416.044	444.88
416.267	436.88
416.49	442.88
416.713	430.88
416.936	409.88
417.159	424.88
417.382	432.88
417.605	431.88
417.828	440.88
418.051	439.88
418.274	439.88
418.497	437.88
418.72	444.88
418.943	416.88
419.166	426.88
419.389	464.88
419.611	463.88
419.834	438.88
420.057	469.88
420.28	462.88
420.503	430.88
420.726	443.88
420.948	446.88
421.171	471.88
421.394	476.88
421.617	446.88
421.839	441.88
422.062	450.88
422.285	452.88
422.507	492.88
422.73	525.88
422.953	530.88
423.175	482.88
423.398	454.88
423.621	450.88
423.843	469.88
424.066	477.88
424.288	460.88
424.511	468.88
424.733	517.88
424.956	538.88
425.178	534.88
425.401	524.88
425.623	550.88
425.846	482.88
426.068	457.88
426.291	441.88
426.513	466.88
426.735	459.88
426.958	480.88
427.18	532.88
427.402	605.88
427.625	692.88
427.847	589.88
428.069	508.88
428.292	474.88
428.514	428.88
428.736	430.88
428.958	417.88
429.181	423.88
429.403	403.88
429.625	414.88
429.847	452.88
430.069	491.88
430.292	486.88
430.514	425.88
430.736	414.88
430.958	418.88
431.18	397.88
431.402	397.88
431.624	402.88
431.846	421.88
432.068	382.88
432.29	429.88
432.512	399.88
432.734	413.88
432.956	403.88
433.178	431.88
433.4	400.88
433.622	423.88
433.844	410.88
434.066	416.88
434.287	406.88
434.509	413.88
434.731	430.88
434.953	430.88
435.175	421.88
435.397	441.88
435.618	452.88
435.84	479.88
436.062	516.88
436.284	572.88
436.505	500.88
436.727	453.88
436.949	422.88
437.17	418.88
437.392	420.88
437.614	420.88
437.835	440.88
438.057	480.88
438.278	547.88
438.5	532.88
438.721	606.88
438.943	560.88
439.165	497.88
439.386	439.88
439.608	437.88
439.829	442.88
440.05	453.88
440.272	486.88
440.493	439.88
440.715	454.88
440.936	425.88
441.158	431.88
441.379	443.88
441.6	429.88
441.822	436.88
442.043	474.88
442.264	510.88
442.486	556.88
442.707	478.88
442.928	452.88
443.149	453.88
443.371	470.88
443.592	502.88
443.813	548.88
444.034	609.88
444.255	494.88
444.476	460.88
444.698	464.88
444.919	471.88
445.14	562.88
445.361	504.88
445.582	463.88
445.803	481.88
446.024	567.88
446.245	558.88
446.466	539.88
446.687	467.88
446.908	431.88
447.129	400.88
447.35	403.88
447.571	407.88
447.792	402.88
448.013	385.88
448.234	421.88
448.455	434.88
448.675	518.88
448.896	585.88
449.117	515.88
449.338	489.88
449.559	552.88
449.779	633.88
450	513.88
450.221	431.88
450.442	413.88
450.662	391.88
450.883	384.88
451.104	386.88
451.324	381.88
451.545	397.88
451.766	397.88
451.986	377.88
452.207	371.88
452.428	354.88
452.648	359.88
452.869	387.88
453.089	353.88
453.31	374.88
453.53	379.88
453.751	348.88
453.971	373.88
454.192	390.88
454.412	354.88
454.633	366.88
454.853	341.88
455.073	372.88
455.294	391.88
455.514	421.88
455.734	420.88
455.955	388.88
456.175	355.88
456.395	344.88
456.616	350.88
456.836	339.88
457.056	348.88
457.276	348.88
457.497	381.88
457.717	342.88
457.937	368.88
458.157	360.88
458.377	377.88
458.598	365.88
458.818	402.88
459.038	441.88
459.258	457.88
459.478	410.88
459.698	399.88
459.918	402.88
460.138	406.88
460.358	421.88
460.578	415.88
460.798	425.88
461.018	419.88
461.238	429.88
461.458	439.88
461.678	419.88
461.898	423.88
462.118	443.88
462.338	447.88
462.558	438.88
462.777	454.88
462.997	449.88
463.217	478.88
463.437	460.88
463.657	476.88
463.876	466.88
464.096	444.88
464.316	441.88
464.536	467.88
464.755	447.88
464.975	458.88
465.195	465.88
465.414	454.88
465.634	454.88
465.854	417.88
466.073	416.88
466.293	390.88
466.512	388.88
466.732	373.88
466.951	407.88
467.171	395.88
467.391	390.88
467.61	378.88
467.829	350.88
468.049	380.88
468.268	384.88
468.488	379.88
468.707	375.88
468.927	383.88
469.146	372.88
469.365	370.88
469.585	367.88
469.804	368.88
470.023	400.88
470.243	393.88
470.462	369.88
470.681	408.88
470.901	378.88
471.12	379.88
471.339	394.88
471.558	385.88
471.777	382.88
471.997	401.88
472.216	420.88
472.435	413.88
472.654	403.88
472.873	377.88
473.092	378.88
473.311	393.88
473.53	398.88
473.749	392.88
473.968	406.88
474.187	507.88
474.406	485.88
474.625	414.88
474.844	422.88
475.063	387.88
475.282	390.88
475.501	410.88
475.72	409.88
475.939	400.88
476.158	417.88
476.377	396.88
476.596	387.88
476.814	402.88
477.033	400.88
477.252	432.88
477.471	423.88
477.69	402.88
477.908	408.88
478.127	446.88
478.346	426.88
478.564	418.88
478.783	430.88
479.002	458.88
479.22	454.88
479.439	462.88
479.658	475.88
479.876	458.88
480.095	457.88
480.313	489.88
480.532	469.88
480.751	483.88
480.969	479.88
481.188	507.88
481.406	506.88
481.624	473.88
481.843	465.88
482.061	470.88
482.28	462.88
482.498	456.88
482.717	439.88
482.935	457.88
483.153	449.88
483.372	442.88
483.59	448.88
483.808	447.88
484.027	418.88
484.245	466.88
484.463	443.88
484.681	454.88
484.9	441.88
485.118	440.88
485.336	457.88
485.554	448.88
485.772	468.88
485.99	457.88
486.209	480.88
486.427	480.88
486.645	465.88
486.863	470.88
487.081	458.88
487.299	464.88
487.517	488.88
487.735	477.88
487.953	468.88
488.171	467.88
488.389	472.88
488.607	486.88
488.825	482.88
489.043	469.88
489.261	479.88
489.479	477.88
489.696	466.88
489.914	480.88
490.132	470.88
490.35	484.88
490.568	469.88
490.786	485.88
491.003	506.88
491.221	508.88
491.439	522.88
491.657	505.88
491.874	501.88
492.092	510.88
492.31	523.88
492.527	493.88
492.745	512.88
492.963	505.88
493.18	513.88
493.398	523.88
493.615	523.88
493.833	519.88
494.05	556.88
494.268	514.88
494.485	526.88
494.703	529.88
494.92	540.88
495.138	543.88
495.355	536.88
495.573	511.88
495.79	536.88
496.008	556.88
496.225	550.88
496.442	553.88
496.66	550.88
496.877	555.88
497.094	560.88
497.312	548.88
497.529	564.88
497.746	586.88
497.963	588.88
498.181	601.88
498.398	618.88
498.615	615.88
498.832	659.88
499.049	654.88
499.267	689.88
499.484	705.88
499.701	732.88
499.918	794.88
500.135	829.88
500.352	830.88
500.569	837.88
500.786	865.88
501.003	872.88
501.22	803.88
501.437	776.88
501.654	748.88
501.871	712.88
502.088	684.88
502.305	641.88
502.522	654.88
502.739	646.88
502.956	606.88
503.172	579.88
503.389	578.88
503.606	554.88
503.823	557.88
504.04	557.88
504.256	551.88
504.473	554.88
504.69	566.88
504.907	558.88
505.123	539.88
505.34	531.88
505.557	544.88
505.773	503.88
505.99	518.88
506.207	512.88
506.423	492.88
506.64	496.88
506.856	490.88
507.073	498.88
507.289	500.88
507.506	504.88
507.722	508.88
507.939	498.88
508.155	492.88
508.372	489.88
508.588	460.88
508.805	475.88
509.021	466.88
509.238	461.88
509.454	478.88
509.67	476.88
509.887	459.88
510.103	464.88
510.319	466.88
510.536	529.88
510.752	687.88
510.968	598.88
511.184	468.88
511.401	457.88
511.617	449.88
511.833	469.88
512.049	479.88
512.265	451.88
512.481	441.88
512.698	456.88
512.914	461.88
513.13	433.88
513.346	436.88
513.562	422.88
513.778	445.88
513.994	451.88
514.21	452.88
514.426	481.88
514.642	491.88
514.858	460.88
515.074	497.88
515.29	551.88
515.506	679.88
515.721	611.88
515.937	502.88
516.153	486.88
516.369	465.88
516.585	464.88
516.801	468.88
517.016	491.88
517.232	497.88
517.448	491.88
517.664	479.88
517.879	490.88
518.095	498.88
518.311	505.88
518.527	500.88
518.742	469.88
518.958	479.88
519.173	490.88
519.389	460.88
519.605	433.88
519.82	446.88
520.036	460.88
520.251	452.88
520.467	464.88
520.682	465.88
520.898	459.88
521.113	458.88
521.329	485.88
521.544	517.88
521.76	581.88
521.975	783.88
522.19	792.88
522.406	538.88
522.621	454.88
522.836	429.88
523.052	426.88
523.267	417.88
523.482	410.88
523.698	405.88
523.913	409.88
524.128	409.88
524.343	437.88
524.559	408.88
524.774	413.88
524.989	400.88
525.204	411.88
525.419	407.88
525.634	407.88
525.849	374.88
526.064	394.88
526.28	396.88
526.495	389.88
526.71	380.88
526.925	382.88
527.14	402.88
527.355	390.88
527.57	384.88
527.785	402.88
527.999	382.88
528.214	390.88
528.429	384.88
528.644	375.88
528.859	397.88
529.074	406.88
529.289	392.88
529.503	418.88
529.718	407.88
529.933	393.88
530.148	389.88
530.363	385.88
530.577	389.88
530.792	383.88
531.007	392.88
531.221	388.88
531.436	381.88
531.651	387.88
531.865	367.88
532.08	372.88
532.295	360.88
532.509	379.88
532.724	385.88
532.938	384.88
533.153	376.88
533.367	383.88
533.582	391.88
533.796	395.88
534.011	383.88
534.225	360.88
534.44	368.88
534.654	375.88
534.868	381.88
535.083	375.88
535.297	384.88
535.511	379.88
535.726	372.88
535.94	375.88
536.154	379.88
536.369	365.88
536.583	355.88
536.797	357.88
537.011	352.88
537.225	343.88
537.44	369.88
537.654	365.88
537.868	369.88
538.082	373.88
538.296	358.88
538.51	351.88
538.724	382.88
538.938	361.88
539.153	376.88
539.367	358.88
539.581	377.88
539.795	372.88
540.009	365.88
540.222	358.88
540.436	358.88
540.65	362.88
540.864	357.88
541.078	361.88
541.292	364.88
541.506	372.88
541.72	347.88
541.934	362.88
542.147	347.88
542.361	363.88
542.575	363.88
542.789	346.88
543.002	338.88
543.216	355.88
543.43	338.88
543.644	365.88
543.857	349.88
544.071	365.88
544.285	360.88
544.498	359.88
544.712	378.88
544.925	360.88
545.139	364.88
545.352	352.88
545.566	372.88
545.779	347.88
545.993	348.88
546.206	352.88
546.42	368.88
546.633	348.88
546.847	369.88
547.06	358.88
547.274	353.88
547.487	361.88
547.7	348.88
547.914	363.88
548.127	353.88
548.34	353.88
548.554	351.88
548.767	377.88
548.98	362.88
549.193	359.88
549.407	356.88
549.62	349.88
549.833	357.88
550.046	337.88
550.259	369.88
550.473	360.88
550.686	349.88
550.899	363.88
551.112	359.88
551.325	353.88
551.538	338.88
551.751	356.88
551.964	343.88
552.177	357.88
552.39	340.88
552.603	356.88
552.816	345.88
553.029	355.88
553.242	360.88
553.455	358.88
553.667	383.88
553.88	374.88
554.093	346.88
554.306	353.88
554.519	359.88
554.732	337.88
554.944	352.88
555.157	341.88
555.37	337.88
555.583	331.88
555.795	333.88
556.008	321.88
556.221	342.88
556.433	324.88
556.646	320.88
556.859	311.88
557.071	324.88
557.284	300.88
557.496	317.88
557.709	316.88
557.921	318.88
558.134	309.88
558.346	310.88
558.559	314.88
558.771	306.88
558.984	308.88
559.196	316.88
559.409	320.88
559.621	328.88
559.833	311.88
560.046	330.88
560.258	308.88
560.47	321.88
560.683	316.88
560.895	343.88
561.107	334.88
561.32	296.88
561.532	302.88
561.744	311.88
561.956	307.88
562.168	311.88
562.381	306.88
562.593	320.88
562.805	337.88
563.017	336.88
563.229	315.88
563.441	323.88
563.653	339.88
563.865	306.88
564.077	317.88
564.289	317.88
564.501	344.88
564.713	345.88
564.925	343.88
565.137	360.88
565.349	339.88
565.561	350.88
565.773	361.88
565.985	352.88
566.197	373.88
566.408	394.88
566.62	393.88
566.832	401.88
567.044	401.88
567.255	402.88
567.467	423.88
567.679	392.88
567.891	440.88
568.102	442.88
568.314	433.88
568.526	413.88
568.737	402.88
568.949	360.88
569.161	366.88
569.372	356.88
569.584	349.88
569.795	336.88
570.007	334.88
570.218	341.88
570.43	341.88
570.641	333.88
570.853	316.88
571.064	318.88
571.276	312.88
571.487	335.88
571.698	314.88
571.91	302.88
572.121	284.88
572.333	284.88
572.544	274.88
572.755	284.88
572.966	295.88
573.178	273.88
573.389	280.88
573.6	281.88
573.811	274.88
574.023	284.88
574.234	268.88
574.445	289.88
574.656	272.88
574.867	287.88
575.078	271.88
575.289	293.88
575.501	287.88
575.712	295.88
575.923	288.88
576.134	278.88
576.345	279.88
576.556	286.88
576.767	264.88
576.978	272.88
577.188	274.88
577.399	274.88
577.61	275.88
577.821	264.88
578.032	271.88
578.243	290.88
578.454	349.88
578.665	305.88
578.875	259.88
579.086	273.88
579.297	279.88
579.508	250.88
579.718	270.88
579.929	266.88
580.14	255.88
580.35	271.88
580.561	273.88
580.772	257.88
580.982	244.88
581.193	260.88
581.403	249.88
581.614	244.88
581.825	252.88
582.035	257.88
582.246	248.88
582.456	248.88
582.667	222.88
582.877	270.88
583.087	257.88
583.298	244.88
583.508	256.88
583.719	253.88
583.929	252.88
584.139	262.88
584.35	242.88
584.56	231.88
584.77	254.88
584.981	244.88
585.191	248.88
585.401	240.88
585.611	240.88
585.821	248.88
586.032	246.88
586.242	253.88
586.452	248.88
586.662	242.88
586.872	247.88
587.082	238.88
587.292	255.88
587.502	246.88
587.713	250.88
587.923	261.88
588.133	251.88
588.343	252.88
588.553	242.88
588.762	253.88
588.972	253.88
589.182	333.88
589.392	345.88
589.602	282.88
589.812	315.88
590.022	302.88
590.232	254.88
590.441	250.88
590.651	260.88
590.861	246.88
591.071	270.88
591.281	254.88
591.49	254.88
591.7	253.88
591.91	249.88
592.119	260.88
592.329	261.88
592.539	285.88
592.748	270.88
592.958	265.88
593.167	252.88
593.377	273.88
593.587	286.88
593.796	278.88
594.006	266.88
594.215	278.88
594.424	277.88
594.634	285.88
594.843	273.88
595.053	266.88
595.262	251.88
595.472	250.88
595.681	256.88
595.89	237.88
596.1	255.88
596.309	260.88
596.518	257.88
596.727	224.88
596.937	244.88
597.146	220.88
597.355	238.88
597.564	234.88
597.774	238.88
597.983	222.88
598.192	227.88
598.401	225.88
598.61	229.88
598.819	225.88
599.028	225.88
599.237	233.88
599.446	236.88
599.655	226.88
599.864	220.88
600.073	232.88
600.282	224.88
600.491	228.88
600.7	224.88
600.909	214.88
601.118	225.88
601.327	217.88
601.536	222.88
601.745	229.88
601.953	227.88
602.162	210.88
602.371	229.88
602.58	218.88
602.789	203.88
602.997	206.88
603.206	224.88
603.415	213.88
603.623	213.88
603.832	209.88
604.041	216.88
604.249	215.88
604.458	215.88
604.666	217.88
604.875	200.88
605.084	202.88
605.292	221.88
605.501	206.88
605.709	191.88
605.918	203.88
606.126	200.88
606.334	193.88
606.543	216.88
606.751	221.88
606.96	204.88
607.168	202.88
607.376	197.88
607.585	216.88
607.793	219.88
608.001	218.88
608.21	210.88
608.418	202.88
608.626	189.88
608.834	199.88
609.043	210.88
609.251	211.88
609.459	198.88
609.667	212.88
609.875	214.88
610.083	191.88
610.291	216.88
610.499	204.88
610.707	210.88
610.916	220.88
611.124	215.88
611.332	206.88
611.54	210.88
611.748	230.88
611.955	211.88
612.163	219.88
612.371	204.88
612.579	215.88
612.787	204.88
612.995	200.88
613.203	200.88
613.411	196.88
613.618	196.88
613.826	200.88
614.034	198.88
614.242	194.88
614.449	199.88
614.657	192.88
614.865	196.88
615.072	205.88
615.28	226.88
615.488	204.88
615.695	210.88
615.903	208.88
616.111	213.88
616.318	219.88
616.526	221.88
616.733	197.88
616.941	200.88
617.148	199.88
617.356	201.88
617.563	221.88
617.771	208.88
617.978	202.88
618.185	205.88
618.393	207.88
618.6	201.88
618.807	210.88
619.015	202.88
619.222	201.88
619.429	192.88
619.637	196.88
619.844	190.88
620.051	188.88
620.258	196.88
620.466	189.88
620.673	192.88
620.88	188.88
621.087	196.88
621.294	178.88
621.501	191.88
621.708	196.88
621.915	190.88
622.122	196.88
622.329	194.88
622.536	191.88
622.743	203.88
622.95	186.88
623.157	194.88
623.364	198.88
623.571	200.88
623.778	188.88
623.985	193.88
624.192	184.88
624.399	201.88
624.606	166.88
624.812	173.88
625.019	174.88
625.226	177.88
625.433	190.88
625.639	167.88
625.846	190.88
626.053	189.88
626.259	181.88
626.466	183.88
626.673	193.88
626.879	177.88
627.086	192.88
627.293	187.88
627.499	184.88
627.706	196.88
627.912	193.88
628.119	181.88
628.325	192.88
628.532	170.88
628.738	193.88
628.945	169.88
629.151	188.88
629.357	184.88
629.564	171.88
629.77	165.88
629.976	171.88
630.183	173.88
630.389	174.88
630.595	172.88
630.802	188.88
631.008	171.88
631.214	169.88
631.42	152.88
631.627	180.88
631.833	181.88
632.039	182.88
632.245	171.88
632.451	165.88
632.657	159.88
632.863	156.88
633.069	152.88
633.275	172.88
633.481	156.88
633.688	158.88
633.893	174.88
634.099	163.88
634.305	169.88
634.511	188.88
634.717	182.88
634.923	152.88
635.129	154.88
635.335	166.88
635.541	166.88
635.747	145.88
635.952	150.88
636.158	177.88
636.364	166.88
636.57	165.88
636.775	173.88
636.981	162.88
637.187	172.88
637.392	167.88
637.598	153.88
637.804	179.88
638.009	164.88
638.215	153.88
638.421	169.88
638.626	157.88
638.832	157.88
639.037	159.88
639.243	162.88
639.448	146.88
639.654	146.88
639.859	158.88
640.065	151.88
640.27	163.88
640.475	159.88
640.681	155.88
640.886	156.88
641.091	164.88
641.297	154.88
641.502	167.88
641.707	154.88
641.913	158.88
642.118	156.88
642.323	138.88
642.528	162.88
642.733	151.88
642.939	155.88
643.144	152.88
643.349	161.88
643.554	157.88
643.759	160.88
643.964	162.88
644.169	154.88
644.374	146.88
644.579	139.88
644.784	144.88
644.989	154.88
645.194	150.88
645.399	165.88
645.604	144.88
645.809	153.88
646.014	158.88
646.219	139.88
646.423	147.88
646.628	166.88
646.833	149.88
647.038	159.88
647.243	160.88
647.447	151.88
647.652	150.88
647.857	148.88
648.062	160.88
648.266	161.88
648.471	169.88
648.676	176.88
648.88	163.88
649.085	169.88
649.289	160.88
649.494	145.88
649.698	158.88
649.903	171.88
650.107	154.88
650.312	152.88
650.516	141.88
650.721	134.88
650.925	151.88
651.13	143.88
651.334	137.88
651.539	150.88
651.743	150.88
651.947	133.88
652.152	141.88
652.356	145.88
652.56	141.88
652.764	129.88
652.969	137.88
653.173	155.88
653.377	128.88
653.581	134.88
653.785	123.88
653.99	126.88
654.194	133.88
654.398	148.88
654.602	139.88
654.806	149.88
655.01	140.88
655.214	140.88
655.418	136.88
655.622	142.88
655.826	140.88
656.03	153.88
656.234	144.88
656.438	150.88
656.642	157.88
656.846	150.88
657.049	145.88
657.253	130.88
657.457	127.88
657.661	124.88
657.865	140.88
658.068	125.88
658.272	128.88
658.476	117.88
658.68	116.88
658.883	109.88
659.087	120.88
659.291	101.88
659.494	92.88
659.698	100.88
659.901	101.88
660.105	103.88
660.309	108.88
660.512	97.88
660.716	106.88
660.919	93.88
661.123	91.88
661.326	75.88
661.53	102.88
661.733	96.88
661.936	89.88
662.14	95.88
662.343	95.88
662.546	92.88
662.75	83.88
662.953	92.88
663.156	81.88
663.36	81.88
663.563	94.88
663.766	103.88
663.969	78.88
664.173	90.88
664.376	77.88
664.579	97.88
664.782	81.88
664.985	74.88
665.188	88.88
665.391	95.88
665.594	73.88
665.797	77.88
666	90.88
666.203	97.88
666.406	82.88
666.609	75.88
666.812	89.88
667.015	89.88
667.218	92.88
667.421	90.88
667.624	80.88
667.827	81.88
668.03	85.88
668.232	90.88
668.435	89.88
668.638	96.88
668.841	93.88
669.043	79.88
669.246	70.88
669.449	91.88
669.651	88.88
669.854	84.88
670.057	98.88
670.259	66.88
670.462	88.88
670.665	65.88
670.867	88.88
671.07	87.88
671.272	94.88
671.475	89.88
671.677	90.88
671.88	76.88
672.082	93.88
672.284	93.88
672.487	78.88
672.689	84.88
672.892	88.88
